Data from AgNPs_APTES_FTO_UA_100uM_CRN_0uM_R6G_10uM_Scan_RamanShift__61__11-50-51-310.txt Node

Date: Wed Jun 29 11:50:51 BST 2022
User: TCL
Spectrometer: QEP01345
Trigger mode: 4
Integration Time (sec): 7.000000E0
Scans to average: 10
Electric dark correction enabled: true
Nonlinearity correction enabled: false
Boxcar width: 0
XAxis mode: Raman Shifts
Number of Pixels in Spectrum: 1044
>>>>>Begin Spectral Data<<<<<
46.04893	0.1125
50.45542	-0.0875
54.85868	0.3125
59.25871	0.9125
63.6555	41.0125
68.04907	44.0125
72.43941	44.9125
76.82654	47.8125
81.21044	53.2125
85.59113	57.7125
89.96862	60.3125
94.34289	60.0125
98.71396	59.9125
103.08183	63.4125
107.4465	63.4125
111.80798	63.7125
116.16626	61.5125
120.52136	62.5125
124.87327	60.6125
129.222	61.3125
133.56755	57.8125
137.90993	59.0125
142.24913	59.1125
146.58517	56.4125
150.91804	57.2125
155.24774	60.8125
159.57429	66.5125
163.89768	67.0125
168.21792	76.7125
172.53501	93.8125
176.84895	113.4125
181.15975	144.3125
185.46741	189.4125
189.77193	241.1125
194.07331	319.7125
198.37157	406.1125
202.6667	494.2125
206.9587	578.9125
211.24758	671.2125
215.53334	768.6125
219.81599	886.7125
224.09553	992.0125
228.37195	1135.5125
232.64527	1270.1125
236.91549	1411.7125
241.18261	1519.4125
245.44663	1618.0125
249.70755	1700.8125
253.96539	1759.6125
258.22014	1809.4125
262.4718	1844.1125
266.72039	1865.0125
270.96589	1841.2125
275.20832	1806.6125
279.44768	1763.8125
283.68397	1718.2125
287.91719	1688.1125
292.14735	1691.7125
296.37445	1737.1125
300.59849	1825.3125
304.81948	1939.3125
309.03742	2033.3125
313.25231	2076.0125
317.46415	1990.1125
321.67296	1831.6125
325.87872	1691.4125
330.08145	1647.8125
334.28114	1646.9125
338.47781	1698.8125
342.67145	1747.2125
346.86207	1828.1125
351.04966	1974.5125
355.23424	2126.8125
359.4158	2222.7125
363.59435	2246.8125
367.76989	2231.5125
371.94243	2191.8125
376.11196	2155.5125
380.27849	2123.7125
384.44203	2099.2125
388.60257	2061.7125
392.76012	2061.9125
396.91468	2079.0125
401.06626	2134.1125
405.21485	2163.6125
409.36047	2101.8125
413.50311	2005.3125
417.64277	1903.6125
421.77947	1829.6125
425.9132	1799.3125
430.04396	1808.7125
434.17176	1813.7125
438.2966	1850.4125
442.41849	1886.0125
446.53742	1938.7125
450.6534	1981.4125
454.76644	1987.0125
458.87653	1985.2125
462.98368	1969.2125
467.08789	1941.6125
471.18916	1898.2125
475.2875	1874.5125
479.38291	1860.0125
483.4754	1840.5125
487.56496	1842.7125
491.6516	1841.5125
495.73531	1849.7125
499.81612	1842.8125
503.89401	1849.9125
507.96899	1874.4125
512.04106	1901.2125
516.11023	1947.4125
520.1765	1978.1125
524.23987	1989.3125
528.30034	1975.1125
532.35792	1969.4125
536.41261	1940.7125
540.46441	1890.7125
544.51333	1871.2125
548.55936	1872.6125
552.60252	1899.7125
556.64279	1924.2125
560.6802	1970.3125
564.71473	2051.5125
568.7464	2158.7125
572.7752	2168.7125
576.80114	2022.4125
580.82422	1914.3125
584.84444	1870.9125
588.86181	1870.7125
592.87633	1884.6125
596.888	1924.8125
600.89682	2015.2125
604.9028	2321.2125
608.90594	3068.2125
612.90624	3930.3125
616.90371	3726.5125
620.89834	2667.5125
624.89015	2205.1125
628.87913	2188.8125
632.86528	2248.9125
636.84862	2287.5125
640.82913	2216.2125
644.80683	2080.6125
648.78172	1978.5125
652.75379	1968.9125
656.72306	2033.2125
660.68952	2096.6125
664.65319	2058.7125
668.61405	1950.0125
672.57211	1899.2125
676.52738	1905.3125
680.47986	1892.1125
684.42955	1880.4125
688.37646	1881.5125
692.32058	1891.1125
696.26192	1909.5125
700.20048	1938.5125
704.13626	1933.9125
708.06928	1926.7125
711.99952	1912.9125
715.927	1915.7125
719.85171	1939.4125
723.77365	1955.5125
727.69284	1947.1125
731.60928	1935.7125
735.52295	1924.0125
739.43388	1933.7125
743.34206	1935.7125
747.24749	1939.2125
751.15017	1941.4125
755.05012	1950.8125
758.94733	2107.3125
762.8418	2411.6125
766.73354	2822.0125
770.62254	3125.6125
774.50882	3226.9125
778.39237	3127.5125
782.27321	2760.1125
786.15132	2344.7125
790.02671	2102.8125
793.89938	1998.9125
797.76935	1970.3125
801.6366	1964.7125
805.50115	1990.8125
809.36299	2017.1125
813.22213	2017.9125
817.07857	2006.6125
820.93231	1981.8125
824.78336	1964.8125
828.63172	1958.3125
832.47738	1962.2125
836.32036	1943.9125
840.16066	1923.0125
843.99827	1914.7125
847.8332	1907.3125
851.66546	1899.5125
855.49504	1914.6125
859.32195	1905.2125
863.1462	1911.8125
866.96777	1907.2125
870.78668	1923.7125
874.60293	1927.0125
878.41652	1972.0125
882.22745	2003.6125
886.03573	2029.1125
889.84136	2029.7125
893.64433	2031.7125
897.44466	1989.7125
901.24235	1975.5125
905.0374	1943.5125
908.8298	1919.3125
912.61957	1901.2125
916.40671	1883.0125
920.19121	1881.2125
923.97308	1910.6125
927.75233	1949.4125
931.52895	1999.1125
935.30295	1978.4125
939.07433	1913.2125
942.84309	1859.7125
946.60924	1840.2125
950.37278	1830.8125
954.13371	1824.1125
957.89203	1821.9125
961.64774	1819.8125
965.40086	1808.6125
969.15137	1805.7125
972.89929	1800.1125
976.64461	1796.8125
980.38733	1799.4125
984.12747	1812.0125
987.86502	1814.2125
991.59999	1825.1125
995.33237	1843.3125
999.06217	1886.3125
1002.78939	1939.5125
1006.51404	1974.6125
1010.23611	2011.2125
1013.95561	2019.2125
1017.67255	2025.5125
1021.38692	2001.2125
1025.09872	1983.3125
1028.80796	1982.4125
1032.51465	1997.8125
1036.21877	2012.4125
1039.92035	2030.0125
1043.61937	2007.5125
1047.31584	2001.9125
1051.00976	1972.8125
1054.70114	1945.6125
1058.38998	1959.6125
1062.07627	1955.4125
1065.76003	1954.3125
1069.44126	1977.5125
1073.11995	1999.1125
1076.79611	2034.2125
1080.46974	2102.4125
1084.14085	2172.5125
1087.80943	2224.4125
1091.47549	2205.6125
1095.13903	2145.8125
1098.80005	2071.8125
1102.45857	2023.6125
1106.11456	2020.1125
1109.76805	2049.8125
1113.41903	2138.3125
1117.06751	2249.2125
1120.71348	2434.9125
1124.35696	2641.9125
1127.99793	2765.4125
1131.63641	2678.4125
1135.2724	2512.3125
1138.90589	2362.1125
1142.5369	2274.6125
1146.16542	2183.6125
1149.79145	2122.9125
1153.415	2074.7125
1157.03607	2069.7125
1160.65467	2075.0125
1164.27079	2125.5125
1167.88443	2224.8125
1171.49561	2397.2125
1175.10432	2662.3125
1178.71056	3014.7125
1182.31434	3263.9125
1185.91565	3299.5125
1189.51451	3186.3125
1193.11091	2979.3125
1196.70485	2808.0125
1200.29634	2712.3125
1203.88538	2620.4125
1207.47197	2458.3125
1211.05612	2312.5125
1214.63782	2206.7125
1218.21708	2157.1125
1221.79391	2113.6125
1225.36829	2107.6125
1228.94024	2094.0125
1232.50976	2090.2125
1236.07685	2090.7125
1239.6415	2100.5125
1243.20374	2122.2125
1246.76355	2137.9125
1250.32093	2163.9125
1253.8759	2219.5125
1257.42845	2278.9125
1260.97859	2348.8125
1264.52631	2437.2125
1268.07163	2495.6125
1271.61453	2526.4125
1275.15503	2541.2125
1278.69312	2555.3125
1282.22882	2590.4125
1285.76211	2684.6125
1289.29301	2786.9125
1292.82151	2853.6125
1296.34761	2925.7125
1299.87133	3108.8125
1303.39266	3447.6125
1306.9116	3984.0125
1310.42815	4538.3125
1313.94233	4667.3125
1317.45412	4286.7125
1320.96354	3704.4125
1324.47058	3224.1125
1327.97525	2900.4125
1331.47754	2733.4125
1334.97747	2687.2125
1338.47502	2758.3125
1341.97022	2946.7125
1345.46305	3222.8125
1348.95352	3542.7125
1352.44163	3921.4125
1355.92738	4515.8125
1359.41078	5437.8125
1362.89183	6112.6125
1366.37053	5564.4125
1369.84688	4357.1125
1373.32088	3508.0125
1376.79254	3068.0125
1380.26186	2818.3125
1383.72883	2620.9125
1387.19347	2472.6125
1390.65578	2334.6125
1394.11575	2242.6125
1397.57339	2199.9125
1401.0287	2179.8125
1404.48168	2167.1125
1407.93234	2160.0125
1411.38068	2187.2125
1414.82669	2226.8125
1418.27039	2229.7125
1421.71177	2206.0125
1425.15083	2199.9125
1428.58758	2250.2125
1432.02203	2286.1125
1435.45416	2316.5125
1438.88399	2279.4125
1442.31151	2245.5125
1445.73673	2253.6125
1449.15965	2256.2125
1452.58027	2248.5125
1455.9986	2211.8125
1459.41463	2204.8125
1462.82837	2230.6125
1466.23982	2279.8125
1469.64898	2317.2125
1473.05586	2329.9125
1476.46045	2321.2125
1479.86276	2348.3125
1483.26279	2406.4125
1486.66054	2511.9125
1490.05602	2645.7125
1493.44922	2851.9125
1496.84016	3202.1125
1500.22882	3715.5125
1503.61521	4409.4125
1506.99934	5258.2125
1510.38121	5924.7125
1513.76081	5969.2125
1517.13816	5338.1125
1520.51324	4391.2125
1523.88607	3586.2125
1527.25665	3077.0125
1530.62498	2803.2125
1533.99105	2619.4125
1537.35488	2521.2125
1540.71647	2474.1125
1544.07581	2479.3125
1547.4329	2507.0125
1550.78776	2540.7125
1554.14038	2572.1125
1557.49077	2620.5125
1560.83892	2704.4125
1564.18484	2819.3125
1567.52853	2946.6125
1570.86999	3051.1125
1574.20922	3060.0125
1577.54624	2997.0125
1580.88103	2795.5125
1584.2136	2558.4125
1587.54395	2406.5125
1590.87208	2390.8125
1594.19801	2510.5125
1597.52172	2682.1125
1600.84321	2757.8125
1604.16251	2685.9125
1607.47959	2555.3125
1610.79447	2414.8125
1614.10715	2271.3125
1617.41763	2193.4125
1620.7259	2118.0125
1624.03199	2113.7125
1627.33587	2136.9125
1630.63757	2184.6125
1633.93707	2289.0125
1637.23439	2487.4125
1640.52951	2799.4125
1643.82246	3283.3125
1647.11321	3836.6125
1650.40179	4142.2125
1653.68819	3954.1125
1656.97241	3334.2125
1660.25446	2743.2125
1663.53433	2346.7125
1666.81203	2124.2125
1670.08756	1999.8125
1673.36092	1928.0125
1676.63211	1870.4125
1679.90115	1848.0125
1683.16801	1801.7125
1686.43272	1787.5125
1689.69527	1777.5125
1692.95567	1759.8125
1696.2139	1752.9125
1699.46999	1746.2125
1702.72392	1729.5125
1705.97571	1719.9125
1709.22535	1713.9125
1712.47284	1695.2125
1715.71819	1701.1125
1718.96139	1700.0125
1722.20246	1693.6125
1725.44139	1674.2125
1728.67818	1652.9125
1731.91284	1639.8125
1735.14537	1629.4125
1738.37576	1627.7125
1741.60403	1621.2125
1744.83017	1606.6125
1748.05418	1601.4125
1751.27607	1598.3125
1754.49584	1588.2125
1757.71349	1595.8125
1760.92903	1584.5125
1764.14244	1576.4125
1767.35375	1576.0125
1770.56294	1571.8125
1773.77002	1552.1125
1776.97499	1545.6125
1780.17785	1537.4125
1783.37861	1541.8125
1786.57727	1539.7125
1789.77382	1534.9125
1792.96828	1533.0125
1796.16064	1540.2125
1799.3509	1536.9125
1802.53907	1535.9125
1805.72514	1531.8125
1808.90913	1513.0125
1812.09102	1516.7125
1815.27083	1513.8125
1818.44856	1501.2125
1821.6242	1511.4125
1824.79776	1495.7125
1827.96924	1493.3125
1831.13864	1494.9125
1834.30597	1493.4125
1837.47122	1483.1125
1840.6344	1479.5125
1843.7955	1484.9125
1846.95454	1475.8125
1850.11151	1487.3125
1853.26642	1483.2125
1856.41926	1483.1125
1859.57004	1479.0125
1862.71876	1476.3125
1865.86542	1475.9125
1869.01003	1482.5125
1872.15258	1478.7125
1875.29308	1476.3125
1878.43152	1476.6125
1881.56792	1474.4125
1884.70227	1468.0125
1887.83457	1478.4125
1890.96482	1467.8125
1894.09304	1467.4125
1897.21921	1460.0125
1900.34335	1447.4125
1903.46544	1454.2125
1906.58551	1465.8125
1909.70353	1455.7125
1912.81953	1456.6125
1915.93349	1457.8125
1919.04543	1454.4125
1922.15534	1450.6125
1925.26322	1446.0125
1928.36908	1453.0125
1931.47292	1440.9125
1934.57473	1435.7125
1937.67453	1442.8125
1940.77232	1435.9125
1943.86808	1435.2125
1946.96184	1416.9125
1950.05358	1423.8125
1953.14331	1420.1125
1956.23103	1414.0125
1959.31675	1407.6125
1962.40046	1408.5125
1965.48217	1403.9125
1968.56188	1404.6125
1971.63959	1400.6125
1974.7153	1398.1125
1977.78901	1383.7125
1980.86073	1380.2125
1983.93046	1372.7125
1986.99819	1363.8125
1990.06394	1360.3125
1993.1277	1355.4125
1996.18947	1352.7125
1999.24925	1346.9125
2002.30706	1354.5125
2005.36288	1346.8125
2008.41672	1341.1125
2011.46859	1330.9125
2014.51848	1329.0125
2017.56639	1329.2125
2020.61233	1324.5125
2023.6563	1319.2125
2026.6983	1314.5125
2029.73833	1320.4125
2032.7764	1317.8125
2035.8125	1313.2125
2038.84664	1309.8125
2041.87881	1313.4125
2044.90903	1307.1125
2047.93729	1305.9125
2050.96359	1300.7125
2053.98794	1303.7125
2057.01034	1296.6125
2060.03078	1304.3125
2063.04927	1298.7125
2066.06582	1295.2125
2069.08042	1287.9125
2072.09307	1292.7125
2075.10378	1290.8125
2078.11255	1298.7125
2081.11938	1297.6125
2084.12426	1287.8125
2087.12722	1300.3125
2090.12824	1282.5125
2093.12732	1295.3125
2096.12447	1286.1125
2099.11969	1287.7125
2102.11299	1292.9125
2105.10435	1293.9125
2108.09379	1286.9125
2111.08131	1292.1125
2114.0669	1293.5125
2117.05057	1306.6125
2120.03233	1306.3125
2123.01216	1306.0125
2125.99008	1302.9125
2128.96609	1316.5125
2131.94018	1314.0125
2134.91236	1309.3125
2137.88263	1315.0125
2140.851	1310.1125
2143.81746	1311.0125
2146.78201	1301.6125
2149.74466	1300.7125
2152.7054	1312.3125
2155.66425	1299.8125
2158.6212	1309.4125
2161.57625	1300.3125
2164.52941	1299.4125
2167.48067	1300.4125
2170.43004	1301.0125
2173.37752	1298.1125
2176.32311	1301.3125
2179.26681	1309.1125
2182.20863	1304.5125
2185.14856	1307.4125
2188.08661	1303.3125
2191.02278	1302.1125
2193.95707	1298.6125
2196.88948	1298.8125
2199.82001	1298.5125
2202.74867	1289.5125
2205.67545	1302.7125
2208.60037	1290.2125
2211.52341	1297.9125
2214.44458	1295.1125
2217.36388	1281.7125
2220.28132	1284.2125
2223.1969	1291.2125
2226.11061	1284.3125
2229.02246	1281.9125
2231.93245	1276.6125
2234.84058	1279.5125
2237.74686	1281.8125
2240.65128	1269.9125
2243.55385	1272.2125
2246.45456	1263.9125
2249.35343	1278.3125
2252.25044	1276.2125
2255.14561	1280.7125
2258.03893	1284.3125
2260.93041	1272.6125
2263.82004	1263.3125
2266.70783	1271.0125
2269.59378	1265.4125
2272.4779	1257.7125
2275.36017	1253.8125
2278.24061	1254.2125
2281.11922	1251.5125
2283.996	1247.6125
2286.87094	1256.8125
2289.74405	1242.0125
2292.61534	1249.0125
2295.4848	1253.6125
2298.35243	1239.7125
2301.21824	1240.2125
2304.08223	1246.3125
2306.94439	1243.0125
2309.80474	1244.4125
2312.66327	1240.4125
2315.51999	1245.8125
2318.37489	1248.5125
2321.22797	1230.2125
2324.07925	1242.3125
2326.92871	1232.6125
2329.77637	1236.6125
2332.62222	1242.5125
2335.46626	1232.8125
2338.3085	1236.4125
2341.14893	1234.0125
2343.98756	1231.5125
2346.8244	1241.1125
2349.65943	1239.8125
2352.49267	1228.5125
2355.32411	1227.7125
2358.15376	1230.1125
2360.98161	1232.3125
2363.80768	1241.7125
2366.63195	1240.3125
2369.45444	1244.1125
2372.27514	1237.0125
2375.09405	1241.8125
2377.91118	1240.8125
2380.72652	1233.8125
2383.54009	1225.1125
2386.35187	1220.4125
2389.16188	1221.6125
2391.97011	1215.2125
2394.77657	1215.7125
2397.58125	1209.1125
2400.38416	1201.2125
2403.18529	1200.0125
2405.98466	1196.9125
2408.78226	1199.6125
2411.57809	1203.2125
2414.37216	1201.5125
2417.16446	1195.1125
2419.955	1200.3125
2422.74378	1200.0125
2425.5308	1194.2125
2428.31606	1198.3125
2431.09956	1196.2125
2433.88131	1196.1125
2436.6613	1193.7125
2439.43954	1196.2125
2442.21603	1193.1125
2444.99077	1196.1125
2447.76377	1202.6125
2450.53501	1202.2125
2453.30451	1200.8125
2456.07226	1200.9125
2458.83827	1200.1125
2461.60254	1183.4125
2464.36507	1184.9125
2467.12586	1196.0125
2469.88492	1195.9125
2472.64224	1193.2125
2475.39782	1190.5125
2478.15167	1192.1125
2480.90379	1197.5125
2483.65417	1204.3125
2486.40283	1202.5125
2489.14976	1202.7125
2491.89497	1200.0125
2494.63845	1202.1125
2497.3802	1210.4125
2500.12024	1197.2125
2502.85855	1191.0125
2505.59514	1189.2125
2508.33002	1190.0125
2511.06318	1189.7125
2513.79462	1182.3125
2516.52435	1177.8125
2519.25237	1174.2125
2521.97867	1171.9125
2524.70327	1171.0125
2527.42616	1176.0125
2530.14734	1162.8125
2532.86681	1165.3125
2535.58458	1170.5125
2538.30065	1172.1125
2541.01501	1167.2125
2543.72768	1167.7125
2546.43864	1170.1125
2549.14791	1170.0125
2551.85548	1162.9125
2554.56136	1165.2125
2557.26554	1168.0125
2559.96803	1160.0125
2562.66883	1165.7125
2565.36794	1160.3125
2568.06536	1166.5125
2570.7611	1157.1125
2573.45514	1151.1125
2576.14751	1151.8125
2578.83819	1145.4125
2581.52719	1151.8125
2584.21451	1146.8125
2586.90015	1143.4125
2589.58411	1142.0125
2592.2664	1145.2125
2594.94701	1143.8125
2597.62594	1145.4125
2600.30321	1150.5125
2602.9788	1148.7125
2605.65273	1143.2125
2608.32498	1145.0125
2610.99557	1135.0125
2613.66449	1134.3125
2616.33175	1142.8125
2618.99734	1143.7125
2621.66128	1138.2125
2624.32355	1133.8125
2626.98416	1136.6125
2629.64311	1130.6125
2632.30041	1129.1125
2634.95605	1132.8125
2637.61004	1133.8125
2640.26238	1129.1125
2642.91306	1128.3125
2645.56209	1121.7125
2648.20948	1125.6125
2650.85521	1119.7125
2653.4993	1128.4125
2656.14175	1131.1125
2658.78255	1125.0125
2661.42171	1130.6125
2664.05923	1126.2125
2666.6951	1135.3125
2669.32934	1128.8125
2671.96194	1135.2125
2674.59291	1133.0125
2677.22224	1137.9125
2679.84993	1135.1125
2682.476	1131.9125
2685.10043	1133.3125
2687.72324	1133.9125
2690.34441	1133.5125
2692.96396	1129.7125
2695.58188	1130.5125
2698.19818	1131.4125
2700.81285	1129.9125
2703.4259	1129.3125
2706.03733	1126.8125
2708.64714	1125.1125
2711.25533	1121.8125
2713.86191	1127.3125
2716.46687	1132.3125
2719.07021	1131.5125
2721.67194	1135.0125
2724.27206	1132.3125
2726.87057	1135.2125
2729.46747	1138.1125
2732.06276	1146.5125
2734.65644	1136.2125
2737.24852	1133.4125
2739.83899	1140.0125
2742.42786	1140.8125
2745.01513	1130.6125
2747.60079	1128.2125
2750.18486	1128.7125
2752.76733	1123.7125
2755.3482	1124.7125
2757.92747	1121.1125
2760.50515	1118.6125
2763.08123	1116.3125
2765.65573	1128.3125
2768.22863	1117.0125
2770.79994	1122.8125
2773.36967	1116.5125
2775.9378	1123.5125
2778.50435	1121.6125
2781.06932	1123.6125
2783.6327	1124.3125
2786.1945	1123.8125
2788.75471	1120.5125
2791.31335	1117.4125
2793.87041	1119.9125
2796.42589	1125.5125
2798.97979	1115.9125
2801.53212	1121.8125
2804.08288	1118.6125
2806.63206	1111.6125
2809.17967	1110.0125
2811.72571	1112.8125
2814.27018	1113.7125
2816.81308	1110.2125
2819.35442	1122.3125
2821.89419	1112.0125
2824.43239	1117.8125
2826.96904	1117.8125
2829.50412	1109.4125
2832.03763	1109.1125
2834.56959	1122.0125
2837.1	1114.6125
2839.62884	1112.9125
2842.15613	1103.9125
2844.68186	1107.2125
2847.20604	1111.1125
2849.72867	1110.9125
2852.24974	1121.3125
2854.76927	1131.7125
2857.28724	1123.5125
2859.80367	1122.0125
2862.31855	1132.7125
2864.83189	1128.6125
2867.34368	1123.2125
2869.85393	1132.9125
2872.36264	1122.6125
2874.8698	1135.7125
2877.37543	1127.3125
2879.87952	1130.8125
2882.38207	1128.2125
2884.88308	1123.4125
2887.38256	1121.9125
2889.88051	1124.7125
2892.37692	1125.9125
2894.8718	1127.0125
2897.36515	1142.3125
2899.85698	1135.7125
2902.34727	1133.4125
2904.83604	1141.7125
2907.32328	1143.4125
2909.809	1140.3125
2912.29319	1136.0125
2914.77587	1146.7125
2917.25702	1133.9125
2919.73665	1132.6125
2922.21476	1139.9125
2924.69136	1130.2125
2927.16644	1134.1125
2929.64	1127.4125
2932.11205	1129.7125
2934.58258	1133.4125
2937.05161	1127.9125
2939.51912	1127.6125
2941.98513	1131.2125
2944.44962	1127.5125
2946.91261	1128.3125
2949.37409	1135.6125
2951.83407	1132.4125
2954.29254	1137.8125
2956.74951	1137.0125
2959.20498	1139.0125
2961.65895	1141.0125
2964.11142	1147.0125
2966.56239	1139.1125
2969.01186	1140.5125
2971.45984	1139.3125
2973.90632	1136.1125
2976.35131	1135.1125
2978.7948	1135.4125
2981.23681	1138.9125
2983.67732	1137.2125
2986.11635	1132.3125
2988.55388	1127.7125
2990.98993	1126.9125
2993.4245	1128.1125
2995.85758	1130.7125
2998.28917	1131.8125
3000.71928	1131.2125
3003.14791	1139.0125
3005.57506	1137.8125
3008.00073	1134.7125
3010.42493	1134.4125
3012.84764	1136.2125
3015.26888	1141.0125
3017.68865	1144.1125
3020.10694	1141.0125
3022.52376	1146.3125
3024.9391	1141.3125
3027.35298	1140.3125
3029.76539	1152.5125
3032.17632	1145.5125
3034.5858	1142.1125
3036.9938	1151.1125
3039.40034	1148.6125
3041.80542	1149.6125
3044.20903	1155.9125
3046.61118	1155.3125
3049.01187	1153.8125
3051.4111	1165.3125
3053.80888	1164.1125
3056.20519	1166.5125
3058.60005	1164.0125
3060.99345	1167.5125
3063.3854	1156.8125
3065.7759	1160.2125
3068.16494	1163.7125
3070.55254	1167.9125
3072.93868	1176.4125
3075.32338	1162.8125
3077.70662	1172.8125
3080.08842	1176.0125
3082.46878	1175.5125
3084.84769	1176.9125
3087.22515	1184.6125
3089.60118	1191.7125
3091.97576	1205.2125
3094.3489	1210.3125
3096.72061	1205.5125
3099.09087	1205.0125
3101.4597	1212.7125
3103.82709	1226.4125
3106.19305	1229.0125
3108.55757	1243.1125
3110.92066	1237.5125
3113.28232	1260.8125
3115.64255	1251.0125
3118.00134	1255.2125
3120.35871	1261.4125
3122.71466	1265.6125
3125.06917	1270.3125
3127.42226	1277.5125
3129.77393	1277.1125
3132.12417	1287.1125
3134.47299	1289.6125
3136.82039	1306.2125
3139.16636	1309.5125
3141.51092	1316.1125
3143.85406	1313.8125
3146.19579	1321.6125
3148.53609	1328.3125
3150.87499	1345.0125
3153.21246	1347.7125
3155.54853	1356.5125
3157.88318	1367.0125
3160.21642	1375.2125
3162.54826	1388.1125
3164.87868	1394.2125
3167.2077	1395.6125
3169.5353	1402.1125
3171.86151	1408.5125
3174.18631	1419.9125
3176.5097	1422.1125
3178.83169	1423.8125
3181.15228	1440.9125
3183.47147	1434.4125
3185.78926	1434.9125
3188.10565	1452.3125
3190.42065	1458.4125
3192.73424	1459.6125
3195.04645	1457.6125
3197.35725	1460.6125
3199.66667	1467.8125
3201.97469	1474.6125
3204.28132	1495.3125
3206.58656	1491.4125
3208.8904	1505.8125
3211.19287	1510.1125
3213.49394	1520.9125
3215.79363	1509.8125
3218.09193	1527.7125
3220.38884	1533.6125
3222.68438	1537.4125
3224.97853	1534.4125
3227.2713	1548.9125
3229.56269	1537.0125
3231.8527	1541.6125
3234.14133	1541.3125
3236.42858	1539.8125
3238.71446	1544.8125
3240.99896	1534.9125
3243.28209	1541.0125
3245.56384	1539.0125
3247.84423	1541.6125
3250.12324	1530.4125
3252.40088	1534.4125
3254.67715	1540.6125
3256.95205	1541.3125
3259.22558	1547.2125
3261.49775	1546.8125
3263.76855	1542.6125
3266.03799	1549.7125
3268.30606	1552.7125
3270.57277	1550.7125
3272.83812	1547.8125
3275.10211	1543.8125
3277.36474	1544.0125
3279.62601	1541.3125
3281.88593	1540.3125
3284.14448	1543.3125
3286.40168	1538.1125
3288.65753	1555.4125
3290.91202	1541.0125
3293.16516	1532.4125
3295.41695	1538.1125
3297.66738	1526.2125
3299.91647	1514.0125
3302.16421	1521.0125
3304.4106	1503.5125
3306.65564	1492.6125
3308.89933	1471.6125
3311.14169	1476.1125
3313.38269	1462.1125
3315.62236	1451.7125
3317.86068	1443.4125
3320.09766	1424.7125
3322.3333	1417.8125
3324.5676	1412.4125
3326.80056	1401.5125
3329.03219	1392.4125
3331.26248	0.2125
3333.49143	0.8125
3335.71905	-2.0875
