Data from AgNPs_APTES_FTO_UA_100uM_CRN_0uM_R6G_10uM_Scan_RamanShift__49__11-36-51-294.txt Node

Date: Wed Jun 29 11:36:51 BST 2022
User: TCL
Spectrometer: QEP01345
Trigger mode: 4
Integration Time (sec): 7.000000E0
Scans to average: 10
Electric dark correction enabled: true
Nonlinearity correction enabled: false
Boxcar width: 0
XAxis mode: Raman Shifts
Number of Pixels in Spectrum: 1044
>>>>>Begin Spectral Data<<<<<
46.04893	1.0125
50.45542	0.4125
54.85868	0.5125
59.25871	0.7125
63.6555	38.5125
68.04907	38.9125
72.43941	43.4125
76.82654	45.0125
81.21044	48.2125
85.59113	47.8125
89.96862	57.2125
94.34289	56.0125
98.71396	56.3125
103.08183	59.4125
107.4465	58.4125
111.80798	60.6125
116.16626	58.6125
120.52136	59.2125
124.87327	57.9125
129.222	56.6125
133.56755	56.1125
137.90993	55.3125
142.24913	56.3125
146.58517	52.6125
150.91804	54.8125
155.24774	56.5125
159.57429	62.3125
163.89768	60.6125
168.21792	70.2125
172.53501	86.6125
176.84895	99.0125
181.15975	131.0125
185.46741	162.8125
189.77193	210.6125
194.07331	273.5125
198.37157	341.8125
202.6667	419.6125
206.9587	492.5125
211.24758	567.7125
215.53334	647.6125
219.81599	731.5125
224.09553	808.6125
228.37195	908.7125
232.64527	1015.3125
236.91549	1113.7125
241.18261	1215.2125
245.44663	1308.4125
249.70755	1366.4125
253.96539	1428.3125
258.22014	1474.2125
262.4718	1520.7125
266.72039	1542.8125
270.96589	1544.4125
275.20832	1529.2125
279.44768	1503.0125
283.68397	1465.5125
287.91719	1446.6125
292.14735	1431.3125
296.37445	1446.0125
300.59849	1488.9125
304.81948	1524.5125
309.03742	1570.6125
313.25231	1572.5125
317.46415	1545.8125
321.67296	1462.4125
325.87872	1396.1125
330.08145	1380.4125
334.28114	1378.9125
338.47781	1404.1125
342.67145	1431.2125
346.86207	1478.2125
351.04966	1541.9125
355.23424	1624.8125
359.4158	1677.6125
363.59435	1701.6125
367.76989	1731.0125
371.94243	1728.3125
376.11196	1729.3125
380.27849	1733.5125
384.44203	1717.5125
388.60257	1721.6125
392.76012	1717.6125
396.91468	1728.8125
401.06626	1755.5125
405.21485	1786.4125
409.36047	1759.2125
413.50311	1707.7125
417.64277	1656.6125
421.77947	1625.2125
425.9132	1611.8125
430.04396	1612.8125
434.17176	1621.7125
438.2966	1640.2125
442.41849	1671.8125
446.53742	1700.7125
450.6534	1725.5125
454.76644	1752.6125
458.87653	1748.3125
462.98368	1744.1125
467.08789	1737.2125
471.18916	1722.7125
475.2875	1700.2125
479.38291	1689.9125
483.4754	1685.1125
487.56496	1696.5125
491.6516	1703.7125
495.73531	1709.8125
499.81612	1706.2125
503.89401	1706.0125
507.96899	1710.0125
512.04106	1709.8125
516.11023	1735.0125
520.1765	1755.3125
524.23987	1753.5125
528.30034	1767.5125
532.35792	1761.2125
536.41261	1750.2125
540.46441	1707.6125
544.51333	1700.0125
548.55936	1681.3125
552.60252	1697.9125
556.64279	1715.9125
560.6802	1728.6125
564.71473	1754.3125
568.7464	1799.3125
572.7752	1812.1125
576.80114	1765.7125
580.82422	1728.9125
584.84444	1713.4125
588.86181	1729.5125
592.87633	1748.5125
596.888	1775.6125
600.89682	1814.5125
604.9028	1963.1125
608.90594	2345.0125
612.90624	2798.8125
616.90371	2711.6125
620.89834	2172.5125
624.89015	1951.6125
628.87913	1966.0125
632.86528	2027.7125
636.84862	2060.8125
640.82913	2031.2125
644.80683	1946.0125
648.78172	1863.1125
652.75379	1840.5125
656.72306	1835.9125
660.68952	1879.6125
664.65319	1860.6125
668.61405	1814.6125
672.57211	1780.0125
676.52738	1797.9125
680.47986	1812.4125
684.42955	1810.4125
688.37646	1826.8125
692.32058	1821.5125
696.26192	1819.6125
700.20048	1814.5125
704.13626	1811.2125
708.06928	1795.6125
711.99952	1767.0125
715.927	1777.0125
719.85171	1781.9125
723.77365	1798.2125
727.69284	1808.6125
731.60928	1802.8125
735.52295	1783.3125
739.43388	1780.4125
743.34206	1784.8125
747.24749	1775.9125
751.15017	1779.6125
755.05012	1766.6125
758.94733	1847.2125
762.8418	1972.3125
766.73354	2184.7125
770.62254	2387.5125
774.50882	2493.2125
778.39237	2431.8125
782.27321	2232.5125
786.15132	2017.3125
790.02671	1880.8125
793.89938	1821.4125
797.76935	1815.6125
801.6366	1816.0125
805.50115	1829.7125
809.36299	1865.0125
813.22213	1876.2125
817.07857	1843.3125
820.93231	1820.3125
824.78336	1787.9125
828.63172	1772.9125
832.47738	1773.9125
836.32036	1763.1125
840.16066	1759.8125
843.99827	1766.7125
847.8332	1750.6125
851.66546	1750.2125
855.49504	1752.7125
859.32195	1751.6125
863.1462	1761.5125
866.96777	1750.4125
870.78668	1757.5125
874.60293	1776.9125
878.41652	1803.8125
882.22745	1838.4125
886.03573	1860.1125
889.84136	1866.1125
893.64433	1848.9125
897.44466	1826.2125
901.24235	1789.3125
905.0374	1758.3125
908.8298	1743.5125
912.61957	1731.5125
916.40671	1725.5125
920.19121	1731.7125
923.97308	1738.8125
927.75233	1764.2125
931.52895	1778.1125
935.30295	1767.9125
939.07433	1734.3125
942.84309	1716.7125
946.60924	1698.7125
950.37278	1707.4125
954.13371	1693.3125
957.89203	1688.7125
961.64774	1692.4125
965.40086	1685.7125
969.15137	1683.3125
972.89929	1673.0125
976.64461	1671.4125
980.38733	1660.3125
984.12747	1677.6125
987.86502	1683.5125
991.59999	1681.2125
995.33237	1699.9125
999.06217	1732.8125
1002.78939	1772.5125
1006.51404	1798.8125
1010.23611	1828.0125
1013.95561	1847.1125
1017.67255	1852.1125
1021.38692	1856.9125
1025.09872	1832.8125
1028.80796	1829.8125
1032.51465	1832.0125
1036.21877	1849.7125
1039.92035	1844.4125
1043.61937	1832.5125
1047.31584	1823.3125
1051.00976	1797.7125
1054.70114	1790.8125
1058.38998	1802.0125
1062.07627	1815.7125
1065.76003	1809.2125
1069.44126	1831.5125
1073.11995	1845.6125
1076.79611	1871.8125
1080.46974	1890.2125
1084.14085	1914.2125
1087.80943	1933.8125
1091.47549	1931.8125
1095.13903	1888.3125
1098.80005	1855.7125
1102.45857	1828.1125
1106.11456	1828.5125
1109.76805	1847.0125
1113.41903	1881.8125
1117.06751	1940.8125
1120.71348	2028.7125
1124.35696	2124.7125
1127.99793	2228.2125
1131.63641	2255.1125
1135.2724	2222.7125
1138.90589	2164.2125
1142.5369	2097.9125
1146.16542	2015.9125
1149.79145	1957.1125
1153.415	1897.1125
1157.03607	1877.6125
1160.65467	1871.5125
1164.27079	1902.7125
1167.88443	1961.0125
1171.49561	2040.1125
1175.10432	2192.3125
1178.71056	2396.0125
1182.31434	2561.9125
1185.91565	2630.8125
1189.51451	2587.6125
1193.11091	2484.0125
1196.70485	2391.5125
1200.29634	2336.1125
1203.88538	2280.8125
1207.47197	2195.4125
1211.05612	2106.8125
1214.63782	2044.2125
1218.21708	2003.3125
1221.79391	1970.7125
1225.36829	1955.2125
1228.94024	1940.4125
1232.50976	1926.0125
1236.07685	1928.2125
1239.6415	1935.5125
1243.20374	1943.2125
1246.76355	1955.7125
1250.32093	1966.0125
1253.8759	1992.8125
1257.42845	2044.1125
1260.97859	2077.5125
1264.52631	2123.7125
1268.07163	2164.7125
1271.61453	2207.6125
1275.15503	2233.0125
1278.69312	2248.2125
1282.22882	2281.0125
1285.76211	2313.1125
1289.29301	2365.5125
1292.82151	2427.9125
1296.34761	2483.2125
1299.87133	2575.5125
1303.39266	2732.8125
1306.9116	3009.3125
1310.42815	3274.8125
1313.94233	3382.7125
1317.45412	3216.3125
1320.96354	2970.5125
1324.47058	2736.6125
1327.97525	2563.8125
1331.47754	2471.9125
1334.97747	2446.1125
1338.47502	2479.0125
1341.97022	2566.2125
1345.46305	2712.3125
1348.95352	2889.3125
1352.44163	3081.1125
1355.92738	3367.9125
1359.41078	3785.9125
1362.89183	4129.7125
1366.37053	3958.0125
1369.84688	3373.3125
1373.32088	2886.5125
1376.79254	2629.9125
1380.26186	2460.0125
1383.72883	2360.9125
1387.19347	2278.8125
1390.65578	2187.5125
1394.11575	2126.0125
1397.57339	2093.4125
1401.0287	2076.6125
1404.48168	2062.3125
1407.93234	2051.8125
1411.38068	2049.2125
1414.82669	2059.1125
1418.27039	2044.8125
1421.71177	2030.5125
1425.15083	2009.7125
1428.58758	1997.0125
1432.02203	2027.8125
1435.45416	2067.9125
1438.88399	2068.6125
1442.31151	2057.5125
1445.73673	2066.6125
1449.15965	2069.1125
1452.58027	2085.4125
1455.9986	2083.7125
1459.41463	2087.4125
1462.82837	2118.8125
1466.23982	2149.6125
1469.64898	2173.8125
1473.05586	2194.0125
1476.46045	2191.2125
1479.86276	2206.6125
1483.26279	2224.1125
1486.66054	2254.4125
1490.05602	2299.0125
1493.44922	2388.5125
1496.84016	2517.3125
1500.22882	2773.8125
1503.61521	3099.0125
1506.99934	3464.5125
1510.38121	3743.3125
1513.76081	3771.5125
1517.13816	3481.4125
1520.51324	3057.2125
1523.88607	2690.4125
1527.25665	2458.6125
1530.62498	2332.1125
1533.99105	2271.8125
1537.35488	2224.5125
1540.71647	2203.7125
1544.07581	2211.7125
1547.4329	2218.3125
1550.78776	2232.6125
1554.14038	2235.1125
1557.49077	2259.0125
1560.83892	2286.5125
1564.18484	2343.3125
1567.52853	2399.6125
1570.86999	2469.7125
1574.20922	2498.7125
1577.54624	2479.8125
1580.88103	2385.2125
1584.2136	2269.7125
1587.54395	2178.3125
1590.87208	2180.0125
1594.19801	2234.2125
1597.52172	2336.2125
1600.84321	2392.4125
1604.16251	2367.8125
1607.47959	2282.6125
1610.79447	2177.3125
1614.10715	2083.4125
1617.41763	2018.9125
1620.7259	1961.7125
1624.03199	1950.0125
1627.33587	1950.4125
1630.63757	1959.8125
1633.93707	2011.2125
1637.23439	2113.5125
1640.52951	2248.6125
1643.82246	2469.3125
1647.11321	2713.1125
1650.40179	2861.1125
1653.68819	2788.1125
1656.97241	2512.5125
1660.25446	2212.2125
1663.53433	2010.1125
1666.81203	1883.8125
1670.08756	1820.3125
1673.36092	1771.6125
1676.63211	1739.8125
1679.90115	1711.5125
1683.16801	1695.9125
1686.43272	1668.9125
1689.69527	1656.2125
1692.95567	1639.7125
1696.2139	1623.8125
1699.46999	1598.7125
1702.72392	1582.6125
1705.97571	1563.9125
1709.22535	1551.6125
1712.47284	1542.8125
1715.71819	1539.3125
1718.96139	1524.2125
1722.20246	1506.4125
1725.44139	1497.1125
1728.67818	1476.3125
1731.91284	1467.4125
1735.14537	1461.8125
1738.37576	1447.4125
1741.60403	1446.8125
1744.83017	1432.0125
1748.05418	1430.9125
1751.27607	1429.7125
1754.49584	1405.5125
1757.71349	1406.8125
1760.92903	1405.5125
1764.14244	1401.8125
1767.35375	1408.7125
1770.56294	1394.9125
1773.77002	1382.9125
1776.97499	1372.4125
1780.17785	1390.8125
1783.37861	1378.4125
1786.57727	1378.3125
1789.77382	1378.2125
1792.96828	1369.5125
1796.16064	1366.4125
1799.3509	1372.3125
1802.53907	1371.4125
1805.72514	1369.1125
1808.90913	1356.6125
1812.09102	1358.7125
1815.27083	1357.3125
1818.44856	1348.7125
1821.6242	1354.5125
1824.79776	1351.4125
1827.96924	1338.3125
1831.13864	1332.3125
1834.30597	1336.8125
1837.47122	1332.4125
1840.6344	1327.9125
1843.7955	1327.4125
1846.95454	1341.2125
1850.11151	1329.9125
1853.26642	1325.5125
1856.41926	1330.2125
1859.57004	1323.1125
1862.71876	1328.6125
1865.86542	1323.2125
1869.01003	1327.2125
1872.15258	1325.1125
1875.29308	1323.1125
1878.43152	1321.1125
1881.56792	1317.9125
1884.70227	1316.8125
1887.83457	1312.3125
1890.96482	1318.9125
1894.09304	1308.9125
1897.21921	1316.3125
1900.34335	1307.3125
1903.46544	1304.6125
1906.58551	1316.0125
1909.70353	1309.0125
1912.81953	1308.0125
1915.93349	1302.5125
1919.04543	1300.1125
1922.15534	1296.6125
1925.26322	1299.2125
1928.36908	1297.2125
1931.47292	1293.1125
1934.57473	1289.6125
1937.67453	1290.0125
1940.77232	1283.6125
1943.86808	1292.8125
1946.96184	1286.3125
1950.05358	1278.5125
1953.14331	1274.1125
1956.23103	1271.7125
1959.31675	1270.0125
1962.40046	1256.5125
1965.48217	1259.4125
1968.56188	1252.9125
1971.63959	1254.0125
1974.7153	1247.6125
1977.78901	1239.9125
1980.86073	1246.3125
1983.93046	1241.9125
1986.99819	1239.9125
1990.06394	1227.6125
1993.1277	1227.8125
1996.18947	1219.8125
1999.24925	1226.0125
2002.30706	1213.1125
2005.36288	1206.5125
2008.41672	1216.0125
2011.46859	1202.3125
2014.51848	1206.4125
2017.56639	1198.5125
2020.61233	1192.6125
2023.6563	1187.4125
2026.6983	1196.1125
2029.73833	1219.7125
2032.7764	1224.5125
2035.8125	1181.6125
2038.84664	1185.3125
2041.87881	1190.5125
2044.90903	1175.8125
2047.93729	1181.9125
2050.96359	1176.2125
2053.98794	1170.0125
2057.01034	1178.0125
2060.03078	1167.1125
2063.04927	1171.3125
2066.06582	1175.7125
2069.08042	1164.0125
2072.09307	1174.6125
2075.10378	1176.0125
2078.11255	1166.0125
2081.11938	1170.0125
2084.12426	1172.9125
2087.12722	1181.8125
2090.12824	1170.8125
2093.12732	1165.8125
2096.12447	1168.0125
2099.11969	1165.3125
2102.11299	1176.6125
2105.10435	1178.6125
2108.09379	1168.4125
2111.08131	1174.1125
2114.0669	1178.2125
2117.05057	1185.2125
2120.03233	1179.9125
2123.01216	1187.6125
2125.99008	1175.3125
2128.96609	1177.4125
2131.94018	1187.9125
2134.91236	1185.7125
2137.88263	1179.4125
2140.851	1183.8125
2143.81746	1185.3125
2146.78201	1180.5125
2149.74466	1184.2125
2152.7054	1186.0125
2155.66425	1184.9125
2158.6212	1188.8125
2161.57625	1176.7125
2164.52941	1190.9125
2167.48067	1179.0125
2170.43004	1180.6125
2173.37752	1176.0125
2176.32311	1180.6125
2179.26681	1176.4125
2182.20863	1185.5125
2185.14856	1182.4125
2188.08661	1178.3125
2191.02278	1180.6125
2193.95707	1176.6125
2196.88948	1177.5125
2199.82001	1182.0125
2202.74867	1174.6125
2205.67545	1175.1125
2208.60037	1167.0125
2211.52341	1173.7125
2214.44458	1166.0125
2217.36388	1156.1125
2220.28132	1174.9125
2223.1969	1165.5125
2226.11061	1160.8125
2229.02246	1169.4125
2231.93245	1152.9125
2234.84058	1148.3125
2237.74686	1163.0125
2240.65128	1157.4125
2243.55385	1153.6125
2246.45456	1151.7125
2249.35343	1158.4125
2252.25044	1148.6125
2255.14561	1153.0125
2258.03893	1149.8125
2260.93041	1146.9125
2263.82004	1146.1125
2266.70783	1141.6125
2269.59378	1141.3125
2272.4779	1132.7125
2275.36017	1136.2125
2278.24061	1138.4125
2281.11922	1136.2125
2283.996	1115.2125
2286.87094	1129.7125
2289.74405	1126.1125
2292.61534	1128.1125
2295.4848	1121.6125
2298.35243	1126.3125
2301.21824	1123.3125
2304.08223	1118.5125
2306.94439	1127.7125
2309.80474	1128.3125
2312.66327	1125.6125
2315.51999	1129.5125
2318.37489	1125.7125
2321.22797	1116.9125
2324.07925	1127.6125
2326.92871	1118.5125
2329.77637	1128.5125
2332.62222	1114.9125
2335.46626	1112.9125
2338.3085	1109.4125
2341.14893	1117.2125
2343.98756	1114.3125
2346.8244	1117.3125
2349.65943	1121.0125
2352.49267	1119.3125
2355.32411	1109.4125
2358.15376	1105.3125
2360.98161	1115.4125
2363.80768	1116.1125
2366.63195	1123.1125
2369.45444	1111.9125
2372.27514	1115.6125
2375.09405	1114.7125
2377.91118	1112.4125
2380.72652	1112.6125
2383.54009	1108.6125
2386.35187	1107.2125
2389.16188	1101.6125
2391.97011	1103.5125
2394.77657	1103.5125
2397.58125	1091.4125
2400.38416	1088.1125
2403.18529	1088.3125
2405.98466	1088.6125
2408.78226	1084.9125
2411.57809	1081.9125
2414.37216	1089.7125
2417.16446	1076.5125
2419.955	1088.5125
2422.74378	1086.1125
2425.5308	1089.2125
2428.31606	1085.0125
2431.09956	1085.4125
2433.88131	1083.1125
2436.6613	1076.7125
2439.43954	1074.1125
2442.21603	1071.7125
2444.99077	1081.1125
2447.76377	1081.3125
2450.53501	1084.9125
2453.30451	1081.1125
2456.07226	1081.6125
2458.83827	1073.4125
2461.60254	1073.8125
2464.36507	1072.5125
2467.12586	1079.7125
2469.88492	1071.4125
2472.64224	1068.1125
2475.39782	1069.5125
2478.15167	1073.6125
2480.90379	1078.8125
2483.65417	1081.6125
2486.40283	1078.7125
2489.14976	1075.1125
2491.89497	1089.0125
2494.63845	1075.3125
2497.3802	1084.7125
2500.12024	1081.3125
2502.85855	1076.7125
2505.59514	1081.7125
2508.33002	1066.8125
2511.06318	1068.4125
2513.79462	1076.0125
2516.52435	1065.4125
2519.25237	1069.5125
2521.97867	1062.9125
2524.70327	1060.9125
2527.42616	1064.5125
2530.14734	1060.3125
2532.86681	1054.4125
2535.58458	1052.0125
2538.30065	1058.2125
2541.01501	1054.8125
2543.72768	1060.0125
2546.43864	1051.9125
2549.14791	1051.5125
2551.85548	1058.0125
2554.56136	1050.8125
2557.26554	1052.5125
2559.96803	1047.4125
2562.66883	1057.0125
2565.36794	1042.5125
2568.06536	1049.4125
2570.7611	1051.4125
2573.45514	1044.5125
2576.14751	1043.4125
2578.83819	1035.8125
2581.52719	1050.2125
2584.21451	1036.5125
2586.90015	1033.7125
2589.58411	1030.5125
2592.2664	1038.9125
2594.94701	1031.2125
2597.62594	1038.3125
2600.30321	1035.5125
2602.9788	1036.0125
2605.65273	1043.6125
2608.32498	1032.0125
2610.99557	1029.9125
2613.66449	1025.1125
2616.33175	1030.2125
2618.99734	1034.3125
2621.66128	1029.3125
2624.32355	1025.5125
2626.98416	1025.7125
2629.64311	1034.9125
2632.30041	1032.8125
2634.95605	1032.2125
2637.61004	1026.2125
2640.26238	1026.5125
2642.91306	1015.8125
2645.56209	1019.0125
2648.20948	1017.5125
2650.85521	1015.7125
2653.4993	1015.9125
2656.14175	1023.6125
2658.78255	1021.9125
2661.42171	1018.7125
2664.05923	1021.9125
2666.6951	1028.8125
2669.32934	1022.5125
2671.96194	1023.2125
2674.59291	1023.7125
2677.22224	1029.1125
2679.84993	1023.3125
2682.476	1018.1125
2685.10043	1026.1125
2687.72324	1024.1125
2690.34441	1020.9125
2692.96396	1020.5125
2695.58188	1026.3125
2698.19818	1023.6125
2700.81285	1013.8125
2703.4259	1018.9125
2706.03733	1010.1125
2708.64714	1006.6125
2711.25533	1021.7125
2713.86191	1022.7125
2716.46687	1021.6125
2719.07021	1024.4125
2721.67194	1029.7125
2724.27206	1025.8125
2726.87057	1035.0125
2729.46747	1033.4125
2732.06276	1033.6125
2734.65644	1030.7125
2737.24852	1037.4125
2739.83899	1029.9125
2742.42786	1035.3125
2745.01513	1023.9125
2747.60079	1032.2125
2750.18486	1024.9125
2752.76733	1024.8125
2755.3482	1026.1125
2757.92747	1024.9125
2760.50515	1014.7125
2763.08123	1028.8125
2765.65573	1019.1125
2768.22863	1026.3125
2770.79994	1020.7125
2773.36967	1022.7125
2775.9378	1031.5125
2778.50435	1021.8125
2781.06932	1016.8125
2783.6327	1020.7125
2786.1945	1026.9125
2788.75471	1021.0125
2791.31335	1021.4125
2793.87041	1020.8125
2796.42589	1014.5125
2798.97979	1020.2125
2801.53212	1015.4125
2804.08288	1010.7125
2806.63206	1014.1125
2809.17967	1009.4125
2811.72571	1010.1125
2814.27018	1008.7125
2816.81308	1001.1125
2819.35442	1004.9125
2821.89419	1001.4125
2824.43239	1007.1125
2826.96904	1005.7125
2829.50412	1005.7125
2832.03763	1005.1125
2834.56959	1011.4125
2837.1	1006.6125
2839.62884	1008.3125
2842.15613	1007.4125
2844.68186	999.1125
2847.20604	998.9125
2849.72867	1005.3125
2852.24974	1003.5125
2854.76927	1010.5125
2857.28724	1009.0125
2859.80367	1018.1125
2862.31855	1014.9125
2864.83189	1015.3125
2867.34368	1010.9125
2869.85393	1019.6125
2872.36264	1012.3125
2874.8698	1010.7125
2877.37543	1014.9125
2879.87952	1015.9125
2882.38207	1013.0125
2884.88308	1015.9125
2887.38256	1017.4125
2889.88051	1018.0125
2892.37692	1022.6125
2894.8718	1025.3125
2897.36515	1029.5125
2899.85698	1017.9125
2902.34727	1027.5125
2904.83604	1028.3125
2907.32328	1035.6125
2909.809	1041.6125
2912.29319	1035.5125
2914.77587	1029.5125
2917.25702	1036.0125
2919.73665	1036.7125
2922.21476	1026.5125
2924.69136	1032.1125
2927.16644	1038.3125
2929.64	1032.7125
2932.11205	1037.0125
2934.58258	1026.6125
2937.05161	1033.2125
2939.51912	1029.8125
2941.98513	1028.5125
2944.44962	1026.9125
2946.91261	1032.5125
2949.37409	1033.0125
2951.83407	1040.5125
2954.29254	1037.3125
2956.74951	1037.3125
2959.20498	1032.2125
2961.65895	1035.1125
2964.11142	1040.2125
2966.56239	1032.2125
2969.01186	1028.4125
2971.45984	1034.7125
2973.90632	1035.8125
2976.35131	1035.9125
2978.7948	1035.9125
2981.23681	1037.1125
2983.67732	1034.7125
2986.11635	1034.6125
2988.55388	1028.6125
2990.98993	1029.8125
2993.4245	1029.8125
2995.85758	1026.2125
2998.28917	1032.5125
3000.71928	1032.0125
3003.14791	1033.8125
3005.57506	1024.1125
3008.00073	1035.7125
3010.42493	1037.8125
3012.84764	1031.1125
3015.26888	1031.2125
3017.68865	1042.9125
3020.10694	1032.8125
3022.52376	1040.3125
3024.9391	1041.8125
3027.35298	1048.0125
3029.76539	1047.0125
3032.17632	1051.0125
3034.5858	1044.2125
3036.9938	1049.2125
3039.40034	1047.8125
3041.80542	1046.3125
3044.20903	1058.2125
3046.61118	1054.9125
3049.01187	1058.2125
3051.4111	1056.4125
3053.80888	1058.4125
3056.20519	1068.9125
3058.60005	1069.9125
3060.99345	1069.8125
3063.3854	1070.2125
3065.7759	1066.2125
3068.16494	1080.9125
3070.55254	1076.1125
3072.93868	1072.6125
3075.32338	1075.6125
3077.70662	1079.3125
3080.08842	1085.9125
3082.46878	1080.4125
3084.84769	1087.2125
3087.22515	1093.3125
3089.60118	1102.8125
3091.97576	1102.4125
3094.3489	1113.6125
3096.72061	1108.2125
3099.09087	1122.8125
3101.4597	1133.1125
3103.82709	1130.6125
3106.19305	1133.4125
3108.55757	1147.1125
3110.92066	1150.7125
3113.28232	1149.1125
3115.64255	1155.2125
3118.00134	1166.6125
3120.35871	1162.0125
3122.71466	1165.7125
3125.06917	1179.1125
3127.42226	1179.7125
3129.77393	1185.7125
3132.12417	1186.3125
3134.47299	1200.7125
3136.82039	1203.4125
3139.16636	1208.1125
3141.51092	1215.1125
3143.85406	1222.9125
3146.19579	1228.0125
3148.53609	1236.0125
3150.87499	1243.5125
3153.21246	1242.6125
3155.54853	1256.1125
3157.88318	1269.6125
3160.21642	1278.2125
3162.54826	1292.1125
3164.87868	1296.9125
3167.2077	1302.2125
3169.5353	1308.1125
3171.86151	1324.9125
3174.18631	1323.5125
3176.5097	1332.6125
3178.83169	1323.2125
3181.15228	1341.4125
3183.47147	1344.8125
3185.78926	1349.5125
3188.10565	1354.6125
3190.42065	1356.8125
3192.73424	1358.4125
3195.04645	1368.8125
3197.35725	1366.6125
3199.66667	1376.7125
3201.97469	1382.2125
3204.28132	1384.8125
3206.58656	1405.0125
3208.8904	1405.4125
3211.19287	1404.3125
3213.49394	1401.0125
3215.79363	1419.4125
3218.09193	1415.6125
3220.38884	1425.1125
3222.68438	1425.4125
3224.97853	1436.4125
3227.2713	1434.5125
3229.56269	1428.8125
3231.8527	1445.5125
3234.14133	1447.9125
3236.42858	1429.6125
3238.71446	1439.5125
3240.99896	1436.4125
3243.28209	1437.0125
3245.56384	1428.7125
3247.84423	1433.9125
3250.12324	1435.4125
3252.40088	1434.6125
3254.67715	1431.2125
3256.95205	1433.8125
3259.22558	1443.0125
3261.49775	1437.9125
3263.76855	1442.5125
3266.03799	1454.4125
3268.30606	1440.9125
3270.57277	1452.4125
3272.83812	1450.2125
3275.10211	1444.5125
3277.36474	1431.5125
3279.62601	1437.9125
3281.88593	1434.7125
3284.14448	1442.6125
3286.40168	1435.7125
3288.65753	1445.8125
3290.91202	1438.0125
3293.16516	1432.8125
3295.41695	1440.1125
3297.66738	1429.8125
3299.91647	1422.4125
3302.16421	1407.6125
3304.4106	1407.4125
3306.65564	1394.1125
3308.89933	1401.7125
3311.14169	1380.3125
3313.38269	1366.4125
3315.62236	1364.5125
3317.86068	1359.2125
3320.09766	1341.5125
3322.3333	1337.5125
3324.5676	1330.5125
3326.80056	1311.5125
3329.03219	1309.3125
3331.26248	0.0125
3333.49143	-0.4875
3335.71905	-1.7875
