Data from AgNPs_APTES_FTO_UA_100uM_CRN_0uM_R6G_10uM_Scan_RamanShift__2__10-42-01-228.txt Node

Date: Wed Jun 29 10:42:01 BST 2022
User: TCL
Spectrometer: QEP01345
Trigger mode: 4
Integration Time (sec): 7.000000E0
Scans to average: 10
Electric dark correction enabled: true
Nonlinearity correction enabled: false
Boxcar width: 0
XAxis mode: Raman Shifts
Number of Pixels in Spectrum: 1044
>>>>>Begin Spectral Data<<<<<
46.04893	-1.25
50.45542	0.45
54.85868	0.95
59.25871	1.65
63.6555	40.85
68.04907	43.65
72.43941	46.35
76.82654	46.95
81.21044	56.85
85.59113	56.65
89.96862	59.75
94.34289	64.35
98.71396	65.95
103.08183	62.95
107.4465	63.15
111.80798	65.35
116.16626	60.75
120.52136	66.45
124.87327	62.45
129.222	62.05
133.56755	61.25
137.90993	57.55
142.24913	59.05
146.58517	56.15
150.91804	58.25
155.24774	57.35
159.57429	63.25
163.89768	67.15
168.21792	75.75
172.53501	88.65
176.84895	102.25
181.15975	129.75
185.46741	167.35
189.77193	214.95
194.07331	276.85
198.37157	362.55
202.6667	437.85
206.9587	507.45
211.24758	601.05
215.53334	671.25
219.81599	760.45
224.09553	859.35
228.37195	960.65
232.64527	1072.45
236.91549	1190.45
241.18261	1316.15
245.44663	1432.55
249.70755	1524.45
253.96539	1593.15
258.22014	1646.15
262.4718	1662.95
266.72039	1664.25
270.96589	1620.45
275.20832	1569.25
279.44768	1507.55
283.68397	1441.95
287.91719	1381.45
292.14735	1313.25
296.37445	1261.45
300.59849	1220.65
304.81948	1180.65
309.03742	1158.65
313.25231	1126.45
317.46415	1108.45
321.67296	1069.25
325.87872	1065.25
330.08145	1052.05
334.28114	1056.85
338.47781	1061.65
342.67145	1055.75
346.86207	1064.35
351.04966	1078.75
355.23424	1090.55
359.4158	1094.55
363.59435	1107.85
367.76989	1112.05
371.94243	1123.95
376.11196	1118.35
380.27849	1129.05
384.44203	1125.65
388.60257	1130.85
392.76012	1136.65
396.91468	1143.95
401.06626	1150.45
405.21485	1160.15
409.36047	1157.35
413.50311	1164.75
417.64277	1163.55
421.77947	1155.25
425.9132	1161.95
430.04396	1173.55
434.17176	1180.55
438.2966	1198.45
442.41849	1203.35
446.53742	1222.75
450.6534	1223.55
454.76644	1237.75
458.87653	1241.25
462.98368	1244.05
467.08789	1242.75
471.18916	1246.15
475.2875	1250.45
479.38291	1241.15
483.4754	1243.25
487.56496	1243.75
491.6516	1245.35
495.73531	1249.45
499.81612	1235.45
503.89401	1231.05
507.96899	1231.55
512.04106	1217.85
516.11023	1224.95
520.1765	1217.05
524.23987	1211.65
528.30034	1210.45
532.35792	1215.15
536.41261	1209.65
540.46441	1203.45
544.51333	1204.25
548.55936	1204.25
552.60252	1212.85
556.64279	1210.85
560.6802	1212.75
564.71473	1214.65
568.7464	1219.85
572.7752	1231.95
576.80114	1210.85
580.82422	1211.45
584.84444	1211.05
588.86181	1210.45
592.87633	1219.95
596.888	1219.35
600.89682	1242.55
604.9028	1269.45
608.90594	1317.15
612.90624	1398.55
616.90371	1384.95
620.89834	1332.85
624.89015	1307.75
628.87913	1290.45
632.86528	1295.75
636.84862	1287.95
640.82913	1284.55
644.80683	1283.95
648.78172	1285.35
652.75379	1288.05
656.72306	1292.45
660.68952	1308.95
664.65319	1336.25
668.61405	1341.95
672.57211	1366.05
676.52738	1391.95
680.47986	1411.95
684.42955	1423.85
688.37646	1431.05
692.32058	1434.65
696.26192	1423.85
700.20048	1424.45
704.13626	1419.45
708.06928	1408.85
711.99952	1410.45
715.927	1387.65
719.85171	1376.25
723.77365	1352.65
727.69284	1338.95
731.60928	1342.75
735.52295	1331.05
739.43388	1321.35
743.34206	1324.05
747.24749	1317.25
751.15017	1316.85
755.05012	1287.25
758.94733	1319.85
762.8418	1347.85
766.73354	1376.35
770.62254	1405.35
774.50882	1424.35
778.39237	1419.95
782.27321	1400.25
786.15132	1385.25
790.02671	1375.75
793.89938	1361.85
797.76935	1366.55
801.6366	1367.65
805.50115	1379.35
809.36299	1376.15
813.22213	1390.75
817.07857	1381.75
820.93231	1379.05
824.78336	1369.85
828.63172	1358.95
832.47738	1357.85
836.32036	1352.25
840.16066	1362.05
843.99827	1355.15
847.8332	1349.85
851.66546	1339.75
855.49504	1332.15
859.32195	1331.75
863.1462	1330.25
866.96777	1340.95
870.78668	1356.15
874.60293	1357.85
878.41652	1365.75
882.22745	1382.55
886.03573	1406.75
889.84136	1436.05
893.64433	1464.15
897.44466	1475.85
901.24235	1482.95
905.0374	1473.25
908.8298	1472.15
912.61957	1472.15
916.40671	1498.85
920.19121	1521.45
923.97308	1531.65
927.75233	1547.85
931.52895	1543.35
935.30295	1528.25
939.07433	1518.45
942.84309	1484.95
946.60924	1459.05
950.37278	1460.05
954.13371	1440.35
957.89203	1433.95
961.64774	1419.55
965.40086	1423.25
969.15137	1414.75
972.89929	1405.55
976.64461	1410.65
980.38733	1409.65
984.12747	1401.55
987.86502	1401.35
991.59999	1403.55
995.33237	1409.85
999.06217	1405.15
1002.78939	1407.95
1006.51404	1416.05
1010.23611	1408.45
1013.95561	1411.65
1017.67255	1418.85
1021.38692	1428.35
1025.09872	1418.95
1028.80796	1430.55
1032.51465	1423.35
1036.21877	1421.35
1039.92035	1424.15
1043.61937	1438.45
1047.31584	1432.55
1051.00976	1437.35
1054.70114	1434.95
1058.38998	1427.05
1062.07627	1424.15
1065.76003	1405.25
1069.44126	1405.75
1073.11995	1397.55
1076.79611	1379.05
1080.46974	1375.55
1084.14085	1370.85
1087.80943	1364.95
1091.47549	1356.85
1095.13903	1351.75
1098.80005	1337.45
1102.45857	1334.85
1106.11456	1336.05
1109.76805	1329.15
1113.41903	1332.65
1117.06751	1348.15
1120.71348	1354.95
1124.35696	1370.35
1127.99793	1381.85
1131.63641	1390.85
1135.2724	1398.05
1138.90589	1396.65
1142.5369	1391.65
1146.16542	1390.35
1149.79145	1374.05
1153.415	1364.35
1157.03607	1357.45
1160.65467	1361.25
1164.27079	1367.05
1167.88443	1374.45
1171.49561	1399.85
1175.10432	1398.65
1178.71056	1426.85
1182.31434	1443.65
1185.91565	1460.45
1189.51451	1456.95
1193.11091	1436.05
1196.70485	1431.65
1200.29634	1415.05
1203.88538	1419.35
1207.47197	1414.05
1211.05612	1413.45
1214.63782	1414.35
1218.21708	1413.25
1221.79391	1417.85
1225.36829	1422.85
1228.94024	1420.45
1232.50976	1431.55
1236.07685	1446.15
1239.6415	1447.65
1243.20374	1461.65
1246.76355	1480.75
1250.32093	1484.65
1253.8759	1487.95
1257.42845	1495.35
1260.97859	1500.95
1264.52631	1511.35
1268.07163	1526.95
1271.61453	1538.35
1275.15503	1552.85
1278.69312	1553.95
1282.22882	1563.85
1285.76211	1574.15
1289.29301	1600.55
1292.82151	1604.25
1296.34761	1632.95
1299.87133	1648.65
1303.39266	1670.75
1306.9116	1712.95
1310.42815	1741.35
1313.94233	1760.65
1317.45412	1744.25
1320.96354	1722.35
1324.47058	1713.05
1327.97525	1701.35
1331.47754	1709.65
1334.97747	1712.85
1338.47502	1739.65
1341.97022	1768.55
1345.46305	1792.45
1348.95352	1834.35
1352.44163	1874.65
1355.92738	1918.05
1359.41078	1980.65
1362.89183	2048.05
1366.37053	2054.45
1369.84688	2020.75
1373.32088	1956.55
1376.79254	1915.85
1380.26186	1906.95
1383.72883	1901.85
1387.19347	1894.25
1390.65578	1900.95
1394.11575	1877.55
1397.57339	1875.65
1401.0287	1855.45
1404.48168	1859.05
1407.93234	1849.15
1411.38068	1833.75
1414.82669	1832.05
1418.27039	1816.05
1421.71177	1808.25
1425.15083	1785.45
1428.58758	1769.65
1432.02203	1754.15
1435.45416	1737.55
1438.88399	1730.75
1442.31151	1712.85
1445.73673	1694.05
1449.15965	1684.25
1452.58027	1687.75
1455.9986	1683.35
1459.41463	1686.25
1462.82837	1688.55
1466.23982	1693.75
1469.64898	1715.35
1473.05586	1727.75
1476.46045	1720.55
1479.86276	1732.35
1483.26279	1735.45
1486.66054	1755.45
1490.05602	1743.65
1493.44922	1753.45
1496.84016	1753.05
1500.22882	1767.85
1503.61521	1789.65
1506.99934	1824.35
1510.38121	1845.75
1513.76081	1832.75
1517.13816	1793.45
1520.51324	1722.85
1523.88607	1670.05
1527.25665	1631.85
1530.62498	1610.85
1533.99105	1598.95
1537.35488	1579.35
1540.71647	1571.35
1544.07581	1553.55
1547.4329	1555.85
1550.78776	1553.95
1554.14038	1541.85
1557.49077	1540.55
1560.83892	1537.95
1564.18484	1535.15
1567.52853	1530.15
1570.86999	1533.35
1574.20922	1532.55
1577.54624	1531.05
1580.88103	1523.95
1584.2136	1494.55
1587.54395	1476.85
1590.87208	1459.55
1594.19801	1446.75
1597.52172	1441.95
1600.84321	1437.55
1604.16251	1426.15
1607.47959	1417.35
1610.79447	1397.95
1614.10715	1394.15
1617.41763	1393.45
1620.7259	1382.85
1624.03199	1381.45
1627.33587	1377.15
1630.63757	1376.45
1633.93707	1358.95
1637.23439	1361.55
1640.52951	1350.05
1643.82246	1362.05
1647.11321	1382.15
1650.40179	1380.75
1653.68819	1374.25
1656.97241	1337.45
1660.25446	1310.05
1663.53433	1273.05
1666.81203	1251.75
1670.08756	1233.65
1673.36092	1219.95
1676.63211	1215.35
1679.90115	1196.35
1683.16801	1191.85
1686.43272	1179.65
1689.69527	1171.55
1692.95567	1151.25
1696.2139	1142.85
1699.46999	1118.95
1702.72392	1119.15
1705.97571	1112.05
1709.22535	1110.05
1712.47284	1109.15
1715.71819	1105.75
1718.96139	1099.95
1722.20246	1087.05
1725.44139	1081.05
1728.67818	1078.45
1731.91284	1064.35
1735.14537	1063.95
1738.37576	1048.35
1741.60403	1054.35
1744.83017	1041.45
1748.05418	1038.35
1751.27607	1030.05
1754.49584	1034.15
1757.71349	1017.95
1760.92903	1021.15
1764.14244	1023.35
1767.35375	1009.65
1770.56294	1015.25
1773.77002	1007.85
1776.97499	1010.35
1780.17785	1010.85
1783.37861	1013.25
1786.57727	1014.85
1789.77382	1007.35
1792.96828	1010.75
1796.16064	999.65
1799.3509	999.65
1802.53907	1003.65
1805.72514	998.75
1808.90913	994.25
1812.09102	990.15
1815.27083	990.15
1818.44856	987.75
1821.6242	990.55
1824.79776	985.35
1827.96924	982.95
1831.13864	978.55
1834.30597	980.55
1837.47122	975.25
1840.6344	976.85
1843.7955	976.45
1846.95454	973.75
1850.11151	976.05
1853.26642	968.95
1856.41926	978.65
1859.57004	975.85
1862.71876	965.35
1865.86542	972.05
1869.01003	961.95
1872.15258	970.65
1875.29308	971.25
1878.43152	954.95
1881.56792	957.45
1884.70227	956.45
1887.83457	953.85
1890.96482	955.75
1894.09304	960.05
1897.21921	955.65
1900.34335	951.95
1903.46544	959.15
1906.58551	956.95
1909.70353	950.85
1912.81953	951.15
1915.93349	954.95
1919.04543	957.45
1922.15534	949.75
1925.26322	950.75
1928.36908	954.05
1931.47292	946.05
1934.57473	944.65
1937.67453	946.65
1940.77232	945.55
1943.86808	947.15
1946.96184	947.25
1950.05358	940.65
1953.14331	937.45
1956.23103	935.45
1959.31675	938.35
1962.40046	923.55
1965.48217	918.45
1968.56188	920.85
1971.63959	919.25
1974.7153	915.15
1977.78901	905.65
1980.86073	908.35
1983.93046	907.75
1986.99819	904.75
1990.06394	901.45
1993.1277	898.65
1996.18947	893.85
1999.24925	897.85
2002.30706	889.95
2005.36288	886.45
2008.41672	890.45
2011.46859	886.45
2014.51848	888.15
2017.56639	883.55
2020.61233	886.45
2023.6563	878.85
2026.6983	874.35
2029.73833	882.55
2032.7764	877.15
2035.8125	880.25
2038.84664	872.35
2041.87881	874.35
2044.90903	880.35
2047.93729	884.35
2050.96359	875.65
2053.98794	886.55
2057.01034	889.15
2060.03078	895.25
2063.04927	914.75
2066.06582	914.85
2069.08042	915.75
2072.09307	932.25
2075.10378	936.15
2078.11255	947.55
2081.11938	956.35
2084.12426	957.75
2087.12722	970.55
2090.12824	977.85
2093.12732	985.75
2096.12447	984.85
2099.11969	1003.15
2102.11299	991.45
2105.10435	994.25
2108.09379	986.55
2111.08131	992.95
2114.0669	979.75
2117.05057	987.85
2120.03233	981.55
2123.01216	964.75
2125.99008	960.95
2128.96609	955.75
2131.94018	956.55
2134.91236	949.05
2137.88263	940.35
2140.851	934.85
2143.81746	933.35
2146.78201	922.75
2149.74466	928.45
2152.7054	918.55
2155.66425	908.65
2158.6212	913.85
2161.57625	918.85
2164.52941	906.75
2167.48067	900.75
2170.43004	902.15
2173.37752	903.05
2176.32311	898.85
2179.26681	889.55
2182.20863	892.15
2185.14856	896.85
2188.08661	889.55
2191.02278	879.95
2193.95707	874.05
2196.88948	868.15
2199.82001	876.85
2202.74867	866.95
2205.67545	863.05
2208.60037	857.75
2211.52341	857.25
2214.44458	859.95
2217.36388	851.75
2220.28132	853.35
2223.1969	850.15
2226.11061	849.45
2229.02246	848.45
2231.93245	842.75
2234.84058	838.95
2237.74686	840.95
2240.65128	837.75
2243.55385	841.25
2246.45456	837.65
2249.35343	841.45
2252.25044	831.85
2255.14561	831.65
2258.03893	834.85
2260.93041	832.15
2263.82004	826.85
2266.70783	829.95
2269.59378	831.85
2272.4779	819.05
2275.36017	819.95
2278.24061	821.65
2281.11922	816.85
2283.996	810.65
2286.87094	812.25
2289.74405	815.25
2292.61534	816.15
2295.4848	822.85
2298.35243	818.25
2301.21824	809.95
2304.08223	817.75
2306.94439	812.85
2309.80474	804.05
2312.66327	811.45
2315.51999	816.85
2318.37489	806.55
2321.22797	805.25
2324.07925	812.45
2326.92871	807.65
2329.77637	808.85
2332.62222	805.35
2335.46626	804.95
2338.3085	791.85
2341.14893	808.65
2343.98756	802.65
2346.8244	800.75
2349.65943	799.55
2352.49267	798.35
2355.32411	789.05
2358.15376	792.25
2360.98161	797.05
2363.80768	794.65
2366.63195	794.55
2369.45444	792.45
2372.27514	793.65
2375.09405	797.55
2377.91118	784.25
2380.72652	786.85
2383.54009	784.35
2386.35187	783.95
2389.16188	783.15
2391.97011	784.55
2394.77657	780.45
2397.58125	775.25
2400.38416	779.85
2403.18529	780.35
2405.98466	779.25
2408.78226	776.85
2411.57809	768.65
2414.37216	777.05
2417.16446	769.85
2419.955	769.65
2422.74378	777.45
2425.5308	772.35
2428.31606	765.95
2431.09956	769.95
2433.88131	767.65
2436.6613	758.95
2439.43954	773.65
2442.21603	766.05
2444.99077	764.75
2447.76377	770.25
2450.53501	769.95
2453.30451	768.15
2456.07226	768.35
2458.83827	770.15
2461.60254	762.45
2464.36507	763.65
2467.12586	758.95
2469.88492	757.25
2472.64224	756.65
2475.39782	753.95
2478.15167	762.55
2480.90379	753.85
2483.65417	754.95
2486.40283	762.75
2489.14976	758.35
2491.89497	761.65
2494.63845	747.55
2497.3802	754.95
2500.12024	754.55
2502.85855	752.15
2505.59514	755.85
2508.33002	755.05
2511.06318	751.65
2513.79462	746.35
2516.52435	749.05
2519.25237	747.65
2521.97867	752.05
2524.70327	751.05
2527.42616	751.15
2530.14734	743.95
2532.86681	749.75
2535.58458	747.05
2538.30065	743.55
2541.01501	743.75
2543.72768	750.75
2546.43864	736.05
2549.14791	741.75
2551.85548	740.35
2554.56136	739.95
2557.26554	734.65
2559.96803	733.65
2562.66883	732.95
2565.36794	732.85
2568.06536	734.85
2570.7611	728.35
2573.45514	737.35
2576.14751	734.75
2578.83819	726.95
2581.52719	727.85
2584.21451	723.15
2586.90015	730.35
2589.58411	714.55
2592.2664	722.95
2594.94701	717.55
2597.62594	722.55
2600.30321	722.05
2602.9788	720.85
2605.65273	711.35
2608.32498	717.15
2610.99557	714.35
2613.66449	717.05
2616.33175	722.65
2618.99734	717.15
2621.66128	714.95
2624.32355	715.55
2626.98416	712.85
2629.64311	708.55
2632.30041	718.45
2634.95605	705.95
2637.61004	710.65
2640.26238	705.65
2642.91306	711.05
2645.56209	712.45
2648.20948	710.35
2650.85521	705.25
2653.4993	710.05
2656.14175	708.75
2658.78255	710.35
2661.42171	706.85
2664.05923	704.05
2666.6951	709.95
2669.32934	712.85
2671.96194	706.65
2674.59291	713.55
2677.22224	704.55
2679.84993	707.95
2682.476	706.95
2685.10043	707.35
2687.72324	714.85
2690.34441	713.55
2692.96396	707.75
2695.58188	701.05
2698.19818	712.65
2700.81285	718.15
2703.4259	706.75
2706.03733	697.45
2708.64714	697.55
2711.25533	701.85
2713.86191	704.55
2716.46687	710.45
2719.07021	710.85
2721.67194	708.85
2724.27206	711.15
2726.87057	720.45
2729.46747	713.55
2732.06276	720.55
2734.65644	711.25
2737.24852	719.35
2739.83899	709.75
2742.42786	719.75
2745.01513	713.25
2747.60079	712.65
2750.18486	710.75
2752.76733	712.65
2755.3482	712.75
2757.92747	710.05
2760.50515	709.85
2763.08123	705.25
2765.65573	713.85
2768.22863	707.05
2770.79994	710.15
2773.36967	711.65
2775.9378	704.65
2778.50435	708.35
2781.06932	707.85
2783.6327	708.95
2786.1945	708.55
2788.75471	703.05
2791.31335	705.95
2793.87041	708.45
2796.42589	701.15
2798.97979	705.65
2801.53212	704.15
2804.08288	699.85
2806.63206	703.75
2809.17967	705.05
2811.72571	694.25
2814.27018	693.95
2816.81308	693.95
2819.35442	691.55
2821.89419	692.55
2824.43239	688.05
2826.96904	684.25
2829.50412	691.75
2832.03763	685.25
2834.56959	690.85
2837.1	690.75
2839.62884	693.25
2842.15613	683.45
2844.68186	683.45
2847.20604	684.45
2849.72867	678.85
2852.24974	686.85
2854.76927	689.45
2857.28724	681.35
2859.80367	685.95
2862.31855	682.85
2864.83189	683.15
2867.34368	682.85
2869.85393	681.35
2872.36264	679.25
2874.8698	687.15
2877.37543	679.25
2879.87952	692.35
2882.38207	683.85
2884.88308	689.25
2887.38256	685.75
2889.88051	690.25
2892.37692	694.15
2894.8718	697.85
2897.36515	696.05
2899.85698	691.05
2902.34727	698.05
2904.83604	703.15
2907.32328	711.05
2909.809	713.75
2912.29319	708.95
2914.77587	714.95
2917.25702	718.65
2919.73665	714.15
2922.21476	720.35
2924.69136	712.95
2927.16644	726.05
2929.64	722.75
2932.11205	722.35
2934.58258	725.85
2937.05161	726.95
2939.51912	723.85
2941.98513	723.45
2944.44962	718.35
2946.91261	728.65
2949.37409	719.95
2951.83407	716.95
2954.29254	725.85
2956.74951	720.65
2959.20498	722.15
2961.65895	716.05
2964.11142	723.75
2966.56239	719.35
2969.01186	715.75
2971.45984	721.75
2973.90632	723.45
2976.35131	722.05
2978.7948	721.05
2981.23681	724.85
2983.67732	725.05
2986.11635	721.85
2988.55388	722.35
2990.98993	714.55
2993.4245	720.35
2995.85758	726.25
2998.28917	718.35
3000.71928	726.35
3003.14791	729.75
3005.57506	725.55
3008.00073	720.45
3010.42493	723.65
3012.84764	731.45
3015.26888	731.65
3017.68865	734.95
3020.10694	727.55
3022.52376	738.75
3024.9391	733.15
3027.35298	737.45
3029.76539	736.15
3032.17632	741.15
3034.5858	740.65
3036.9938	739.55
3039.40034	746.25
3041.80542	751.35
3044.20903	755.95
3046.61118	756.65
3049.01187	753.25
3051.4111	761.45
3053.80888	767.15
3056.20519	765.95
3058.60005	768.35
3060.99345	773.95
3063.3854	769.55
3065.7759	777.35
3068.16494	783.05
3070.55254	784.45
3072.93868	792.95
3075.32338	791.75
3077.70662	795.25
3080.08842	791.45
3082.46878	791.65
3084.84769	798.25
3087.22515	806.45
3089.60118	806.55
3091.97576	824.95
3094.3489	826.75
3096.72061	828.15
3099.09087	829.65
3101.4597	843.45
3103.82709	843.45
3106.19305	854.45
3108.55757	858.55
3110.92066	864.15
3113.28232	869.15
3115.64255	871.45
3118.00134	888.75
3120.35871	881.75
3122.71466	890.65
3125.06917	891.75
3127.42226	889.05
3129.77393	909.75
3132.12417	906.85
3134.47299	914.35
3136.82039	917.05
3139.16636	932.55
3141.51092	939.45
3143.85406	946.85
3146.19579	954.35
3148.53609	958.15
3150.87499	962.85
3153.21246	975.35
3155.54853	986.65
3157.88318	991.55
3160.21642	1001.25
3162.54826	1017.05
3164.87868	1025.95
3167.2077	1026.85
3169.5353	1029.55
3171.86151	1043.05
3174.18631	1045.35
3176.5097	1053.55
3178.83169	1049.85
3181.15228	1064.25
3183.47147	1071.25
3185.78926	1072.05
3188.10565	1085.65
3190.42065	1091.55
3192.73424	1092.55
3195.04645	1095.55
3197.35725	1099.05
3199.66667	1106.45
3201.97469	1112.25
3204.28132	1120.85
3206.58656	1139.55
3208.8904	1134.05
3211.19287	1135.45
3213.49394	1138.15
3215.79363	1141.05
3218.09193	1152.15
3220.38884	1155.25
3222.68438	1160.35
3224.97853	1162.75
3227.2713	1167.45
3229.56269	1171.55
3231.8527	1178.65
3234.14133	1172.05
3236.42858	1166.25
3238.71446	1165.65
3240.99896	1171.15
3243.28209	1166.45
3245.56384	1161.55
3247.84423	1166.55
3250.12324	1166.55
3252.40088	1170.25
3254.67715	1164.45
3256.95205	1173.55
3259.22558	1168.75
3261.49775	1169.45
3263.76855	1172.45
3266.03799	1176.95
3268.30606	1175.15
3270.57277	1177.85
3272.83812	1180.75
3275.10211	1166.75
3277.36474	1172.65
3279.62601	1167.25
3281.88593	1172.85
3284.14448	1169.95
3286.40168	1170.15
3288.65753	1178.05
3290.91202	1171.85
3293.16516	1170.35
3295.41695	1167.05
3297.66738	1166.85
3299.91647	1155.35
3302.16421	1152.35
3304.4106	1153.25
3306.65564	1141.55
3308.89933	1136.65
3311.14169	1125.95
3313.38269	1112.95
3315.62236	1108.85
3317.86068	1110.85
3320.09766	1104.15
3322.3333	1088.95
3324.5676	1087.45
3326.80056	1074.45
3329.03219	1065.95
3331.26248	-0.75
3333.49143	0.35
3335.71905	-1.65
