Data from AgNPs_APTES_FTO_UA_100uM_CRN_0uM_R6G_10uM_Scan_RamanShift__57__11-46-11-305.txt Node

Date: Wed Jun 29 11:46:11 BST 2022
User: TCL
Spectrometer: QEP01345
Trigger mode: 4
Integration Time (sec): 7.000000E0
Scans to average: 10
Electric dark correction enabled: true
Nonlinearity correction enabled: false
Boxcar width: 0
XAxis mode: Raman Shifts
Number of Pixels in Spectrum: 1044
>>>>>Begin Spectral Data<<<<<
46.04893	0.45
50.45542	-0.05
54.85868	1.55
59.25871	0.55
63.6555	38.35
68.04907	41.25
72.43941	46.65
76.82654	49.75
81.21044	49.15
85.59113	51.45
89.96862	56.55
94.34289	58.15
98.71396	58.65
103.08183	60.65
107.4465	60.85
111.80798	64.25
116.16626	59.35
120.52136	63.05
124.87327	56.65
129.222	57.55
133.56755	60.05
137.90993	55.35
142.24913	57.85
146.58517	54.25
150.91804	54.15
155.24774	57.25
159.57429	59.75
163.89768	63.35
168.21792	69.85
172.53501	84.75
176.84895	100.35
181.15975	126.75
185.46741	166.05
189.77193	202.45
194.07331	271.05
198.37157	340.85
202.6667	419.05
206.9587	478.15
211.24758	561.55
215.53334	629.75
219.81599	714.95
224.09553	788.85
228.37195	890.95
232.64527	994.25
236.91549	1100.15
241.18261	1186.15
245.44663	1282.35
249.70755	1342.45
253.96539	1409.25
258.22014	1460.75
262.4718	1502.85
266.72039	1515.65
270.96589	1531.25
275.20832	1523.95
279.44768	1498.65
283.68397	1461.65
287.91719	1443.45
292.14735	1434.45
296.37445	1433.15
300.59849	1472.55
304.81948	1504.35
309.03742	1537.35
313.25231	1541.55
317.46415	1512.05
321.67296	1451.55
325.87872	1393.35
330.08145	1382.15
334.28114	1385.15
338.47781	1403.75
342.67145	1434.35
346.86207	1471.95
351.04966	1536.65
355.23424	1601.05
359.4158	1650.35
363.59435	1687.85
367.76989	1693.65
371.94243	1692.45
376.11196	1690.35
380.27849	1703.45
384.44203	1700.15
388.60257	1695.05
392.76012	1698.75
396.91468	1714.85
401.06626	1748.45
405.21485	1770.65
409.36047	1761.55
413.50311	1724.15
417.64277	1677.95
421.77947	1649.35
425.9132	1636.55
430.04396	1640.95
434.17176	1662.35
438.2966	1684.05
442.41849	1713.55
446.53742	1738.35
450.6534	1760.65
454.76644	1789.05
458.87653	1791.95
462.98368	1784.55
467.08789	1777.45
471.18916	1757.25
475.2875	1740.65
479.38291	1736.75
483.4754	1739.25
487.56496	1748.35
491.6516	1758.15
495.73531	1759.95
499.81612	1750.45
503.89401	1751.55
507.96899	1754.15
512.04106	1761.75
516.11023	1772.35
520.1765	1802.05
524.23987	1801.75
528.30034	1812.85
532.35792	1805.75
536.41261	1795.55
540.46441	1776.95
544.51333	1753.55
548.55936	1752.55
552.60252	1763.95
556.64279	1773.75
560.6802	1770.15
564.71473	1801.95
568.7464	1835.75
572.7752	1851.45
576.80114	1807.95
580.82422	1775.15
584.84444	1779.25
588.86181	1782.85
592.87633	1827.85
596.888	1830.75
600.89682	1869.95
604.9028	2006.65
608.90594	2316.95
612.90624	2701.75
616.90371	2623.15
620.89834	2190.25
624.89015	2019.25
628.87913	2039.35
632.86528	2110.85
636.84862	2148.15
640.82913	2110.55
644.80683	2026.25
648.78172	1943.75
652.75379	1914.85
656.72306	1916.65
660.68952	1943.05
664.65319	1910.95
668.61405	1864.25
672.57211	1839.05
676.52738	1850.05
680.47986	1841.15
684.42955	1845.55
688.37646	1865.55
692.32058	1874.75
696.26192	1869.65
700.20048	1888.15
704.13626	1890.35
708.06928	1861.95
711.99952	1850.95
715.927	1854.75
719.85171	1864.55
723.77365	1877.45
727.69284	1882.15
731.60928	1884.65
735.52295	1872.35
739.43388	1863.35
743.34206	1875.95
747.24749	1868.45
751.15017	1870.25
755.05012	1852.45
758.94733	1926.45
762.8418	2047.65
766.73354	2223.65
770.62254	2370.75
774.50882	2447.85
778.39237	2408.75
782.27321	2235.55
786.15132	2057.15
790.02671	1952.75
793.89938	1899.75
797.76935	1904.25
801.6366	1900.15
805.50115	1930.15
809.36299	1968.05
813.22213	1976.75
817.07857	1972.75
820.93231	1925.25
824.78336	1897.85
828.63172	1873.55
832.47738	1865.75
836.32036	1868.65
840.16066	1861.55
843.99827	1875.65
847.8332	1859.85
851.66546	1856.45
855.49504	1851.75
859.32195	1863.55
863.1462	1858.85
866.96777	1871.05
870.78668	1879.65
874.60293	1901.15
878.41652	1927.65
882.22745	1961.15
886.03573	1980.75
889.84136	1985.35
893.64433	1977.25
897.44466	1943.75
901.24235	1907.75
905.0374	1880.85
908.8298	1855.55
912.61957	1839.35
916.40671	1830.25
920.19121	1839.25
923.97308	1844.15
927.75233	1862.45
931.52895	1873.15
935.30295	1863.55
939.07433	1844.85
942.84309	1822.65
946.60924	1804.05
950.37278	1813.15
954.13371	1805.05
957.89203	1806.35
961.64774	1802.75
965.40086	1796.85
969.15137	1787.45
972.89929	1775.05
976.64461	1780.75
980.38733	1780.45
984.12747	1781.35
987.86502	1797.05
991.59999	1794.95
995.33237	1823.25
999.06217	1850.15
1002.78939	1902.75
1006.51404	1917.65
1010.23611	1949.95
1013.95561	1972.35
1017.67255	1977.75
1021.38692	1965.55
1025.09872	1949.95
1028.80796	1940.05
1032.51465	1949.95
1036.21877	1956.65
1039.92035	1950.75
1043.61937	1931.25
1047.31584	1935.75
1051.00976	1905.75
1054.70114	1900.45
1058.38998	1899.35
1062.07627	1928.15
1065.76003	1928.55
1069.44126	1942.65
1073.11995	1952.55
1076.79611	1957.25
1080.46974	1992.65
1084.14085	2004.75
1087.80943	2024.95
1091.47549	2016.55
1095.13903	1969.95
1098.80005	1951.25
1102.45857	1931.45
1106.11456	1925.55
1109.76805	1953.85
1113.41903	1976.15
1117.06751	2040.75
1120.71348	2118.55
1124.35696	2223.45
1127.99793	2301.45
1131.63641	2334.35
1135.2724	2301.05
1138.90589	2257.25
1142.5369	2207.25
1146.16542	2123.75
1149.79145	2057.95
1153.415	2002.15
1157.03607	1971.65
1160.65467	1963.95
1164.27079	1985.25
1167.88443	2034.85
1171.49561	2109.25
1175.10432	2229.85
1178.71056	2402.05
1182.31434	2546.45
1185.91565	2597.65
1189.51451	2570.65
1193.11091	2497.95
1196.70485	2442.25
1200.29634	2405.05
1203.88538	2367.65
1207.47197	2280.35
1211.05612	2204.15
1214.63782	2144.45
1218.21708	2088.15
1221.79391	2062.95
1225.36829	2044.55
1228.94024	2030.05
1232.50976	2015.05
1236.07685	2017.45
1239.6415	2016.35
1243.20374	2031.05
1246.76355	2041.85
1250.32093	2061.15
1253.8759	2080.45
1257.42845	2124.15
1260.97859	2152.15
1264.52631	2182.85
1268.07163	2235.65
1271.61453	2250.55
1275.15503	2274.75
1278.69312	2291.85
1282.22882	2312.75
1285.76211	2342.15
1289.29301	2385.15
1292.82151	2425.75
1296.34761	2469.65
1299.87133	2570.15
1303.39266	2712.65
1306.9116	2953.35
1310.42815	3192.25
1313.94233	3253.05
1317.45412	3116.35
1320.96354	2892.05
1324.47058	2687.95
1327.97525	2559.75
1331.47754	2484.05
1334.97747	2470.75
1338.47502	2496.85
1341.97022	2595.85
1345.46305	2712.25
1348.95352	2859.95
1352.44163	3016.55
1355.92738	3250.15
1359.41078	3605.95
1362.89183	3884.35
1366.37053	3713.65
1369.84688	3197.05
1373.32088	2799.45
1376.79254	2577.75
1380.26186	2440.95
1383.72883	2350.45
1387.19347	2273.35
1390.65578	2202.35
1394.11575	2160.45
1397.57339	2127.85
1401.0287	2113.85
1404.48168	2099.75
1407.93234	2097.25
1411.38068	2109.35
1414.82669	2109.45
1418.27039	2102.15
1421.71177	2083.75
1425.15083	2060.85
1428.58758	2056.65
1432.02203	2092.25
1435.45416	2118.15
1438.88399	2117.75
1442.31151	2092.95
1445.73673	2101.75
1449.15965	2102.25
1452.58027	2115.65
1455.9986	2094.75
1459.41463	2103.25
1462.82837	2118.55
1466.23982	2135.35
1469.64898	2177.75
1473.05586	2184.65
1476.46045	2191.45
1479.86276	2191.95
1483.26279	2215.65
1486.66054	2256.55
1490.05602	2317.75
1493.44922	2404.05
1496.84016	2527.15
1500.22882	2743.15
1503.61521	3029.55
1506.99934	3335.95
1510.38121	3585.95
1513.76081	3581.15
1517.13816	3295.85
1520.51324	2930.95
1523.88607	2619.25
1527.25665	2441.15
1530.62498	2345.05
1533.99105	2283.65
1537.35488	2244.65
1540.71647	2235.05
1544.07581	2247.05
1547.4329	2254.35
1550.78776	2261.45
1554.14038	2265.85
1557.49077	2287.95
1560.83892	2303.25
1564.18484	2351.75
1567.52853	2420.35
1570.86999	2452.25
1574.20922	2459.55
1577.54624	2457.65
1580.88103	2381.35
1584.2136	2267.05
1587.54395	2210.85
1590.87208	2235.75
1594.19801	2288.45
1597.52172	2397.05
1600.84321	2442.35
1604.16251	2412.45
1607.47959	2339.25
1610.79447	2250.75
1614.10715	2163.25
1617.41763	2095.75
1620.7259	2064.35
1624.03199	2035.55
1627.33587	2032.65
1630.63757	2055.25
1633.93707	2089.55
1637.23439	2194.05
1640.52951	2326.15
1643.82246	2503.85
1647.11321	2733.15
1650.40179	2844.05
1653.68819	2756.05
1656.97241	2505.15
1660.25446	2240.45
1663.53433	2072.45
1666.81203	1959.25
1670.08756	1897.35
1673.36092	1860.85
1676.63211	1832.65
1679.90115	1804.55
1683.16801	1790.55
1686.43272	1769.55
1689.69527	1755.15
1692.95567	1736.75
1696.2139	1729.25
1699.46999	1714.25
1702.72392	1692.15
1705.97571	1668.65
1709.22535	1665.95
1712.47284	1663.85
1715.71819	1649.65
1718.96139	1644.15
1722.20246	1643.15
1725.44139	1624.35
1728.67818	1608.25
1731.91284	1595.85
1735.14537	1584.15
1738.37576	1586.75
1741.60403	1579.25
1744.83017	1568.75
1748.05418	1563.35
1751.27607	1565.05
1754.49584	1555.25
1757.71349	1548.05
1760.92903	1541.65
1764.14244	1546.15
1767.35375	1527.05
1770.56294	1537.15
1773.77002	1533.15
1776.97499	1522.25
1780.17785	1520.45
1783.37861	1522.95
1786.57727	1525.75
1789.77382	1517.85
1792.96828	1515.75
1796.16064	1509.85
1799.3509	1516.35
1802.53907	1511.35
1805.72514	1502.85
1808.90913	1508.85
1812.09102	1487.65
1815.27083	1487.35
1818.44856	1489.65
1821.6242	1488.65
1824.79776	1494.95
1827.96924	1482.95
1831.13864	1479.75
1834.30597	1481.85
1837.47122	1477.95
1840.6344	1480.05
1843.7955	1471.35
1846.95454	1477.95
1850.11151	1473.05
1853.26642	1465.85
1856.41926	1476.25
1859.57004	1472.35
1862.71876	1465.75
1865.86542	1476.45
1869.01003	1471.05
1872.15258	1468.45
1875.29308	1464.05
1878.43152	1463.05
1881.56792	1462.05
1884.70227	1460.65
1887.83457	1451.95
1890.96482	1454.15
1894.09304	1453.05
1897.21921	1450.75
1900.34335	1447.75
1903.46544	1453.85
1906.58551	1448.85
1909.70353	1441.55
1912.81953	1444.85
1915.93349	1449.15
1919.04543	1439.55
1922.15534	1438.65
1925.26322	1438.65
1928.36908	1423.95
1931.47292	1430.05
1934.57473	1438.45
1937.67453	1437.45
1940.77232	1419.35
1943.86808	1425.55
1946.96184	1424.35
1950.05358	1417.35
1953.14331	1413.65
1956.23103	1407.35
1959.31675	1399.05
1962.40046	1399.65
1965.48217	1397.15
1968.56188	1397.15
1971.63959	1394.15
1974.7153	1388.05
1977.78901	1379.95
1980.86073	1371.65
1983.93046	1373.25
1986.99819	1374.05
1990.06394	1362.35
1993.1277	1363.65
1996.18947	1362.45
1999.24925	1356.35
2002.30706	1350.25
2005.36288	1340.35
2008.41672	1341.65
2011.46859	1338.25
2014.51848	1335.15
2017.56639	1329.15
2020.61233	1325.25
2023.6563	1329.65
2026.6983	1324.45
2029.73833	1321.05
2032.7764	1318.15
2035.8125	1313.25
2038.84664	1307.95
2041.87881	1313.25
2044.90903	1310.85
2047.93729	1301.95
2050.96359	1305.15
2053.98794	1295.15
2057.01034	1299.95
2060.03078	1303.05
2063.04927	1298.85
2066.06582	1303.35
2069.08042	1292.05
2072.09307	1311.55
2075.10378	1304.95
2078.11255	1299.25
2081.11938	1295.35
2084.12426	1294.55
2087.12722	1300.45
2090.12824	1295.65
2093.12732	1297.25
2096.12447	1293.55
2099.11969	1296.35
2102.11299	1300.95
2105.10435	1305.55
2108.09379	1299.75
2111.08131	1303.45
2114.0669	1295.15
2117.05057	1304.55
2120.03233	1305.05
2123.01216	1307.35
2125.99008	1308.55
2128.96609	1301.85
2131.94018	1317.55
2134.91236	1309.85
2137.88263	1315.55
2140.851	1317.15
2143.81746	1308.15
2146.78201	1310.75
2149.74466	1317.15
2152.7054	1312.05
2155.66425	1309.25
2158.6212	1313.75
2161.57625	1313.55
2164.52941	1310.05
2167.48067	1302.25
2170.43004	1310.85
2173.37752	1309.95
2176.32311	1305.85
2179.26681	1312.85
2182.20863	1315.45
2185.14856	1303.85
2188.08661	1308.95
2191.02278	1310.45
2193.95707	1312.75
2196.88948	1303.65
2199.82001	1307.05
2202.74867	1295.65
2205.67545	1309.55
2208.60037	1305.45
2211.52341	1303.15
2214.44458	1303.35
2217.36388	1294.85
2220.28132	1296.85
2223.1969	1295.85
2226.11061	1296.65
2229.02246	1298.15
2231.93245	1285.75
2234.84058	1284.35
2237.74686	1290.45
2240.65128	1284.65
2243.55385	1277.65
2246.45456	1273.85
2249.35343	1284.45
2252.25044	1274.55
2255.14561	1271.55
2258.03893	1276.65
2260.93041	1276.75
2263.82004	1278.35
2266.70783	1266.85
2269.59378	1264.25
2272.4779	1261.55
2275.36017	1263.75
2278.24061	1256.05
2281.11922	1257.95
2283.996	1247.75
2286.87094	1253.05
2289.74405	1248.25
2292.61534	1250.95
2295.4848	1247.95
2298.35243	1255.75
2301.21824	1246.35
2304.08223	1253.25
2306.94439	1249.75
2309.80474	1243.35
2312.66327	1250.45
2315.51999	1253.75
2318.37489	1251.05
2321.22797	1242.35
2324.07925	1238.95
2326.92871	1242.15
2329.77637	1245.75
2332.62222	1239.65
2335.46626	1243.65
2338.3085	1234.45
2341.14893	1231.85
2343.98756	1229.65
2346.8244	1234.25
2349.65943	1237.15
2352.49267	1237.35
2355.32411	1233.95
2358.15376	1221.95
2360.98161	1230.75
2363.80768	1232.25
2366.63195	1237.85
2369.45444	1240.65
2372.27514	1231.85
2375.09405	1234.15
2377.91118	1228.45
2380.72652	1224.65
2383.54009	1223.95
2386.35187	1221.95
2389.16188	1218.75
2391.97011	1223.75
2394.77657	1212.85
2397.58125	1211.65
2400.38416	1205.55
2403.18529	1205.35
2405.98466	1199.45
2408.78226	1207.25
2411.57809	1208.35
2414.37216	1211.15
2417.16446	1193.85
2419.955	1200.05
2422.74378	1201.25
2425.5308	1204.65
2428.31606	1195.65
2431.09956	1190.75
2433.88131	1188.15
2436.6613	1188.95
2439.43954	1194.75
2442.21603	1192.05
2444.99077	1191.25
2447.76377	1199.95
2450.53501	1193.25
2453.30451	1199.35
2456.07226	1192.85
2458.83827	1180.35
2461.60254	1176.95
2464.36507	1182.45
2467.12586	1176.25
2469.88492	1188.05
2472.64224	1192.55
2475.39782	1188.45
2478.15167	1188.25
2480.90379	1196.05
2483.65417	1195.35
2486.40283	1195.25
2489.14976	1197.25
2491.89497	1194.25
2494.63845	1185.45
2497.3802	1184.95
2500.12024	1187.55
2502.85855	1179.35
2505.59514	1187.45
2508.33002	1178.85
2511.06318	1179.85
2513.79462	1179.95
2516.52435	1175.75
2519.25237	1177.05
2521.97867	1173.25
2524.70327	1172.45
2527.42616	1179.75
2530.14734	1164.65
2532.86681	1167.05
2535.58458	1170.65
2538.30065	1166.45
2541.01501	1162.75
2543.72768	1175.55
2546.43864	1164.85
2549.14791	1161.95
2551.85548	1164.75
2554.56136	1154.05
2557.26554	1152.65
2559.96803	1154.25
2562.66883	1152.25
2565.36794	1157.85
2568.06536	1154.25
2570.7611	1155.95
2573.45514	1144.45
2576.14751	1145.65
2578.83819	1141.55
2581.52719	1142.05
2584.21451	1136.45
2586.90015	1140.55
2589.58411	1135.85
2592.2664	1144.25
2594.94701	1143.15
2597.62594	1139.75
2600.30321	1144.45
2602.9788	1139.75
2605.65273	1146.05
2608.32498	1130.15
2610.99557	1130.65
2613.66449	1134.05
2616.33175	1138.15
2618.99734	1131.95
2621.66128	1130.75
2624.32355	1132.85
2626.98416	1130.55
2629.64311	1127.75
2632.30041	1128.55
2634.95605	1125.95
2637.61004	1126.85
2640.26238	1122.35
2642.91306	1124.35
2645.56209	1124.95
2648.20948	1124.65
2650.85521	1113.95
2653.4993	1123.35
2656.14175	1119.85
2658.78255	1121.75
2661.42171	1118.45
2664.05923	1122.35
2666.6951	1115.35
2669.32934	1121.35
2671.96194	1121.15
2674.59291	1123.45
2677.22224	1117.85
2679.84993	1120.85
2682.476	1128.95
2685.10043	1120.75
2687.72324	1130.55
2690.34441	1125.35
2692.96396	1121.45
2695.58188	1130.15
2698.19818	1120.85
2700.81285	1128.55
2703.4259	1117.15
2706.03733	1111.75
2708.64714	1114.65
2711.25533	1110.05
2713.86191	1114.35
2716.46687	1130.25
2719.07021	1122.25
2721.67194	1129.25
2724.27206	1127.35
2726.87057	1136.75
2729.46747	1135.25
2732.06276	1133.05
2734.65644	1132.15
2737.24852	1136.95
2739.83899	1130.05
2742.42786	1134.35
2745.01513	1120.75
2747.60079	1141.15
2750.18486	1117.65
2752.76733	1124.85
2755.3482	1125.25
2757.92747	1122.85
2760.50515	1120.35
2763.08123	1118.85
2765.65573	1118.65
2768.22863	1109.15
2770.79994	1121.45
2773.36967	1120.95
2775.9378	1123.25
2778.50435	1117.75
2781.06932	1115.65
2783.6327	1115.85
2786.1945	1123.55
2788.75471	1124.25
2791.31335	1111.35
2793.87041	1119.05
2796.42589	1112.35
2798.97979	1117.45
2801.53212	1113.95
2804.08288	1111.95
2806.63206	1101.75
2809.17967	1108.75
2811.72571	1102.55
2814.27018	1110.65
2816.81308	1108.35
2819.35442	1102.55
2821.89419	1093.05
2824.43239	1102.45
2826.96904	1102.35
2829.50412	1099.95
2832.03763	1100.75
2834.56959	1105.05
2837.1	1106.45
2839.62884	1094.25
2842.15613	1101.55
2844.68186	1101.15
2847.20604	1094.95
2849.72867	1094.65
2852.24974	1101.05
2854.76927	1102.95
2857.28724	1097.75
2859.80367	1104.45
2862.31855	1104.25
2864.83189	1109.85
2867.34368	1102.35
2869.85393	1094.65
2872.36264	1108.45
2874.8698	1106.25
2877.37543	1102.45
2879.87952	1102.25
2882.38207	1104.55
2884.88308	1101.35
2887.38256	1105.35
2889.88051	1101.65
2892.37692	1112.35
2894.8718	1110.95
2897.36515	1122.05
2899.85698	1112.85
2902.34727	1118.75
2904.83604	1120.85
2907.32328	1126.25
2909.809	1121.85
2912.29319	1127.75
2914.77587	1132.05
2917.25702	1120.45
2919.73665	1121.65
2922.21476	1126.35
2924.69136	1128.95
2927.16644	1125.55
2929.64	1129.15
2932.11205	1128.45
2934.58258	1121.85
2937.05161	1124.95
2939.51912	1123.65
2941.98513	1120.25
2944.44962	1118.75
2946.91261	1125.45
2949.37409	1123.25
2951.83407	1128.15
2954.29254	1124.65
2956.74951	1125.65
2959.20498	1130.95
2961.65895	1123.15
2964.11142	1137.95
2966.56239	1126.95
2969.01186	1126.85
2971.45984	1131.95
2973.90632	1128.85
2976.35131	1130.85
2978.7948	1127.25
2981.23681	1127.25
2983.67732	1129.45
2986.11635	1127.45
2988.55388	1126.75
2990.98993	1119.55
2993.4245	1125.25
2995.85758	1126.35
2998.28917	1128.55
3000.71928	1121.95
3003.14791	1126.95
3005.57506	1122.45
3008.00073	1129.25
3010.42493	1127.15
3012.84764	1131.75
3015.26888	1128.85
3017.68865	1129.25
3020.10694	1120.05
3022.52376	1134.35
3024.9391	1130.55
3027.35298	1131.15
3029.76539	1141.75
3032.17632	1139.85
3034.5858	1134.05
3036.9938	1141.35
3039.40034	1148.55
3041.80542	1148.35
3044.20903	1150.25
3046.61118	1154.65
3049.01187	1149.55
3051.4111	1162.75
3053.80888	1162.05
3056.20519	1166.45
3058.60005	1165.95
3060.99345	1171.45
3063.3854	1158.05
3065.7759	1171.65
3068.16494	1164.65
3070.55254	1167.75
3072.93868	1160.65
3075.32338	1174.65
3077.70662	1173.85
3080.08842	1175.45
3082.46878	1179.55
3084.84769	1185.95
3087.22515	1192.35
3089.60118	1202.25
3091.97576	1202.55
3094.3489	1206.35
3096.72061	1210.65
3099.09087	1220.85
3101.4597	1227.25
3103.82709	1225.65
3106.19305	1233.75
3108.55757	1243.55
3110.92066	1244.25
3113.28232	1254.35
3115.64255	1258.85
3118.00134	1264.65
3120.35871	1264.45
3122.71466	1268.85
3125.06917	1274.25
3127.42226	1269.55
3129.77393	1282.65
3132.12417	1296.45
3134.47299	1293.15
3136.82039	1294.15
3139.16636	1307.95
3141.51092	1305.95
3143.85406	1326.15
3146.19579	1330.65
3148.53609	1329.45
3150.87499	1346.25
3153.21246	1354.55
3155.54853	1358.75
3157.88318	1375.45
3160.21642	1379.75
3162.54826	1398.45
3164.87868	1392.25
3167.2077	1404.75
3169.5353	1410.85
3171.86151	1412.25
3174.18631	1417.25
3176.5097	1426.25
3178.83169	1432.95
3181.15228	1441.65
3183.47147	1445.95
3185.78926	1451.65
3188.10565	1456.65
3190.42065	1464.05
3192.73424	1463.05
3195.04645	1466.75
3197.35725	1469.75
3199.66667	1472.65
3201.97469	1480.75
3204.28132	1500.45
3206.58656	1500.45
3208.8904	1500.65
3211.19287	1500.05
3213.49394	1521.45
3215.79363	1518.05
3218.09193	1527.45
3220.38884	1531.65
3222.68438	1535.25
3224.97853	1535.05
3227.2713	1538.75
3229.56269	1541.05
3231.8527	1547.85
3234.14133	1540.05
3236.42858	1542.05
3238.71446	1532.75
3240.99896	1534.75
3243.28209	1538.55
3245.56384	1534.05
3247.84423	1530.15
3250.12324	1537.55
3252.40088	1535.65
3254.67715	1535.35
3256.95205	1537.55
3259.22558	1547.25
3261.49775	1538.55
3263.76855	1547.15
3266.03799	1548.95
3268.30606	1552.25
3270.57277	1551.85
3272.83812	1542.05
3275.10211	1543.35
3277.36474	1547.95
3279.62601	1548.95
3281.88593	1542.85
3284.14448	1539.75
3286.40168	1546.95
3288.65753	1539.35
3290.91202	1542.05
3293.16516	1540.25
3295.41695	1534.75
3297.66738	1522.45
3299.91647	1524.05
3302.16421	1513.25
3304.4106	1508.35
3306.65564	1491.35
3308.89933	1483.35
3311.14169	1474.65
3313.38269	1464.25
3315.62236	1457.25
3317.86068	1446.35
3320.09766	1437.65
3322.3333	1428.45
3324.5676	1416.95
3326.80056	1398.55
3329.03219	1385.15
3331.26248	-0.75
3333.49143	0.15
3335.71905	-1.55
