Data from AgNPs_APTES_FTO_UA_100uM_CRN_0uM_R6G_10uM_Scan_RamanShift__75__12-07-11-330.txt Node

Date: Wed Jun 29 12:07:11 BST 2022
User: TCL
Spectrometer: QEP01345
Trigger mode: 4
Integration Time (sec): 7.000000E0
Scans to average: 10
Electric dark correction enabled: true
Nonlinearity correction enabled: false
Boxcar width: 0
XAxis mode: Raman Shifts
Number of Pixels in Spectrum: 1044
>>>>>Begin Spectral Data<<<<<
46.04893	-0.25
50.45542	-0.25
54.85868	0.35
59.25871	0.85
63.6555	38.85
68.04907	40.35
72.43941	43.15
76.82654	43.65
81.21044	49.05
85.59113	48.45
89.96862	53.45
94.34289	54.85
98.71396	58.25
103.08183	56.55
107.4465	58.05
111.80798	60.65
116.16626	55.05
120.52136	54.85
124.87327	53.75
129.222	57.45
133.56755	52.85
137.90993	56.65
142.24913	54.35
146.58517	53.05
150.91804	52.15
155.24774	54.45
159.57429	59.25
163.89768	60.75
168.21792	68.35
172.53501	79.95
176.84895	97.05
181.15975	129.25
185.46741	158.65
189.77193	205.75
194.07331	266.65
198.37157	336.45
202.6667	408.75
206.9587	476.15
211.24758	547.85
215.53334	611.85
219.81599	684.45
224.09553	755.85
228.37195	846.25
232.64527	935.15
236.91549	1036.35
241.18261	1137.75
245.44663	1254.25
249.70755	1341.95
253.96539	1435.05
258.22014	1508.55
262.4718	1566.55
266.72039	1594.95
270.96589	1605.85
275.20832	1597.15
279.44768	1566.15
283.68397	1544.05
287.91719	1507.15
292.14735	1471.25
296.37445	1455.05
300.59849	1424.65
304.81948	1426.65
309.03742	1403.85
313.25231	1404.45
317.46415	1397.15
321.67296	1390.05
325.87872	1387.65
330.08145	1391.55
334.28114	1412.75
338.47781	1428.05
342.67145	1431.75
346.86207	1458.55
351.04966	1468.35
355.23424	1490.45
359.4158	1511.25
363.59435	1523.75
367.76989	1548.75
371.94243	1563.05
376.11196	1571.05
380.27849	1588.75
384.44203	1605.85
388.60257	1628.65
392.76012	1645.25
396.91468	1646.35
401.06626	1677.05
405.21485	1696.45
409.36047	1710.85
413.50311	1720.05
417.64277	1725.85
421.77947	1738.05
425.9132	1737.85
430.04396	1745.85
434.17176	1762.15
438.2966	1778.65
442.41849	1795.55
446.53742	1790.45
450.6534	1821.55
454.76644	1824.65
458.87653	1843.55
462.98368	1845.45
467.08789	1858.25
471.18916	1850.05
475.2875	1854.85
479.38291	1868.35
483.4754	1870.35
487.56496	1874.05
491.6516	1891.65
495.73531	1878.75
499.81612	1871.55
503.89401	1889.55
507.96899	1880.35
512.04106	1883.25
516.11023	1889.65
520.1765	1884.05
524.23987	1884.85
528.30034	1888.95
532.35792	1901.95
536.41261	1897.95
540.46441	1895.05
544.51333	1898.25
548.55936	1903.05
552.60252	1912.85
556.64279	1923.55
560.6802	1923.95
564.71473	1932.15
568.7464	1933.65
572.7752	1938.05
576.80114	1944.25
580.82422	1950.15
584.84444	1966.35
588.86181	1998.65
592.87633	1975.65
596.888	1973.95
600.89682	1981.95
604.9028	2012.35
608.90594	2049.75
612.90624	2097.35
616.90371	2088.15
620.89834	2023.65
624.89015	2002.15
628.87913	2002.05
632.86528	2008.95
636.84862	2011.65
640.82913	2012.25
644.80683	2020.45
648.78172	2013.95
652.75379	2023.45
656.72306	2027.45
660.68952	2044.55
664.65319	2060.35
668.61405	2060.85
672.57211	2066.05
676.52738	2075.85
680.47986	2079.95
684.42955	2080.55
688.37646	2103.45
692.32058	2097.95
696.26192	2106.95
700.20048	2119.75
704.13626	2118.55
708.06928	2119.25
711.99952	2113.65
715.927	2103.65
719.85171	2104.75
723.77365	2114.75
727.69284	2110.95
731.60928	2106.85
735.52295	2105.05
739.43388	2098.95
743.34206	2108.75
747.24749	2118.65
751.15017	2119.75
755.05012	2105.15
758.94733	2133.75
762.8418	2152.35
766.73354	2171.85
770.62254	2191.25
774.50882	2210.35
778.39237	2209.35
782.27321	2198.35
786.15132	2174.35
790.02671	2159.15
793.89938	2158.05
797.76935	2147.05
801.6366	2155.45
805.50115	2141.65
809.36299	2146.55
813.22213	2150.85
817.07857	2155.45
820.93231	2152.85
824.78336	2160.55
828.63172	2157.95
832.47738	2155.05
836.32036	2159.55
840.16066	2158.45
843.99827	2167.65
847.8332	2165.15
851.66546	2163.55
855.49504	2187.75
859.32195	2170.65
863.1462	2184.55
866.96777	2181.25
870.78668	2186.75
874.60293	2190.05
878.41652	2201.85
882.22745	2202.05
886.03573	2208.95
889.84136	2210.05
893.64433	2216.85
897.44466	2218.35
901.24235	2230.25
905.0374	2215.65
908.8298	2227.25
912.61957	2222.35
916.40671	2227.85
920.19121	2236.75
923.97308	2226.15
927.75233	2231.15
931.52895	2219.45
935.30295	2214.15
939.07433	2225.75
942.84309	2208.45
946.60924	2211.75
950.37278	2214.35
954.13371	2211.15
957.89203	2211.95
961.64774	2214.75
965.40086	2205.45
969.15137	2206.65
972.89929	2189.25
976.64461	2198.85
980.38733	2205.35
984.12747	2206.15
987.86502	2215.95
991.59999	2209.35
995.33237	2217.85
999.06217	2227.55
1002.78939	2238.55
1006.51404	2241.65
1010.23611	2246.75
1013.95561	2257.85
1017.67255	2259.55
1021.38692	2258.85
1025.09872	2269.05
1028.80796	2260.25
1032.51465	2251.45
1036.21877	2263.75
1039.92035	2278.15
1043.61937	2276.75
1047.31584	2274.35
1051.00976	2274.25
1054.70114	2293.65
1058.38998	2290.05
1062.07627	2302.65
1065.76003	2295.25
1069.44126	2296.35
1073.11995	2317.45
1076.79611	2310.95
1080.46974	2328.75
1084.14085	2330.65
1087.80943	2326.65
1091.47549	2330.25
1095.13903	2327.75
1098.80005	2323.45
1102.45857	2322.45
1106.11456	2304.95
1109.76805	2315.15
1113.41903	2315.85
1117.06751	2305.65
1120.71348	2307.75
1124.35696	2316.55
1127.99793	2326.45
1131.63641	2318.05
1135.2724	2325.55
1138.90589	2314.15
1142.5369	2314.95
1146.16542	2320.45
1149.79145	2318.25
1153.415	2308.25
1157.03607	2306.95
1160.65467	2299.05
1164.27079	2301.15
1167.88443	2327.85
1171.49561	2332.25
1175.10432	2346.45
1178.71056	2375.65
1182.31434	2389.85
1185.91565	2420.25
1189.51451	2429.35
1193.11091	2433.05
1196.70485	2437.45
1200.29634	2434.45
1203.88538	2420.45
1207.47197	2409.75
1211.05612	2386.35
1214.63782	2381.25
1218.21708	2373.45
1221.79391	2364.85
1225.36829	2372.25
1228.94024	2368.75
1232.50976	2375.55
1236.07685	2385.05
1239.6415	2380.35
1243.20374	2368.95
1246.76355	2371.05
1250.32093	2398.85
1253.8759	2395.85
1257.42845	2421.75
1260.97859	2428.05
1264.52631	2442.25
1268.07163	2446.95
1271.61453	2449.25
1275.15503	2450.25
1278.69312	2461.25
1282.22882	2454.95
1285.76211	2456.95
1289.29301	2467.75
1292.82151	2479.15
1296.34761	2469.45
1299.87133	2493.95
1303.39266	2494.05
1306.9116	2518.65
1310.42815	2533.75
1313.94233	2554.15
1317.45412	2546.35
1320.96354	2549.55
1324.47058	2536.15
1327.97525	2528.25
1331.47754	2504.95
1334.97747	2519.25
1338.47502	2511.55
1341.97022	2536.15
1345.46305	2551.55
1348.95352	2571.55
1352.44163	2573.65
1355.92738	2591.75
1359.41078	2584.15
1362.89183	2600.85
1366.37053	2578.55
1369.84688	2524.35
1373.32088	2478.05
1376.79254	2443.35
1380.26186	2415.75
1383.72883	2387.35
1387.19347	2380.35
1390.65578	2362.05
1394.11575	2332.15
1397.57339	2313.35
1401.0287	2312.35
1404.48168	2312.95
1407.93234	2305.15
1411.38068	2306.25
1414.82669	2297.95
1418.27039	2299.35
1421.71177	2296.15
1425.15083	2285.25
1428.58758	2277.05
1432.02203	2262.75
1435.45416	2261.25
1438.88399	2272.95
1442.31151	2275.75
1445.73673	2273.05
1449.15965	2266.85
1452.58027	2272.85
1455.9986	2273.15
1459.41463	2283.05
1462.82837	2277.55
1466.23982	2298.35
1469.64898	2313.65
1473.05586	2314.95
1476.46045	2334.25
1479.86276	2337.45
1483.26279	2345.25
1486.66054	2337.65
1490.05602	2326.15
1493.44922	2352.15
1496.84016	2353.05
1500.22882	2378.05
1503.61521	2413.85
1506.99934	2424.45
1510.38121	2436.95
1513.76081	2434.65
1517.13816	2426.55
1520.51324	2395.65
1523.88607	2396.65
1527.25665	2382.75
1530.62498	2365.35
1533.99105	2379.25
1537.35488	2382.45
1540.71647	2371.65
1544.07581	2384.05
1547.4329	2382.25
1550.78776	2394.25
1554.14038	2384.75
1557.49077	2387.75
1560.83892	2400.75
1564.18484	2398.85
1567.52853	2407.85
1570.86999	2404.45
1574.20922	2404.25
1577.54624	2406.15
1580.88103	2399.55
1584.2136	2395.55
1587.54395	2390.35
1590.87208	2401.55
1594.19801	2417.95
1597.52172	2440.95
1600.84321	2459.05
1604.16251	2454.55
1607.47959	2432.75
1610.79447	2410.85
1614.10715	2384.55
1617.41763	2361.05
1620.7259	2330.85
1624.03199	2312.45
1627.33587	2308.85
1630.63757	2314.85
1633.93707	2298.95
1637.23439	2331.15
1640.52951	2341.05
1643.82246	2379.55
1647.11321	2387.65
1650.40179	2388.95
1653.68819	2362.75
1656.97241	2330.45
1660.25446	2283.35
1663.53433	2258.45
1666.81203	2240.75
1670.08756	2213.15
1673.36092	2212.95
1676.63211	2197.65
1679.90115	2190.55
1683.16801	2174.65
1686.43272	2160.75
1689.69527	2157.15
1692.95567	2168.65
1696.2139	2154.95
1699.46999	2149.65
1702.72392	2148.85
1705.97571	2144.85
1709.22535	2150.45
1712.47284	2153.05
1715.71819	2164.25
1718.96139	2144.65
1722.20246	2160.95
1725.44139	2146.35
1728.67818	2128.85
1731.91284	2132.05
1735.14537	2121.65
1738.37576	2123.35
1741.60403	2109.75
1744.83017	2099.25
1748.05418	2108.45
1751.27607	2102.85
1754.49584	2103.35
1757.71349	2091.45
1760.92903	2099.45
1764.14244	2093.25
1767.35375	2090.95
1770.56294	2089.05
1773.77002	2084.15
1776.97499	2068.85
1780.17785	2082.45
1783.37861	2087.45
1786.57727	2088.95
1789.77382	2078.75
1792.96828	2080.15
1796.16064	2073.55
1799.3509	2053.55
1802.53907	2072.55
1805.72514	2077.25
1808.90913	2060.75
1812.09102	2064.35
1815.27083	2064.15
1818.44856	2062.55
1821.6242	2056.15
1824.79776	2045.15
1827.96924	2040.95
1831.13864	2043.55
1834.30597	2048.35
1837.47122	2046.95
1840.6344	2038.65
1843.7955	2055.25
1846.95454	2054.65
1850.11151	2044.15
1853.26642	2041.95
1856.41926	2039.25
1859.57004	2028.45
1862.71876	2027.15
1865.86542	2043.25
1869.01003	2036.85
1872.15258	2032.25
1875.29308	2031.25
1878.43152	2026.55
1881.56792	2034.55
1884.70227	2024.65
1887.83457	2028.25
1890.96482	2018.25
1894.09304	2021.25
1897.21921	2028.65
1900.34335	2012.55
1903.46544	2012.05
1906.58551	2005.05
1909.70353	2004.85
1912.81953	1998.45
1915.93349	2010.75
1919.04543	2012.15
1922.15534	2006.05
1925.26322	2001.35
1928.36908	2002.65
1931.47292	1993.65
1934.57473	1991.35
1937.67453	1995.15
1940.77232	1981.05
1943.86808	1985.55
1946.96184	1984.45
1950.05358	1965.15
1953.14331	1969.75
1956.23103	1963.05
1959.31675	1952.55
1962.40046	1950.05
1965.48217	1945.55
1968.56188	1949.55
1971.63959	1939.45
1974.7153	1945.45
1977.78901	1943.45
1980.86073	1918.05
1983.93046	1923.05
1986.99819	1916.05
1990.06394	1903.45
1993.1277	1907.85
1996.18947	1909.45
1999.24925	1902.75
2002.30706	1903.65
2005.36288	1894.05
2008.41672	1887.95
2011.46859	1882.05
2014.51848	1884.25
2017.56639	1880.65
2020.61233	1876.45
2023.6563	1879.65
2026.6983	1863.65
2029.73833	1862.45
2032.7764	1861.55
2035.8125	1851.55
2038.84664	1850.35
2041.87881	1844.65
2044.90903	1855.45
2047.93729	1841.45
2050.96359	1838.05
2053.98794	1834.75
2057.01034	1848.45
2060.03078	1844.15
2063.04927	1843.95
2066.06582	1846.15
2069.08042	1838.45
2072.09307	1840.05
2075.10378	1839.35
2078.11255	1840.95
2081.11938	1850.55
2084.12426	1838.35
2087.12722	1850.25
2090.12824	1841.05
2093.12732	1854.95
2096.12447	1847.95
2099.11969	1853.95
2102.11299	1863.95
2105.10435	1861.25
2108.09379	1852.65
2111.08131	1854.75
2114.0669	1871.55
2117.05057	1857.15
2120.03233	1870.85
2123.01216	1864.45
2125.99008	1867.85
2128.96609	1870.75
2131.94018	1869.25
2134.91236	1867.75
2137.88263	1866.55
2140.851	1876.65
2143.81746	1873.75
2146.78201	1875.85
2149.74466	1880.95
2152.7054	1878.65
2155.66425	1881.95
2158.6212	1889.15
2161.57625	1876.95
2164.52941	1877.25
2167.48067	1880.85
2170.43004	1890.55
2173.37752	1887.35
2176.32311	1872.75
2179.26681	1882.55
2182.20863	1878.05
2185.14856	1882.75
2188.08661	1876.55
2191.02278	1874.75
2193.95707	1872.95
2196.88948	1862.75
2199.82001	1867.15
2202.74867	1866.95
2205.67545	1868.05
2208.60037	1857.15
2211.52341	1875.35
2214.44458	1860.15
2217.36388	1851.55
2220.28132	1851.75
2223.1969	1860.85
2226.11061	1851.65
2229.02246	1840.85
2231.93245	1837.25
2234.84058	1834.45
2237.74686	1837.05
2240.65128	1837.15
2243.55385	1830.05
2246.45456	1830.75
2249.35343	1837.85
2252.25044	1827.85
2255.14561	1829.85
2258.03893	1827.75
2260.93041	1823.35
2263.82004	1822.05
2266.70783	1820.95
2269.59378	1814.95
2272.4779	1809.35
2275.36017	1808.35
2278.24061	1812.85
2281.11922	1803.25
2283.996	1802.55
2286.87094	1795.55
2289.74405	1796.65
2292.61534	1801.75
2295.4848	1786.05
2298.35243	1789.55
2301.21824	1794.65
2304.08223	1797.85
2306.94439	1785.45
2309.80474	1790.85
2312.66327	1795.35
2315.51999	1808.45
2318.37489	1791.45
2321.22797	1775.85
2324.07925	1782.85
2326.92871	1779.85
2329.77637	1783.05
2332.62222	1772.05
2335.46626	1781.15
2338.3085	1771.25
2341.14893	1778.65
2343.98756	1767.85
2346.8244	1769.25
2349.65943	1763.95
2352.49267	1763.15
2355.32411	1772.65
2358.15376	1756.45
2360.98161	1765.85
2363.80768	1765.85
2366.63195	1761.15
2369.45444	1761.85
2372.27514	1761.95
2375.09405	1766.15
2377.91118	1758.15
2380.72652	1759.75
2383.54009	1751.15
2386.35187	1747.75
2389.16188	1754.65
2391.97011	1750.55
2394.77657	1752.25
2397.58125	1730.95
2400.38416	1734.45
2403.18529	1724.75
2405.98466	1728.55
2408.78226	1730.45
2411.57809	1732.65
2414.37216	1726.65
2417.16446	1729.55
2419.955	1725.35
2422.74378	1732.65
2425.5308	1716.65
2428.31606	1724.15
2431.09956	1725.75
2433.88131	1717.85
2436.6613	1710.55
2439.43954	1720.95
2442.21603	1721.35
2444.99077	1721.35
2447.76377	1720.15
2450.53501	1714.65
2453.30451	1713.35
2456.07226	1720.25
2458.83827	1716.55
2461.60254	1707.25
2464.36507	1705.55
2467.12586	1711.45
2469.88492	1706.25
2472.64224	1702.55
2475.39782	1695.75
2478.15167	1707.85
2480.90379	1704.25
2483.65417	1705.25
2486.40283	1699.95
2489.14976	1711.95
2491.89497	1701.65
2494.63845	1700.65
2497.3802	1701.75
2500.12024	1698.45
2502.85855	1705.75
2505.59514	1690.55
2508.33002	1692.05
2511.06318	1691.65
2513.79462	1681.35
2516.52435	1691.65
2519.25237	1699.05
2521.97867	1681.85
2524.70327	1686.65
2527.42616	1681.45
2530.14734	1684.75
2532.86681	1685.45
2535.58458	1686.65
2538.30065	1676.25
2541.01501	1676.95
2543.72768	1677.85
2546.43864	1671.95
2549.14791	1673.05
2551.85548	1668.05
2554.56136	1662.65
2557.26554	1671.85
2559.96803	1658.85
2562.66883	1654.95
2565.36794	1658.55
2568.06536	1659.95
2570.7611	1657.05
2573.45514	1660.95
2576.14751	1650.05
2578.83819	1638.15
2581.52719	1646.55
2584.21451	1635.75
2586.90015	1638.95
2589.58411	1631.85
2592.2664	1635.85
2594.94701	1630.55
2597.62594	1633.45
2600.30321	1631.45
2602.9788	1629.65
2605.65273	1629.25
2608.32498	1618.65
2610.99557	1618.35
2613.66449	1619.55
2616.33175	1614.45
2618.99734	1617.35
2621.66128	1619.25
2624.32355	1624.35
2626.98416	1610.75
2629.64311	1601.25
2632.30041	1610.45
2634.95605	1603.65
2637.61004	1607.45
2640.26238	1603.95
2642.91306	1592.45
2645.56209	1590.35
2648.20948	1591.15
2650.85521	1597.15
2653.4993	1597.15
2656.14175	1585.75
2658.78255	1595.65
2661.42171	1591.35
2664.05923	1588.45
2666.6951	1593.55
2669.32934	1597.85
2671.96194	1592.25
2674.59291	1598.65
2677.22224	1595.55
2679.84993	1591.95
2682.476	1584.25
2685.10043	1593.25
2687.72324	1589.55
2690.34441	1593.95
2692.96396	1594.55
2695.58188	1591.25
2698.19818	1595.45
2700.81285	1589.45
2703.4259	1599.45
2706.03733	1586.05
2708.64714	1586.45
2711.25533	1583.95
2713.86191	1592.45
2716.46687	1599.55
2719.07021	1597.05
2721.67194	1588.75
2724.27206	1591.05
2726.87057	1605.25
2729.46747	1609.45
2732.06276	1609.45
2734.65644	1602.55
2737.24852	1599.55
2739.83899	1608.55
2742.42786	1604.55
2745.01513	1592.85
2747.60079	1594.65
2750.18486	1590.15
2752.76733	1598.95
2755.3482	1586.35
2757.92747	1588.55
2760.50515	1590.45
2763.08123	1589.15
2765.65573	1577.55
2768.22863	1587.55
2770.79994	1582.45
2773.36967	1576.95
2775.9378	1583.95
2778.50435	1581.95
2781.06932	1592.25
2783.6327	1583.35
2786.1945	1582.25
2788.75471	1564.05
2791.31335	1579.45
2793.87041	1570.95
2796.42589	1570.05
2798.97979	1572.85
2801.53212	1564.25
2804.08288	1561.55
2806.63206	1555.65
2809.17967	1550.05
2811.72571	1550.85
2814.27018	1543.85
2816.81308	1535.65
2819.35442	1536.55
2821.89419	1537.55
2824.43239	1534.75
2826.96904	1537.25
2829.50412	1542.25
2832.03763	1530.25
2834.56959	1528.85
2837.1	1526.25
2839.62884	1536.05
2842.15613	1527.95
2844.68186	1526.35
2847.20604	1516.15
2849.72867	1519.45
2852.24974	1527.35
2854.76927	1520.85
2857.28724	1523.15
2859.80367	1524.75
2862.31855	1531.85
2864.83189	1517.95
2867.34368	1531.45
2869.85393	1514.85
2872.36264	1515.95
2874.8698	1508.75
2877.37543	1510.25
2879.87952	1515.15
2882.38207	1506.95
2884.88308	1508.45
2887.38256	1525.15
2889.88051	1516.95
2892.37692	1524.15
2894.8718	1522.95
2897.36515	1520.45
2899.85698	1517.95
2902.34727	1511.35
2904.83604	1526.85
2907.32328	1524.75
2909.809	1532.35
2912.29319	1537.25
2914.77587	1529.05
2917.25702	1531.45
2919.73665	1536.25
2922.21476	1526.05
2924.69136	1532.15
2927.16644	1535.75
2929.64	1534.35
2932.11205	1531.15
2934.58258	1522.25
2937.05161	1525.35
2939.51912	1530.75
2941.98513	1529.65
2944.44962	1528.45
2946.91261	1524.75
2949.37409	1532.25
2951.83407	1529.15
2954.29254	1538.25
2956.74951	1547.85
2959.20498	1542.25
2961.65895	1536.95
2964.11142	1545.85
2966.56239	1532.25
2969.01186	1541.25
2971.45984	1550.35
2973.90632	1540.15
2976.35131	1548.35
2978.7948	1552.45
2981.23681	1548.95
2983.67732	1547.45
2986.11635	1539.75
2988.55388	1540.65
2990.98993	1538.05
2993.4245	1525.25
2995.85758	1532.15
2998.28917	1538.15
3000.71928	1543.05
3003.14791	1531.85
3005.57506	1530.75
3008.00073	1525.25
3010.42493	1525.95
3012.84764	1533.85
3015.26888	1535.85
3017.68865	1534.95
3020.10694	1538.35
3022.52376	1541.45
3024.9391	1528.85
3027.35298	1541.65
3029.76539	1540.25
3032.17632	1538.75
3034.5858	1542.25
3036.9938	1545.05
3039.40034	1545.35
3041.80542	1549.65
3044.20903	1551.55
3046.61118	1548.35
3049.01187	1548.85
3051.4111	1546.85
3053.80888	1560.75
3056.20519	1554.45
3058.60005	1559.55
3060.99345	1564.45
3063.3854	1553.25
3065.7759	1565.35
3068.16494	1561.55
3070.55254	1561.95
3072.93868	1565.45
3075.32338	1565.75
3077.70662	1564.65
3080.08842	1561.95
3082.46878	1564.95
3084.84769	1564.95
3087.22515	1568.25
3089.60118	1572.95
3091.97576	1580.95
3094.3489	1590.35
3096.72061	1587.75
3099.09087	1600.85
3101.4597	1610.25
3103.82709	1623.75
3106.19305	1617.95
3108.55757	1612.45
3110.92066	1628.65
3113.28232	1634.55
3115.64255	1635.65
3118.00134	1635.55
3120.35871	1637.65
3122.71466	1648.65
3125.06917	1641.95
3127.42226	1651.65
3129.77393	1653.65
3132.12417	1653.05
3134.47299	1660.75
3136.82039	1666.75
3139.16636	1688.15
3141.51092	1677.95
3143.85406	1683.65
3146.19579	1683.75
3148.53609	1699.35
3150.87499	1694.05
3153.21246	1707.05
3155.54853	1716.95
3157.88318	1725.35
3160.21642	1741.45
3162.54826	1748.95
3164.87868	1750.35
3167.2077	1753.55
3169.5353	1766.95
3171.86151	1769.95
3174.18631	1786.85
3176.5097	1789.05
3178.83169	1782.05
3181.15228	1793.65
3183.47147	1797.85
3185.78926	1804.75
3188.10565	1809.35
3190.42065	1808.55
3192.73424	1806.95
3195.04645	1815.15
3197.35725	1820.65
3199.66667	1821.05
3201.97469	1823.85
3204.28132	1824.95
3206.58656	1837.65
3208.8904	1835.45
3211.19287	1848.05
3213.49394	1864.75
3215.79363	1857.05
3218.09193	1880.45
3220.38884	1871.95
3222.68438	1867.45
3224.97853	1864.05
3227.2713	1879.45
3229.56269	1875.65
3231.8527	1872.75
3234.14133	1881.95
3236.42858	1872.45
3238.71446	1884.65
3240.99896	1931.05
3243.28209	1867.25
3245.56384	1862.15
3247.84423	1851.05
3250.12324	1868.75
3252.40088	1858.85
3254.67715	1861.95
3256.95205	1858.35
3259.22558	1871.25
3261.49775	1873.75
3263.76855	1862.35
3266.03799	1868.85
3268.30606	1869.15
3270.57277	1879.65
3272.83812	1868.75
3275.10211	1861.05
3277.36474	1855.25
3279.62601	1854.95
3281.88593	1861.95
3284.14448	1855.05
3286.40168	1853.95
3288.65753	1855.65
3290.91202	1857.15
3293.16516	1850.45
3295.41695	1843.65
3297.66738	1834.85
3299.91647	1823.25
3302.16421	1810.25
3304.4106	1812.65
3306.65564	1799.35
3308.89933	1783.55
3311.14169	1781.25
3313.38269	1755.75
3315.62236	1746.45
3317.86068	1733.25
3320.09766	1728.05
3322.3333	1714.75
3324.5676	1705.05
3326.80056	1680.75
3329.03219	1665.25
3331.26248	0.65
3333.49143	0.75
3335.71905	-1.05
