Data from AgNPs_APTES_FTO_UA_100uM_CRN_0uM_R6G_10uM_Scan_RamanShift__54__11-42-41-301.txt Node

Date: Wed Jun 29 11:42:41 BST 2022
User: TCL
Spectrometer: QEP01345
Trigger mode: 4
Integration Time (sec): 7.000000E0
Scans to average: 10
Electric dark correction enabled: true
Nonlinearity correction enabled: false
Boxcar width: 0
XAxis mode: Raman Shifts
Number of Pixels in Spectrum: 1044
>>>>>Begin Spectral Data<<<<<
46.04893	0.3125
50.45542	-0.0875
54.85868	-0.3875
59.25871	1.9125
63.6555	38.0125
68.04907	40.5125
72.43941	43.3125
76.82654	47.3125
81.21044	50.0125
85.59113	50.6125
89.96862	53.3125
94.34289	54.6125
98.71396	58.4125
103.08183	59.1125
107.4465	59.3125
111.80798	63.4125
116.16626	60.1125
120.52136	63.2125
124.87327	62.3125
129.222	57.7125
133.56755	57.4125
137.90993	58.4125
142.24913	56.1125
146.58517	54.7125
150.91804	52.1125
155.24774	55.5125
159.57429	58.6125
163.89768	59.2125
168.21792	68.0125
172.53501	80.5125
176.84895	96.4125
181.15975	122.1125
185.46741	156.2125
189.77193	197.5125
194.07331	255.7125
198.37157	322.0125
202.6667	389.9125
206.9587	450.8125
211.24758	532.0125
215.53334	594.7125
219.81599	673.6125
224.09553	750.5125
228.37195	832.3125
232.64527	935.8125
236.91549	1033.3125
241.18261	1124.4125
245.44663	1210.4125
249.70755	1272.5125
253.96539	1345.4125
258.22014	1382.9125
262.4718	1420.8125
266.72039	1448.6125
270.96589	1450.5125
275.20832	1435.9125
279.44768	1411.0125
283.68397	1388.3125
287.91719	1376.5125
292.14735	1354.2125
296.37445	1354.4125
300.59849	1380.8125
304.81948	1401.5125
309.03742	1426.7125
313.25231	1421.8125
317.46415	1392.8125
321.67296	1355.5125
325.87872	1316.4125
330.08145	1299.4125
334.28114	1305.5125
338.47781	1313.6125
342.67145	1338.3125
346.86207	1368.0125
351.04966	1415.5125
355.23424	1469.0125
359.4158	1513.3125
363.59435	1535.0125
367.76989	1545.1125
371.94243	1551.3125
376.11196	1555.2125
380.27849	1557.7125
384.44203	1568.4125
388.60257	1575.9125
392.76012	1576.8125
396.91468	1591.1125
401.06626	1615.3125
405.21485	1638.4125
409.36047	1617.8125
413.50311	1588.2125
417.64277	1551.7125
421.77947	1535.9125
425.9132	1538.2125
430.04396	1527.0125
434.17176	1544.8125
438.2966	1570.8125
442.41849	1592.7125
446.53742	1635.3125
450.6534	1670.7125
454.76644	1680.3125
458.87653	1690.3125
462.98368	1686.0125
467.08789	1675.0125
471.18916	1661.6125
475.2875	1652.0125
479.38291	1648.7125
483.4754	1639.6125
487.56496	1631.9125
491.6516	1632.6125
495.73531	1642.5125
499.81612	1646.6125
503.89401	1647.3125
507.96899	1633.0125
512.04106	1636.4125
516.11023	1652.2125
520.1765	1649.9125
524.23987	1661.9125
528.30034	1668.5125
532.35792	1667.1125
536.41261	1669.3125
540.46441	1639.1125
544.51333	1624.7125
548.55936	1616.7125
552.60252	1635.6125
556.64279	1640.1125
560.6802	1654.8125
564.71473	1672.0125
568.7464	1700.9125
572.7752	1703.6125
576.80114	1689.7125
580.82422	1678.9125
584.84444	1692.3125
588.86181	1704.0125
592.87633	1742.9125
596.888	1776.9125
600.89682	1818.1125
604.9028	1905.8125
608.90594	2155.6125
612.90624	2453.6125
616.90371	2372.9125
620.89834	1997.9125
624.89015	1849.5125
628.87913	1856.6125
632.86528	1897.7125
636.84862	1948.4125
640.82913	1926.8125
644.80683	1865.2125
648.78172	1798.0125
652.75379	1772.5125
656.72306	1756.0125
660.68952	1776.7125
664.65319	1758.3125
668.61405	1717.6125
672.57211	1711.7125
676.52738	1706.8125
680.47986	1724.2125
684.42955	1732.0125
688.37646	1740.3125
692.32058	1741.1125
696.26192	1727.8125
700.20048	1730.9125
704.13626	1710.3125
708.06928	1707.0125
711.99952	1697.7125
715.927	1686.0125
719.85171	1702.0125
723.77365	1711.5125
727.69284	1732.6125
731.60928	1716.2125
735.52295	1725.7125
739.43388	1703.0125
743.34206	1709.2125
747.24749	1694.9125
751.15017	1703.2125
755.05012	1674.4125
758.94733	1739.4125
762.8418	1833.3125
766.73354	1983.9125
770.62254	2116.1125
774.50882	2184.4125
778.39237	2151.5125
782.27321	2007.8125
786.15132	1860.8125
790.02671	1765.3125
793.89938	1729.1125
797.76935	1711.5125
801.6366	1715.4125
805.50115	1730.7125
809.36299	1739.4125
813.22213	1749.4125
817.07857	1739.5125
820.93231	1721.1125
824.78336	1704.9125
828.63172	1690.4125
832.47738	1691.8125
836.32036	1676.1125
840.16066	1683.8125
843.99827	1680.0125
847.8332	1676.5125
851.66546	1666.2125
855.49504	1668.1125
859.32195	1671.7125
863.1462	1674.1125
866.96777	1678.6125
870.78668	1682.0125
874.60293	1687.5125
878.41652	1708.9125
882.22745	1734.0125
886.03573	1759.2125
889.84136	1755.1125
893.64433	1753.6125
897.44466	1730.6125
901.24235	1715.1125
905.0374	1694.0125
908.8298	1676.9125
912.61957	1656.2125
916.40671	1653.6125
920.19121	1671.7125
923.97308	1650.4125
927.75233	1669.2125
931.52895	1678.7125
935.30295	1672.4125
939.07433	1661.3125
942.84309	1634.8125
946.60924	1626.5125
950.37278	1618.7125
954.13371	1613.3125
957.89203	1617.3125
961.64774	1622.9125
965.40086	1620.2125
969.15137	1609.6125
972.89929	1597.6125
976.64461	1611.9125
980.38733	1602.9125
984.12747	1599.9125
987.86502	1617.8125
991.59999	1618.8125
995.33237	1627.9125
999.06217	1672.0125
1002.78939	1694.8125
1006.51404	1734.4125
1010.23611	1743.5125
1013.95561	1759.2125
1017.67255	1764.2125
1021.38692	1762.5125
1025.09872	1746.9125
1028.80796	1730.5125
1032.51465	1728.7125
1036.21877	1728.5125
1039.92035	1728.6125
1043.61937	1723.5125
1047.31584	1712.1125
1051.00976	1697.5125
1054.70114	1699.1125
1058.38998	1701.3125
1062.07627	1715.2125
1065.76003	1717.8125
1069.44126	1730.2125
1073.11995	1745.1125
1076.79611	1763.7125
1080.46974	1784.7125
1084.14085	1798.7125
1087.80943	1810.2125
1091.47549	1814.3125
1095.13903	1784.7125
1098.80005	1757.9125
1102.45857	1739.3125
1106.11456	1728.3125
1109.76805	1752.1125
1113.41903	1770.7125
1117.06751	1829.8125
1120.71348	1893.3125
1124.35696	1981.3125
1127.99793	2051.6125
1131.63641	2097.1125
1135.2724	2073.1125
1138.90589	2038.6125
1142.5369	1985.0125
1146.16542	1921.2125
1149.79145	1866.5125
1153.415	1813.2125
1157.03607	1782.2125
1160.65467	1785.1125
1164.27079	1797.2125
1167.88443	1830.0125
1171.49561	1901.7125
1175.10432	2012.9125
1178.71056	2178.0125
1182.31434	2344.9125
1185.91565	2412.5125
1189.51451	2407.9125
1193.11091	2334.1125
1196.70485	2237.3125
1200.29634	2174.1125
1203.88538	2114.6125
1207.47197	2035.0125
1211.05612	1983.1125
1214.63782	1916.3125
1218.21708	1911.4125
1221.79391	1886.9125
1225.36829	1885.0125
1228.94024	1870.8125
1232.50976	1851.9125
1236.07685	1856.2125
1239.6415	1844.5125
1243.20374	1853.6125
1246.76355	1876.2125
1250.32093	1899.4125
1253.8759	1904.9125
1257.42845	1945.8125
1260.97859	1992.2125
1264.52631	2042.8125
1268.07163	2097.1125
1271.61453	2130.6125
1275.15503	2135.3125
1278.69312	2140.6125
1282.22882	2126.9125
1285.76211	2148.4125
1289.29301	2195.0125
1292.82151	2245.8125
1296.34761	2303.9125
1299.87133	2401.2125
1303.39266	2520.6125
1306.9116	2698.1125
1310.42815	2862.0125
1313.94233	2964.6125
1317.45412	2886.6125
1320.96354	2751.2125
1324.47058	2619.3125
1327.97525	2482.6125
1331.47754	2381.1125
1334.97747	2335.4125
1338.47502	2333.5125
1341.97022	2371.0125
1345.46305	2453.2125
1348.95352	2557.4125
1352.44163	2698.9125
1355.92738	2923.3125
1359.41078	3231.2125
1362.89183	3503.0125
1366.37053	3433.7125
1369.84688	3035.9125
1373.32088	2676.3125
1376.79254	2466.3125
1380.26186	2362.2125
1383.72883	2292.9125
1387.19347	2187.6125
1390.65578	2102.4125
1394.11575	2029.1125
1397.57339	2002.2125
1401.0287	1978.3125
1404.48168	1980.3125
1407.93234	1966.7125
1411.38068	1971.4125
1414.82669	1981.1125
1418.27039	1958.7125
1421.71177	1921.5125
1425.15083	1914.1125
1428.58758	1924.0125
1432.02203	1949.4125
1435.45416	2008.5125
1438.88399	2026.5125
1442.31151	2021.0125
1445.73673	2015.3125
1449.15965	2014.9125
1452.58027	2013.5125
1455.9986	1986.7125
1459.41463	1973.0125
1462.82837	1979.7125
1466.23982	2001.8125
1469.64898	2044.7125
1473.05586	2067.3125
1476.46045	2091.7125
1479.86276	2123.2125
1483.26279	2164.3125
1486.66054	2187.4125
1490.05602	2226.4125
1493.44922	2297.1125
1496.84016	2350.7125
1500.22882	2459.8125
1503.61521	2624.1125
1506.99934	2837.2125
1510.38121	2990.5125
1513.76081	3007.5125
1517.13816	2825.3125
1520.51324	2571.2125
1523.88607	2339.0125
1527.25665	2199.6125
1530.62498	2133.8125
1533.99105	2090.8125
1537.35488	2062.3125
1540.71647	2065.5125
1544.07581	2066.4125
1547.4329	2041.9125
1550.78776	2050.1125
1554.14038	2030.6125
1557.49077	2030.2125
1560.83892	2045.8125
1564.18484	2087.0125
1567.52853	2118.8125
1570.86999	2179.9125
1574.20922	2222.4125
1577.54624	2213.4125
1580.88103	2146.2125
1584.2136	2070.7125
1587.54395	1999.5125
1590.87208	2018.4125
1594.19801	2097.0125
1597.52172	2209.4125
1600.84321	2280.0125
1604.16251	2257.3125
1607.47959	2160.8125
1610.79447	2036.3125
1614.10715	1935.7125
1617.41763	1860.9125
1620.7259	1821.5125
1624.03199	1816.4125
1627.33587	1796.6125
1630.63757	1824.6125
1633.93707	1861.3125
1637.23439	1952.9125
1640.52951	2105.4125
1643.82246	2313.0125
1647.11321	2532.9125
1650.40179	2650.7125
1653.68819	2556.6125
1656.97241	2301.8125
1660.25446	2057.9125
1663.53433	1877.5125
1666.81203	1766.6125
1670.08756	1713.3125
1673.36092	1691.8125
1676.63211	1660.0125
1679.90115	1646.5125
1683.16801	1617.8125
1686.43272	1614.1125
1689.69527	1599.5125
1692.95567	1581.7125
1696.2139	1577.2125
1699.46999	1558.2125
1702.72392	1545.4125
1705.97571	1515.9125
1709.22535	1493.4125
1712.47284	1483.6125
1715.71819	1466.6125
1718.96139	1457.0125
1722.20246	1455.8125
1725.44139	1433.3125
1728.67818	1416.1125
1731.91284	1401.8125
1735.14537	1394.5125
1738.37576	1396.5125
1741.60403	1386.0125
1744.83017	1368.6125
1748.05418	1364.9125
1751.27607	1351.4125
1754.49584	1354.3125
1757.71349	1350.7125
1760.92903	1344.2125
1764.14244	1336.6125
1767.35375	1329.3125
1770.56294	1335.3125
1773.77002	1325.5125
1776.97499	1314.8125
1780.17785	1324.6125
1783.37861	1325.7125
1786.57727	1326.5125
1789.77382	1322.0125
1792.96828	1319.4125
1796.16064	1317.8125
1799.3509	1310.2125
1802.53907	1311.3125
1805.72514	1313.2125
1808.90913	1307.3125
1812.09102	1311.7125
1815.27083	1301.3125
1818.44856	1297.8125
1821.6242	1296.7125
1824.79776	1286.1125
1827.96924	1280.4125
1831.13864	1279.4125
1834.30597	1287.3125
1837.47122	1283.7125
1840.6344	1270.8125
1843.7955	1278.9125
1846.95454	1270.5125
1850.11151	1274.8125
1853.26642	1277.6125
1856.41926	1271.6125
1859.57004	1270.6125
1862.71876	1272.4125
1865.86542	1270.3125
1869.01003	1265.7125
1872.15258	1270.5125
1875.29308	1271.7125
1878.43152	1265.1125
1881.56792	1271.2125
1884.70227	1260.6125
1887.83457	1248.3125
1890.96482	1251.6125
1894.09304	1261.6125
1897.21921	1249.3125
1900.34335	1252.4125
1903.46544	1250.1125
1906.58551	1252.9125
1909.70353	1250.5125
1912.81953	1257.2125
1915.93349	1257.6125
1919.04543	1253.6125
1922.15534	1238.7125
1925.26322	1241.5125
1928.36908	1235.1125
1931.47292	1246.2125
1934.57473	1235.1125
1937.67453	1234.4125
1940.77232	1234.8125
1943.86808	1231.1125
1946.96184	1220.8125
1950.05358	1224.3125
1953.14331	1223.9125
1956.23103	1219.8125
1959.31675	1216.8125
1962.40046	1200.1125
1965.48217	1201.2125
1968.56188	1207.5125
1971.63959	1200.9125
1974.7153	1189.2125
1977.78901	1188.5125
1980.86073	1188.9125
1983.93046	1183.8125
1986.99819	1183.5125
1990.06394	1167.2125
1993.1277	1167.1125
1996.18947	1170.1125
1999.24925	1170.1125
2002.30706	1169.3125
2005.36288	1152.7125
2008.41672	1151.4125
2011.46859	1154.8125
2014.51848	1145.7125
2017.56639	1143.0125
2020.61233	1142.6125
2023.6563	1137.2125
2026.6983	1135.3125
2029.73833	1139.4125
2032.7764	1131.7125
2035.8125	1136.0125
2038.84664	1133.1125
2041.87881	1135.9125
2044.90903	1124.8125
2047.93729	1132.7125
2050.96359	1126.1125
2053.98794	1124.0125
2057.01034	1123.8125
2060.03078	1111.8125
2063.04927	1123.8125
2066.06582	1124.3125
2069.08042	1114.5125
2072.09307	1123.0125
2075.10378	1116.0125
2078.11255	1128.3125
2081.11938	1119.8125
2084.12426	1119.2125
2087.12722	1124.2125
2090.12824	1120.3125
2093.12732	1118.7125
2096.12447	1114.0125
2099.11969	1119.1125
2102.11299	1116.1125
2105.10435	1113.1125
2108.09379	1119.6125
2111.08131	1118.1125
2114.0669	1115.5125
2117.05057	1125.3125
2120.03233	1123.7125
2123.01216	1116.7125
2125.99008	1122.3125
2128.96609	1120.8125
2131.94018	1126.6125
2134.91236	1117.2125
2137.88263	1123.1125
2140.851	1126.3125
2143.81746	1117.9125
2146.78201	1121.6125
2149.74466	1127.6125
2152.7054	1122.3125
2155.66425	1117.5125
2158.6212	1126.0125
2161.57625	1122.1125
2164.52941	1112.4125
2167.48067	1122.6125
2170.43004	1119.3125
2173.37752	1118.4125
2176.32311	1124.6125
2179.26681	1126.6125
2182.20863	1121.2125
2185.14856	1127.5125
2188.08661	1122.2125
2191.02278	1118.9125
2193.95707	1130.0125
2196.88948	1107.2125
2199.82001	1110.1125
2202.74867	1115.7125
2205.67545	1119.5125
2208.60037	1108.6125
2211.52341	1112.9125
2214.44458	1103.6125
2217.36388	1107.4125
2220.28132	1103.4125
2223.1969	1102.6125
2226.11061	1106.9125
2229.02246	1102.0125
2231.93245	1097.0125
2234.84058	1096.6125
2237.74686	1095.9125
2240.65128	1095.6125
2243.55385	1096.1125
2246.45456	1094.4125
2249.35343	1096.8125
2252.25044	1089.1125
2255.14561	1093.5125
2258.03893	1087.8125
2260.93041	1085.9125
2263.82004	1082.2125
2266.70783	1076.7125
2269.59378	1077.7125
2272.4779	1076.7125
2275.36017	1075.8125
2278.24061	1069.3125
2281.11922	1059.5125
2283.996	1059.8125
2286.87094	1067.6125
2289.74405	1065.3125
2292.61534	1071.5125
2295.4848	1062.0125
2298.35243	1061.5125
2301.21824	1063.2125
2304.08223	1064.6125
2306.94439	1060.7125
2309.80474	1065.2125
2312.66327	1066.5125
2315.51999	1063.1125
2318.37489	1063.6125
2321.22797	1048.5125
2324.07925	1054.0125
2326.92871	1063.1125
2329.77637	1062.9125
2332.62222	1057.5125
2335.46626	1052.7125
2338.3085	1051.1125
2341.14893	1045.6125
2343.98756	1040.6125
2346.8244	1051.0125
2349.65943	1042.2125
2352.49267	1047.5125
2355.32411	1040.1125
2358.15376	1048.3125
2360.98161	1037.2125
2363.80768	1049.6125
2366.63195	1054.0125
2369.45444	1046.7125
2372.27514	1048.4125
2375.09405	1043.4125
2377.91118	1041.3125
2380.72652	1044.2125
2383.54009	1040.3125
2386.35187	1036.3125
2389.16188	1037.2125
2391.97011	1040.1125
2394.77657	1038.3125
2397.58125	1022.9125
2400.38416	1025.5125
2403.18529	1025.9125
2405.98466	1025.3125
2408.78226	1022.3125
2411.57809	1017.6125
2414.37216	1019.1125
2417.16446	1023.6125
2419.955	1018.3125
2422.74378	1021.7125
2425.5308	1016.7125
2428.31606	1016.0125
2431.09956	1017.2125
2433.88131	1013.6125
2436.6613	1016.9125
2439.43954	1017.6125
2442.21603	1017.7125
2444.99077	1015.3125
2447.76377	1015.4125
2450.53501	1019.8125
2453.30451	1015.1125
2456.07226	1020.2125
2458.83827	1016.2125
2461.60254	1008.6125
2464.36507	1007.7125
2467.12586	1020.2125
2469.88492	1013.4125
2472.64224	1012.9125
2475.39782	1008.0125
2478.15167	1004.4125
2480.90379	1008.9125
2483.65417	1018.0125
2486.40283	1018.4125
2489.14976	1010.7125
2491.89497	1011.1125
2494.63845	1014.5125
2497.3802	1006.1125
2500.12024	1007.2125
2502.85855	1007.9125
2505.59514	1006.0125
2508.33002	1000.6125
2511.06318	1003.4125
2513.79462	1023.8125
2516.52435	1068.1125
2519.25237	1003.8125
2521.97867	998.6125
2524.70327	999.2125
2527.42616	1002.5125
2530.14734	996.2125
2532.86681	995.0125
2535.58458	996.6125
2538.30065	993.3125
2541.01501	996.1125
2543.72768	997.8125
2546.43864	988.4125
2549.14791	987.8125
2551.85548	985.3125
2554.56136	984.6125
2557.26554	994.5125
2559.96803	982.5125
2562.66883	985.5125
2565.36794	982.6125
2568.06536	992.5125
2570.7611	984.2125
2573.45514	983.1125
2576.14751	981.5125
2578.83819	977.6125
2581.52719	977.8125
2584.21451	980.0125
2586.90015	965.1125
2589.58411	970.8125
2592.2664	972.7125
2594.94701	967.2125
2597.62594	970.7125
2600.30321	968.3125
2602.9788	969.8125
2605.65273	970.0125
2608.32498	973.0125
2610.99557	963.6125
2613.66449	963.0125
2616.33175	963.4125
2618.99734	966.1125
2621.66128	971.1125
2624.32355	962.3125
2626.98416	970.9125
2629.64311	962.9125
2632.30041	965.8125
2634.95605	956.9125
2637.61004	954.9125
2640.26238	960.7125
2642.91306	954.5125
2645.56209	957.1125
2648.20948	958.0125
2650.85521	948.6125
2653.4993	957.1125
2656.14175	963.1125
2658.78255	966.2125
2661.42171	960.7125
2664.05923	960.5125
2666.6951	962.7125
2669.32934	963.0125
2671.96194	966.0125
2674.59291	966.7125
2677.22224	955.1125
2679.84993	968.4125
2682.476	961.1125
2685.10043	967.5125
2687.72324	960.0125
2690.34441	958.9125
2692.96396	957.7125
2695.58188	960.5125
2698.19818	963.1125
2700.81285	958.6125
2703.4259	956.2125
2706.03733	950.5125
2708.64714	946.9125
2711.25533	956.6125
2713.86191	956.2125
2716.46687	957.6125
2719.07021	971.8125
2721.67194	968.4125
2724.27206	966.2125
2726.87057	967.1125
2729.46747	972.2125
2732.06276	980.2125
2734.65644	972.1125
2737.24852	974.2125
2739.83899	970.4125
2742.42786	965.6125
2745.01513	967.2125
2747.60079	970.8125
2750.18486	961.5125
2752.76733	964.6125
2755.3482	959.5125
2757.92747	961.2125
2760.50515	967.8125
2763.08123	956.2125
2765.65573	957.9125
2768.22863	955.5125
2770.79994	964.5125
2773.36967	955.8125
2775.9378	961.1125
2778.50435	963.4125
2781.06932	963.8125
2783.6327	958.9125
2786.1945	967.2125
2788.75471	956.3125
2791.31335	961.9125
2793.87041	954.9125
2796.42589	964.1125
2798.97979	959.1125
2801.53212	962.0125
2804.08288	951.8125
2806.63206	955.2125
2809.17967	959.4125
2811.72571	950.7125
2814.27018	948.3125
2816.81308	944.7125
2819.35442	950.5125
2821.89419	939.6125
2824.43239	935.7125
2826.96904	942.0125
2829.50412	938.5125
2832.03763	940.2125
2834.56959	944.6125
2837.1	946.3125
2839.62884	944.6125
2842.15613	939.8125
2844.68186	943.9125
2847.20604	940.7125
2849.72867	945.2125
2852.24974	943.9125
2854.76927	947.6125
2857.28724	939.5125
2859.80367	941.9125
2862.31855	951.4125
2864.83189	943.4125
2867.34368	951.1125
2869.85393	944.3125
2872.36264	944.6125
2874.8698	946.1125
2877.37543	943.0125
2879.87952	949.9125
2882.38207	946.7125
2884.88308	949.5125
2887.38256	950.9125
2889.88051	946.4125
2892.37692	949.3125
2894.8718	951.4125
2897.36515	954.6125
2899.85698	957.0125
2902.34727	953.5125
2904.83604	967.8125
2907.32328	969.2125
2909.809	958.7125
2912.29319	967.2125
2914.77587	966.0125
2917.25702	966.3125
2919.73665	969.2125
2922.21476	961.1125
2924.69136	962.4125
2927.16644	973.9125
2929.64	966.2125
2932.11205	962.7125
2934.58258	971.1125
2937.05161	968.0125
2939.51912	967.2125
2941.98513	965.6125
2944.44962	963.6125
2946.91261	969.8125
2949.37409	966.1125
2951.83407	969.3125
2954.29254	974.4125
2956.74951	971.5125
2959.20498	969.0125
2961.65895	968.6125
2964.11142	970.4125
2966.56239	973.9125
2969.01186	972.2125
2971.45984	974.0125
2973.90632	976.6125
2976.35131	973.1125
2978.7948	977.5125
2981.23681	974.6125
2983.67732	971.8125
2986.11635	969.7125
2988.55388	968.9125
2990.98993	965.2125
2993.4245	955.9125
2995.85758	964.2125
2998.28917	971.3125
3000.71928	961.7125
3003.14791	965.9125
3005.57506	969.3125
3008.00073	965.5125
3010.42493	965.9125
3012.84764	973.7125
3015.26888	975.6125
3017.68865	977.2125
3020.10694	973.6125
3022.52376	976.5125
3024.9391	974.1125
3027.35298	981.6125
3029.76539	981.1125
3032.17632	989.6125
3034.5858	981.4125
3036.9938	984.0125
3039.40034	990.6125
3041.80542	1000.5125
3044.20903	992.8125
3046.61118	997.0125
3049.01187	995.0125
3051.4111	998.8125
3053.80888	1003.8125
3056.20519	1011.7125
3058.60005	1012.3125
3060.99345	1009.8125
3063.3854	1009.2125
3065.7759	1017.8125
3068.16494	1014.8125
3070.55254	1009.9125
3072.93868	1019.1125
3075.32338	1024.1125
3077.70662	1017.5125
3080.08842	1017.2125
3082.46878	1028.6125
3084.84769	1037.9125
3087.22515	1038.9125
3089.60118	1043.3125
3091.97576	1054.1125
3094.3489	1051.3125
3096.72061	1058.7125
3099.09087	1055.9125
3101.4597	1070.9125
3103.82709	1077.3125
3106.19305	1087.6125
3108.55757	1081.5125
3110.92066	1089.2125
3113.28232	1087.7125
3115.64255	1102.7125
3118.00134	1105.9125
3120.35871	1116.1125
3122.71466	1111.3125
3125.06917	1118.8125
3127.42226	1116.1125
3129.77393	1131.7125
3132.12417	1141.2125
3134.47299	1139.9125
3136.82039	1145.4125
3139.16636	1150.2125
3141.51092	1159.4125
3143.85406	1156.6125
3146.19579	1175.0125
3148.53609	1179.0125
3150.87499	1185.3125
3153.21246	1193.9125
3155.54853	1205.3125
3157.88318	1204.0125
3160.21642	1223.5125
3162.54826	1223.1125
3164.87868	1235.5125
3167.2077	1244.1125
3169.5353	1240.3125
3171.86151	1250.9125
3174.18631	1252.2125
3176.5097	1258.1125
3178.83169	1251.0125
3181.15228	1277.0125
3183.47147	1280.1125
3185.78926	1286.2125
3188.10565	1290.6125
3190.42065	1289.3125
3192.73424	1292.6125
3195.04645	1302.9125
3197.35725	1304.3125
3199.66667	1310.5125
3201.97469	1322.1125
3204.28132	1318.6125
3206.58656	1336.4125
3208.8904	1338.1125
3211.19287	1346.7125
3213.49394	1355.5125
3215.79363	1355.6125
3218.09193	1367.5125
3220.38884	1363.9125
3222.68438	1358.6125
3224.97853	1363.9125
3227.2713	1364.6125
3229.56269	1372.7125
3231.8527	1372.0125
3234.14133	1376.0125
3236.42858	1365.5125
3238.71446	1376.3125
3240.99896	1372.1125
3243.28209	1374.5125
3245.56384	1371.7125
3247.84423	1371.4125
3250.12324	1366.9125
3252.40088	1371.4125
3254.67715	1369.5125
3256.95205	1372.3125
3259.22558	1382.7125
3261.49775	1382.0125
3263.76855	1366.7125
3266.03799	1374.0125
3268.30606	1375.6125
3270.57277	1374.7125
3272.83812	1372.5125
3275.10211	1375.7125
3277.36474	1376.6125
3279.62601	1382.0125
3281.88593	1370.4125
3284.14448	1379.0125
3286.40168	1374.7125
3288.65753	1380.1125
3290.91202	1373.7125
3293.16516	1373.6125
3295.41695	1368.0125
3297.66738	1362.2125
3299.91647	1364.3125
3302.16421	1359.7125
3304.4106	1338.1125
3306.65564	1331.9125
3308.89933	1326.5125
3311.14169	1323.3125
3313.38269	1308.1125
3315.62236	1296.8125
3317.86068	1288.5125
3320.09766	1288.5125
3322.3333	1272.6125
3324.5676	1266.9125
3326.80056	1241.9125
3329.03219	1243.9125
3331.26248	-0.0875
3333.49143	0.9125
3335.71905	-2.1875
