Data from AgNPs_FTO_APTES_UA_50uM_R6G_10uM_NaF_0.1M_Addition_RamanShift__23__15-03-07-425.txt Node

Date: Fri Dec 17 15:03:07 GMT 2021
User: TCL
Spectrometer: QEP01345
Trigger mode: 4
Integration Time (sec): 7.000000E0
Scans to average: 10
Electric dark correction enabled: true
Nonlinearity correction enabled: false
Boxcar width: 0
XAxis mode: Raman Shifts
Number of Pixels in Spectrum: 1044
>>>>>Begin Spectral Data<<<<<
46.04893	-0.25
50.45542	0.35
54.85868	-2.35
59.25871	0.05
63.6555	89.85
68.04907	89.95
72.43941	97.35
76.82654	103.35
81.21044	103.15
85.59113	107.05
89.96862	114.25
94.34289	112.35
98.71396	120.15
103.08183	125.05
107.4465	126.15
111.80798	130.25
116.16626	133.55
120.52136	134.45
124.87327	144.75
129.222	152.05
133.56755	160.45
137.90993	173.25
142.24913	189.85
146.58517	202.65
150.91804	237.65
155.24774	290.55
159.57429	353.05
163.89768	450.65
168.21792	595.45
172.53501	807.05
176.84895	1121.85
181.15975	1563.35
185.46741	2183.35
189.77193	3015.65
194.07331	4025.25
198.37157	5180.35
202.6667	6370.85
206.9587	7570.25
211.24758	8749.65
215.53334	9909.65
219.81599	11158.35
224.09553	12537.55
228.37195	14080.15
232.64527	15827.75
236.91549	17630.05
241.18261	19433.35
245.44663	21093.15
249.70755	22611.65
253.96539	23946.05
258.22014	25054.85
262.4718	25950.35
266.72039	26592.15
270.96589	26973.05
275.20832	27058.05
279.44768	26996.65
283.68397	26800.55
287.91719	26598.05
292.14735	26496.05
296.37445	26582.95
300.59849	26665.65
304.81948	26787.55
309.03742	26734.65
313.25231	26389.25
317.46415	25770.05
321.67296	24951.05
325.87872	24307.85
330.08145	23949.85
334.28114	23891.95
338.47781	24159.45
342.67145	24481.85
346.86207	24880.35
351.04966	25472.15
355.23424	26063.05
359.4158	26544.95
363.59435	26906.15
367.76989	27186.15
371.94243	27357.25
376.11196	27518.55
380.27849	27584.75
384.44203	27746.95
388.60257	27872.95
392.76012	28106.85
396.91468	28421.45
401.06626	28918.45
405.21485	29260.65
409.36047	29107.35
413.50311	28608.65
417.64277	28197.25
421.77947	28004.55
425.9132	28055.65
430.04396	28245.45
434.17176	28380.55
438.2966	28637.35
442.41849	28992.15
446.53742	29636.45
450.6534	30367.05
454.76644	30957.35
458.87653	31231.65
462.98368	31245.05
467.08789	30952.15
471.18916	30574.85
475.2875	30092.45
479.38291	29738.75
483.4754	29394.15
487.56496	28986.05
491.6516	28614.95
495.73531	28367.55
499.81612	28311.65
503.89401	28526.55
507.96899	28600.65
512.04106	28593.95
516.11023	28650.95
520.1765	28528.45
524.23987	28374.95
528.30034	28095.95
532.35792	27861.35
536.41261	27575.95
540.46441	27348.35
544.51333	27280.25
548.55936	27531.75
552.60252	28029.75
556.64279	28554.15
560.6802	28895.25
564.71473	29070.75
568.7464	29406.55
572.7752	29934.45
576.80114	30229.05
580.82422	30464.95
584.84444	30690.85
588.86181	30901.05
592.87633	31151.85
596.888	31466.75
600.89682	31937.85
604.9028	33356.25
608.90594	36783.55
612.90624	40178.65
616.90371	37976.25
620.89834	31664.85
624.89015	28790.85
628.87913	28350.25
632.86528	28496.45
636.84862	28592.55
640.82913	28256.85
644.80683	27589.15
648.78172	26977.55
652.75379	26801.95
656.72306	27201.85
660.68952	27659.95
664.65319	27557.35
668.61405	27120.45
672.57211	26952.05
676.52738	26996.25
680.47986	26995.75
684.42955	26869.65
688.37646	26792.55
692.32058	26829.35
696.26192	27045.65
700.20048	27325.05
704.13626	27478.45
708.06928	27405.95
711.99952	27213.05
715.927	27085.45
719.85171	27074.75
723.77365	27055.45
727.69284	26811.75
731.60928	26607.05
735.52295	26506.05
739.43388	26511.35
743.34206	26630.05
747.24749	26769.25
751.15017	26938.25
755.05012	27351.35
758.94733	28137.85
762.8418	29638.75
766.73354	32039.15
770.62254	34451.45
774.50882	35333.55
778.39237	33818.05
782.27321	31040.05
786.15132	28776.45
790.02671	27422.25
793.89938	26738.65
797.76935	26470.65
801.6366	26370.85
805.50115	26301.25
809.36299	26200.45
813.22213	26045.25
817.07857	25938.05
820.93231	25858.75
824.78336	25797.85
828.63172	25790.15
832.47738	25782.65
836.32036	25778.95
840.16066	25792.05
843.99827	25819.15
847.8332	25754.05
851.66546	25681.05
855.49504	25662.95
859.32195	25699.15
863.1462	25603.35
866.96777	25488.25
870.78668	25445.85
874.60293	25458.35
878.41652	25494.45
882.22745	25578.25
886.03573	25635.85
889.84136	25643.05
893.64433	25543.75
897.44466	25439.05
901.24235	25336.05
905.0374	25241.25
908.8298	25184.25
912.61957	25204.05
916.40671	25420.45
920.19121	25643.25
923.97308	25905.75
927.75233	25966.05
931.52895	25857.75
935.30295	25614.85
939.07433	25196.25
942.84309	24883.45
946.60924	24744.25
950.37278	24633.65
954.13371	24529.75
957.89203	24405.85
961.64774	24380.05
965.40086	24299.45
969.15137	24233.25
972.89929	24131.25
976.64461	24108.65
980.38733	24138.85
984.12747	24272.85
987.86502	24406.05
991.59999	24668.15
995.33237	25068.05
999.06217	25671.65
1002.78939	26425.05
1006.51404	27015.25
1010.23611	27497.35
1013.95561	27758.55
1017.67255	27793.55
1021.38692	27564.05
1025.09872	27353.25
1028.80796	27352.75
1032.51465	27774.35
1036.21877	28185.35
1039.92035	28248.85
1043.61937	27979.85
1047.31584	27503.95
1051.00976	26969.65
1054.70114	26680.25
1058.38998	26692.55
1062.07627	26803.85
1065.76003	27071.65
1069.44126	27373.35
1073.11995	27715.25
1076.79611	28032.35
1080.46974	28159.95
1084.14085	28305.15
1087.80943	28525.95
1091.47549	28682.15
1095.13903	28572.25
1098.80005	28198.85
1102.45857	27677.65
1106.11456	27228.65
1109.76805	27192.15
1113.41903	27347.65
1117.06751	27576.35
1120.71348	27942.45
1124.35696	28335.25
1127.99793	28722.45
1131.63641	28887.05
1135.2724	28760.05
1138.90589	28433.25
1142.5369	28241.65
1146.16542	28089.75
1149.79145	28073.25
1153.415	28209.45
1157.03607	28550.95
1160.65467	29175.75
1164.27079	30179.15
1167.88443	31571.65
1171.49561	33432.55
1175.10432	35840.15
1178.71056	38881.45
1182.31434	41858.15
1185.91565	43543.95
1189.51451	43951.15
1193.11091	42883.45
1196.70485	41089.55
1200.29634	39124.95
1203.88538	37356.75
1207.47197	35931.25
1211.05612	34647.75
1214.63782	33906.45
1218.21708	33538.35
1221.79391	33509.65
1225.36829	33499.05
1228.94024	33399.85
1232.50976	33196.05
1236.07685	33039.15
1239.6415	32975.55
1243.20374	32884.75
1246.76355	33053.25
1250.32093	33377.75
1253.8759	34117.25
1257.42845	35070.35
1260.97859	35903.65
1264.52631	36762.75
1268.07163	37590.75
1271.61453	38569.15
1275.15503	39527.35
1278.69312	40493.75
1282.22882	41221.55
1285.76211	41920.75
1289.29301	42713.75
1292.82151	43853.85
1296.34761	45258.05
1299.87133	47125.55
1303.39266	49523.55
1306.9116	52442.45
1310.42815	55436.45
1313.94233	57509.65
1317.45412	57817.95
1320.96354	57078.85
1324.47058	55961.85
1327.97525	54840.45
1331.47754	54116.65
1334.97747	54025.15
1338.47502	54489.65
1341.97022	54983.75
1345.46305	55234.45
1348.95352	54786.75
1352.44163	54510.05
1355.92738	55051.85
1359.41078	57014.95
1362.89183	59196.75
1366.37053	58123.75
1369.84688	53293.05
1373.32088	47858.45
1376.79254	44071.85
1380.26186	42194.05
1383.72883	41570.65
1387.19347	41160.55
1390.65578	40665.05
1394.11575	40463.65
1397.57339	40603.15
1401.0287	41287.35
1404.48168	42044.55
1407.93234	42688.45
1411.38068	42844.85
1414.82669	42261.45
1418.27039	41052.45
1421.71177	39594.25
1425.15083	38305.75
1428.58758	37595.75
1432.02203	37478.25
1435.45416	37853.65
1438.88399	38419.35
1442.31151	39036.05
1445.73673	39543.55
1449.15965	40044.15
1452.58027	40374.65
1455.9986	40644.45
1459.41463	40987.65
1462.82837	41597.55
1466.23982	42346.05
1469.64898	43051.95
1473.05586	43570.05
1476.46045	43746.85
1479.86276	43677.85
1483.26279	43652.45
1486.66054	43632.85
1490.05602	43928.85
1493.44922	44355.55
1496.84016	44953.75
1500.22882	45999.35
1503.61521	47522.15
1506.99934	49481.45
1510.38121	51208.55
1513.76081	51781.15
1517.13816	50526.65
1520.51324	48003.45
1523.88607	45583.65
1527.25665	43992.55
1530.62498	43103.95
1533.99105	42714.15
1537.35488	42384.05
1540.71647	42079.45
1544.07581	41621.15
1547.4329	41056.55
1550.78776	40660.05
1554.14038	40421.25
1557.49077	40424.25
1560.83892	40394.95
1564.18484	40413.05
1567.52853	40366.35
1570.86999	40396.05
1574.20922	40704.15
1577.54624	40920.75
1580.88103	40750.35
1584.2136	40430.15
1587.54395	40799.05
1590.87208	42150.35
1594.19801	44263.15
1597.52172	46626.25
1600.84321	47629.95
1604.16251	46373.55
1607.47959	43759.65
1610.79447	40839.25
1614.10715	37836.75
1617.41763	35240.75
1620.7259	33328.55
1624.03199	32267.55
1627.33587	32106.35
1630.63757	32759.25
1633.93707	34380.35
1637.23439	36941.45
1640.52951	40288.55
1643.82246	43886.25
1647.11321	46640.05
1650.40179	47184.05
1653.68819	44679.15
1656.97241	39900.65
1660.25446	34979.95
1663.53433	31241.15
1666.81203	28775.35
1670.08756	27226.15
1673.36092	26186.15
1676.63211	25466.95
1679.90115	24950.45
1683.16801	24592.95
1686.43272	24289.45
1689.69527	24051.75
1692.95567	23896.85
1696.2139	23773.05
1699.46999	23701.25
1702.72392	23613.95
1705.97571	23492.85
1709.22535	23430.75
1712.47284	23392.15
1715.71819	23336.05
1718.96139	23261.45
1722.20246	23194.65
1725.44139	23080.35
1728.67818	22942.95
1731.91284	22829.45
1735.14537	22738.45
1738.37576	22626.45
1741.60403	22549.05
1744.83017	22454.65
1748.05418	22413.65
1751.27607	22396.05
1754.49584	22374.75
1757.71349	22364.25
1760.92903	22363.55
1764.14244	22302.65
1767.35375	22303.45
1770.56294	22254.65
1773.77002	22252.55
1776.97499	22223.55
1780.17785	22149.65
1783.37861	22129.25
1786.57727	22120.95
1789.77382	22044.35
1792.96828	22053.95
1796.16064	21988.75
1799.3509	21961.75
1802.53907	21962.55
1805.72514	21859.45
1808.90913	21846.55
1812.09102	21770.15
1815.27083	21758.75
1818.44856	21741.45
1821.6242	21669.15
1824.79776	21661.25
1827.96924	21639.25
1831.13864	21658.05
1834.30597	21658.85
1837.47122	21717.15
1840.6344	21689.45
1843.7955	21683.75
1846.95454	21686.35
1850.11151	21680.95
1853.26642	21645.35
1856.41926	21704.15
1859.57004	21705.35
1862.71876	21693.85
1865.86542	21659.85
1869.01003	21671.45
1872.15258	21682.35
1875.29308	21635.25
1878.43152	21652.15
1881.56792	21632.05
1884.70227	21616.85
1887.83457	21660.95
1890.96482	21635.05
1894.09304	21598.45
1897.21921	21608.35
1900.34335	21633.35
1903.46544	21600.75
1906.58551	21600.05
1909.70353	21569.85
1912.81953	21571.95
1915.93349	21541.75
1919.04543	21476.25
1922.15534	21417.05
1925.26322	21362.35
1928.36908	21340.15
1931.47292	21258.15
1934.57473	21232.85
1937.67453	21130.35
1940.77232	21037.15
1943.86808	20993.75
1946.96184	20937.45
1950.05358	20872.95
1953.14331	20842.85
1956.23103	20779.75
1959.31675	20695.65
1962.40046	20661.85
1965.48217	20563.65
1968.56188	20541.25
1971.63959	20475.15
1974.7153	20405.15
1977.78901	20337.05
1980.86073	20263.05
1983.93046	20231.85
1986.99819	20180.75
1990.06394	20097.35
1993.1277	20052.95
1996.18947	19977.15
1999.24925	19943.15
2002.30706	19872.95
2005.36288	19831.95
2008.41672	19784.55
2011.46859	19761.55
2014.51848	19709.75
2017.56639	19625.15
2020.61233	19590.35
2023.6563	19566.35
2026.6983	19512.45
2029.73833	19476.35
2032.7764	19473.85
2035.8125	19417.75
2038.84664	19392.65
2041.87881	19376.15
2044.90903	19334.95
2047.93729	19292.55
2050.96359	19330.35
2053.98794	19296.85
2057.01034	19265.75
2060.03078	19204.45
2063.04927	19236.35
2066.06582	19215.25
2069.08042	19194.15
2072.09307	19187.45
2075.10378	19166.95
2078.11255	19136.15
2081.11938	19156.65
2084.12426	19117.35
2087.12722	19107.85
2090.12824	19071.75
2093.12732	19111.75
2096.12447	19088.35
2099.11969	19092.55
2102.11299	19116.85
2105.10435	19123.05
2108.09379	19138.35
2111.08131	19168.55
2114.0669	19160.05
2117.05057	19179.65
2120.03233	19213.55
2123.01216	19209.85
2125.99008	19229.35
2128.96609	19238.65
2131.94018	19265.55
2134.91236	19246.05
2137.88263	19284.35
2140.851	19307.35
2143.81746	19310.05
2146.78201	19350.25
2149.74466	19353.45
2152.7054	19361.05
2155.66425	19343.95
2158.6212	19323.25
2161.57625	19349.95
2164.52941	19327.65
2167.48067	19324.75
2170.43004	19294.45
2173.37752	19340.25
2176.32311	19328.25
2179.26681	19313.65
2182.20863	19286.15
2185.14856	19312.45
2188.08661	19302.95
2191.02278	19310.75
2193.95707	19283.15
2196.88948	19308.55
2199.82001	19304.55
2202.74867	19273.45
2205.67545	19322.55
2208.60037	19289.75
2211.52341	19278.85
2214.44458	19250.45
2217.36388	19187.15
2220.28132	19148.65
2223.1969	19151.15
2226.11061	19120.65
2229.02246	19101.35
2231.93245	19067.45
2234.84058	19033.95
2237.74686	18987.25
2240.65128	18988.25
2243.55385	18941.45
2246.45456	18971.25
2249.35343	18929.65
2252.25044	18882.55
2255.14561	18860.25
2258.03893	18851.95
2260.93041	18832.55
2263.82004	18785.75
2266.70783	18758.45
2269.59378	18718.15
2272.4779	18688.55
2275.36017	18589.35
2278.24061	18628.35
2281.11922	18580.55
2283.996	18535.45
2286.87094	18515.65
2289.74405	18483.35
2292.61534	18484.95
2295.4848	18448.35
2298.35243	18445.65
2301.21824	18459.85
2304.08223	18465.55
2306.94439	18469.45
2309.80474	18480.85
2312.66327	18473.75
2315.51999	18451.35
2318.37489	18488.35
2321.22797	18453.25
2324.07925	18436.85
2326.92871	18437.05
2329.77637	18423.95
2332.62222	18415.85
2335.46626	18412.85
2338.3085	18428.95
2341.14893	18419.05
2343.98756	18407.45
2346.8244	18401.05
2349.65943	18405.15
2352.49267	18410.15
2355.32411	18417.65
2358.15376	18406.85
2360.98161	18384.05
2363.80768	18390.25
2366.63195	18368.85
2369.45444	18358.05
2372.27514	18313.95
2375.09405	18277.85
2377.91118	18268.15
2380.72652	18197.55
2383.54009	18176.35
2386.35187	18154.85
2389.16188	18086.25
2391.97011	18073.15
2394.77657	18014.65
2397.58125	18043.25
2400.38416	18021.65
2403.18529	17995.85
2405.98466	17965.05
2408.78226	17920.75
2411.57809	17902.35
2414.37216	17913.35
2417.16446	17878.95
2419.955	17859.85
2422.74378	17836.85
2425.5308	17831.35
2428.31606	17838.95
2431.09956	17851.55
2433.88131	17802.35
2436.6613	17786.05
2439.43954	17797.15
2442.21603	17783.95
2444.99077	17741.75
2447.76377	17788.75
2450.53501	17740.75
2453.30451	17759.45
2456.07226	17732.45
2458.83827	17707.15
2461.60254	17701.85
2464.36507	17733.95
2467.12586	17727.35
2469.88492	17707.15
2472.64224	17709.15
2475.39782	17730.45
2478.15167	17735.75
2480.90379	17777.45
2483.65417	17741.75
2486.40283	17746.25
2489.14976	17757.65
2491.89497	17726.05
2494.63845	17799.35
2497.3802	17759.35
2500.12024	17779.55
2502.85855	17778.55
2505.59514	17776.45
2508.33002	17786.55
2511.06318	17743.05
2513.79462	17721.45
2516.52435	17731.45
2519.25237	17731.65
2521.97867	17653.65
2524.70327	17694.45
2527.42616	17633.35
2530.14734	17627.55
2532.86681	17647.05
2535.58458	17651.35
2538.30065	17605.05
2541.01501	17587.25
2543.72768	17560.55
2546.43864	17593.25
2549.14791	17532.95
2551.85548	17537.65
2554.56136	17518.05
2557.26554	17501.85
2559.96803	17507.15
2562.66883	17483.45
2565.36794	17446.45
2568.06536	17444.25
2570.7611	17442.25
2573.45514	17434.05
2576.14751	17460.65
2578.83819	17409.95
2581.52719	17408.25
2584.21451	17426.35
2586.90015	17426.35
2589.58411	17387.05
2592.2664	17367.15
2594.94701	17357.85
2597.62594	17363.25
2600.30321	17354.25
2602.9788	17346.15
2605.65273	17306.45
2608.32498	17336.45
2610.99557	17284.45
2613.66449	17307.95
2616.33175	17309.45
2618.99734	17356.75
2621.66128	17329.25
2624.32355	17342.25
2626.98416	17336.95
2629.64311	17324.15
2632.30041	17333.85
2634.95605	17301.05
2637.61004	17310.75
2640.26238	17312.25
2642.91306	17280.65
2645.56209	17251.35
2648.20948	17268.05
2650.85521	17242.95
2653.4993	17236.85
2656.14175	17267.95
2658.78255	17261.05
2661.42171	17296.35
2664.05923	17291.75
2666.6951	17274.25
2669.32934	17319.25
2671.96194	17296.95
2674.59291	17313.25
2677.22224	17329.25
2679.84993	17339.95
2682.476	17304.05
2685.10043	17321.95
2687.72324	17283.95
2690.34441	17281.55
2692.96396	17320.85
2695.58188	17322.05
2698.19818	17268.85
2700.81285	17306.75
2703.4259	17341.75
2706.03733	17314.25
2708.64714	17303.95
2711.25533	17304.15
2713.86191	17289.25
2716.46687	17326.85
2719.07021	17352.65
2721.67194	17362.55
2724.27206	17314.45
2726.87057	17368.85
2729.46747	17346.95
2732.06276	17352.95
2734.65644	17347.45
2737.24852	17348.35
2739.83899	17320.05
2742.42786	17337.95
2745.01513	17312.35
2747.60079	17317.25
2750.18486	17337.05
2752.76733	17371.65
2755.3482	17308.95
2757.92747	17339.15
2760.50515	17318.15
2763.08123	17338.45
2765.65573	17289.25
2768.22863	17273.15
2770.79994	17277.65
2773.36967	17268.75
2775.9378	17290.45
2778.50435	17256.25
2781.06932	17242.65
2783.6327	17231.65
2786.1945	17199.45
2788.75471	17210.95
2791.31335	17160.65
2793.87041	17158.85
2796.42589	17113.95
2798.97979	17111.65
2801.53212	17071.15
2804.08288	17059.35
2806.63206	17030.05
2809.17967	17038.15
2811.72571	17009.15
2814.27018	16994.45
2816.81308	16977.95
2819.35442	16958.35
2821.89419	16927.15
2824.43239	16952.95
2826.96904	16929.05
2829.50412	16933.15
2832.03763	16895.15
2834.56959	16879.05
2837.1	16875.45
2839.62884	16871.25
2842.15613	16818.45
2844.68186	16863.45
2847.20604	16837.25
2849.72867	16803.15
2852.24974	16801.85
2854.76927	16822.45
2857.28724	16789.25
2859.80367	16800.45
2862.31855	16754.65
2864.83189	16697.15
2867.34368	16708.25
2869.85393	16725.25
2872.36264	16747.15
2874.8698	16731.25
2877.37543	16706.45
2879.87952	16691.85
2882.38207	16697.15
2884.88308	16716.45
2887.38256	16714.85
2889.88051	16737.65
2892.37692	16769.15
2894.8718	16718.35
2897.36515	16734.15
2899.85698	16762.45
2902.34727	16812.75
2904.83604	16797.45
2907.32328	16796.15
2909.809	16812.65
2912.29319	16847.65
2914.77587	16848.95
2917.25702	16810.55
2919.73665	16812.65
2922.21476	16837.75
2924.69136	16771.85
2927.16644	16821.55
2929.64	16782.45
2932.11205	16750.65
2934.58258	16693.25
2937.05161	16745.35
2939.51912	16739.15
2941.98513	16726.15
2944.44962	16719.05
2946.91261	16653.15
2949.37409	16676.35
2951.83407	16659.35
2954.29254	16636.85
2956.74951	16652.95
2959.20498	16638.65
2961.65895	16583.95
2964.11142	16586.65
2966.56239	16549.05
2969.01186	16513.95
2971.45984	16489.15
2973.90632	16470.85
2976.35131	16411.65
2978.7948	16386.15
2981.23681	16374.45
2983.67732	16367.35
2986.11635	16325.75
2988.55388	16268.75
2990.98993	16249.15
2993.4245	16241.05
2995.85758	16213.25
2998.28917	16154.75
3000.71928	16130.75
3003.14791	16111.15
3005.57506	16095.45
3008.00073	16040.35
3010.42493	16034.85
3012.84764	16029.75
3015.26888	15982.65
3017.68865	15946.25
3020.10694	15948.55
3022.52376	15925.45
3024.9391	15891.25
3027.35298	15853.05
3029.76539	15871.85
3032.17632	15819.85
3034.5858	15806.75
3036.9938	15787.25
3039.40034	15761.85
3041.80542	15779.05
3044.20903	15751.95
3046.61118	15751.75
3049.01187	15695.95
3051.4111	15677.75
3053.80888	15646.15
3056.20519	15634.05
3058.60005	15587.55
3060.99345	15588.95
3063.3854	15541.45
3065.7759	15512.65
3068.16494	15491.85
3070.55254	15414.75
3072.93868	15391.55
3075.32338	15358.65
3077.70662	15351.45
3080.08842	15323.95
3082.46878	15304.35
3084.84769	15268.25
3087.22515	15295.35
3089.60118	15250.65
3091.97576	15248.75
3094.3489	15247.35
3096.72061	15235.85
3099.09087	15217.45
3101.4597	15172.15
3103.82709	15154.05
3106.19305	15135.35
3108.55757	15120.65
3110.92066	15070.65
3113.28232	15092.15
3115.64255	15033.65
3118.00134	15028.65
3120.35871	14965.15
3122.71466	14964.25
3125.06917	14951.35
3127.42226	14918.85
3129.77393	14918.75
3132.12417	14893.75
3134.47299	14913.15
3136.82039	14904.75
3139.16636	14877.95
3141.51092	14889.15
3143.85406	14907.45
3146.19579	14885.55
3148.53609	14889.15
3150.87499	14890.95
3153.21246	14882.85
3155.54853	14919.35
3157.88318	14886.15
3160.21642	14893.85
3162.54826	14897.05
3164.87868	14872.75
3167.2077	14883.55
3169.5353	14890.25
3171.86151	14843.05
3174.18631	14831.15
3176.5097	14800.85
3178.83169	14801.15
3181.15228	14782.75
3183.47147	14781.05
3185.78926	14756.55
3188.10565	14722.15
3190.42065	14756.65
3192.73424	14715.15
3195.04645	14716.15
3197.35725	14728.85
3199.66667	14742.75
3201.97469	14751.25
3204.28132	14750.55
3206.58656	14781.25
3208.8904	14751.35
3211.19287	14776.15
3213.49394	14746.85
3215.79363	14760.95
3218.09193	14774.35
3220.38884	14760.75
3222.68438	14737.45
3224.97853	14702.25
3227.2713	14713.95
3229.56269	14716.55
3231.8527	14684.95
3234.14133	14682.35
3236.42858	14641.55
3238.71446	14598.35
3240.99896	14597.65
3243.28209	14610.15
3245.56384	14559.65
3247.84423	14585.15
3250.12324	14566.35
3252.40088	14565.85
3254.67715	14559.15
3256.95205	14519.15
3259.22558	14526.55
3261.49775	14487.85
3263.76855	14475.25
3266.03799	14441.45
3268.30606	14445.85
3270.57277	14404.65
3272.83812	14387.65
3275.10211	14355.35
3277.36474	14336.25
3279.62601	14359.85
3281.88593	14313.25
3284.14448	14347.85
3286.40168	14346.05
3288.65753	14316.35
3290.91202	14291.15
3293.16516	14218.35
3295.41695	14200.05
3297.66738	14116.25
3299.91647	14076.95
3302.16421	13980.55
3304.4106	13926.55
3306.65564	13856.25
3308.89933	13763.35
3311.14169	13691.05
3313.38269	13599.15
3315.62236	13536.05
3317.86068	13423.05
3320.09766	13281.45
3322.3333	13191.25
3324.5676	13166.35
3326.80056	12950.35
3329.03219	12888.85
3331.26248	3.35
3333.49143	0.65
3335.71905	-1.05
