Data from AgNPs_FTO_APTES_UA_50uM_R6G_10uM_NaF_0.1M_Addition_RamanShift__27__15-07-47-430.txt Node

Date: Fri Dec 17 15:07:47 GMT 2021
User: TCL
Spectrometer: QEP01345
Trigger mode: 4
Integration Time (sec): 7.000000E0
Scans to average: 10
Electric dark correction enabled: true
Nonlinearity correction enabled: false
Boxcar width: 0
XAxis mode: Raman Shifts
Number of Pixels in Spectrum: 1044
>>>>>Begin Spectral Data<<<<<
46.04893	0.25
50.45542	0.15
54.85868	-1.45
59.25871	0.05
63.6555	88.05
68.04907	85.95
72.43941	94.35
76.82654	100.55
81.21044	98.15
85.59113	103.15
89.96862	109.15
94.34289	110.95
98.71396	116.35
103.08183	115.75
107.4465	119.85
111.80798	120.85
116.16626	128.35
120.52136	125.25
124.87327	136.75
129.222	141.85
133.56755	151.05
137.90993	158.15
142.24913	175.75
146.58517	190.55
150.91804	220.85
155.24774	260.05
159.57429	319.85
163.89768	404.45
168.21792	532.55
172.53501	710.95
176.84895	987.65
181.15975	1383.95
185.46741	1934.15
189.77193	2655.85
194.07331	3544.45
198.37157	4575.45
202.6667	5643.25
206.9587	6700.15
211.24758	7763.35
215.53334	8798.95
219.81599	9919.95
224.09553	11194.15
228.37195	12577.55
232.64527	14167.85
236.91549	15814.25
241.18261	17396.95
245.44663	18866.15
249.70755	20148.65
253.96539	21307.15
258.22014	22289.95
262.4718	23039.65
266.72039	23664.05
270.96589	24035.15
275.20832	24159.15
279.44768	24002.05
283.68397	23861.45
287.91719	23644.15
292.14735	23581.55
296.37445	23690.45
300.59849	23888.95
304.81948	24118.35
309.03742	24265.85
313.25231	23992.85
317.46415	23365.95
321.67296	22456.85
325.87872	21701.15
330.08145	21333.95
334.28114	21343.35
338.47781	21601.45
342.67145	21967.55
346.86207	22444.75
351.04966	23124.75
355.23424	23850.25
359.4158	24509.25
363.59435	24892.45
367.76989	25116.85
371.94243	25259.65
376.11196	25344.75
380.27849	25465.85
384.44203	25522.45
388.60257	25523.75
392.76012	25657.25
396.91468	25942.35
401.06626	26415.35
405.21485	26823.95
409.36047	26728.65
413.50311	26128.95
417.64277	25581.95
421.77947	25322.45
425.9132	25286.95
430.04396	25372.25
434.17176	25575.15
438.2966	25812.05
442.41849	26239.55
446.53742	26800.05
450.6534	27486.85
454.76644	28045.65
458.87653	28284.05
462.98368	28237.45
467.08789	27977.45
471.18916	27549.25
475.2875	27063.35
479.38291	26741.95
483.4754	26399.45
487.56496	26048.85
491.6516	25818.95
495.73531	25608.95
499.81612	25546.85
503.89401	25703.65
507.96899	25804.15
512.04106	25865.45
516.11023	25971.55
520.1765	25972.25
524.23987	25870.25
528.30034	25657.65
532.35792	25368.65
536.41261	25126.45
540.46441	24801.15
544.51333	24752.45
548.55936	24946.45
552.60252	25362.15
556.64279	25866.05
560.6802	26137.75
564.71473	26326.85
568.7464	26719.85
572.7752	27159.35
576.80114	27266.35
580.82422	27252.75
584.84444	27335.15
588.86181	27489.55
592.87633	27767.55
596.888	28044.35
600.89682	28576.35
604.9028	30229.85
608.90594	34219.95
612.90624	38764.05
616.90371	36932.95
620.89834	29977.95
624.89015	26680.75
628.87913	26100.95
632.86528	26193.95
636.84862	26317.55
640.82913	26037.55
644.80683	25334.85
648.78172	24757.05
652.75379	24744.85
656.72306	25187.55
660.68952	25807.25
664.65319	25678.65
668.61405	25125.55
672.57211	24912.75
676.52738	24914.45
680.47986	24937.05
684.42955	24819.15
688.37646	24774.45
692.32058	24858.65
696.26192	25062.35
700.20048	25285.65
704.13626	25431.75
708.06928	25422.55
711.99952	25172.85
715.927	25069.05
719.85171	25108.75
723.77365	25038.65
727.69284	24854.05
731.60928	24672.35
735.52295	24649.75
739.43388	24724.35
743.34206	24799.75
747.24749	24969.05
751.15017	25149.35
755.05012	25565.55
758.94733	26315.05
762.8418	27868.65
766.73354	30320.45
770.62254	32959.05
774.50882	34026.05
778.39237	32617.05
782.27321	29738.65
786.15132	27216.55
790.02671	25778.95
793.89938	25043.55
797.76935	24784.35
801.6366	24681.95
805.50115	24618.25
809.36299	24544.65
813.22213	24470.35
817.07857	24444.75
820.93231	24427.85
824.78336	24406.85
828.63172	24406.95
832.47738	24451.25
836.32036	24445.55
840.16066	24445.25
843.99827	24426.55
847.8332	24377.65
851.66546	24350.25
855.49504	24314.65
859.32195	24276.55
863.1462	24185.35
866.96777	24081.95
870.78668	24059.05
874.60293	24091.85
878.41652	24110.25
882.22745	24213.05
886.03573	24310.75
889.84136	24290.35
893.64433	24173.55
897.44466	24103.15
901.24235	24012.65
905.0374	23961.85
908.8298	23913.35
912.61957	23936.35
916.40671	24077.15
920.19121	24333.15
923.97308	24575.65
927.75233	24669.25
931.52895	24602.85
935.30295	24388.15
939.07433	24008.05
942.84309	23720.75
946.60924	23524.85
950.37278	23402.65
954.13371	23316.35
957.89203	23237.95
961.64774	23139.15
965.40086	23053.45
969.15137	23014.55
972.89929	22964.35
976.64461	22943.85
980.38733	22951.35
984.12747	23036.45
987.86502	23239.85
991.59999	23438.35
995.33237	23771.65
999.06217	24310.85
1002.78939	25050.45
1006.51404	25636.05
1010.23611	26101.65
1013.95561	26393.85
1017.67255	26458.35
1021.38692	26201.35
1025.09872	26037.95
1028.80796	26088.75
1032.51465	26453.05
1036.21877	26815.25
1039.92035	26841.45
1043.61937	26656.35
1047.31584	26152.95
1051.00976	25668.25
1054.70114	25393.05
1058.38998	25360.25
1062.07627	25451.45
1065.76003	25662.45
1069.44126	25901.25
1073.11995	26150.75
1076.79611	26351.75
1080.46974	26478.05
1084.14085	26698.45
1087.80943	26965.85
1091.47549	27073.65
1095.13903	26922.05
1098.80005	26473.15
1102.45857	25952.85
1106.11456	25712.45
1109.76805	25670.65
1113.41903	25852.05
1117.06751	26207.65
1120.71348	26643.65
1124.35696	27080.75
1127.99793	27508.65
1131.63641	27668.55
1135.2724	27269.15
1138.90589	26841.65
1142.5369	26567.85
1146.16542	26351.75
1149.79145	26291.35
1153.415	26380.95
1157.03607	26621.15
1160.65467	27066.65
1164.27079	27902.95
1167.88443	29013.05
1171.49561	30608.05
1175.10432	32949.55
1178.71056	35890.95
1182.31434	38646.45
1185.91565	40020.95
1189.51451	40094.65
1193.11091	38851.25
1196.70485	36953.55
1200.29634	35209.35
1203.88538	33804.05
1207.47197	32481.75
1211.05612	31310.85
1214.63782	30718.55
1218.21708	30553.05
1221.79391	30600.25
1225.36829	30687.85
1228.94024	30612.65
1232.50976	30532.15
1236.07685	30554.65
1239.6415	30515.55
1243.20374	30512.75
1246.76355	30655.85
1250.32093	31003.75
1253.8759	31616.75
1257.42845	32418.35
1260.97859	33115.85
1264.52631	33784.75
1268.07163	34373.05
1271.61453	35191.15
1275.15503	35923.55
1278.69312	36707.35
1282.22882	37230.35
1285.76211	37878.05
1289.29301	38690.25
1292.82151	39582.35
1296.34761	40695.75
1299.87133	42326.25
1303.39266	44537.85
1306.9116	47420.45
1310.42815	50674.45
1313.94233	52780.45
1317.45412	52945.05
1320.96354	51783.85
1324.47058	50127.15
1327.97525	48632.95
1331.47754	47592.25
1334.97747	47418.75
1338.47502	47874.55
1341.97022	48529.75
1345.46305	48933.25
1348.95352	48913.55
1352.44163	49244.65
1355.92738	50512.35
1359.41078	53383.75
1362.89183	56468.55
1366.37053	55709.15
1369.84688	50398.95
1373.32088	44685.55
1376.79254	40754.85
1380.26186	38816.45
1383.72883	38042.75
1387.19347	37500.05
1390.65578	36982.25
1394.11575	36607.65
1397.57339	36733.75
1401.0287	37204.45
1404.48168	37984.35
1407.93234	38785.45
1411.38068	39233.35
1414.82669	39042.05
1418.27039	38143.35
1421.71177	36954.95
1425.15083	35820.35
1428.58758	35139.35
1432.02203	34997.85
1435.45416	35149.15
1438.88399	35476.05
1442.31151	35821.75
1445.73673	36179.95
1449.15965	36544.75
1452.58027	36775.55
1455.9986	36800.45
1459.41463	36943.85
1462.82837	37338.95
1466.23982	37974.55
1469.64898	38682.35
1473.05586	39202.15
1476.46045	39491.45
1479.86276	39707.15
1483.26279	40010.65
1486.66054	40338.55
1490.05602	40929.65
1493.44922	41591.75
1496.84016	42466.45
1500.22882	43867.75
1503.61521	45797.95
1506.99934	48071.15
1510.38121	50259.65
1513.76081	51037.95
1517.13816	49524.85
1520.51324	46434.95
1523.88607	43341.85
1527.25665	41222.05
1530.62498	40019.85
1533.99105	39414.75
1537.35488	39020.65
1540.71647	38725.85
1544.07581	38458.15
1547.4329	38135.85
1550.78776	37882.35
1554.14038	37731.35
1557.49077	37787.75
1560.83892	37939.35
1564.18484	37997.05
1567.52853	38119.65
1570.86999	38204.95
1574.20922	38403.65
1577.54624	38474.75
1580.88103	37943.15
1584.2136	37352.35
1587.54395	37447.05
1590.87208	38650.45
1594.19801	40641.85
1597.52172	42894.05
1600.84321	43908.55
1604.16251	42851.95
1607.47959	40540.45
1610.79447	37841.45
1614.10715	35214.85
1617.41763	32963.85
1620.7259	31429.25
1624.03199	30628.05
1627.33587	30562.75
1630.63757	31162.05
1633.93707	32563.35
1637.23439	34663.65
1640.52951	37314.05
1643.82246	40245.45
1647.11321	42829.15
1650.40179	43650.65
1653.68819	41834.95
1656.97241	37625.25
1660.25446	33126.15
1663.53433	29761.25
1666.81203	27624.35
1670.08756	26309.85
1673.36092	25440.55
1676.63211	24857.45
1679.90115	24430.75
1683.16801	24077.95
1686.43272	23850.25
1689.69527	23663.25
1692.95567	23538.65
1696.2139	23477.65
1699.46999	23444.05
1702.72392	23334.75
1705.97571	23277.65
1709.22535	23217.75
1712.47284	23211.75
1715.71819	23179.75
1718.96139	23124.15
1722.20246	23065.95
1725.44139	22972.25
1728.67818	22905.45
1731.91284	22763.75
1735.14537	22666.55
1738.37576	22582.95
1741.60403	22507.75
1744.83017	22481.75
1748.05418	22412.75
1751.27607	22375.15
1754.49584	22371.55
1757.71349	22366.65
1760.92903	22340.15
1764.14244	22334.55
1767.35375	22328.75
1770.56294	22264.95
1773.77002	22285.45
1776.97499	22232.85
1780.17785	22207.15
1783.37861	22224.15
1786.57727	22187.35
1789.77382	22144.95
1792.96828	22113.75
1796.16064	22072.55
1799.3509	22065.35
1802.53907	22069.45
1805.72514	21959.25
1808.90913	21966.05
1812.09102	21933.65
1815.27083	21889.45
1818.44856	21880.55
1821.6242	21832.05
1824.79776	21791.15
1827.96924	21809.75
1831.13864	21780.55
1834.30597	21782.85
1837.47122	21801.75
1840.6344	21827.75
1843.7955	21796.75
1846.95454	21821.15
1850.11151	21782.55
1853.26642	21793.15
1856.41926	21807.55
1859.57004	21820.15
1862.71876	21795.25
1865.86542	21830.35
1869.01003	21813.95
1872.15258	21855.25
1875.29308	21824.25
1878.43152	21815.35
1881.56792	21834.95
1884.70227	21826.25
1887.83457	21846.35
1890.96482	21841.25
1894.09304	21820.15
1897.21921	21844.25
1900.34335	21816.45
1903.46544	21858.55
1906.58551	21847.25
1909.70353	21843.75
1912.81953	21873.25
1915.93349	21841.75
1919.04543	21815.55
1922.15534	21744.85
1925.26322	21708.55
1928.36908	21660.75
1931.47292	21622.25
1934.57473	21557.35
1937.67453	21492.45
1940.77232	21396.85
1943.86808	21293.45
1946.96184	21290.25
1950.05358	21224.75
1953.14331	21158.75
1956.23103	21123.45
1959.31675	21036.05
1962.40046	21006.55
1965.48217	20930.05
1968.56188	20885.55
1971.63959	20801.85
1974.7153	20758.55
1977.78901	20701.45
1980.86073	20662.95
1983.93046	20601.95
1986.99819	20545.05
1990.06394	20482.85
1993.1277	20369.35
1996.18947	20349.45
1999.24925	20346.35
2002.30706	20269.05
2005.36288	20185.95
2008.41672	20149.25
2011.46859	20114.65
2014.51848	20093.05
2017.56639	20009.25
2020.61233	19976.65
2023.6563	19931.05
2026.6983	19871.05
2029.73833	19840.35
2032.7764	19789.55
2035.8125	19775.25
2038.84664	19766.85
2041.87881	19719.35
2044.90903	19733.55
2047.93729	19673.45
2050.96359	19678.55
2053.98794	19636.65
2057.01034	19621.15
2060.03078	19585.55
2063.04927	19582.15
2066.06582	19546.65
2069.08042	19563.15
2072.09307	19539.35
2075.10378	19531.75
2078.11255	19515.05
2081.11938	19531.35
2084.12426	19514.05
2087.12722	19500.65
2090.12824	19479.45
2093.12732	19475.35
2096.12447	19491.25
2099.11969	19503.35
2102.11299	19486.75
2105.10435	19507.45
2108.09379	19543.75
2111.08131	19555.85
2114.0669	19582.75
2117.05057	19569.75
2120.03233	19618.55
2123.01216	19623.55
2125.99008	19634.75
2128.96609	19620.95
2131.94018	19713.75
2134.91236	19654.15
2137.88263	19695.75
2140.851	19689.45
2143.81746	19748.55
2146.78201	19752.25
2149.74466	19764.75
2152.7054	19732.05
2155.66425	19749.95
2158.6212	19734.05
2161.57625	19713.75
2164.52941	19727.45
2167.48067	19779.55
2170.43004	19713.85
2173.37752	19746.25
2176.32311	19744.15
2179.26681	19737.15
2182.20863	19708.65
2185.14856	19721.85
2188.08661	19750.55
2191.02278	19767.85
2193.95707	19736.45
2196.88948	19756.15
2199.82001	19742.35
2202.74867	19721.65
2205.67545	19724.15
2208.60037	19733.25
2211.52341	19698.75
2214.44458	19665.05
2217.36388	19637.95
2220.28132	19612.45
2223.1969	19575.05
2226.11061	19574.65
2229.02246	19511.65
2231.93245	19472.65
2234.84058	19483.25
2237.74686	19407.55
2240.65128	19427.55
2243.55385	19402.15
2246.45456	19391.15
2249.35343	19354.15
2252.25044	19334.65
2255.14561	19310.45
2258.03893	19327.45
2260.93041	19279.95
2263.82004	19227.95
2266.70783	19241.65
2269.59378	19171.05
2272.4779	19156.05
2275.36017	19088.35
2278.24061	19061.65
2281.11922	19016.65
2283.996	18964.95
2286.87094	18974.85
2289.74405	18941.55
2292.61534	18967.65
2295.4848	18892.35
2298.35243	18927.95
2301.21824	18918.95
2304.08223	18930.75
2306.94439	18932.95
2309.80474	18925.05
2312.66327	18907.55
2315.51999	18908.45
2318.37489	18928.55
2321.22797	18915.65
2324.07925	18896.45
2326.92871	18873.15
2329.77637	18868.45
2332.62222	18850.65
2335.46626	18854.25
2338.3085	18871.45
2341.14893	18882.85
2343.98756	18878.85
2346.8244	18885.85
2349.65943	18859.25
2352.49267	18854.15
2355.32411	18864.45
2358.15376	18877.05
2360.98161	18851.65
2363.80768	18837.65
2366.63195	18838.25
2369.45444	18816.85
2372.27514	18759.65
2375.09405	18738.45
2377.91118	18727.35
2380.72652	18623.15
2383.54009	18658.85
2386.35187	18614.75
2389.16188	18558.35
2391.97011	18552.25
2394.77657	18514.85
2397.58125	18486.55
2400.38416	18447.15
2403.18529	18444.15
2405.98466	18406.15
2408.78226	18385.85
2411.57809	18355.95
2414.37216	18319.85
2417.16446	18312.95
2419.955	18299.35
2422.74378	18285.35
2425.5308	18240.75
2428.31606	18248.35
2431.09956	18249.55
2433.88131	18224.25
2436.6613	18206.75
2439.43954	18223.55
2442.21603	18215.25
2444.99077	18175.75
2447.76377	18206.95
2450.53501	18189.35
2453.30451	18194.75
2456.07226	18156.15
2458.83827	18138.35
2461.60254	18127.05
2464.36507	18149.55
2467.12586	18147.75
2469.88492	18136.15
2472.64224	18144.35
2475.39782	18142.55
2478.15167	18152.75
2480.90379	18145.05
2483.65417	18169.25
2486.40283	18175.85
2489.14976	18193.85
2491.89497	18193.05
2494.63845	18224.65
2497.3802	18221.55
2500.12024	18231.65
2502.85855	18200.85
2505.59514	18231.45
2508.33002	18193.05
2511.06318	18166.95
2513.79462	18157.25
2516.52435	18135.15
2519.25237	18121.85
2521.97867	18084.55
2524.70327	18102.05
2527.42616	18029.45
2530.14734	18061.95
2532.86681	18004.75
2535.58458	18006.95
2538.30065	17995.45
2541.01501	17968.75
2543.72768	17955.45
2546.43864	17970.55
2549.14791	17919.85
2551.85548	17902.75
2554.56136	17882.25
2557.26554	17914.05
2559.96803	17863.85
2562.66883	17828.65
2565.36794	17860.25
2568.06536	17878.85
2570.7611	17841.55
2573.45514	17832.15
2576.14751	17816.05
2578.83819	17812.25
2581.52719	17826.55
2584.21451	17783.55
2586.90015	17805.65
2589.58411	17757.35
2592.2664	17746.15
2594.94701	17756.95
2597.62594	17723.75
2600.30321	17700.55
2602.9788	17706.75
2605.65273	17675.65
2608.32498	17712.45
2610.99557	17652.75
2613.66449	17705.15
2616.33175	17703.25
2618.99734	17678.15
2621.66128	17715.25
2624.32355	17685.25
2626.98416	17690.05
2629.64311	17687.55
2632.30041	17693.75
2634.95605	17662.35
2637.61004	17668.15
2640.26238	17663.25
2642.91306	17668.45
2645.56209	17610.35
2648.20948	17591.75
2650.85521	17595.15
2653.4993	17599.15
2656.14175	17578.75
2658.78255	17622.05
2661.42171	17619.35
2664.05923	17652.95
2666.6951	17633.45
2669.32934	17641.45
2671.96194	17673.45
2674.59291	17660.65
2677.22224	17694.45
2679.84993	17686.25
2682.476	17712.25
2685.10043	17744.55
2687.72324	17686.95
2690.34441	17675.45
2692.96396	17684.65
2695.58188	17692.15
2698.19818	17712.95
2700.81285	17727.25
2703.4259	17694.25
2706.03733	17712.65
2708.64714	17685.05
2711.25533	17696.85
2713.86191	17704.05
2716.46687	17755.95
2719.07021	17716.25
2721.67194	17725.35
2724.27206	17704.75
2726.87057	17721.75
2729.46747	17709.25
2732.06276	17737.25
2734.65644	17740.15
2737.24852	17729.45
2739.83899	17704.25
2742.42786	17741.75
2745.01513	17726.85
2747.60079	17697.45
2750.18486	17698.75
2752.76733	17719.75
2755.3482	17707.75
2757.92747	17749.45
2760.50515	17696.65
2763.08123	17712.05
2765.65573	17681.45
2768.22863	17657.25
2770.79994	17619.05
2773.36967	17657.55
2775.9378	17640.45
2778.50435	17618.75
2781.06932	17624.35
2783.6327	17647.05
2786.1945	17624.15
2788.75471	17596.75
2791.31335	17557.75
2793.87041	17535.25
2796.42589	17486.55
2798.97979	17487.25
2801.53212	17454.25
2804.08288	17460.05
2806.63206	17401.05
2809.17967	17384.15
2811.72571	17374.95
2814.27018	17396.45
2816.81308	17356.35
2819.35442	17348.45
2821.89419	17305.15
2824.43239	17338.85
2826.96904	17328.25
2829.50412	17320.75
2832.03763	17288.05
2834.56959	17284.25
2837.1	17244.45
2839.62884	17252.45
2842.15613	17254.75
2844.68186	17234.25
2847.20604	17224.35
2849.72867	17248.95
2852.24974	17265.35
2854.76927	17238.45
2857.28724	17191.35
2859.80367	17169.05
2862.31855	17176.05
2864.83189	17128.05
2867.34368	17125.45
2869.85393	17136.05
2872.36264	17157.95
2874.8698	17109.35
2877.37543	17124.75
2879.87952	17118.45
2882.38207	17144.35
2884.88308	17124.65
2887.38256	17152.45
2889.88051	17144.55
2892.37692	17152.85
2894.8718	17132.45
2897.36515	17159.85
2899.85698	17168.15
2902.34727	17226.25
2904.83604	17216.05
2907.32328	17194.05
2909.809	17189.65
2912.29319	17240.15
2914.77587	17241.35
2917.25702	17230.55
2919.73665	17197.25
2922.21476	17211.05
2924.69136	17196.55
2927.16644	17187.15
2929.64	17176.05
2932.11205	17131.15
2934.58258	17091.65
2937.05161	17131.15
2939.51912	17153.05
2941.98513	17126.05
2944.44962	17080.25
2946.91261	17034.85
2949.37409	17066.35
2951.83407	17041.85
2954.29254	17069.05
2956.74951	17061.85
2959.20498	17058.85
2961.65895	16968.65
2964.11142	17010.35
2966.56239	16957.55
2969.01186	16948.45
2971.45984	16886.45
2973.90632	16863.55
2976.35131	16811.55
2978.7948	16788.45
2981.23681	16765.85
2983.67732	16765.25
2986.11635	16728.65
2988.55388	16680.95
2990.98993	16633.15
2993.4245	16620.35
2995.85758	16603.55
2998.28917	16571.45
3000.71928	16519.65
3003.14791	16509.15
3005.57506	16499.25
3008.00073	16447.75
3010.42493	16452.15
3012.84764	16443.05
3015.26888	16433.75
3017.68865	16365.15
3020.10694	16357.95
3022.52376	16331.25
3024.9391	16286.55
3027.35298	16281.35
3029.76539	16234.55
3032.17632	16224.85
3034.5858	16212.85
3036.9938	16204.35
3039.40034	16188.95
3041.80542	16163.55
3044.20903	16150.55
3046.61118	16157.75
3049.01187	16091.25
3051.4111	16081.05
3053.80888	16060.95
3056.20519	16043.55
3058.60005	15981.35
3060.99345	15970.05
3063.3854	15926.95
3065.7759	15894.15
3068.16494	15872.75
3070.55254	15820.85
3072.93868	15806.65
3075.32338	15750.05
3077.70662	15717.55
3080.08842	15679.95
3082.46878	15668.75
3084.84769	15649.35
3087.22515	15639.65
3089.60118	15606.55
3091.97576	15610.35
3094.3489	15609.15
3096.72061	15595.55
3099.09087	15607.35
3101.4597	15554.35
3103.82709	15540.75
3106.19305	15525.05
3108.55757	15510.65
3110.92066	15459.25
3113.28232	15449.65
3115.64255	15405.55
3118.00134	15371.35
3120.35871	15348.05
3122.71466	15353.75
3125.06917	15310.25
3127.42226	15278.35
3129.77393	15310.95
3132.12417	15300.65
3134.47299	15277.25
3136.82039	15290.85
3139.16636	15251.75
3141.51092	15270.15
3143.85406	15269.55
3146.19579	15235.75
3148.53609	15264.25
3150.87499	15289.35
3153.21246	15246.35
3155.54853	15340.75
3157.88318	15267.65
3160.21642	15299.85
3162.54826	15272.45
3164.87868	15254.25
3167.2077	15233.25
3169.5353	15220.95
3171.86151	15232.45
3174.18631	15244.15
3176.5097	15172.25
3178.83169	15183.45
3181.15228	15171.95
3183.47147	15124.05
3185.78926	15137.95
3188.10565	15124.65
3190.42065	15098.25
3192.73424	15096.75
3195.04645	15101.95
3197.35725	15102.95
3199.66667	15103.25
3201.97469	15119.45
3204.28132	15116.05
3206.58656	15167.75
3208.8904	15139.65
3211.19287	15148.35
3213.49394	15157.95
3215.79363	15128.65
3218.09193	15158.35
3220.38884	15130.05
3222.68438	15145.45
3224.97853	15116.95
3227.2713	15101.05
3229.56269	15074.35
3231.8527	15076.05
3234.14133	15036.75
3236.42858	15010.75
3238.71446	14999.05
3240.99896	14975.55
3243.28209	15000.35
3245.56384	14963.65
3247.84423	14990.15
3250.12324	14975.65
3252.40088	14936.15
3254.67715	14935.55
3256.95205	14905.75
3259.22558	14910.85
3261.49775	14883.25
3263.76855	14858.85
3266.03799	14844.25
3268.30606	14829.95
3270.57277	14781.85
3272.83812	14752.95
3275.10211	14743.65
3277.36474	14722.65
3279.62601	14730.35
3281.88593	14711.65
3284.14448	14720.65
3286.40168	14702.45
3288.65753	14682.65
3290.91202	14674.65
3293.16516	14618.65
3295.41695	14599.25
3297.66738	14513.15
3299.91647	14443.15
3302.16421	14371.55
3304.4106	14299.85
3306.65564	14238.25
3308.89933	14159.85
3311.14169	14036.75
3313.38269	13952.75
3315.62236	13901.75
3317.86068	13776.05
3320.09766	13656.85
3322.3333	13542.65
3324.5676	13505.85
3326.80056	13332.95
3329.03219	13236.85
3331.26248	4.05
3333.49143	0.45
3335.71905	-1.45
