Data from AgNPs_FTO_APTES_UA_1uM_R6G_10uM_NaF_0.1M_Addition_RamanShift__31__11-40-07-193.txt Node

Date: Fri Dec 17 11:40:07 GMT 2021
User: TCL
Spectrometer: QEP01345
Trigger mode: 4
Integration Time (sec): 7.000000E0
Scans to average: 10
Electric dark correction enabled: true
Nonlinearity correction enabled: false
Boxcar width: 0
XAxis mode: Raman Shifts
Number of Pixels in Spectrum: 1044
>>>>>Begin Spectral Data<<<<<
46.04893	0.55
50.45542	-0.05
54.85868	-0.85
59.25871	0.05
63.6555	63.75
68.04907	66.05
72.43941	67.05
76.82654	76.15
81.21044	78.35
85.59113	84.05
89.96862	88.95
94.34289	91.35
98.71396	93.85
103.08183	95.25
107.4465	98.05
111.80798	96.75
116.16626	100.15
120.52136	100.45
124.87327	102.95
129.222	98.25
133.56755	102.55
137.90993	105.55
142.24913	106.55
146.58517	110.55
150.91804	123.15
155.24774	131.55
159.57429	159.05
163.89768	186.45
168.21792	232.75
172.53501	295.85
176.84895	390.05
181.15975	531.85
185.46741	724.25
189.77193	989.55
194.07331	1293.95
198.37157	1661.25
202.6667	2046.45
206.9587	2430.05
211.24758	2789.55
215.53334	3193.35
219.81599	3622.35
224.09553	4098.85
228.37195	4639.25
232.64527	5220.15
236.91549	5785.55
241.18261	6365.15
245.44663	6774.45
249.70755	7112.05
253.96539	7449.75
258.22014	7714.55
262.4718	7976.55
266.72039	8166.35
270.96589	8299.25
275.20832	8284.05
279.44768	8203.65
283.68397	8083.05
287.91719	7995.55
292.14735	7991.85
296.37445	8083.45
300.59849	8361.05
304.81948	8701.55
309.03742	8932.05
313.25231	8886.35
317.46415	8512.45
321.67296	7898.55
325.87872	7429.45
330.08145	7222.35
334.28114	7215.25
338.47781	7334.25
342.67145	7560.15
346.86207	7868.55
351.04966	8349.15
355.23424	8872.85
359.4158	9283.45
363.59435	9501.25
367.76989	9593.75
371.94243	9582.75
376.11196	9544.35
380.27849	9527.65
384.44203	9430.95
388.60257	9315.95
392.76012	9293.95
396.91468	9351.65
401.06626	9607.35
405.21485	9799.15
409.36047	9676.95
413.50311	9210.75
417.64277	8847.05
421.77947	8601.65
425.9132	8534.15
430.04396	8515.25
434.17176	8562.05
438.2966	8701.65
442.41849	8915.05
446.53742	9219.15
450.6534	9466.25
454.76644	9654.55
458.87653	9701.15
462.98368	9603.85
467.08789	9455.45
471.18916	9202.95
475.2875	8988.75
479.38291	8806.65
483.4754	8678.95
487.56496	8610.85
491.6516	8499.75
495.73531	8481.65
499.81612	8485.65
503.89401	8549.75
507.96899	8672.35
512.04106	8798.05
516.11023	8981.75
520.1765	9078.55
524.23987	9062.95
528.30034	8921.15
532.35792	8729.35
536.41261	8555.75
540.46441	8347.95
544.51333	8266.85
548.55936	8298.25
552.60252	8465.25
556.64279	8615.05
560.6802	8700.75
564.71473	8809.55
568.7464	9121.45
572.7752	9289.25
576.80114	9132.45
580.82422	8897.65
584.84444	8845.55
588.86181	8845.35
592.87633	8885.15
596.888	9033.25
600.89682	9406.65
604.9028	10355.15
608.90594	12804.35
612.90624	15908.75
616.90371	15367.65
620.89834	11203.25
624.89015	9217.25
628.87913	8808.45
632.86528	8831.15
636.84862	8916.15
640.82913	8832.15
644.80683	8544.35
648.78172	8321.75
652.75379	8432.35
656.72306	8762.65
660.68952	9156.95
664.65319	9064.45
668.61405	8657.55
672.57211	8462.35
676.52738	8443.45
680.47986	8429.95
684.42955	8405.75
688.37646	8386.85
692.32058	8419.65
696.26192	8510.05
700.20048	8624.75
704.13626	8719.25
708.06928	8721.85
711.99952	8657.45
715.927	8596.45
719.85171	8599.25
723.77365	8556.25
727.69284	8512.25
731.60928	8427.85
735.52295	8445.25
739.43388	8496.75
743.34206	8561.55
747.24749	8581.95
751.15017	8645.45
755.05012	8823.55
758.94733	9162.75
762.8418	9954.55
766.73354	11266.95
770.62254	12671.25
774.50882	13500.65
778.39237	13096.15
782.27321	11631.65
786.15132	10133.25
790.02671	9242.75
793.89938	8895.85
797.76935	8731.95
801.6366	8653.65
805.50115	8604.35
809.36299	8597.65
813.22213	8562.25
817.07857	8536.75
820.93231	8532.05
824.78336	8574.35
828.63172	8598.05
832.47738	8633.65
836.32036	8616.85
840.16066	8600.95
843.99827	8557.55
847.8332	8545.75
851.66546	8527.25
855.49504	8546.45
859.32195	8550.15
863.1462	8509.95
866.96777	8493.35
870.78668	8479.45
874.60293	8505.75
878.41652	8528.55
882.22745	8588.55
886.03573	8615.05
889.84136	8616.25
893.64433	8574.75
897.44466	8571.25
901.24235	8588.15
905.0374	8568.55
908.8298	8539.85
912.61957	8532.65
916.40671	8571.65
920.19121	8619.75
923.97308	8719.05
927.75233	8811.85
931.52895	8878.65
935.30295	8843.85
939.07433	8666.95
942.84309	8485.75
946.60924	8381.05
950.37278	8314.15
954.13371	8264.25
957.89203	8241.25
961.64774	8220.65
965.40086	8197.85
969.15137	8176.45
972.89929	8152.55
976.64461	8158.15
980.38733	8141.05
984.12747	8180.35
987.86502	8195.65
991.59999	8247.25
995.33237	8320.65
999.06217	8482.05
1002.78939	8666.15
1006.51404	8860.05
1010.23611	9061.35
1013.95561	9168.95
1017.67255	9125.55
1021.38692	9022.15
1025.09872	8867.55
1028.80796	8818.25
1032.51465	8849.35
1036.21877	8960.35
1039.92035	9098.15
1043.61937	9115.95
1047.31584	9053.55
1051.00976	8951.55
1054.70114	8878.75
1058.38998	8830.45
1062.07627	8848.05
1065.76003	8903.45
1069.44126	8941.55
1073.11995	9051.35
1076.79611	9123.75
1080.46974	9239.35
1084.14085	9417.05
1087.80943	9586.25
1091.47549	9633.95
1095.13903	9472.85
1098.80005	9158.85
1102.45857	8937.55
1106.11456	8846.05
1109.76805	8891.65
1113.41903	9072.75
1117.06751	9292.35
1120.71348	9579.15
1124.35696	9913.65
1127.99793	10197.75
1131.63641	10180.75
1135.2724	9798.25
1138.90589	9456.95
1142.5369	9206.05
1146.16542	9051.25
1149.79145	8972.95
1153.415	8989.35
1157.03607	9074.95
1160.65467	9234.95
1164.27079	9475.95
1167.88443	9855.55
1171.49561	10468.35
1175.10432	11535.05
1178.71056	13006.45
1182.31434	14177.45
1185.91565	14586.55
1189.51451	14373.05
1193.11091	13603.45
1196.70485	12566.05
1200.29634	11790.25
1203.88538	11172.35
1207.47197	10561.15
1211.05612	10105.85
1214.63782	9862.45
1218.21708	9795.95
1221.79391	9838.45
1225.36829	9958.95
1228.94024	10101.95
1232.50976	10204.95
1236.07685	10300.75
1239.6415	10324.25
1243.20374	10316.65
1246.76355	10344.15
1250.32093	10391.55
1253.8759	10561.45
1257.42845	10820.65
1260.97859	11057.15
1264.52631	11340.35
1268.07163	11589.25
1271.61453	11876.85
1275.15503	12048.85
1278.69312	12164.95
1282.22882	12218.85
1285.76211	12440.05
1289.29301	12785.35
1292.82151	13077.65
1296.34761	13359.05
1299.87133	13816.95
1303.39266	14590.45
1306.9116	15855.35
1310.42815	17407.45
1313.94233	18379.35
1317.45412	18236.15
1320.96354	17318.25
1324.47058	16262.35
1327.97525	15333.35
1331.47754	14760.15
1334.97747	14597.75
1338.47502	14687.95
1341.97022	14940.15
1345.46305	15323.95
1348.95352	15983.15
1352.44163	16934.35
1355.92738	18278.95
1359.41078	20336.85
1362.89183	22287.15
1366.37053	21832.45
1369.84688	19089.15
1373.32088	16245.25
1376.79254	14313.95
1380.26186	13326.75
1383.72883	12785.95
1387.19347	12368.05
1390.65578	11876.75
1394.11575	11557.35
1397.57339	11344.35
1401.0287	11390.75
1404.48168	11614.95
1407.93234	11881.15
1411.38068	12098.65
1414.82669	12166.25
1418.27039	12007.05
1421.71177	11764.05
1425.15083	11584.15
1428.58758	11459.65
1432.02203	11534.65
1435.45416	11581.55
1438.88399	11651.95
1442.31151	11662.75
1445.73673	11683.25
1449.15965	11707.35
1452.58027	11673.55
1455.9986	11534.35
1459.41463	11463.55
1462.82837	11503.25
1466.23982	11689.75
1469.64898	11857.15
1473.05586	11984.15
1476.46045	12102.05
1479.86276	12260.05
1483.26279	12506.75
1486.66054	12797.35
1490.05602	13170.45
1493.44922	13704.35
1496.84016	14404.85
1500.22882	15469.15
1503.61521	16862.15
1506.99934	18477.95
1510.38121	19980.55
1513.76081	20581.65
1517.13816	19736.05
1520.51324	17662.25
1523.88607	15610.25
1527.25665	14151.35
1530.62498	13377.65
1533.99105	12904.05
1537.35488	12599.05
1540.71647	12400.45
1544.07581	12315.65
1547.4329	12297.35
1550.78776	12235.55
1554.14038	12167.95
1557.49077	12186.05
1560.83892	12306.55
1564.18484	12519.35
1567.52853	12790.85
1570.86999	13073.15
1574.20922	13262.35
1577.54624	13286.15
1580.88103	12879.85
1584.2136	12231.35
1587.54395	11930.25
1590.87208	12100.95
1594.19801	12678.05
1597.52172	13483.05
1600.84321	13902.65
1604.16251	13586.65
1607.47959	12794.15
1610.79447	11938.55
1614.10715	11094.85
1617.41763	10407.25
1620.7259	10005.45
1624.03199	9839.95
1627.33587	9876.55
1630.63757	10093.95
1633.93707	10479.85
1637.23439	11092.75
1640.52951	11896.95
1643.82246	12883.65
1647.11321	13978.25
1650.40179	14653.15
1653.68819	14292.05
1656.97241	12749.95
1660.25446	11029.85
1663.53433	9814.85
1666.81203	9109.65
1670.08756	8674.85
1673.36092	8416.25
1676.63211	8233.05
1679.90115	8119.15
1683.16801	8010.25
1686.43272	7970.35
1689.69527	7902.45
1692.95567	7869.55
1696.2139	7846.75
1699.46999	7834.85
1702.72392	7824.85
1705.97571	7805.05
1709.22535	7798.25
1712.47284	7806.05
1715.71819	7814.15
1718.96139	7832.85
1722.20246	7812.95
1725.44139	7788.05
1728.67818	7749.15
1731.91284	7679.95
1735.14537	7617.45
1738.37576	7571.85
1741.60403	7555.05
1744.83017	7508.95
1748.05418	7503.25
1751.27607	7493.95
1754.49584	7452.55
1757.71349	7473.25
1760.92903	7465.05
1764.14244	7436.55
1767.35375	7437.15
1770.56294	7418.75
1773.77002	7403.95
1776.97499	7388.95
1780.17785	7372.35
1783.37861	7366.45
1786.57727	7367.95
1789.77382	7350.25
1792.96828	7348.85
1796.16064	7328.35
1799.3509	7333.65
1802.53907	7306.85
1805.72514	7307.05
1808.90913	7280.15
1812.09102	7253.85
1815.27083	7230.95
1818.44856	7230.55
1821.6242	7234.45
1824.79776	7212.15
1827.96924	7204.75
1831.13864	7193.15
1834.30597	7189.05
1837.47122	7194.95
1840.6344	7193.05
1843.7955	7179.65
1846.95454	7187.35
1850.11151	7174.95
1853.26642	7174.25
1856.41926	7196.35
1859.57004	7175.55
1862.71876	7165.15
1865.86542	7176.65
1869.01003	7194.05
1872.15258	7183.15
1875.29308	7195.45
1878.43152	7185.45
1881.56792	7207.25
1884.70227	7206.05
1887.83457	7220.55
1890.96482	7223.95
1894.09304	7228.95
1897.21921	7200.15
1900.34335	7216.05
1903.46544	7205.65
1906.58551	7196.85
1909.70353	7177.75
1912.81953	7215.75
1915.93349	7177.55
1919.04543	7163.55
1922.15534	7154.35
1925.26322	7129.85
1928.36908	7127.85
1931.47292	7109.65
1934.57473	7061.95
1937.67453	7036.65
1940.77232	7035.15
1943.86808	6982.65
1946.96184	6960.85
1950.05358	6933.25
1953.14331	6886.65
1956.23103	6884.65
1959.31675	6855.15
1962.40046	6806.35
1965.48217	6811.45
1968.56188	6795.85
1971.63959	6759.25
1974.7153	6759.25
1977.78901	6726.65
1980.86073	6709.65
1983.93046	6682.05
1986.99819	6651.05
1990.06394	6622.95
1993.1277	6626.05
1996.18947	6576.35
1999.24925	6586.75
2002.30706	6543.55
2005.36288	6521.05
2008.41672	6520.95
2011.46859	6500.65
2014.51848	6479.45
2017.56639	6448.25
2020.61233	6464.95
2023.6563	6420.15
2026.6983	6413.35
2029.73833	6395.45
2032.7764	6377.05
2035.8125	6366.35
2038.84664	6353.75
2041.87881	6358.95
2044.90903	6342.05
2047.93729	6316.65
2050.96359	6313.85
2053.98794	6304.05
2057.01034	6293.15
2060.03078	6279.65
2063.04927	6279.25
2066.06582	6266.95
2069.08042	6280.15
2072.09307	6256.75
2075.10378	6240.15
2078.11255	6246.95
2081.11938	6256.55
2084.12426	6227.85
2087.12722	6232.45
2090.12824	6220.35
2093.12732	6239.45
2096.12447	6245.25
2099.11969	6225.15
2102.11299	6227.95
2105.10435	6241.05
2108.09379	6227.35
2111.08131	6232.25
2114.0669	6247.35
2117.05057	6221.45
2120.03233	6228.35
2123.01216	6231.25
2125.99008	6266.35
2128.96609	6254.95
2131.94018	6247.65
2134.91236	6254.95
2137.88263	6246.85
2140.851	6261.45
2143.81746	6274.85
2146.78201	6258.95
2149.74466	6246.95
2152.7054	6258.85
2155.66425	6249.35
2158.6212	6245.85
2161.57625	6237.55
2164.52941	6227.35
2167.48067	6232.95
2170.43004	6249.75
2173.37752	6241.75
2176.32311	6232.95
2179.26681	6213.85
2182.20863	6231.45
2185.14856	6225.65
2188.08661	6216.65
2191.02278	6220.65
2193.95707	6188.65
2196.88948	6205.15
2199.82001	6212.75
2202.74867	6180.25
2205.67545	6164.95
2208.60037	6188.65
2211.52341	6169.75
2214.44458	6156.85
2217.36388	6143.75
2220.28132	6117.15
2223.1969	6100.35
2226.11061	6111.45
2229.02246	6088.55
2231.93245	6083.55
2234.84058	6055.15
2237.74686	6058.45
2240.65128	6058.95
2243.55385	6027.45
2246.45456	6041.25
2249.35343	6031.15
2252.25044	6023.15
2255.14561	6013.35
2258.03893	6017.05
2260.93041	5984.15
2263.82004	5983.55
2266.70783	5972.55
2269.59378	5952.75
2272.4779	5940.25
2275.36017	5926.25
2278.24061	5909.55
2281.11922	5892.05
2283.996	5899.35
2286.87094	5883.45
2289.74405	5869.55
2292.61534	5855.95
2295.4848	5818.25
2298.35243	5839.75
2301.21824	5834.85
2304.08223	5826.55
2306.94439	5822.75
2309.80474	5826.35
2312.66327	5814.35
2315.51999	5810.35
2318.37489	5807.55
2321.22797	5788.95
2324.07925	5800.55
2326.92871	5762.75
2329.77637	5766.75
2332.62222	5766.25
2335.46626	5762.75
2338.3085	5745.85
2341.14893	5743.95
2343.98756	5736.95
2346.8244	5738.25
2349.65943	5729.15
2352.49267	5722.15
2355.32411	5720.45
2358.15376	5735.15
2360.98161	5715.65
2363.80768	5728.35
2366.63195	5712.35
2369.45444	5719.65
2372.27514	5726.75
2375.09405	5706.55
2377.91118	5714.85
2380.72652	5692.65
2383.54009	5684.55
2386.35187	5636.35
2389.16188	5627.85
2391.97011	5592.55
2394.77657	5585.25
2397.58125	5575.95
2400.38416	5568.45
2403.18529	5549.25
2405.98466	5542.55
2408.78226	5531.35
2411.57809	5544.75
2414.37216	5516.95
2417.16446	5494.35
2419.955	5494.95
2422.74378	5500.15
2425.5308	5477.05
2428.31606	5475.95
2431.09956	5471.15
2433.88131	5458.55
2436.6613	5468.65
2439.43954	5453.15
2442.21603	5434.65
2444.99077	5461.75
2447.76377	5478.35
2450.53501	5449.65
2453.30451	5453.15
2456.07226	5435.15
2458.83827	5435.35
2461.60254	5428.05
2464.36507	5416.45
2467.12586	5420.15
2469.88492	5417.55
2472.64224	5414.45
2475.39782	5406.25
2478.15167	5415.05
2480.90379	5420.75
2483.65417	5411.45
2486.40283	5424.25
2489.14976	5422.85
2491.89497	5429.25
2494.63845	5428.35
2497.3802	5406.45
2500.12024	5423.15
2502.85855	5410.25
2505.59514	5403.25
2508.33002	5382.35
2511.06318	5368.25
2513.79462	5345.55
2516.52435	5347.25
2519.25237	5331.25
2521.97867	5311.65
2524.70327	5315.15
2527.42616	5307.85
2530.14734	5292.35
2532.86681	5287.85
2535.58458	5283.15
2538.30065	5266.25
2541.01501	5271.05
2543.72768	5262.15
2546.43864	5275.75
2549.14791	5238.35
2551.85548	5265.95
2554.56136	5248.05
2557.26554	5241.25
2559.96803	5232.05
2562.66883	5234.25
2565.36794	5209.55
2568.06536	5210.75
2570.7611	5195.25
2573.45514	5187.05
2576.14751	5173.95
2578.83819	5153.65
2581.52719	5156.25
2584.21451	5164.05
2586.90015	5153.45
2589.58411	5151.65
2592.2664	5140.25
2594.94701	5112.55
2597.62594	5138.45
2600.30321	5104.75
2602.9788	5091.65
2605.65273	5100.45
2608.32498	5095.25
2610.99557	5086.75
2613.66449	5088.45
2616.33175	5081.75
2618.99734	5083.65
2621.66128	5087.75
2624.32355	5063.55
2626.98416	5065.05
2629.64311	5053.75
2632.30041	5057.45
2634.95605	5049.55
2637.61004	5034.85
2640.26238	5020.25
2642.91306	5022.45
2645.56209	5013.25
2648.20948	5005.05
2650.85521	4991.35
2653.4993	5019.95
2656.14175	4990.15
2658.78255	5020.15
2661.42171	5001.75
2664.05923	5007.75
2666.6951	4998.85
2669.32934	5036.95
2671.96194	5024.55
2674.59291	5029.95
2677.22224	5031.25
2679.84993	5039.45
2682.476	5033.35
2685.10043	5045.85
2687.72324	5032.85
2690.34441	5028.95
2692.96396	5028.75
2695.58188	5033.45
2698.19818	5040.05
2700.81285	5044.65
2703.4259	5046.25
2706.03733	5049.85
2708.64714	5037.35
2711.25533	5036.45
2713.86191	5039.55
2716.46687	5067.25
2719.07021	5062.35
2721.67194	5062.55
2724.27206	5065.05
2726.87057	5055.05
2729.46747	5070.25
2732.06276	5060.75
2734.65644	5060.25
2737.24852	5050.15
2739.83899	5054.65
2742.42786	5049.75
2745.01513	5045.75
2747.60079	5056.55
2750.18486	5036.45
2752.76733	5045.55
2755.3482	5037.95
2757.92747	5036.25
2760.50515	5038.35
2763.08123	5029.75
2765.65573	5022.05
2768.22863	5032.85
2770.79994	5024.55
2773.36967	5009.65
2775.9378	5023.05
2778.50435	5018.25
2781.06932	5052.25
2783.6327	5041.05
2786.1945	5048.75
2788.75471	5034.85
2791.31335	5031.15
2793.87041	5047.45
2796.42589	5037.75
2798.97979	5053.95
2801.53212	5047.55
2804.08288	5047.45
2806.63206	5062.55
2809.17967	5083.05
2811.72571	5071.65
2814.27018	5094.65
2816.81308	5106.65
2819.35442	5114.45
2821.89419	5125.35
2824.43239	5124.95
2826.96904	5111.35
2829.50412	5120.75
2832.03763	5119.25
2834.56959	5132.25
2837.1	5127.95
2839.62884	5152.55
2842.15613	5185.75
2844.68186	5242.15
2847.20604	5287.65
2849.72867	5328.95
2852.24974	5338.05
2854.76927	5322.35
2857.28724	5328.15
2859.80367	5320.05
2862.31855	5285.05
2864.83189	5293.85
2867.34368	5264.75
2869.85393	5274.15
2872.36264	5250.65
2874.8698	5267.75
2877.37543	5245.25
2879.87952	5230.05
2882.38207	5231.55
2884.88308	5234.75
2887.38256	5224.65
2889.88051	5212.95
2892.37692	5226.65
2894.8718	5220.55
2897.36515	5221.05
2899.85698	5226.15
2902.34727	5229.95
2904.83604	5204.25
2907.32328	5229.35
2909.809	5214.95
2912.29319	5209.55
2914.77587	5198.85
2917.25702	5173.65
2919.73665	5170.85
2922.21476	5148.55
2924.69136	5165.75
2927.16644	5142.05
2929.64	5110.55
2932.11205	5116.35
2934.58258	5092.05
2937.05161	5066.05
2939.51912	5034.25
2941.98513	4995.35
2944.44962	4956.95
2946.91261	4913.75
2949.37409	4885.95
2951.83407	4841.65
2954.29254	4821.75
2956.74951	4805.65
2959.20498	4775.65
2961.65895	4750.45
2964.11142	4739.85
2966.56239	4708.15
2969.01186	4694.45
2971.45984	4693.05
2973.90632	4664.95
2976.35131	4628.35
2978.7948	4623.55
2981.23681	4607.35
2983.67732	4588.15
2986.11635	4563.25
2988.55388	4546.95
2990.98993	4520.15
2993.4245	4514.25
2995.85758	4488.45
2998.28917	4483.55
3000.71928	4471.25
3003.14791	4453.25
3005.57506	4442.95
3008.00073	4440.75
3010.42493	4423.45
3012.84764	4432.95
3015.26888	4433.25
3017.68865	4411.75
3020.10694	4404.35
3022.52376	4385.85
3024.9391	4384.45
3027.35298	4374.45
3029.76539	4361.45
3032.17632	4353.05
3034.5858	4360.55
3036.9938	4339.85
3039.40034	4329.65
3041.80542	4334.85
3044.20903	4327.65
3046.61118	4317.45
3049.01187	4303.35
3051.4111	4302.75
3053.80888	4294.05
3056.20519	4273.05
3058.60005	4274.75
3060.99345	4269.25
3063.3854	4272.55
3065.7759	4254.15
3068.16494	4237.65
3070.55254	4241.75
3072.93868	4226.75
3075.32338	4221.25
3077.70662	4204.55
3080.08842	4194.55
3082.46878	4185.15
3084.84769	4177.55
3087.22515	4175.75
3089.60118	4182.25
3091.97576	4165.95
3094.3489	4161.25
3096.72061	4154.65
3099.09087	4160.15
3101.4597	4145.25
3103.82709	4141.05
3106.19305	4144.15
3108.55757	4135.65
3110.92066	4110.55
3113.28232	4102.85
3115.64255	4104.25
3118.00134	4099.85
3120.35871	4102.75
3122.71466	4093.65
3125.06917	4089.85
3127.42226	4093.55
3129.77393	4109.15
3132.12417	4095.45
3134.47299	4100.05
3136.82039	4096.15
3139.16636	4101.65
3141.51092	4105.85
3143.85406	4105.05
3146.19579	4105.05
3148.53609	4124.15
3150.87499	4113.05
3153.21246	4112.35
3155.54853	4125.25
3157.88318	4125.85
3160.21642	4133.75
3162.54826	4119.85
3164.87868	4135.85
3167.2077	4130.85
3169.5353	4128.35
3171.86151	4125.85
3174.18631	4115.15
3176.5097	4110.55
3178.83169	4115.25
3181.15228	4125.15
3183.47147	4127.25
3185.78926	4129.65
3188.10565	4112.25
3190.42065	4120.65
3192.73424	4122.35
3195.04645	4139.55
3197.35725	4131.75
3199.66667	4128.45
3201.97469	4145.85
3204.28132	4136.05
3206.58656	4147.05
3208.8904	4150.65
3211.19287	4155.15
3213.49394	4154.35
3215.79363	4140.35
3218.09193	4162.05
3220.38884	4160.75
3222.68438	4155.15
3224.97853	4134.15
3227.2713	4154.35
3229.56269	4126.65
3231.8527	4137.75
3234.14133	4132.65
3236.42858	4125.95
3238.71446	4116.35
3240.99896	4120.75
3243.28209	4104.35
3245.56384	4101.35
3247.84423	4104.35
3250.12324	4108.45
3252.40088	4102.25
3254.67715	4106.25
3256.95205	4094.75
3259.22558	4101.95
3261.49775	4083.15
3263.76855	4071.35
3266.03799	4078.65
3268.30606	4065.45
3270.57277	4072.45
3272.83812	4046.55
3275.10211	4049.45
3277.36474	4048.05
3279.62601	4053.25
3281.88593	4045.05
3284.14448	4038.55
3286.40168	4035.05
3288.65753	4031.25
3290.91202	4019.95
3293.16516	4013.95
3295.41695	3992.75
3297.66738	3964.45
3299.91647	3955.65
3302.16421	3931.25
3304.4106	3910.95
3306.65564	3888.35
3308.89933	3874.45
3311.14169	3855.05
3313.38269	3801.95
3315.62236	3790.15
3317.86068	3767.55
3320.09766	3723.75
3322.3333	3683.55
3324.5676	3678.35
3326.80056	3617.55
3329.03219	3603.55
3331.26248	0.35
3333.49143	1.15
3335.71905	0.05
