Data from AgNPs_FTO_APTES_UA_50uM_R6G_10uM_NaF_0.1M_Addition_RamanShift__24__15-04-17-426.txt Node

Date: Fri Dec 17 15:04:17 GMT 2021
User: TCL
Spectrometer: QEP01345
Trigger mode: 4
Integration Time (sec): 7.000000E0
Scans to average: 10
Electric dark correction enabled: true
Nonlinearity correction enabled: false
Boxcar width: 0
XAxis mode: Raman Shifts
Number of Pixels in Spectrum: 1044
>>>>>Begin Spectral Data<<<<<
46.04893	-0.45
50.45542	-1.15
54.85868	-2.05
59.25871	0.15
63.6555	91.85
68.04907	93.35
72.43941	98.55
76.82654	105.15
81.21044	106.75
85.59113	108.35
89.96862	115.15
94.34289	117.65
98.71396	124.65
103.08183	124.25
107.4465	127.65
111.80798	134.35
116.16626	135.95
120.52136	137.85
124.87327	145.55
129.222	154.65
133.56755	163.25
137.90993	176.15
142.24913	190.45
146.58517	213.15
150.91804	244.25
155.24774	291.75
159.57429	363.15
163.89768	464.45
168.21792	608.55
172.53501	818.95
176.84895	1140.15
181.15975	1579.35
185.46741	2221.05
189.77193	3045.05
194.07331	4071.65
198.37157	5241.15
202.6667	6467.35
206.9587	7690.55
211.24758	8869.55
215.53334	10064.25
219.81599	11323.65
224.09553	12719.25
228.37195	14310.55
232.64527	16073.05
236.91549	17940.45
241.18261	19793.65
245.44663	21490.25
249.70755	23036.85
253.96539	24342.25
258.22014	25511.05
262.4718	26421.95
266.72039	27139.45
270.96589	27500.05
275.20832	27658.45
279.44768	27585.75
283.68397	27382.05
287.91719	27169.65
292.14735	27067.15
296.37445	27107.15
300.59849	27233.05
304.81948	27431.35
309.03742	27434.25
313.25231	27182.65
317.46415	26457.35
321.67296	25557.25
325.87872	24866.95
330.08145	24529.85
334.28114	24528.55
338.47781	24780.75
342.67145	25187.55
346.86207	25654.45
351.04966	26341.95
355.23424	27022.65
359.4158	27650.25
363.59435	28049.95
367.76989	28277.65
371.94243	28500.65
376.11196	28637.05
380.27849	28736.25
384.44203	28832.65
388.60257	28960.05
392.76012	29119.45
396.91468	29439.35
401.06626	29984.55
405.21485	30384.55
409.36047	30333.15
413.50311	29808.75
417.64277	29309.95
421.77947	29102.25
425.9132	29180.95
430.04396	29305.45
434.17176	29519.55
438.2966	29776.65
442.41849	30198.75
446.53742	30818.85
450.6534	31551.15
454.76644	32121.75
458.87653	32445.65
462.98368	32397.85
467.08789	32138.75
471.18916	31707.75
475.2875	31165.65
479.38291	30825.05
483.4754	30422.15
487.56496	30027.85
491.6516	29716.35
495.73531	29534.25
499.81612	29462.05
503.89401	29633.25
507.96899	29752.25
512.04106	29749.35
516.11023	29798.25
520.1765	29799.85
524.23987	29669.15
528.30034	29411.35
532.35792	29174.95
536.41261	28826.05
540.46441	28561.45
544.51333	28490.15
548.55936	28785.15
552.60252	29277.25
556.64279	29823.35
560.6802	30091.85
564.71473	30278.55
568.7464	30640.15
572.7752	31147.95
576.80114	31348.25
580.82422	31492.35
584.84444	31634.85
588.86181	31728.65
592.87633	32042.65
596.888	32320.95
600.89682	32894.25
604.9028	34598.15
608.90594	38451.35
612.90624	42599.15
616.90371	40470.95
620.89834	33598.05
624.89015	30484.35
628.87913	29978.95
632.86528	30036.05
636.84862	30154.65
640.82913	29822.15
644.80683	29113.85
648.78172	28514.55
652.75379	28493.85
656.72306	28872.55
660.68952	29500.45
664.65319	29419.65
668.61405	28900.05
672.57211	28736.15
676.52738	28732.45
680.47986	28737.15
684.42955	28592.55
688.37646	28538.85
692.32058	28589.05
696.26192	28906.35
700.20048	29122.65
704.13626	29299.05
708.06928	29261.65
711.99952	29066.55
715.927	28855.75
719.85171	28932.15
723.77365	28844.95
727.69284	28646.55
731.60928	28422.45
735.52295	28361.85
739.43388	28372.35
743.34206	28522.05
747.24749	28676.65
751.15017	28892.85
755.05012	29372.45
758.94733	30151.95
762.8418	31746.75
766.73354	34315.25
770.62254	36872.75
774.50882	37790.15
778.39237	36289.45
782.27321	33329.45
786.15132	30889.55
790.02671	29445.25
793.89938	28765.65
797.76935	28471.75
801.6366	28373.55
805.50115	28288.65
809.36299	28213.25
813.22213	28086.85
817.07857	27994.15
820.93231	28012.25
824.78336	27936.15
828.63172	27942.25
832.47738	27984.35
836.32036	27999.15
840.16066	27971.85
843.99827	27986.45
847.8332	27979.75
851.66546	27925.45
855.49504	27883.05
859.32195	27887.15
863.1462	27754.35
866.96777	27710.75
870.78668	27652.65
874.60293	27658.55
878.41652	27711.75
882.22745	27832.35
886.03573	27913.95
889.84136	27904.25
893.64433	27810.05
897.44466	27707.55
901.24235	27578.45
905.0374	27538.75
908.8298	27462.55
912.61957	27504.25
916.40671	27697.45
920.19121	27959.65
923.97308	28225.65
927.75233	28338.15
931.52895	28257.45
935.30295	27992.75
939.07433	27551.65
942.84309	27246.15
946.60924	27077.15
950.37278	26957.75
954.13371	26845.05
957.89203	26761.45
961.64774	26716.25
965.40086	26610.85
969.15137	26506.05
972.89929	26473.65
976.64461	26435.35
980.38733	26462.45
984.12747	26573.35
987.86502	26776.75
991.59999	27035.95
995.33237	27395.15
999.06217	28022.35
1002.78939	28798.15
1006.51404	29451.35
1010.23611	29949.05
1013.95561	30313.75
1017.67255	30377.25
1021.38692	30129.05
1025.09872	29918.15
1028.80796	29975.25
1032.51465	30378.85
1036.21877	30788.25
1039.92035	30785.35
1043.61937	30563.15
1047.31584	30032.45
1051.00976	29495.65
1054.70114	29200.05
1058.38998	29186.35
1062.07627	29380.55
1065.76003	29605.95
1069.44126	29924.75
1073.11995	30158.35
1076.79611	30422.15
1080.46974	30560.55
1084.14085	30713.45
1087.80943	30916.05
1091.47549	31089.15
1095.13903	30954.95
1098.80005	30523.75
1102.45857	29928.25
1106.11456	29594.85
1109.76805	29597.55
1113.41903	29779.35
1117.06751	30095.25
1120.71348	30466.95
1124.35696	30927.45
1127.99793	31366.85
1131.63641	31530.15
1135.2724	31215.75
1138.90589	30855.25
1142.5369	30546.75
1146.16542	30351.55
1149.79145	30307.25
1153.415	30458.05
1157.03607	30706.25
1160.65467	31320.85
1164.27079	32181.05
1167.88443	33497.85
1171.49561	35229.85
1175.10432	37692.75
1178.71056	40834.85
1182.31434	43712.75
1185.91565	45377.45
1189.51451	45637.55
1193.11091	44563.75
1196.70485	42639.15
1200.29634	40698.35
1203.88538	39026.65
1207.47197	37543.05
1211.05612	36349.95
1214.63782	35607.15
1218.21708	35380.55
1221.79391	35385.55
1225.36829	35476.45
1228.94024	35424.35
1232.50976	35333.65
1236.07685	35297.05
1239.6415	35272.75
1243.20374	35264.45
1246.76355	35380.45
1250.32093	35788.35
1253.8759	36470.25
1257.42845	37382.95
1260.97859	38218.75
1264.52631	38920.15
1268.07163	39658.55
1271.61453	40528.55
1275.15503	41443.75
1278.69312	42310.85
1282.22882	42984.95
1285.76211	43716.25
1289.29301	44461.25
1292.82151	45482.75
1296.34761	46690.75
1299.87133	48431.65
1303.39266	50796.25
1306.9116	53824.25
1310.42815	57096.55
1313.94233	59262.85
1317.45412	59584.45
1320.96354	58565.75
1324.47058	57140.45
1327.97525	55756.75
1331.47754	54928.35
1334.97747	54850.45
1338.47502	55513.85
1341.97022	56222.55
1345.46305	56551.05
1348.95352	56242.45
1352.44163	56266.25
1355.92738	57096.25
1359.41078	59554.05
1362.89183	62262.25
1366.37053	61180.75
1369.84688	55878.65
1373.32088	50234.35
1376.79254	46286.15
1380.26186	44323.15
1383.72883	43567.85
1387.19347	43037.35
1390.65578	42455.35
1394.11575	42172.65
1397.57339	42319.05
1401.0287	42917.85
1404.48168	43791.25
1407.93234	44699.25
1411.38068	45147.65
1414.82669	44922.05
1418.27039	43809.85
1421.71177	42479.15
1425.15083	41171.45
1428.58758	40420.55
1432.02203	40291.75
1435.45416	40458.85
1438.88399	40839.05
1442.31151	41280.95
1445.73673	41672.15
1449.15965	42170.15
1452.58027	42371.25
1455.9986	42500.95
1459.41463	42692.85
1462.82837	43266.25
1466.23982	44018.55
1469.64898	44782.85
1473.05586	45326.75
1476.46045	45614.95
1479.86276	45690.85
1483.26279	45910.85
1486.66054	46251.25
1490.05602	46769.95
1493.44922	47364.65
1496.84016	48146.85
1500.22882	49407.25
1503.61521	51155.45
1506.99934	53318.65
1510.38121	55292.85
1513.76081	55928.55
1517.13816	54500.35
1520.51324	51591.65
1523.88607	48796.45
1527.25665	46780.85
1530.62498	45731.35
1533.99105	45166.35
1537.35488	44803.95
1540.71647	44487.65
1544.07581	44184.65
1547.4329	43816.85
1550.78776	43510.75
1554.14038	43300.15
1557.49077	43312.05
1560.83892	43386.95
1564.18484	43502.05
1567.52853	43459.45
1570.86999	43423.05
1574.20922	43600.05
1577.54624	43731.15
1580.88103	43331.35
1584.2136	42849.95
1587.54395	43118.95
1590.87208	44467.55
1594.19801	46659.25
1597.52172	49028.15
1600.84321	50171.55
1604.16251	49026.45
1607.47959	46477.15
1610.79447	43556.35
1614.10715	40632.35
1617.41763	38100.55
1620.7259	36286.85
1624.03199	35298.05
1627.33587	35121.55
1630.63757	35826.05
1633.93707	37448.75
1637.23439	39813.55
1640.52951	42771.05
1643.82246	45996.75
1647.11321	48550.15
1650.40179	49232.75
1653.68819	46944.85
1656.97241	42431.05
1660.25446	37624.55
1663.53433	34062.65
1666.81203	31736.25
1670.08756	30275.55
1673.36092	29312.65
1676.63211	28631.45
1679.90115	28164.15
1683.16801	27789.85
1686.43272	27499.25
1689.69527	27261.35
1692.95567	27139.25
1696.2139	27066.05
1699.46999	26989.05
1702.72392	26901.25
1705.97571	26800.35
1709.22535	26740.65
1712.47284	26738.75
1715.71819	26681.55
1718.96139	26625.85
1722.20246	26565.25
1725.44139	26442.75
1728.67818	26344.35
1731.91284	26236.75
1735.14537	26142.05
1738.37576	26033.45
1741.60403	25925.55
1744.83017	25900.55
1748.05418	25826.95
1751.27607	25784.75
1754.49584	25761.25
1757.71349	25787.45
1760.92903	25716.45
1764.14244	25716.75
1767.35375	25707.05
1770.56294	25736.95
1773.77002	25676.15
1776.97499	25641.85
1780.17785	25597.95
1783.37861	25592.85
1786.57727	25585.45
1789.77382	25560.75
1792.96828	25494.95
1796.16064	25457.65
1799.3509	25435.85
1802.53907	25417.55
1805.72514	25382.65
1808.90913	25282.45
1812.09102	25304.25
1815.27083	25234.15
1818.44856	25216.55
1821.6242	25147.85
1824.79776	25160.05
1827.96924	25127.45
1831.13864	25116.95
1834.30597	25202.05
1837.47122	25159.55
1840.6344	25124.95
1843.7955	25184.95
1846.95454	25170.25
1850.11151	25181.85
1853.26642	25144.05
1856.41926	25194.55
1859.57004	25191.75
1862.71876	25204.85
1865.86542	25163.15
1869.01003	25211.35
1872.15258	25173.35
1875.29308	25185.85
1878.43152	25160.45
1881.56792	25214.35
1884.70227	25203.25
1887.83457	25215.05
1890.96482	25168.35
1894.09304	25181.45
1897.21921	25141.35
1900.34335	25153.65
1903.46544	25215.85
1906.58551	25214.85
1909.70353	25193.35
1912.81953	25182.05
1915.93349	25152.25
1919.04543	25092.75
1922.15534	25066.25
1925.26322	25032.25
1928.36908	24896.35
1931.47292	24885.85
1934.57473	24779.45
1937.67453	24695.25
1940.77232	24637.55
1943.86808	24577.95
1946.96184	24481.05
1950.05358	24409.25
1953.14331	24415.35
1956.23103	24328.35
1959.31675	24243.25
1962.40046	24175.45
1965.48217	24126.85
1968.56188	24056.95
1971.63959	23950.95
1974.7153	23904.55
1977.78901	23847.35
1980.86073	23773.95
1983.93046	23730.85
1986.99819	23655.35
1990.06394	23602.95
1993.1277	23506.85
1996.18947	23421.05
1999.24925	23444.15
2002.30706	23346.85
2005.36288	23249.85
2008.41672	23207.75
2011.46859	23195.35
2014.51848	23101.95
2017.56639	23030.55
2020.61233	22997.75
2023.6563	22958.05
2026.6983	22936.65
2029.73833	22867.55
2032.7764	22825.75
2035.8125	22771.15
2038.84664	22755.25
2041.87881	22757.65
2044.90903	22717.55
2047.93729	22688.25
2050.96359	22684.95
2053.98794	22651.05
2057.01034	22556.45
2060.03078	22591.35
2063.04927	22573.65
2066.06582	22563.85
2069.08042	22564.65
2072.09307	22519.25
2075.10378	22527.35
2078.11255	22506.05
2081.11938	22515.45
2084.12426	22470.65
2087.12722	22460.45
2090.12824	22463.05
2093.12732	22458.25
2096.12447	22464.35
2099.11969	22476.85
2102.11299	22494.85
2105.10435	22495.55
2108.09379	22531.25
2111.08131	22560.15
2114.0669	22558.75
2117.05057	22544.75
2120.03233	22582.65
2123.01216	22571.65
2125.99008	22642.35
2128.96609	22623.45
2131.94018	22690.05
2134.91236	22673.45
2137.88263	22673.95
2140.851	22697.95
2143.81746	22738.15
2146.78201	22767.45
2149.74466	22740.75
2152.7054	22781.15
2155.66425	22755.05
2158.6212	22773.55
2161.57625	22739.25
2164.52941	22779.25
2167.48067	22744.85
2170.43004	22757.95
2173.37752	22766.45
2176.32311	22769.25
2179.26681	22760.15
2182.20863	22759.15
2185.14856	22810.25
2188.08661	22768.05
2191.02278	22793.45
2193.95707	22743.85
2196.88948	22725.25
2199.82001	22786.95
2202.74867	22735.15
2205.67545	22766.15
2208.60037	22747.95
2211.52341	22697.95
2214.44458	22672.55
2217.36388	22650.75
2220.28132	22616.65
2223.1969	22567.35
2226.11061	22567.25
2229.02246	22524.55
2231.93245	22482.45
2234.84058	22442.65
2237.74686	22396.95
2240.65128	22420.45
2243.55385	22363.55
2246.45456	22331.35
2249.35343	22320.45
2252.25044	22286.05
2255.14561	22271.95
2258.03893	22257.15
2260.93041	22212.55
2263.82004	22177.45
2266.70783	22124.25
2269.59378	22103.55
2272.4779	22069.65
2275.36017	22002.05
2278.24061	21951.35
2281.11922	21914.45
2283.996	21880.85
2286.87094	21879.75
2289.74405	21879.05
2292.61534	21830.65
2295.4848	21800.65
2298.35243	21860.55
2301.21824	21814.85
2304.08223	21829.75
2306.94439	21828.75
2309.80474	21839.75
2312.66327	21832.15
2315.51999	21830.15
2318.37489	21872.85
2321.22797	21808.05
2324.07925	21804.85
2326.92871	21786.85
2329.77637	21784.95
2332.62222	21773.25
2335.46626	21742.55
2338.3085	21748.65
2341.14893	21740.85
2343.98756	21797.65
2346.8244	21758.25
2349.65943	21770.25
2352.49267	21740.75
2355.32411	21781.15
2358.15376	21743.35
2360.98161	21725.85
2363.80768	21733.65
2366.63195	21704.05
2369.45444	21675.35
2372.27514	21649.65
2375.09405	21608.75
2377.91118	21580.65
2380.72652	21495.85
2383.54009	21467.45
2386.35187	21458.65
2389.16188	21415.65
2391.97011	21390.25
2394.77657	21372.95
2397.58125	21294.95
2400.38416	21317.85
2403.18529	21279.65
2405.98466	21266.35
2408.78226	21207.05
2411.57809	21190.15
2414.37216	21164.05
2417.16446	21140.85
2419.955	21115.95
2422.74378	21116.75
2425.5308	21093.25
2428.31606	21070.35
2431.09956	21122.95
2433.88131	21044.55
2436.6613	21056.55
2439.43954	21061.65
2442.21603	21035.95
2444.99077	21007.55
2447.76377	21008.35
2450.53501	21017.75
2453.30451	21002.65
2456.07226	20966.45
2458.83827	20958.15
2461.60254	20960.25
2464.36507	20937.35
2467.12586	20917.85
2469.88492	20941.15
2472.64224	20963.95
2475.39782	20970.75
2478.15167	20972.35
2480.90379	20945.75
2483.65417	20999.55
2486.40283	20968.85
2489.14976	20983.55
2491.89497	20984.75
2494.63845	21061.65
2497.3802	21028.75
2500.12024	21038.05
2502.85855	21021.95
2505.59514	20994.85
2508.33002	20986.15
2511.06318	20979.35
2513.79462	20964.25
2516.52435	20940.45
2519.25237	20948.05
2521.97867	20882.15
2524.70327	20916.15
2527.42616	20865.05
2530.14734	20868.05
2532.86681	20832.45
2535.58458	20796.95
2538.30065	20791.45
2541.01501	20808.85
2543.72768	20761.65
2546.43864	20754.95
2549.14791	20701.65
2551.85548	20689.25
2554.56136	20674.75
2557.26554	20640.75
2559.96803	20654.55
2562.66883	20621.25
2565.36794	20616.25
2568.06536	20639.05
2570.7611	20617.85
2573.45514	20592.55
2576.14751	20611.35
2578.83819	20593.85
2581.52719	20574.05
2584.21451	20541.05
2586.90015	20582.55
2589.58411	20512.05
2592.2664	20524.05
2594.94701	20504.95
2597.62594	20489.05
2600.30321	20483.15
2602.9788	20484.25
2605.65273	20422.55
2608.32498	20453.75
2610.99557	20457.45
2613.66449	20435.85
2616.33175	20437.25
2618.99734	20474.05
2621.66128	20412.45
2624.32355	20426.35
2626.98416	20437.15
2629.64311	20420.95
2632.30041	20435.85
2634.95605	20466.25
2637.61004	20390.85
2640.26238	20397.35
2642.91306	20410.75
2645.56209	20374.75
2648.20948	20349.15
2650.85521	20338.95
2653.4993	20353.75
2656.14175	20335.25
2658.78255	20401.35
2661.42171	20404.05
2664.05923	20394.85
2666.6951	20371.35
2669.32934	20378.45
2671.96194	20445.85
2674.59291	20433.15
2677.22224	20444.05
2679.84993	20455.95
2682.476	20426.85
2685.10043	20461.05
2687.72324	20430.55
2690.34441	20455.35
2692.96396	20444.95
2695.58188	20459.75
2698.19818	20441.85
2700.81285	20472.35
2703.4259	20426.05
2706.03733	20463.25
2708.64714	20457.15
2711.25533	20473.35
2713.86191	20446.35
2716.46687	20504.45
2719.07021	20478.25
2721.67194	20501.15
2724.27206	20452.75
2726.87057	20472.65
2729.46747	20456.35
2732.06276	20496.45
2734.65644	20471.65
2737.24852	20494.45
2739.83899	20482.15
2742.42786	20538.05
2745.01513	20481.35
2747.60079	20496.75
2750.18486	20498.75
2752.76733	20520.15
2755.3482	20522.55
2757.92747	20489.15
2760.50515	20442.15
2763.08123	20480.35
2765.65573	20431.85
2768.22863	20390.85
2770.79994	20413.15
2773.36967	20419.35
2775.9378	20389.85
2778.50435	20361.15
2781.06932	20370.65
2783.6327	20368.05
2786.1945	20399.25
2788.75471	20356.45
2791.31335	20285.15
2793.87041	20294.65
2796.42589	20209.75
2798.97979	20216.45
2801.53212	20168.35
2804.08288	20172.75
2806.63206	20121.65
2809.17967	20094.65
2811.72571	20076.75
2814.27018	20088.05
2816.81308	20047.15
2819.35442	20060.95
2821.89419	20034.55
2824.43239	20009.55
2826.96904	19999.95
2829.50412	20028.75
2832.03763	19987.15
2834.56959	19947.05
2837.1	19934.35
2839.62884	19972.95
2842.15613	19911.25
2844.68186	19919.85
2847.20604	19937.35
2849.72867	19920.75
2852.24974	19906.35
2854.76927	19879.35
2857.28724	19825.25
2859.80367	19829.75
2862.31855	19862.85
2864.83189	19769.55
2867.34368	19775.05
2869.85393	19776.35
2872.36264	19806.25
2874.8698	19779.75
2877.37543	19763.95
2879.87952	19791.35
2882.38207	19763.55
2884.88308	19761.45
2887.38256	19788.55
2889.88051	19782.75
2892.37692	19781.85
2894.8718	19799.75
2897.36515	19800.25
2899.85698	19782.55
2902.34727	19865.15
2904.83604	19828.45
2907.32328	19863.25
2909.809	19826.15
2912.29319	19891.65
2914.77587	19916.75
2917.25702	19901.75
2919.73665	19878.15
2922.21476	19859.45
2924.69136	19823.55
2927.16644	19815.85
2929.64	19832.05
2932.11205	19819.35
2934.58258	19746.85
2937.05161	19817.15
2939.51912	19774.05
2941.98513	19762.65
2944.44962	19746.45
2946.91261	19705.55
2949.37409	19741.05
2951.83407	19709.95
2954.29254	19733.95
2956.74951	19700.35
2959.20498	19680.85
2961.65895	19639.55
2964.11142	19659.45
2966.56239	19602.95
2969.01186	19562.95
2971.45984	19530.25
2973.90632	19500.35
2976.35131	19468.75
2978.7948	19413.45
2981.23681	19398.75
2983.67732	19413.35
2986.11635	19333.55
2988.55388	19295.65
2990.98993	19244.45
2993.4245	19265.75
2995.85758	19250.35
2998.28917	19173.35
3000.71928	19148.15
3003.14791	19105.25
3005.57506	19083.55
3008.00073	19078.95
3010.42493	19068.55
3012.84764	18990.95
3015.26888	19014.25
3017.68865	18979.65
3020.10694	18940.25
3022.52376	18901.25
3024.9391	18877.75
3027.35298	18851.55
3029.76539	18809.75
3032.17632	18777.05
3034.5858	18772.05
3036.9938	18776.45
3039.40034	18768.45
3041.80542	18723.65
3044.20903	18734.85
3046.61118	18708.95
3049.01187	18671.65
3051.4111	18643.35
3053.80888	18576.55
3056.20519	18572.85
3058.60005	18501.65
3060.99345	18485.65
3063.3854	18472.45
3065.7759	18428.45
3068.16494	18400.75
3070.55254	18304.25
3072.93868	18268.35
3075.32338	18260.65
3077.70662	18218.75
3080.08842	18164.05
3082.46878	18171.45
3084.84769	18121.75
3087.22515	18104.25
3089.60118	18132.95
3091.97576	18108.35
3094.3489	18087.05
3096.72061	18051.35
3099.09087	18078.85
3101.4597	18026.05
3103.82709	18041.15
3106.19305	17998.85
3108.55757	17999.45
3110.92066	17935.55
3113.28232	17900.75
3115.64255	17856.15
3118.00134	17814.95
3120.35871	17799.55
3122.71466	17762.85
3125.06917	17773.45
3127.42226	17748.05
3129.77393	17750.75
3132.12417	17736.75
3134.47299	17714.05
3136.82039	17688.05
3139.16636	17683.95
3141.51092	17704.35
3143.85406	17695.25
3146.19579	17699.25
3148.53609	17697.05
3150.87499	17707.95
3153.21246	17685.45
3155.54853	17706.55
3157.88318	17677.15
3160.21642	17709.15
3162.54826	17675.45
3164.87868	17684.85
3167.2077	17665.35
3169.5353	17659.05
3171.86151	17645.35
3174.18631	17606.95
3176.5097	17585.45
3178.83169	17567.95
3181.15228	17543.45
3183.47147	17544.85
3185.78926	17525.45
3188.10565	17472.75
3190.42065	17497.45
3192.73424	17512.75
3195.04645	17489.05
3197.35725	17477.75
3199.66667	17487.65
3201.97469	17522.75
3204.28132	17515.55
3206.58656	17547.25
3208.8904	17551.95
3211.19287	17565.05
3213.49394	17516.45
3215.79363	17560.95
3218.09193	17534.75
3220.38884	17505.15
3222.68438	17508.35
3224.97853	17475.25
3227.2713	17477.35
3229.56269	17478.25
3231.8527	17467.95
3234.14133	17424.25
3236.42858	17396.95
3238.71446	17381.85
3240.99896	17345.75
3243.28209	17357.55
3245.56384	17314.15
3247.84423	17318.25
3250.12324	17303.15
3252.40088	17294.75
3254.67715	17263.85
3256.95205	17275.55
3259.22558	17287.55
3261.49775	17255.05
3263.76855	17230.65
3266.03799	17164.95
3268.30606	17184.45
3270.57277	17144.45
3272.83812	17095.25
3275.10211	17099.85
3277.36474	17027.65
3279.62601	17041.05
3281.88593	17055.85
3284.14448	17066.35
3286.40168	17043.35
3288.65753	16998.45
3290.91202	16957.55
3293.16516	16954.45
3295.41695	16906.65
3297.66738	16797.65
3299.91647	16716.85
3302.16421	16592.75
3304.4106	16551.15
3306.65564	16449.85
3308.89933	16377.25
3311.14169	16291.15
3313.38269	16185.05
3315.62236	16097.65
3317.86068	15974.05
3320.09766	15804.35
3322.3333	15679.35
3324.5676	15686.35
3326.80056	15422.55
3329.03219	15298.85
3331.26248	4.65
3333.49143	1.15
3335.71905	-0.85
