Data from AgNPs_FTO_APTES_UA_100uM_R6G_10uM_NaF_0.1M_Addition_RamanShift__6__15-24-07-449.txt Node

Date: Fri Dec 17 15:24:07 GMT 2021
User: TCL
Spectrometer: QEP01345
Trigger mode: 4
Integration Time (sec): 7.000000E0
Scans to average: 10
Electric dark correction enabled: true
Nonlinearity correction enabled: false
Boxcar width: 0
XAxis mode: Raman Shifts
Number of Pixels in Spectrum: 1044
>>>>>Begin Spectral Data<<<<<
46.04893	-1.25
50.45542	0.05
54.85868	-0.65
59.25871	0.45
63.6555	63.25
68.04907	62.85
72.43941	64.35
76.82654	72.45
81.21044	72.15
85.59113	75.35
89.96862	80.35
94.34289	82.95
98.71396	90.25
103.08183	87.05
107.4465	92.65
111.80798	92.45
116.16626	96.15
120.52136	94.15
124.87327	97.05
129.222	104.35
133.56755	106.15
137.90993	114.55
142.24913	120.85
146.58517	129.35
150.91804	145.05
155.24774	164.45
159.57429	205.25
163.89768	257.85
168.21792	335.25
172.53501	442.25
176.84895	604.15
181.15975	851.85
185.46741	1188.05
189.77193	1640.15
194.07331	2189.85
198.37157	2818.25
202.6667	3488.95
206.9587	4138.95
211.24758	4800.25
215.53334	5442.25
219.81599	6131.85
224.09553	6879.55
228.37195	7717.95
232.64527	8645.35
236.91549	9660.15
241.18261	10652.85
245.44663	11604.35
249.70755	12405.45
253.96539	13146.95
258.22014	13761.45
262.4718	14253.55
266.72039	14601.95
270.96589	14772.55
275.20832	14820.25
279.44768	14717.75
283.68397	14570.05
287.91719	14407.35
292.14735	14335.35
296.37445	14274.05
300.59849	14347.95
304.81948	14412.25
309.03742	14405.15
313.25231	14251.75
317.46415	13964.25
321.67296	13603.85
325.87872	13293.55
330.08145	13145.95
334.28114	13132.75
338.47781	13227.05
342.67145	13415.35
346.86207	13634.25
351.04966	13873.45
355.23424	14142.25
359.4158	14395.55
363.59435	14589.55
367.76989	14746.75
371.94243	14837.65
376.11196	14956.05
380.27849	14988.75
384.44203	15065.95
388.60257	15124.55
392.76012	15234.45
396.91468	15367.55
401.06626	15604.25
405.21485	15708.35
409.36047	15647.45
413.50311	15388.45
417.64277	15147.05
421.77947	15009.55
425.9132	14979.35
430.04396	15018.45
434.17176	15054.65
438.2966	15188.25
442.41849	15286.95
446.53742	15483.85
450.6534	15703.75
454.76644	15889.65
458.87653	16004.65
462.98368	16037.55
467.08789	16028.45
471.18916	15955.55
475.2875	15859.45
479.38291	15731.15
483.4754	15618.85
487.56496	15507.55
491.6516	15410.75
495.73531	15369.25
499.81612	15353.75
503.89401	15408.45
507.96899	15473.85
512.04106	15552.45
516.11023	15574.25
520.1765	15568.35
524.23987	15512.35
528.30034	15391.35
532.35792	15352.75
536.41261	15237.45
540.46441	15137.65
544.51333	15128.45
548.55936	15265.35
552.60252	15439.05
556.64279	15622.45
560.6802	15768.65
564.71473	15768.45
568.7464	15912.45
572.7752	16056.35
576.80114	16152.65
580.82422	16252.15
584.84444	16378.55
588.86181	16439.75
592.87633	16453.85
596.888	16432.25
600.89682	16561.05
604.9028	17192.75
608.90594	18730.65
612.90624	20478.05
616.90371	19768.85
620.89834	16978.85
624.89015	15687.95
628.87913	15496.35
632.86528	15666.55
636.84862	15852.25
640.82913	15831.45
644.80683	15534.45
648.78172	15241.55
652.75379	15143.65
656.72306	15250.45
660.68952	15457.55
664.65319	15422.65
668.61405	15195.55
672.57211	15084.05
676.52738	15092.05
680.47986	15087.65
684.42955	15065.05
688.37646	14977.85
692.32058	15009.65
696.26192	15077.05
700.20048	15167.45
704.13626	15265.35
708.06928	15288.35
711.99952	15239.05
715.927	15221.65
719.85171	15203.05
723.77365	15171.85
727.69284	15109.15
731.60928	14999.55
735.52295	14946.05
739.43388	14950.05
743.34206	14978.55
747.24749	15031.25
751.15017	15064.85
755.05012	15202.55
758.94733	15463.15
762.8418	16080.75
766.73354	17151.95
770.62254	18314.65
774.50882	18845.55
778.39237	18284.55
782.27321	17039.75
786.15132	16008.55
790.02671	15396.35
793.89938	15073.25
797.76935	14933.05
801.6366	14846.25
805.50115	14806.15
809.36299	14767.65
813.22213	14747.25
817.07857	14754.55
820.93231	14713.35
824.78336	14701.45
828.63172	14657.25
832.47738	14643.95
836.32036	14636.15
840.16066	14583.45
843.99827	14558.25
847.8332	14545.95
851.66546	14580.45
855.49504	14574.25
859.32195	14579.05
863.1462	14536.85
866.96777	14517.95
870.78668	14541.05
874.60293	14536.25
878.41652	14543.25
882.22745	14607.25
886.03573	14652.05
889.84136	14673.55
893.64433	14674.95
897.44466	14624.35
901.24235	14552.45
905.0374	14524.45
908.8298	14466.25
912.61957	14459.55
916.40671	14510.95
920.19121	14569.35
923.97308	14634.95
927.75233	14626.65
931.52895	14599.15
935.30295	14511.75
939.07433	14369.65
942.84309	14195.55
946.60924	14086.65
950.37278	14020.25
954.13371	13938.95
957.89203	13933.35
961.64774	13912.25
965.40086	13861.05
969.15137	13853.75
972.89929	13852.05
976.64461	13833.75
980.38733	13771.15
984.12747	13797.35
987.86502	13839.15
991.59999	13890.65
995.33237	13913.05
999.06217	14006.15
1002.78939	14165.95
1006.51404	14280.15
1010.23611	14455.45
1013.95561	14545.05
1017.67255	14536.05
1021.38692	14515.15
1025.09872	14428.15
1028.80796	14333.55
1032.51465	14263.15
1036.21877	14247.75
1039.92035	14296.35
1043.61937	14360.95
1047.31584	14376.25
1051.00976	14450.55
1054.70114	14447.65
1058.38998	14540.15
1062.07627	14646.45
1065.76003	14769.95
1069.44126	14914.25
1073.11995	15128.25
1076.79611	15290.15
1080.46974	15378.25
1084.14085	15374.15
1087.80943	15387.75
1091.47549	15451.95
1095.13903	15456.55
1098.80005	15395.65
1102.45857	15156.45
1106.11456	14933.85
1109.76805	14776.65
1113.41903	14812.45
1117.06751	14890.75
1120.71348	15066.35
1124.35696	15266.95
1127.99793	15501.85
1131.63641	15637.45
1135.2724	15527.75
1138.90589	15354.45
1142.5369	15210.95
1146.16542	15129.95
1149.79145	15068.65
1153.415	15018.45
1157.03607	15024.25
1160.65467	15162.75
1164.27079	15487.45
1167.88443	15930.25
1171.49561	16568.05
1175.10432	17416.65
1178.71056	18546.15
1182.31434	19545.45
1185.91565	20082.25
1189.51451	20176.85
1193.11091	19881.15
1196.70485	19300.95
1200.29634	18663.55
1203.88538	18112.65
1207.47197	17573.95
1211.05612	17066.45
1214.63782	16658.35
1218.21708	16410.15
1221.79391	16168.15
1225.36829	16022.95
1228.94024	15967.75
1232.50976	15930.55
1236.07685	15989.35
1239.6415	15998.15
1243.20374	16043.55
1246.76355	16111.55
1250.32093	16215.75
1253.8759	16426.35
1257.42845	16720.05
1260.97859	17046.25
1264.52631	17374.15
1268.07163	17612.35
1271.61453	17837.75
1275.15503	18023.15
1278.69312	18207.75
1282.22882	18325.95
1285.76211	18536.35
1289.29301	18810.55
1292.82151	19227.05
1296.34761	19661.95
1299.87133	20294.05
1303.39266	21001.15
1306.9116	21826.55
1310.42815	22706.65
1313.94233	23257.35
1317.45412	23185.75
1320.96354	22846.85
1324.47058	22460.55
1327.97525	22044.85
1331.47754	21728.55
1334.97747	21529.85
1338.47502	21569.65
1341.97022	21845.45
1345.46305	22207.65
1348.95352	22661.85
1352.44163	23104.85
1355.92738	23695.75
1359.41078	24628.45
1362.89183	25673.15
1366.37053	25550.95
1369.84688	23607.35
1373.32088	21283.55
1376.79254	19664.85
1380.26186	18796.85
1383.72883	18344.55
1387.19347	18035.25
1390.65578	17743.45
1394.11575	17408.65
1397.57339	17194.15
1401.0287	17061.05
1404.48168	16976.75
1407.93234	16885.65
1411.38068	16762.35
1414.82669	16575.55
1418.27039	16303.15
1421.71177	16062.15
1425.15083	15813.55
1428.58758	15638.35
1432.02203	15599.95
1435.45416	15674.85
1438.88399	15850.95
1442.31151	15990.05
1445.73673	16105.05
1449.15965	16222.95
1452.58027	16322.55
1455.9986	16406.75
1459.41463	16469.15
1462.82837	16682.85
1466.23982	16918.45
1469.64898	17147.65
1473.05586	17354.75
1476.46045	17524.35
1479.86276	17585.25
1483.26279	17663.25
1486.66054	17776.75
1490.05602	17982.15
1493.44922	18357.75
1496.84016	18934.45
1500.22882	20004.05
1503.61521	21235.35
1506.99934	22679.15
1510.38121	23756.85
1513.76081	24045.25
1517.13816	23348.95
1520.51324	21968.55
1523.88607	20696.85
1527.25665	19789.25
1530.62498	19276.35
1533.99105	18937.05
1537.35488	18621.15
1540.71647	18379.25
1544.07581	18087.05
1547.4329	17860.55
1550.78776	17677.75
1554.14038	17532.55
1557.49077	17509.35
1560.83892	17582.85
1564.18484	17684.05
1567.52853	17874.85
1570.86999	18061.25
1574.20922	18255.45
1577.54624	18372.75
1580.88103	18100.35
1584.2136	17685.55
1587.54395	17374.45
1590.87208	17346.45
1594.19801	17688.05
1597.52172	18152.15
1600.84321	18414.25
1604.16251	18177.15
1607.47959	17655.65
1610.79447	17036.55
1614.10715	16316.45
1617.41763	15622.15
1620.7259	15062.15
1624.03199	14696.35
1627.33587	14554.95
1630.63757	14605.15
1633.93707	14944.15
1637.23439	15522.85
1640.52951	16409.85
1643.82246	17614.05
1647.11321	18844.75
1650.40179	19643.55
1653.68819	19442.95
1656.97241	18058.15
1660.25446	16400.05
1663.53433	15078.15
1666.81203	14183.55
1670.08756	13584.85
1673.36092	13200.15
1676.63211	12913.15
1679.90115	12762.05
1683.16801	12586.25
1686.43272	12473.45
1689.69527	12400.25
1692.95567	12320.05
1696.2139	12279.15
1699.46999	12265.05
1702.72392	12201.45
1705.97571	12156.15
1709.22535	12111.45
1712.47284	12057.95
1715.71819	12007.55
1718.96139	11953.45
1722.20246	11919.35
1725.44139	11868.35
1728.67818	11779.45
1731.91284	11732.25
1735.14537	11644.85
1738.37576	11631.25
1741.60403	11616.55
1744.83017	11561.85
1748.05418	11536.35
1751.27607	11502.65
1754.49584	11472.65
1757.71349	11465.85
1760.92903	11465.85
1764.14244	11453.85
1767.35375	11440.05
1770.56294	11438.65
1773.77002	11395.55
1776.97499	11386.85
1780.17785	11349.55
1783.37861	11336.55
1786.57727	11301.65
1789.77382	11271.05
1792.96828	11247.35
1796.16064	11246.85
1799.3509	11220.95
1802.53907	11200.65
1805.72514	11164.45
1808.90913	11139.15
1812.09102	11089.05
1815.27083	11077.25
1818.44856	11055.25
1821.6242	11023.15
1824.79776	11026.35
1827.96924	10984.45
1831.13864	10982.95
1834.30597	10994.45
1837.47122	10984.45
1840.6344	10955.55
1843.7955	10970.55
1846.95454	10952.15
1850.11151	10903.15
1853.26642	10933.55
1856.41926	10936.65
1859.57004	10898.15
1862.71876	10901.75
1865.86542	10892.45
1869.01003	10873.55
1872.15258	10843.55
1875.29308	10807.25
1878.43152	10789.05
1881.56792	10786.85
1884.70227	10795.55
1887.83457	10768.45
1890.96482	10745.55
1894.09304	10724.25
1897.21921	10705.85
1900.34335	10691.45
1903.46544	10682.35
1906.58551	10655.65
1909.70353	10650.45
1912.81953	10630.55
1915.93349	10614.95
1919.04543	10588.75
1922.15534	10561.25
1925.26322	10590.45
1928.36908	10522.65
1931.47292	10523.15
1934.57473	10481.55
1937.67453	10459.25
1940.77232	10415.95
1943.86808	10392.95
1946.96184	10360.45
1950.05358	10350.65
1953.14331	10313.45
1956.23103	10290.55
1959.31675	10270.35
1962.40046	10228.55
1965.48217	10219.05
1968.56188	10165.65
1971.63959	10147.95
1974.7153	10077.85
1977.78901	10077.55
1980.86073	10035.35
1983.93046	9988.85
1986.99819	9975.15
1990.06394	9956.85
1993.1277	9913.45
1996.18947	9879.85
1999.24925	9864.35
2002.30706	9819.95
2005.36288	9768.75
2008.41672	9765.25
2011.46859	9709.05
2014.51848	9696.15
2017.56639	9671.55
2020.61233	9620.25
2023.6563	9608.55
2026.6983	9596.15
2029.73833	9582.25
2032.7764	9566.95
2035.8125	9508.15
2038.84664	9498.65
2041.87881	9482.25
2044.90903	9463.15
2047.93729	9448.45
2050.96359	9416.25
2053.98794	9412.15
2057.01034	9419.95
2060.03078	9387.05
2063.04927	9380.95
2066.06582	9371.55
2069.08042	9371.75
2072.09307	9344.95
2075.10378	9340.05
2078.11255	9341.15
2081.11938	9341.25
2084.12426	9327.15
2087.12722	9324.95
2090.12824	9312.35
2093.12732	9342.95
2096.12447	9321.35
2099.11969	9314.05
2102.11299	9300.45
2105.10435	9312.75
2108.09379	9325.35
2111.08131	9333.15
2114.0669	9345.55
2117.05057	9326.25
2120.03233	9325.95
2123.01216	9347.65
2125.99008	9352.05
2128.96609	9352.85
2131.94018	9372.05
2134.91236	9364.95
2137.88263	9376.55
2140.851	9351.95
2143.81746	9360.15
2146.78201	9357.55
2149.74466	9360.95
2152.7054	9349.15
2155.66425	9358.65
2158.6212	9344.75
2161.57625	9358.55
2164.52941	9308.05
2167.48067	9345.85
2170.43004	9334.25
2173.37752	9315.65
2176.32311	9338.55
2179.26681	9328.65
2182.20863	9325.45
2185.14856	9326.15
2188.08661	9295.85
2191.02278	9306.75
2193.95707	9268.35
2196.88948	9276.05
2199.82001	9274.65
2202.74867	9248.35
2205.67545	9239.35
2208.60037	9233.65
2211.52341	9212.85
2214.44458	9199.75
2217.36388	9172.55
2220.28132	9168.75
2223.1969	9112.05
2226.11061	9114.75
2229.02246	9103.15
2231.93245	9085.25
2234.84058	9058.15
2237.74686	9049.25
2240.65128	9054.55
2243.55385	9021.05
2246.45456	9016.05
2249.35343	9006.75
2252.25044	8965.55
2255.14561	8969.15
2258.03893	8956.45
2260.93041	8941.45
2263.82004	8935.75
2266.70783	8899.65
2269.59378	8873.95
2272.4779	8862.05
2275.36017	8842.55
2278.24061	8833.15
2281.11922	8812.15
2283.996	8787.95
2286.87094	8780.25
2289.74405	8752.45
2292.61534	8738.85
2295.4848	8713.25
2298.35243	8719.15
2301.21824	8717.55
2304.08223	8681.75
2306.94439	8679.55
2309.80474	8678.45
2312.66327	8675.95
2315.51999	8660.85
2318.37489	8663.35
2321.22797	8640.85
2324.07925	8626.25
2326.92871	8620.15
2329.77637	8616.45
2332.62222	8574.85
2335.46626	8572.15
2338.3085	8549.15
2341.14893	8551.95
2343.98756	8508.95
2346.8244	8517.95
2349.65943	8522.35
2352.49267	8518.45
2355.32411	8504.35
2358.15376	8519.45
2360.98161	8509.75
2363.80768	8509.65
2366.63195	8490.95
2369.45444	8507.85
2372.27514	8485.45
2375.09405	8453.45
2377.91118	8452.85
2380.72652	8428.15
2383.54009	8419.15
2386.35187	8415.95
2389.16188	8372.55
2391.97011	8337.45
2394.77657	8310.15
2397.58125	8311.75
2400.38416	8304.55
2403.18529	8303.45
2405.98466	8284.95
2408.78226	8253.15
2411.57809	8240.05
2414.37216	8220.25
2417.16446	8250.95
2419.955	8213.65
2422.74378	8210.35
2425.5308	8200.45
2428.31606	8194.55
2431.09956	8195.35
2433.88131	8189.15
2436.6613	8197.75
2439.43954	8159.45
2442.21603	8148.45
2444.99077	8144.35
2447.76377	8157.65
2450.53501	8126.25
2453.30451	8125.85
2456.07226	8127.15
2458.83827	8113.35
2461.60254	8102.25
2464.36507	8094.75
2467.12586	8072.65
2469.88492	8074.45
2472.64224	8066.35
2475.39782	8051.55
2478.15167	8069.65
2480.90379	8056.25
2483.65417	8068.25
2486.40283	8047.35
2489.14976	8045.05
2491.89497	8053.95
2494.63845	8044.75
2497.3802	8033.05
2500.12024	8004.95
2502.85855	8014.35
2505.59514	7996.95
2508.33002	7983.75
2511.06318	7984.05
2513.79462	7967.65
2516.52435	7955.05
2519.25237	7933.05
2521.97867	7917.65
2524.70327	7906.45
2527.42616	7885.75
2530.14734	7881.35
2532.86681	7863.45
2535.58458	7841.55
2538.30065	7840.35
2541.01501	7832.45
2543.72768	7806.15
2546.43864	7790.05
2549.14791	7803.55
2551.85548	7797.15
2554.56136	7787.05
2557.26554	7760.45
2559.96803	7755.65
2562.66883	7742.95
2565.36794	7745.65
2568.06536	7725.75
2570.7611	7724.15
2573.45514	7696.65
2576.14751	7690.85
2578.83819	7663.85
2581.52719	7670.55
2584.21451	7635.85
2586.90015	7618.45
2589.58411	7618.05
2592.2664	7579.65
2594.94701	7572.45
2597.62594	7577.65
2600.30321	7538.95
2602.9788	7528.15
2605.65273	7504.85
2608.32498	7494.65
2610.99557	7506.15
2613.66449	7496.15
2616.33175	7485.55
2618.99734	7489.55
2621.66128	7473.05
2624.32355	7459.25
2626.98416	7446.85
2629.64311	7450.85
2632.30041	7441.05
2634.95605	7423.65
2637.61004	7405.85
2640.26238	7405.95
2642.91306	7412.45
2645.56209	7393.15
2648.20948	7372.85
2650.85521	7379.35
2653.4993	7371.75
2656.14175	7367.05
2658.78255	7358.35
2661.42171	7369.75
2664.05923	7362.55
2666.6951	7371.05
2669.32934	7365.85
2671.96194	7338.45
2674.59291	7350.75
2677.22224	7353.05
2679.84993	7350.25
2682.476	7340.75
2685.10043	7345.15
2687.72324	7338.95
2690.34441	7340.65
2692.96396	7357.35
2695.58188	7357.35
2698.19818	7337.35
2700.81285	7334.45
2703.4259	7333.85
2706.03733	7351.45
2708.64714	7334.65
2711.25533	7345.75
2713.86191	7319.45
2716.46687	7349.65
2719.07021	7325.15
2721.67194	7335.85
2724.27206	7315.15
2726.87057	7321.15
2729.46747	7320.05
2732.06276	7294.25
2734.65644	7293.05
2737.24852	7305.45
2739.83899	7293.25
2742.42786	7294.35
2745.01513	7263.85
2747.60079	7265.65
2750.18486	7243.35
2752.76733	7258.35
2755.3482	7241.05
2757.92747	7253.05
2760.50515	7221.65
2763.08123	7218.05
2765.65573	7222.05
2768.22863	7191.05
2770.79994	7193.65
2773.36967	7188.35
2775.9378	7191.45
2778.50435	7171.25
2781.06932	7155.25
2783.6327	7146.25
2786.1945	7127.85
2788.75471	7120.15
2791.31335	7094.05
2793.87041	7091.45
2796.42589	7066.85
2798.97979	7070.85
2801.53212	7047.25
2804.08288	7045.25
2806.63206	7023.65
2809.17967	7011.85
2811.72571	6991.35
2814.27018	6989.65
2816.81308	6955.35
2819.35442	6947.75
2821.89419	6940.35
2824.43239	6945.25
2826.96904	6936.25
2829.50412	6942.65
2832.03763	6968.05
2834.56959	6924.15
2837.1	6910.45
2839.62884	6914.15
2842.15613	6901.65
2844.68186	6920.75
2847.20604	6916.95
2849.72867	6913.75
2852.24974	6916.35
2854.76927	6906.65
2857.28724	6886.55
2859.80367	6884.05
2862.31855	6878.95
2864.83189	6869.15
2867.34368	6853.15
2869.85393	6869.05
2872.36264	6862.65
2874.8698	6870.45
2877.37543	6851.55
2879.87952	6857.95
2882.38207	6862.15
2884.88308	6851.55
2887.38256	6852.35
2889.88051	6825.95
2892.37692	6848.85
2894.8718	6843.95
2897.36515	6855.25
2899.85698	6843.95
2902.34727	6843.85
2904.83604	6829.65
2907.32328	6831.85
2909.809	6829.05
2912.29319	6822.25
2914.77587	6838.95
2917.25702	6853.25
2919.73665	6829.35
2922.21476	6821.55
2924.69136	6818.15
2927.16644	6828.75
2929.64	6817.75
2932.11205	6813.05
2934.58258	6788.05
2937.05161	6797.75
2939.51912	6787.75
2941.98513	6770.45
2944.44962	6769.15
2946.91261	6741.95
2949.37409	6738.85
2951.83407	6721.55
2954.29254	6731.95
2956.74951	6711.35
2959.20498	6717.55
2961.65895	6693.25
2964.11142	6708.75
2966.56239	6680.75
2969.01186	6685.45
2971.45984	6652.95
2973.90632	6669.65
2976.35131	6633.45
2978.7948	6638.95
2981.23681	6618.15
2983.67732	6595.95
2986.11635	6595.15
2988.55388	6550.25
2990.98993	6559.65
2993.4245	6566.65
2995.85758	6539.55
2998.28917	6539.15
3000.71928	6519.15
3003.14791	6512.05
3005.57506	6489.95
3008.00073	6488.25
3010.42493	6481.85
3012.84764	6482.15
3015.26888	6459.35
3017.68865	6445.85
3020.10694	6456.35
3022.52376	6447.55
3024.9391	6423.15
3027.35298	6411.25
3029.76539	6400.75
3032.17632	6378.05
3034.5858	6384.05
3036.9938	6366.95
3039.40034	6359.95
3041.80542	6350.65
3044.20903	6364.85
3046.61118	6351.75
3049.01187	6329.25
3051.4111	6328.35
3053.80888	6328.95
3056.20519	6305.25
3058.60005	6320.35
3060.99345	6303.05
3063.3854	6287.45
3065.7759	6272.75
3068.16494	6250.65
3070.55254	6238.95
3072.93868	6246.85
3075.32338	6230.25
3077.70662	6234.55
3080.08842	6215.25
3082.46878	6223.35
3084.84769	6207.05
3087.22515	6211.25
3089.60118	6212.05
3091.97576	6215.25
3094.3489	6219.45
3096.72061	6203.25
3099.09087	6185.65
3101.4597	6208.35
3103.82709	6183.55
3106.19305	6195.95
3108.55757	6204.95
3110.92066	6170.35
3113.28232	6166.95
3115.64255	6142.15
3118.00134	6134.05
3120.35871	6133.45
3122.71466	6136.15
3125.06917	6145.35
3127.42226	6108.75
3129.77393	6112.65
3132.12417	6115.55
3134.47299	6132.35
3136.82039	6131.55
3139.16636	6116.05
3141.51092	6132.85
3143.85406	6137.15
3146.19579	6123.05
3148.53609	6142.25
3150.87499	6140.35
3153.21246	6151.25
3155.54853	6158.85
3157.88318	6148.45
3160.21642	6189.95
3162.54826	6179.35
3164.87868	6160.75
3167.2077	6177.95
3169.5353	6167.25
3171.86151	6151.15
3174.18631	6147.45
3176.5097	6135.45
3178.83169	6124.95
3181.15228	6140.85
3183.47147	6167.55
3185.78926	6139.65
3188.10565	6116.85
3190.42065	6132.45
3192.73424	6139.95
3195.04645	6131.85
3197.35725	6141.55
3199.66667	6122.55
3201.97469	6130.95
3204.28132	6149.85
3206.58656	6155.95
3208.8904	6151.45
3211.19287	6155.95
3213.49394	6170.35
3215.79363	6164.05
3218.09193	6162.35
3220.38884	6143.15
3222.68438	6138.35
3224.97853	6146.05
3227.2713	6147.35
3229.56269	6144.15
3231.8527	6136.65
3234.14133	6130.15
3236.42858	6100.65
3238.71446	6105.55
3240.99896	6097.25
3243.28209	6087.75
3245.56384	6086.45
3247.84423	6089.05
3250.12324	6093.95
3252.40088	6087.45
3254.67715	6071.15
3256.95205	6064.15
3259.22558	6059.15
3261.49775	6057.05
3263.76855	6033.25
3266.03799	6028.75
3268.30606	6013.55
3270.57277	6009.85
3272.83812	6004.55
3275.10211	5991.45
3277.36474	5991.05
3279.62601	5998.65
3281.88593	5982.85
3284.14448	5982.65
3286.40168	5967.05
3288.65753	5976.05
3290.91202	5951.65
3293.16516	5930.25
3295.41695	5902.55
3297.66738	5870.25
3299.91647	5858.85
3302.16421	5817.25
3304.4106	5808.45
3306.65564	5776.85
3308.89933	5755.35
3311.14169	5705.05
3313.38269	5678.35
3315.62236	5634.45
3317.86068	5579.15
3320.09766	5522.45
3322.3333	5481.55
3324.5676	5483.95
3326.80056	5388.25
3329.03219	5351.65
3331.26248	2.65
3333.49143	-0.15
3335.71905	-0.35
