Data from AgNPs_FTO_APTES_UA_1uM_R6G_10uM_NaF_0.1M_Addition_RamanShift__20__11-27-17-178.txt Node

Date: Fri Dec 17 11:27:17 GMT 2021
User: TCL
Spectrometer: QEP01345
Trigger mode: 4
Integration Time (sec): 7.000000E0
Scans to average: 10
Electric dark correction enabled: true
Nonlinearity correction enabled: false
Boxcar width: 0
XAxis mode: Raman Shifts
Number of Pixels in Spectrum: 1044
>>>>>Begin Spectral Data<<<<<
46.04893	0.75
50.45542	-0.55
54.85868	-2.25
59.25871	1.05
63.6555	97.55
68.04907	99.85
72.43941	110.05
76.82654	111.55
81.21044	113.15
85.59113	121.35
89.96862	125.45
94.34289	129.05
98.71396	131.65
103.08183	137.05
107.4465	144.95
111.80798	144.95
116.16626	149.55
120.52136	150.15
124.87327	159.35
129.222	163.45
133.56755	175.25
137.90993	187.85
142.24913	203.15
146.58517	220.75
150.91804	253.45
155.24774	297.95
159.57429	368.15
163.89768	466.15
168.21792	611.75
172.53501	821.35
176.84895	1133.95
181.15975	1569.25
185.46741	2207.85
189.77193	3019.75
194.07331	4039.85
198.37157	5192.55
202.6667	6408.55
206.9587	7622.65
211.24758	8816.25
215.53334	10024.85
219.81599	11309.65
224.09553	12754.65
228.37195	14360.15
232.64527	16088.85
236.91549	17909.15
241.18261	19685.95
245.44663	21314.05
249.70755	22692.45
253.96539	23935.25
258.22014	24948.35
262.4718	25811.25
266.72039	26436.45
270.96589	26761.05
275.20832	26800.85
279.44768	26543.25
283.68397	26191.45
287.91719	25867.75
292.14735	25711.85
296.37445	25693.65
300.59849	25878.85
304.81948	26149.15
309.03742	26282.35
313.25231	26055.25
317.46415	25377.85
321.67296	24514.55
325.87872	23750.45
330.08145	23397.45
334.28114	23420.95
338.47781	23607.65
342.67145	23994.15
346.86207	24552.05
351.04966	25217.85
355.23424	25961.55
359.4158	26643.05
363.59435	27120.75
367.76989	27368.35
371.94243	27503.85
376.11196	27571.45
380.27849	27610.85
384.44203	27701.85
388.60257	27751.05
392.76012	27937.35
396.91468	28227.35
401.06626	28706.05
405.21485	29066.05
409.36047	28856.05
413.50311	28307.45
417.64277	27705.55
421.77947	27469.05
425.9132	27462.35
430.04396	27558.35
434.17176	27705.15
438.2966	27919.95
442.41849	28365.55
446.53742	29050.05
450.6534	29820.15
454.76644	30396.85
458.87653	30696.75
462.98368	30613.75
467.08789	30271.05
471.18916	29807.35
475.2875	29323.85
479.38291	29005.65
483.4754	28769.95
487.56496	28553.45
491.6516	28220.25
495.73531	27957.35
499.81612	27826.25
503.89401	27924.15
507.96899	28030.45
512.04106	28166.05
516.11023	28211.85
520.1765	28253.05
524.23987	28215.45
528.30034	27964.95
532.35792	27590.45
536.41261	27212.45
540.46441	26755.75
544.51333	26629.45
548.55936	26860.45
552.60252	27277.45
556.64279	27807.05
560.6802	28065.85
564.71473	28239.75
568.7464	28707.25
572.7752	29201.15
576.80114	29386.45
580.82422	29493.55
584.84444	29794.75
588.86181	30031.05
592.87633	30438.35
596.888	30868.25
600.89682	31458.15
604.9028	33168.65
608.90594	37250.75
612.90624	41616.25
616.90371	39421.55
620.89834	32168.75
624.89015	28932.45
628.87913	28496.15
632.86528	28441.75
636.84862	28249.95
640.82913	27825.45
644.80683	27016.35
648.78172	26426.75
652.75379	26296.85
656.72306	26728.45
660.68952	27336.35
664.65319	27205.15
668.61405	26635.25
672.57211	26355.45
676.52738	26368.05
680.47986	26394.15
684.42955	26214.25
688.37646	26204.55
692.32058	26308.35
696.26192	26594.75
700.20048	26888.65
704.13626	27092.25
708.06928	26980.75
711.99952	26789.75
715.927	26661.65
719.85171	26690.85
723.77365	26641.75
727.69284	26350.25
731.60928	26043.05
735.52295	25960.75
739.43388	26012.75
743.34206	26116.95
747.24749	26248.15
751.15017	26484.75
755.05012	26853.65
758.94733	27627.65
762.8418	29178.55
766.73354	31685.65
770.62254	34331.35
774.50882	35362.35
778.39237	33827.85
782.27321	31068.65
786.15132	28742.85
790.02671	27301.65
793.89938	26650.45
797.76935	26397.25
801.6366	26256.45
805.50115	26148.55
809.36299	25990.45
813.22213	25770.15
817.07857	25698.85
820.93231	25669.55
824.78336	25584.15
828.63172	25609.25
832.47738	25591.25
836.32036	25677.05
840.16066	25815.35
843.99827	25915.75
847.8332	25890.65
851.66546	25682.05
855.49504	25621.25
859.32195	25586.95
863.1462	25503.45
866.96777	25405.15
870.78668	25337.05
874.60293	25345.75
878.41652	25396.95
882.22745	25481.35
886.03573	25615.15
889.84136	25579.55
893.64433	25511.25
897.44466	25397.95
901.24235	25350.85
905.0374	25316.05
908.8298	25247.35
912.61957	25235.65
916.40671	25427.95
920.19121	25779.75
923.97308	26197.45
927.75233	26461.05
931.52895	26532.45
935.30295	26282.15
939.07433	25769.55
942.84309	25227.05
946.60924	25046.05
950.37278	24892.35
954.13371	24772.15
957.89203	24627.45
961.64774	24511.25
965.40086	24383.65
969.15137	24325.55
972.89929	24302.95
976.64461	24306.15
980.38733	24302.75
984.12747	24429.25
987.86502	24659.05
991.59999	25008.75
995.33237	25576.85
999.06217	26375.35
1002.78939	27371.25
1006.51404	28009.65
1010.23611	28296.75
1013.95561	28479.05
1017.67255	28398.15
1021.38692	28069.75
1025.09872	27870.05
1028.80796	28266.35
1032.51465	29263.25
1036.21877	30161.65
1039.92035	30265.95
1043.61937	29740.65
1047.31584	28785.25
1051.00976	27824.55
1054.70114	27357.05
1058.38998	27219.35
1062.07627	27280.95
1065.76003	27505.45
1069.44126	27798.15
1073.11995	28182.65
1076.79611	28710.35
1080.46974	28916.85
1084.14085	29080.35
1087.80943	29285.75
1091.47549	29290.65
1095.13903	28945.15
1098.80005	28393.25
1102.45857	27769.15
1106.11456	27326.65
1109.76805	27210.55
1113.41903	27350.45
1117.06751	27596.25
1120.71348	27982.35
1124.35696	28277.15
1127.99793	28707.85
1131.63641	28885.85
1135.2724	28573.55
1138.90589	28194.25
1142.5369	27870.65
1146.16542	27672.95
1149.79145	27580.95
1153.415	27656.95
1157.03607	27924.35
1160.65467	28440.95
1164.27079	29342.15
1167.88443	30743.35
1171.49561	32721.65
1175.10432	35462.85
1178.71056	39108.95
1182.31434	42512.15
1185.91565	44291.85
1189.51451	44277.95
1193.11091	42627.35
1196.70485	40220.35
1200.29634	37978.85
1203.88538	36315.15
1207.47197	34928.65
1211.05612	33913.65
1214.63782	33307.85
1218.21708	33050.55
1221.79391	33101.45
1225.36829	33276.25
1228.94024	33090.85
1232.50976	32771.15
1236.07685	32390.25
1239.6415	32161.65
1243.20374	32016.35
1246.76355	32111.95
1250.32093	32494.35
1253.8759	33212.85
1257.42845	34199.95
1260.97859	35211.15
1264.52631	36215.45
1268.07163	37308.85
1271.61453	38464.65
1275.15503	39705.25
1278.69312	40831.25
1282.22882	41655.25
1285.76211	42254.35
1289.29301	42929.75
1292.82151	43753.25
1296.34761	45020.55
1299.87133	46895.25
1303.39266	49733.35
1306.9116	53437.65
1310.42815	57466.45
1313.94233	60242.75
1317.45412	60409.65
1320.96354	58846.85
1324.47058	56797.65
1327.97525	54849.85
1331.47754	53427.85
1334.97747	52485.35
1338.47502	52279.45
1341.97022	52166.75
1345.46305	51880.15
1348.95352	51550.05
1352.44163	51776.75
1355.92738	53281.95
1359.41078	56585.55
1362.89183	60103.15
1366.37053	59523.35
1369.84688	54175.35
1373.32088	47859.75
1376.79254	43508.45
1380.26186	41394.55
1383.72883	40612.25
1387.19347	40121.15
1390.65578	39386.05
1394.11575	39005.35
1397.57339	39094.75
1401.0287	39602.85
1404.48168	40274.85
1407.93234	40562.25
1411.38068	40518.75
1414.82669	39978.05
1418.27039	38844.55
1421.71177	37686.95
1425.15083	36774.35
1428.58758	36187.35
1432.02203	36178.15
1435.45416	36601.35
1438.88399	37219.05
1442.31151	37695.55
1445.73673	38144.25
1449.15965	38528.95
1452.58027	38749.95
1455.9986	38860.35
1459.41463	39024.35
1462.82837	39640.25
1466.23982	40411.65
1469.64898	41084.35
1473.05586	41425.05
1476.46045	41535.45
1479.86276	41412.45
1483.26279	41335.65
1486.66054	41321.55
1490.05602	41684.95
1493.44922	42188.25
1496.84016	42861.35
1500.22882	44009.05
1503.61521	45855.75
1506.99934	48191.25
1510.38121	50410.85
1513.76081	51274.95
1517.13816	49844.65
1520.51324	46898.75
1523.88607	43843.25
1527.25665	41757.65
1530.62498	40635.25
1533.99105	40014.55
1537.35488	39616.25
1540.71647	39161.15
1544.07581	38855.05
1547.4329	38436.85
1550.78776	38108.35
1554.14038	37904.75
1557.49077	37907.25
1560.83892	37952.35
1564.18484	38095.55
1567.52853	38360.15
1570.86999	38734.65
1574.20922	39363.25
1577.54624	39941.05
1580.88103	39939.65
1584.2136	39685.25
1587.54395	40081.45
1590.87208	41269.85
1594.19801	43376.95
1597.52172	45850.15
1600.84321	46666.55
1604.16251	44774.95
1607.47959	41491.35
1610.79447	38213.15
1614.10715	35127.85
1617.41763	32699.15
1620.7259	31071.65
1624.03199	30297.95
1627.33587	30373.15
1630.63757	31331.75
1633.93707	33114.45
1637.23439	35725.45
1640.52951	39132.35
1643.82246	42860.55
1647.11321	45685.45
1650.40179	46309.35
1653.68819	43774.05
1656.97241	38855.15
1660.25446	33742.85
1663.53433	29927.45
1666.81203	27485.45
1670.08756	25995.65
1673.36092	25012.25
1676.63211	24358.25
1679.90115	23924.25
1683.16801	23619.45
1686.43272	23341.45
1689.69527	23130.05
1692.95567	23018.35
1696.2139	22945.25
1699.46999	22863.25
1702.72392	22838.35
1705.97571	22827.15
1709.22535	22758.55
1712.47284	22739.05
1715.71819	22713.85
1718.96139	22663.55
1722.20246	22598.45
1725.44139	22489.65
1728.67818	22401.05
1731.91284	22247.65
1735.14537	22157.65
1738.37576	22069.15
1741.60403	21993.35
1744.83017	21910.65
1748.05418	21856.85
1751.27607	21807.75
1754.49584	21805.55
1757.71349	21749.15
1760.92903	21783.85
1764.14244	21738.85
1767.35375	21715.25
1770.56294	21707.85
1773.77002	21643.15
1776.97499	21601.95
1780.17785	21581.35
1783.37861	21596.25
1786.57727	21567.65
1789.77382	21538.35
1792.96828	21488.55
1796.16064	21483.45
1799.3509	21464.15
1802.53907	21420.05
1805.72514	21385.75
1808.90913	21327.65
1812.09102	21277.15
1815.27083	21218.85
1818.44856	21200.45
1821.6242	21181.25
1824.79776	21168.95
1827.96924	21190.15
1831.13864	21153.75
1834.30597	21172.45
1837.47122	21182.15
1840.6344	21209.35
1843.7955	21230.75
1846.95454	21211.55
1850.11151	21243.25
1853.26642	21270.45
1856.41926	21237.05
1859.57004	21219.75
1862.71876	21216.95
1865.86542	21229.95
1869.01003	21189.75
1872.15258	21233.05
1875.29308	21248.55
1878.43152	21230.95
1881.56792	21249.85
1884.70227	21251.55
1887.83457	21258.15
1890.96482	21284.25
1894.09304	21235.85
1897.21921	21243.85
1900.34335	21253.95
1903.46544	21200.05
1906.58551	21261.15
1909.70353	21208.55
1912.81953	21211.45
1915.93349	21169.65
1919.04543	21057.45
1922.15534	21049.95
1925.26322	20928.35
1928.36908	20889.45
1931.47292	20837.75
1934.57473	20772.35
1937.67453	20688.15
1940.77232	20623.25
1943.86808	20562.35
1946.96184	20486.35
1950.05358	20402.25
1953.14331	20305.45
1956.23103	20239.85
1959.31675	20172.55
1962.40046	20100.75
1965.48217	20104.45
1968.56188	20017.85
1971.63959	19975.25
1974.7153	19916.95
1977.78901	19853.15
1980.86073	19781.65
1983.93046	19706.65
1986.99819	19636.15
1990.06394	19592.55
1993.1277	19567.65
1996.18947	19465.75
1999.24925	19470.55
2002.30706	19365.45
2005.36288	19292.05
2008.41672	19273.65
2011.46859	19219.15
2014.51848	19193.25
2017.56639	19127.05
2020.61233	19091.55
2023.6563	19059.15
2026.6983	19030.35
2029.73833	19020.15
2032.7764	18998.75
2035.8125	18980.25
2038.84664	18917.05
2041.87881	18953.15
2044.90903	18924.05
2047.93729	18894.35
2050.96359	18845.85
2053.98794	18809.95
2057.01034	18822.95
2060.03078	18787.85
2063.04927	18748.75
2066.06582	18734.95
2069.08042	18735.95
2072.09307	18722.75
2075.10378	18684.85
2078.11255	18678.75
2081.11938	18702.45
2084.12426	18679.65
2087.12722	18657.35
2090.12824	18667.35
2093.12732	18673.45
2096.12447	18673.05
2099.11969	18684.95
2102.11299	18692.75
2105.10435	18683.65
2108.09379	18697.75
2111.08131	18681.45
2114.0669	18704.15
2117.05057	18720.95
2120.03233	18740.05
2123.01216	18764.35
2125.99008	18739.65
2128.96609	18776.35
2131.94018	18802.05
2134.91236	18813.95
2137.88263	18832.75
2140.851	18852.45
2143.81746	18869.85
2146.78201	18878.35
2149.74466	18900.95
2152.7054	18913.65
2155.66425	18879.35
2158.6212	18911.55
2161.57625	18886.85
2164.52941	18863.65
2167.48067	18855.55
2170.43004	18899.55
2173.37752	18903.15
2176.32311	18845.05
2179.26681	18844.25
2182.20863	18833.35
2185.14856	18922.75
2188.08661	18887.85
2191.02278	18880.65
2193.95707	18894.85
2196.88948	18882.95
2199.82001	18896.65
2202.74867	18870.15
2205.67545	18896.55
2208.60037	18897.35
2211.52341	18847.75
2214.44458	18832.65
2217.36388	18834.25
2220.28132	18791.45
2223.1969	18757.15
2226.11061	18750.55
2229.02246	18720.25
2231.93245	18682.25
2234.84058	18642.25
2237.74686	18639.25
2240.65128	18579.55
2243.55385	18571.05
2246.45456	18565.55
2249.35343	18555.45
2252.25044	18502.25
2255.14561	18485.75
2258.03893	18487.75
2260.93041	18441.35
2263.82004	18371.05
2266.70783	18349.75
2269.59378	18308.85
2272.4779	18272.25
2275.36017	18236.15
2278.24061	18215.35
2281.11922	18175.95
2283.996	18186.55
2286.87094	18145.05
2289.74405	18132.35
2292.61534	18136.65
2295.4848	18092.05
2298.35243	18073.25
2301.21824	18096.75
2304.08223	18127.35
2306.94439	18108.55
2309.80474	18156.45
2312.66327	18157.15
2315.51999	18156.95
2318.37489	18187.15
2321.22797	18118.15
2324.07925	18170.45
2326.92871	18137.15
2329.77637	18123.25
2332.62222	18099.55
2335.46626	18087.45
2338.3085	18074.15
2341.14893	18110.45
2343.98756	18126.75
2346.8244	18139.05
2349.65943	18145.95
2352.49267	18111.05
2355.32411	18132.35
2358.15376	18088.65
2360.98161	18068.05
2363.80768	18041.75
2366.63195	18033.05
2369.45444	17975.75
2372.27514	17951.15
2375.09405	17971.35
2377.91118	17900.05
2380.72652	17883.15
2383.54009	17818.55
2386.35187	17793.85
2389.16188	17756.45
2391.97011	17736.45
2394.77657	17749.25
2397.58125	17706.25
2400.38416	17679.95
2403.18529	17621.85
2405.98466	17668.65
2408.78226	17566.85
2411.57809	17504.25
2414.37216	17519.15
2417.16446	17453.45
2419.955	17487.55
2422.74378	17446.15
2425.5308	17423.95
2428.31606	17422.45
2431.09956	17406.65
2433.88131	17378.15
2436.6613	17414.35
2439.43954	17378.15
2442.21603	17351.55
2444.99077	17366.35
2447.76377	17389.05
2450.53501	17387.65
2453.30451	17371.35
2456.07226	17363.25
2458.83827	17337.85
2461.60254	17340.45
2464.36507	17345.45
2467.12586	17328.75
2469.88492	17362.55
2472.64224	17359.55
2475.39782	17334.75
2478.15167	17367.25
2480.90379	17342.75
2483.65417	17377.35
2486.40283	17374.35
2489.14976	17402.15
2491.89497	17380.55
2494.63845	17446.35
2497.3802	17386.35
2500.12024	17401.45
2502.85855	17392.85
2505.59514	17399.05
2508.33002	17378.85
2511.06318	17309.55
2513.79462	17334.95
2516.52435	17324.75
2519.25237	17318.85
2521.97867	17258.15
2524.70327	17277.85
2527.42616	17249.15
2530.14734	17261.55
2532.86681	17235.85
2535.58458	17214.25
2538.30065	17195.85
2541.01501	17194.95
2543.72768	17180.15
2546.43864	17177.35
2549.14791	17160.95
2551.85548	17171.45
2554.56136	17151.05
2557.26554	17152.75
2559.96803	17137.05
2562.66883	17109.65
2565.36794	17107.05
2568.06536	17109.95
2570.7611	17068.05
2573.45514	17050.35
2576.14751	17037.15
2578.83819	17034.15
2581.52719	17034.15
2584.21451	17035.05
2586.90015	17036.35
2589.58411	17016.15
2592.2664	17000.95
2594.94701	16975.15
2597.62594	16974.85
2600.30321	16935.25
2602.9788	16951.85
2605.65273	16899.65
2608.32498	16917.35
2610.99557	16913.25
2613.66449	16944.35
2616.33175	16913.55
2618.99734	16936.95
2621.66128	16917.95
2624.32355	16941.75
2626.98416	16920.25
2629.64311	16919.25
2632.30041	16951.55
2634.95605	16896.95
2637.61004	16906.85
2640.26238	16873.05
2642.91306	16862.55
2645.56209	16812.45
2648.20948	16796.75
2650.85521	16795.05
2653.4993	16780.15
2656.14175	16790.05
2658.78255	16832.05
2661.42171	16773.85
2664.05923	16802.25
2666.6951	16775.55
2669.32934	16828.45
2671.96194	16835.25
2674.59291	16872.25
2677.22224	16848.45
2679.84993	16865.85
2682.476	16830.15
2685.10043	16781.65
2687.72324	16766.15
2690.34441	16781.65
2692.96396	16755.35
2695.58188	16763.55
2698.19818	16722.95
2700.81285	16739.85
2703.4259	16720.25
2706.03733	16722.75
2708.64714	16713.55
2711.25533	16765.75
2713.86191	16748.75
2716.46687	16770.15
2719.07021	16778.15
2721.67194	16828.95
2724.27206	16774.05
2726.87057	16798.95
2729.46747	16786.25
2732.06276	16804.95
2734.65644	16759.45
2737.24852	16766.25
2739.83899	16772.35
2742.42786	16774.45
2745.01513	16747.85
2747.60079	16779.85
2750.18486	16755.75
2752.76733	16774.65
2755.3482	16745.05
2757.92747	16763.85
2760.50515	16764.15
2763.08123	16751.65
2765.65573	16724.35
2768.22863	16737.55
2770.79994	16717.55
2773.36967	16752.95
2775.9378	16705.05
2778.50435	16690.85
2781.06932	16684.35
2783.6327	16692.05
2786.1945	16636.65
2788.75471	16643.65
2791.31335	16602.25
2793.87041	16592.35
2796.42589	16542.55
2798.97979	16542.75
2801.53212	16507.85
2804.08288	16492.15
2806.63206	16445.05
2809.17967	16415.05
2811.72571	16394.35
2814.27018	16404.05
2816.81308	16393.25
2819.35442	16385.25
2821.89419	16348.35
2824.43239	16364.25
2826.96904	16325.95
2829.50412	16322.95
2832.03763	16298.15
2834.56959	16307.05
2837.1	16269.85
2839.62884	16287.45
2842.15613	16282.55
2844.68186	16320.65
2847.20604	16324.15
2849.72867	16332.75
2852.24974	16334.75
2854.76927	16310.15
2857.28724	16305.55
2859.80367	16297.35
2862.31855	16277.25
2864.83189	16272.15
2867.34368	16264.75
2869.85393	16256.85
2872.36264	16277.15
2874.8698	16307.65
2877.37543	16291.45
2879.87952	16288.25
2882.38207	16335.85
2884.88308	16323.15
2887.38256	16356.05
2889.88051	16331.45
2892.37692	16346.05
2894.8718	16367.65
2897.36515	16396.85
2899.85698	16382.75
2902.34727	16455.05
2904.83604	16450.95
2907.32328	16491.15
2909.809	16468.55
2912.29319	16527.45
2914.77587	16475.45
2917.25702	16456.45
2919.73665	16437.35
2922.21476	16497.05
2924.69136	16439.15
2927.16644	16451.75
2929.64	16390.45
2932.11205	16383.55
2934.58258	16333.85
2937.05161	16372.35
2939.51912	16344.15
2941.98513	16297.85
2944.44962	16275.05
2946.91261	16201.85
2949.37409	16228.15
2951.83407	16197.95
2954.29254	16161.35
2956.74951	16137.55
2959.20498	16160.95
2961.65895	16090.95
2964.11142	16095.35
2966.56239	16013.45
2969.01186	16009.55
2971.45984	15952.85
2973.90632	15942.55
2976.35131	15898.75
2978.7948	15852.85
2981.23681	15792.85
2983.67732	15791.35
2986.11635	15744.65
2988.55388	15700.45
2990.98993	15664.85
2993.4245	15638.05
2995.85758	15603.75
2998.28917	15578.25
3000.71928	15569.45
3003.14791	15520.95
3005.57506	15507.65
3008.00073	15482.65
3010.42493	15438.15
3012.84764	15456.95
3015.26888	15429.65
3017.68865	15371.75
3020.10694	15414.45
3022.52376	15339.65
3024.9391	15361.55
3027.35298	15300.95
3029.76539	15299.35
3032.17632	15256.75
3034.5858	15231.85
3036.9938	15230.15
3039.40034	15236.85
3041.80542	15197.25
3044.20903	15196.75
3046.61118	15160.05
3049.01187	15115.45
3051.4111	15095.75
3053.80888	15050.65
3056.20519	15048.55
3058.60005	15008.35
3060.99345	14973.55
3063.3854	14958.95
3065.7759	14921.45
3068.16494	14901.45
3070.55254	14869.95
3072.93868	14846.85
3075.32338	14810.15
3077.70662	14790.25
3080.08842	14786.65
3082.46878	14743.25
3084.84769	14725.95
3087.22515	14748.65
3089.60118	14743.25
3091.97576	14710.35
3094.3489	14690.15
3096.72061	14706.55
3099.09087	14689.05
3101.4597	14679.95
3103.82709	14673.75
3106.19305	14661.45
3108.55757	14654.05
3110.92066	14613.75
3113.28232	14594.75
3115.64255	14550.95
3118.00134	14542.65
3120.35871	14527.35
3122.71466	14511.15
3125.06917	14479.25
3127.42226	14448.15
3129.77393	14483.75
3132.12417	14451.05
3134.47299	14458.15
3136.82039	14450.05
3139.16636	14501.05
3141.51092	14452.35
3143.85406	14444.85
3146.19579	14472.45
3148.53609	14430.05
3150.87499	14465.55
3153.21246	14445.55
3155.54853	14477.25
3157.88318	14450.85
3160.21642	14464.45
3162.54826	14442.05
3164.87868	14448.05
3167.2077	14460.75
3169.5353	14423.35
3171.86151	14454.75
3174.18631	14399.05
3176.5097	14394.45
3178.83169	14379.05
3181.15228	14394.25
3183.47147	14336.85
3185.78926	14340.65
3188.10565	14381.55
3190.42065	14360.75
3192.73424	14381.05
3195.04645	14373.15
3197.35725	14394.05
3199.66667	14363.95
3201.97469	14384.05
3204.28132	14397.65
3206.58656	14390.25
3208.8904	14390.85
3211.19287	14384.75
3213.49394	14375.05
3215.79363	14358.35
3218.09193	14368.75
3220.38884	14360.35
3222.68438	14363.75
3224.97853	14338.85
3227.2713	14335.45
3229.56269	14339.95
3231.8527	14333.85
3234.14133	14309.95
3236.42858	14310.65
3238.71446	14260.35
3240.99896	14260.35
3243.28209	14281.45
3245.56384	14256.15
3247.84423	14305.05
3250.12324	14237.65
3252.40088	14215.95
3254.67715	14231.65
3256.95205	14204.95
3259.22558	14212.85
3261.49775	14165.15
3263.76855	14142.75
3266.03799	14142.35
3268.30606	14114.85
3270.57277	14116.95
3272.83812	14087.15
3275.10211	14092.15
3277.36474	14076.75
3279.62601	14110.75
3281.88593	14069.15
3284.14448	14044.85
3286.40168	14036.15
3288.65753	13989.65
3290.91202	13991.95
3293.16516	13931.45
3295.41695	13962.55
3297.66738	13871.45
3299.91647	13762.85
3302.16421	13726.25
3304.4106	13692.25
3306.65564	13634.65
3308.89933	13549.95
3311.14169	13453.95
3313.38269	13357.15
3315.62236	13269.05
3317.86068	13166.15
3320.09766	13048.25
3322.3333	12923.75
3324.5676	12948.45
3326.80056	12732.65
3329.03219	12641.65
3331.26248	3.55
3333.49143	-0.15
3335.71905	-0.85
