Data from AgNPs_FTO_APTES_UA_50uM_R6G_10uM_NaF_0.1M_Addition_RamanShift__19__14-58-27-419.txt Node

Date: Fri Dec 17 14:58:27 GMT 2021
User: TCL
Spectrometer: QEP01345
Trigger mode: 4
Integration Time (sec): 7.000000E0
Scans to average: 10
Electric dark correction enabled: true
Nonlinearity correction enabled: false
Boxcar width: 0
XAxis mode: Raman Shifts
Number of Pixels in Spectrum: 1044
>>>>>Begin Spectral Data<<<<<
46.04893	-1.25
50.45542	-0.95
54.85868	-1.95
59.25871	-0.45
63.6555	89.15
68.04907	94.45
72.43941	101.65
76.82654	103.15
81.21044	102.25
85.59113	109.35
89.96862	112.75
94.34289	118.95
98.71396	120.05
103.08183	125.95
107.4465	130.75
111.80798	128.65
116.16626	133.65
120.52136	140.45
124.87327	146.45
129.222	154.25
133.56755	163.65
137.90993	175.95
142.24913	193.25
146.58517	212.45
150.91804	242.65
155.24774	297.65
159.57429	363.75
163.89768	459.55
168.21792	613.65
172.53501	829.25
176.84895	1157.55
181.15975	1623.65
185.46741	2294.45
189.77193	3141.85
194.07331	4171.55
198.37157	5387.95
202.6667	6645.75
206.9587	7876.75
211.24758	9096.55
215.53334	10322.75
219.81599	11601.55
224.09553	13021.75
228.37195	14618.55
232.64527	16409.65
236.91549	18282.15
241.18261	20189.05
245.44663	21907.65
249.70755	23519.65
253.96539	24904.25
258.22014	26021.35
262.4718	26931.65
266.72039	27614.45
270.96589	28015.85
275.20832	28075.15
279.44768	27957.15
283.68397	27764.65
287.91719	27536.55
292.14735	27474.25
296.37445	27421.95
300.59849	27539.95
304.81948	27585.75
309.03742	27564.75
313.25231	27252.15
317.46415	26629.05
321.67296	25904.45
325.87872	25231.95
330.08145	24886.85
334.28114	24863.15
338.47781	25056.95
342.67145	25358.45
346.86207	25745.05
351.04966	26260.65
355.23424	26812.55
359.4158	27297.85
363.59435	27594.35
367.76989	27869.85
371.94243	28034.75
376.11196	28171.65
380.27849	28336.65
384.44203	28497.55
388.60257	28693.25
392.76012	28911.25
396.91468	29235.75
401.06626	29700.95
405.21485	30012.05
409.36047	29921.65
413.50311	29505.95
417.64277	29138.45
421.77947	28990.05
425.9132	29046.55
430.04396	29153.85
434.17176	29342.55
438.2966	29548.75
442.41849	29919.05
446.53742	30567.45
450.6534	31308.05
454.76644	31879.85
458.87653	32201.25
462.98368	32188.85
467.08789	31934.55
471.18916	31563.25
475.2875	31124.15
479.38291	30809.95
483.4754	30498.35
487.56496	30043.35
491.6516	29622.15
495.73531	29348.05
499.81612	29301.75
503.89401	29442.35
507.96899	29572.45
512.04106	29569.15
516.11023	29569.85
520.1765	29402.35
524.23987	29203.65
528.30034	28956.25
532.35792	28723.15
536.41261	28471.35
540.46441	28164.85
544.51333	28150.25
548.55936	28416.95
552.60252	28941.95
556.64279	29556.45
560.6802	29910.55
564.71473	30131.85
568.7464	30448.55
572.7752	31062.55
576.80114	31409.45
580.82422	31812.35
584.84444	32078.15
588.86181	32323.85
592.87633	32531.65
596.888	32778.65
600.89682	33028.05
604.9028	34268.85
608.90594	37283.45
612.90624	40198.15
616.90371	37983.45
620.89834	32118.05
624.89015	29497.85
628.87913	29090.15
632.86528	29196.35
636.84862	29276.85
640.82913	28962.85
644.80683	28276.55
648.78172	27703.95
652.75379	27570.35
656.72306	27864.25
660.68952	28328.65
664.65319	28153.45
668.61405	27715.65
672.57211	27565.35
676.52738	27665.85
680.47986	27658.05
684.42955	27573.35
688.37646	27482.25
692.32058	27550.65
696.26192	27753.95
700.20048	28056.65
704.13626	28201.45
708.06928	28142.05
711.99952	27976.85
715.927	27813.55
719.85171	27838.75
723.77365	27795.45
727.69284	27550.85
731.60928	27290.15
735.52295	27181.95
739.43388	27191.05
743.34206	27289.85
747.24749	27413.15
751.15017	27599.35
755.05012	28000.75
758.94733	28724.55
762.8418	30171.75
766.73354	32392.65
770.62254	34665.55
774.50882	35401.05
778.39237	33932.55
782.27321	31409.95
786.15132	29342.15
790.02671	28060.75
793.89938	27416.55
797.76935	27211.45
801.6366	27112.95
805.50115	27018.65
809.36299	26820.15
813.22213	26648.65
817.07857	26503.35
820.93231	26418.15
824.78336	26284.65
828.63172	26261.25
832.47738	26274.75
836.32036	26252.75
840.16066	26293.05
843.99827	26260.65
847.8332	26250.25
851.66546	26154.05
855.49504	26161.25
859.32195	26172.65
863.1462	26121.15
866.96777	26048.05
870.78668	25995.75
874.60293	26029.95
878.41652	26038.95
882.22745	26096.15
886.03573	26196.85
889.84136	26213.35
893.64433	26141.05
897.44466	26019.05
901.24235	25907.25
905.0374	25777.05
908.8298	25679.65
912.61957	25716.95
916.40671	25904.35
920.19121	26208.45
923.97308	26401.35
927.75233	26417.55
931.52895	26320.85
935.30295	26067.65
939.07433	25658.45
942.84309	25318.55
946.60924	25185.25
950.37278	25111.45
954.13371	25016.75
957.89203	24928.25
961.64774	24868.35
965.40086	24817.45
969.15137	24775.95
972.89929	24668.55
976.64461	24632.25
980.38733	24666.95
984.12747	24714.65
987.86502	24922.45
991.59999	25190.05
995.33237	25554.65
999.06217	26164.25
1002.78939	26856.95
1006.51404	27307.15
1010.23611	27686.15
1013.95561	27908.65
1017.67255	28006.55
1021.38692	27748.05
1025.09872	27429.25
1028.80796	27436.85
1032.51465	27766.75
1036.21877	28144.85
1039.92035	28176.65
1043.61937	27999.55
1047.31584	27612.15
1051.00976	27234.75
1054.70114	26988.45
1058.38998	27106.65
1062.07627	27300.05
1065.76003	27513.65
1069.44126	27864.55
1073.11995	28208.75
1076.79611	28561.75
1080.46974	28779.95
1084.14085	28920.65
1087.80943	29120.95
1091.47549	29286.35
1095.13903	29277.85
1098.80005	28924.15
1102.45857	28420.05
1106.11456	28035.65
1109.76805	27834.45
1113.41903	27926.45
1117.06751	28164.15
1120.71348	28463.25
1124.35696	28768.65
1127.99793	29119.15
1131.63641	29330.75
1135.2724	29259.25
1138.90589	29054.45
1142.5369	28864.05
1146.16542	28793.95
1149.79145	28882.85
1153.415	29050.85
1157.03607	29384.95
1160.65467	30041.75
1164.27079	31163.75
1167.88443	32672.55
1171.49561	34573.85
1175.10432	37020.45
1178.71056	39994.65
1182.31434	42860.65
1185.91565	44708.75
1189.51451	45115.55
1193.11091	44231.05
1196.70485	42522.65
1200.29634	40551.25
1203.88538	38911.35
1207.47197	37526.65
1211.05612	36317.45
1214.63782	35529.85
1218.21708	35003.35
1221.79391	34842.05
1225.36829	34705.95
1228.94024	34510.35
1232.50976	34176.25
1236.07685	33889.25
1239.6415	33741.75
1243.20374	33673.05
1246.76355	33863.25
1250.32093	34264.95
1253.8759	34959.15
1257.42845	35933.45
1260.97859	36852.35
1264.52631	37778.05
1268.07163	38727.85
1271.61453	39713.65
1275.15503	40781.25
1278.69312	41761.45
1282.22882	42536.35
1285.76211	43268.35
1289.29301	44080.15
1292.82151	45228.75
1296.34761	46745.75
1299.87133	48719.85
1303.39266	51225.45
1306.9116	53985.85
1310.42815	56860.35
1313.94233	58769.85
1317.45412	59108.95
1320.96354	58495.15
1324.47058	57584.65
1327.97525	56761.55
1331.47754	56266.65
1334.97747	56176.55
1338.47502	56638.55
1341.97022	57082.75
1345.46305	57133.85
1348.95352	56711.25
1352.44163	56231.35
1355.92738	56418.65
1359.41078	57729.05
1362.89183	59281.05
1366.37053	58085.15
1369.84688	53655.65
1373.32088	48483.65
1376.79254	44820.45
1380.26186	43166.85
1383.72883	42645.05
1387.19347	42336.65
1390.65578	41934.55
1394.11575	41720.15
1397.57339	41904.55
1401.0287	42464.35
1404.48168	43189.95
1407.93234	43669.35
1411.38068	43492.95
1414.82669	42722.85
1418.27039	41358.05
1421.71177	39927.85
1425.15083	38741.95
1428.58758	38007.45
1432.02203	38052.05
1435.45416	38526.85
1438.88399	39308.75
1442.31151	40081.55
1445.73673	40682.05
1449.15965	41127.55
1452.58027	41573.85
1455.9986	41803.65
1459.41463	42264.75
1462.82837	42977.45
1466.23982	43691.15
1469.64898	44382.75
1473.05586	44804.95
1476.46045	44811.65
1479.86276	44626.45
1483.26279	44327.45
1486.66054	44118.55
1490.05602	44201.15
1493.44922	44519.95
1496.84016	45059.45
1500.22882	46033.05
1503.61521	47575.55
1506.99934	49376.65
1510.38121	50968.55
1513.76081	51319.65
1517.13816	50160.15
1520.51324	48038.45
1523.88607	45914.45
1527.25665	44617.85
1530.62498	43947.05
1533.99105	43680.35
1537.35488	43433.25
1540.71647	43076.95
1544.07581	42564.35
1547.4329	41974.55
1550.78776	41411.15
1554.14038	41045.35
1557.49077	40851.15
1560.83892	40798.55
1564.18484	40721.85
1567.52853	40696.45
1570.86999	40788.45
1574.20922	41216.05
1577.54624	41493.15
1580.88103	41439.35
1584.2136	41286.15
1587.54395	41769.95
1590.87208	43129.25
1594.19801	45237.85
1597.52172	47645.45
1600.84321	48633.25
1604.16251	47380.65
1607.47959	44691.05
1610.79447	41677.35
1614.10715	38573.45
1617.41763	35830.15
1620.7259	33772.05
1624.03199	32630.75
1627.33587	32313.25
1630.63757	32955.65
1633.93707	34668.15
1637.23439	37477.95
1640.52951	41174.25
1643.82246	45156.05
1647.11321	48110.35
1650.40179	48523.95
1653.68819	45710.85
1656.97241	40730.45
1660.25446	35578.15
1663.53433	31712.25
1666.81203	29080.65
1670.08756	27437.65
1673.36092	26339.85
1676.63211	25605.15
1679.90115	25091.45
1683.16801	24674.35
1686.43272	24353.35
1689.69527	24124.25
1692.95567	23937.85
1696.2139	23836.25
1699.46999	23734.15
1702.72392	23645.05
1705.97571	23573.55
1709.22535	23433.25
1712.47284	23435.45
1715.71819	23355.05
1718.96139	23279.05
1722.20246	23175.75
1725.44139	23073.75
1728.67818	22966.25
1731.91284	22836.55
1735.14537	22701.65
1738.37576	22599.05
1741.60403	22516.45
1744.83017	22433.25
1748.05418	22390.55
1751.27607	22338.25
1754.49584	22289.75
1757.71349	22282.05
1760.92903	22274.65
1764.14244	22223.85
1767.35375	22234.75
1770.56294	22220.65
1773.77002	22134.95
1776.97499	22123.05
1780.17785	22073.95
1783.37861	22056.95
1786.57727	21995.25
1789.77382	22012.55
1792.96828	21944.65
1796.16064	21852.35
1799.3509	21862.25
1802.53907	21805.65
1805.72514	21740.75
1808.90913	21713.35
1812.09102	21660.65
1815.27083	21613.95
1818.44856	21586.45
1821.6242	21584.75
1824.79776	21531.95
1827.96924	21517.75
1831.13864	21475.45
1834.30597	21527.55
1837.47122	21557.15
1840.6344	21498.85
1843.7955	21539.65
1846.95454	21521.55
1850.11151	21509.85
1853.26642	21530.65
1856.41926	21520.05
1859.57004	21492.85
1862.71876	21479.55
1865.86542	21457.15
1869.01003	21468.15
1872.15258	21469.55
1875.29308	21433.35
1878.43152	21388.15
1881.56792	21410.65
1884.70227	21419.95
1887.83457	21380.65
1890.96482	21345.45
1894.09304	21293.75
1897.21921	21327.95
1900.34335	21332.65
1903.46544	21285.25
1906.58551	21272.15
1909.70353	21248.45
1912.81953	21223.55
1915.93349	21218.25
1919.04543	21108.75
1922.15534	21069.85
1925.26322	20994.35
1928.36908	20998.35
1931.47292	20929.75
1934.57473	20867.35
1937.67453	20795.15
1940.77232	20754.85
1943.86808	20677.45
1946.96184	20635.45
1950.05358	20550.45
1953.14331	20532.75
1956.23103	20443.75
1959.31675	20402.45
1962.40046	20340.25
1965.48217	20288.35
1968.56188	20249.05
1971.63959	20198.05
1974.7153	20119.75
1977.78901	20035.75
1980.86073	20002.95
1983.93046	19939.95
1986.99819	19867.85
1990.06394	19792.65
1993.1277	19740.65
1996.18947	19677.35
1999.24925	19644.25
2002.30706	19601.45
2005.36288	19498.65
2008.41672	19490.75
2011.46859	19438.25
2014.51848	19385.35
2017.56639	19331.05
2020.61233	19236.15
2023.6563	19231.55
2026.6983	19202.45
2029.73833	19169.15
2032.7764	19104.95
2035.8125	19084.45
2038.84664	19083.95
2041.87881	19054.45
2044.90903	19018.05
2047.93729	18981.45
2050.96359	19002.05
2053.98794	18947.55
2057.01034	18953.85
2060.03078	18877.95
2063.04927	18890.15
2066.06582	18884.55
2069.08042	18867.85
2072.09307	18872.25
2075.10378	18850.05
2078.11255	18809.75
2081.11938	18845.75
2084.12426	18828.55
2087.12722	18777.65
2090.12824	18741.05
2093.12732	18750.05
2096.12447	18805.65
2099.11969	18798.05
2102.11299	18790.75
2105.10435	18819.55
2108.09379	18838.95
2111.08131	18864.45
2114.0669	18842.45
2117.05057	18876.15
2120.03233	18879.75
2123.01216	18885.55
2125.99008	18891.55
2128.96609	18905.15
2131.94018	18962.95
2134.91236	18935.15
2137.88263	18933.95
2140.851	18961.35
2143.81746	19021.85
2146.78201	18989.95
2149.74466	19004.85
2152.7054	19001.65
2155.66425	18981.75
2158.6212	19016.25
2161.57625	18960.85
2164.52941	18980.65
2167.48067	19000.05
2170.43004	18940.85
2173.37752	19023.25
2176.32311	18970.95
2179.26681	18963.35
2182.20863	18931.85
2185.14856	18962.65
2188.08661	18943.95
2191.02278	19000.75
2193.95707	18932.05
2196.88948	18920.15
2199.82001	18916.35
2202.74867	18919.55
2205.67545	18945.85
2208.60037	18882.75
2211.52341	18860.45
2214.44458	18828.85
2217.36388	18799.05
2220.28132	18766.75
2223.1969	18749.55
2226.11061	18746.05
2229.02246	18688.65
2231.93245	18701.95
2234.84058	18606.25
2237.74686	18554.65
2240.65128	18561.25
2243.55385	18522.85
2246.45456	18511.95
2249.35343	18517.25
2252.25044	18480.45
2255.14561	18436.55
2258.03893	18426.85
2260.93041	18418.45
2263.82004	18365.85
2266.70783	18345.95
2269.59378	18311.65
2272.4779	18255.05
2275.36017	18222.85
2278.24061	18189.75
2281.11922	18187.85
2283.996	18097.75
2286.87094	18121.65
2289.74405	18084.65
2292.61534	18043.95
2295.4848	18042.25
2298.35243	18009.25
2301.21824	18025.65
2304.08223	18038.85
2306.94439	18024.65
2309.80474	18027.65
2312.66327	18023.75
2315.51999	18040.25
2318.37489	18033.25
2321.22797	18015.25
2324.07925	17991.35
2326.92871	17958.85
2329.77637	17975.45
2332.62222	17950.15
2335.46626	17941.05
2338.3085	17913.55
2341.14893	17931.15
2343.98756	17930.25
2346.8244	17900.35
2349.65943	17900.75
2352.49267	17924.55
2355.32411	17920.85
2358.15376	17922.55
2360.98161	17896.45
2363.80768	17910.75
2366.63195	17865.05
2369.45444	17845.35
2372.27514	17822.85
2375.09405	17808.45
2377.91118	17765.15
2380.72652	17732.25
2383.54009	17689.25
2386.35187	17667.15
2389.16188	17617.35
2391.97011	17604.55
2394.77657	17595.65
2397.58125	17520.05
2400.38416	17535.15
2403.18529	17484.25
2405.98466	17460.85
2408.78226	17437.65
2411.57809	17423.75
2414.37216	17405.95
2417.16446	17415.15
2419.955	17401.05
2422.74378	17370.05
2425.5308	17339.05
2428.31606	17351.85
2431.09956	17326.75
2433.88131	17337.05
2436.6613	17328.25
2439.43954	17297.35
2442.21603	17299.25
2444.99077	17285.35
2447.76377	17309.15
2450.53501	17294.75
2453.30451	17290.95
2456.07226	17252.05
2458.83827	17235.05
2461.60254	17265.05
2464.36507	17265.25
2467.12586	17222.85
2469.88492	17250.45
2472.64224	17256.35
2475.39782	17249.15
2478.15167	17230.55
2480.90379	17238.15
2483.65417	17236.65
2486.40283	17261.85
2489.14976	17258.25
2491.89497	17245.65
2494.63845	17272.45
2497.3802	17279.65
2500.12024	17273.55
2502.85855	17283.15
2505.59514	17281.35
2508.33002	17265.95
2511.06318	17235.45
2513.79462	17224.15
2516.52435	17206.85
2519.25237	17172.15
2521.97867	17170.65
2524.70327	17192.45
2527.42616	17135.65
2530.14734	17126.85
2532.86681	17116.55
2535.58458	17109.25
2538.30065	17083.25
2541.01501	17081.45
2543.72768	17094.25
2546.43864	17076.75
2549.14791	17014.05
2551.85548	17022.85
2554.56136	16988.65
2557.26554	16983.75
2559.96803	16977.15
2562.66883	16934.15
2565.36794	16963.05
2568.06536	16947.95
2570.7611	16973.85
2573.45514	16926.85
2576.14751	16908.25
2578.83819	16878.85
2581.52719	16908.05
2584.21451	16892.65
2586.90015	16887.65
2589.58411	16843.05
2592.2664	16858.25
2594.94701	16813.35
2597.62594	16824.95
2600.30321	16785.05
2602.9788	16776.25
2605.65273	16767.65
2608.32498	16751.85
2610.99557	16769.55
2613.66449	16770.35
2616.33175	16763.45
2618.99734	16806.05
2621.66128	16759.35
2624.32355	16766.85
2626.98416	16764.15
2629.64311	16755.25
2632.30041	16758.25
2634.95605	16735.55
2637.61004	16747.35
2640.26238	16707.75
2642.91306	16696.35
2645.56209	16678.55
2648.20948	16702.05
2650.85521	16663.45
2653.4993	16675.05
2656.14175	16657.45
2658.78255	16706.75
2661.42171	16696.55
2664.05923	16688.15
2666.6951	16717.35
2669.32934	16712.15
2671.96194	16718.35
2674.59291	16736.25
2677.22224	16727.95
2679.84993	16753.45
2682.476	16700.45
2685.10043	16741.25
2687.72324	16731.45
2690.34441	16701.75
2692.96396	16713.65
2695.58188	16746.35
2698.19818	16727.35
2700.81285	16714.05
2703.4259	16712.15
2706.03733	16725.15
2708.64714	16707.75
2711.25533	16736.85
2713.86191	16716.05
2716.46687	16762.75
2719.07021	16781.05
2721.67194	16743.65
2724.27206	16726.95
2726.87057	16749.55
2729.46747	16733.05
2732.06276	16749.65
2734.65644	16764.95
2737.24852	16770.35
2739.83899	16731.75
2742.42786	16727.35
2745.01513	16732.85
2747.60079	16712.55
2750.18486	16731.65
2752.76733	16735.65
2755.3482	16731.15
2757.92747	16722.25
2760.50515	16712.25
2763.08123	16713.75
2765.65573	16677.15
2768.22863	16679.15
2770.79994	16657.65
2773.36967	16672.55
2775.9378	16662.95
2778.50435	16643.55
2781.06932	16649.95
2783.6327	16658.85
2786.1945	16647.35
2788.75471	16615.55
2791.31335	16587.05
2793.87041	16549.45
2796.42589	16500.65
2798.97979	16514.35
2801.53212	16467.35
2804.08288	16475.55
2806.63206	16427.15
2809.17967	16385.75
2811.72571	16398.65
2814.27018	16386.55
2816.81308	16354.15
2819.35442	16346.25
2821.89419	16313.45
2824.43239	16312.65
2826.96904	16316.85
2829.50412	16286.05
2832.03763	16254.35
2834.56959	16240.95
2837.1	16264.85
2839.62884	16226.75
2842.15613	16196.85
2844.68186	16230.15
2847.20604	16186.95
2849.72867	16198.65
2852.24974	16168.45
2854.76927	16180.15
2857.28724	16162.75
2859.80367	16184.95
2862.31855	16078.95
2864.83189	16116.85
2867.34368	16082.75
2869.85393	16106.85
2872.36264	16105.95
2874.8698	16104.75
2877.37543	16079.45
2879.87952	16070.45
2882.38207	16092.95
2884.88308	16087.75
2887.38256	16093.75
2889.88051	16073.85
2892.37692	16109.05
2894.8718	16068.65
2897.36515	16111.45
2899.85698	16115.65
2902.34727	16160.65
2904.83604	16144.45
2907.32328	16173.35
2909.809	16147.25
2912.29319	16187.05
2914.77587	16193.95
2917.25702	16207.35
2919.73665	16180.05
2922.21476	16183.95
2924.69136	16153.85
2927.16644	16135.25
2929.64	16128.15
2932.11205	16129.65
2934.58258	16044.85
2937.05161	16093.35
2939.51912	16117.55
2941.98513	16068.15
2944.44962	16062.75
2946.91261	15991.55
2949.37409	16027.35
2951.83407	16020.95
2954.29254	16012.45
2956.74951	15999.55
2959.20498	15960.25
2961.65895	15950.75
2964.11142	15940.05
2966.56239	15894.45
2969.01186	15886.05
2971.45984	15829.85
2973.90632	15833.35
2976.35131	15761.75
2978.7948	15767.15
2981.23681	15722.55
2983.67732	15723.05
2986.11635	15664.55
2988.55388	15636.55
2990.98993	15644.55
2993.4245	15595.65
2995.85758	15562.75
2998.28917	15526.05
3000.71928	15496.35
3003.14791	15459.25
3005.57506	15441.75
3008.00073	15427.95
3010.42493	15415.45
3012.84764	15361.45
3015.26888	15368.95
3017.68865	15340.75
3020.10694	15331.75
3022.52376	15309.85
3024.9391	15267.85
3027.35298	15242.65
3029.76539	15231.25
3032.17632	15197.55
3034.5858	15183.65
3036.9938	15193.05
3039.40034	15178.75
3041.80542	15166.85
3044.20903	15135.35
3046.61118	15156.75
3049.01187	15091.15
3051.4111	15091.25
3053.80888	15050.65
3056.20519	15020.65
3058.60005	14984.25
3060.99345	14979.95
3063.3854	14974.55
3065.7759	14927.55
3068.16494	14903.45
3070.55254	14836.75
3072.93868	14842.85
3075.32338	14776.85
3077.70662	14777.45
3080.08842	14732.35
3082.46878	14710.55
3084.84769	14666.05
3087.22515	14710.75
3089.60118	14684.25
3091.97576	14659.45
3094.3489	14657.85
3096.72061	14625.15
3099.09087	14669.55
3101.4597	14639.95
3103.82709	14602.45
3106.19305	14601.95
3108.55757	14573.15
3110.92066	14554.25
3113.28232	14524.05
3115.64255	14470.55
3118.00134	14432.65
3120.35871	14426.85
3122.71466	14405.85
3125.06917	14400.05
3127.42226	14329.65
3129.77393	14369.35
3132.12417	14339.75
3134.47299	14312.95
3136.82039	14336.75
3139.16636	14326.25
3141.51092	14326.05
3143.85406	14313.95
3146.19579	14325.05
3148.53609	14324.75
3150.87499	14358.55
3153.21246	14323.95
3155.54853	14375.45
3157.88318	14340.65
3160.21642	14335.35
3162.54826	14357.75
3164.87868	14344.95
3167.2077	14331.65
3169.5353	14345.25
3171.86151	14308.05
3174.18631	14234.95
3176.5097	14256.05
3178.83169	14232.75
3181.15228	14241.85
3183.47147	14203.05
3185.78926	14211.35
3188.10565	14169.45
3190.42065	14187.65
3192.73424	14197.35
3195.04645	14184.55
3197.35725	14161.85
3199.66667	14160.95
3201.97469	14195.65
3204.28132	14164.45
3206.58656	14225.55
3208.8904	14197.95
3211.19287	14186.65
3213.49394	14181.15
3215.79363	14180.65
3218.09193	14195.75
3220.38884	14183.75
3222.68438	14167.05
3224.97853	14186.85
3227.2713	14169.55
3229.56269	14130.25
3231.8527	14121.65
3234.14133	14122.75
3236.42858	14080.55
3238.71446	14054.65
3240.99896	14036.35
3243.28209	14056.35
3245.56384	14038.95
3247.84423	14056.45
3250.12324	14011.95
3252.40088	14016.85
3254.67715	13983.65
3256.95205	13962.25
3259.22558	13968.45
3261.49775	13954.25
3263.76855	13905.85
3266.03799	13879.35
3268.30606	13871.55
3270.57277	13842.95
3272.83812	13831.15
3275.10211	13823.45
3277.36474	13801.15
3279.62601	13765.25
3281.88593	13751.65
3284.14448	13781.45
3286.40168	13793.15
3288.65753	13744.25
3290.91202	13725.85
3293.16516	13677.45
3295.41695	13668.35
3297.66738	13577.45
3299.91647	13521.95
3302.16421	13430.85
3304.4106	13372.25
3306.65564	13329.25
3308.89933	13233.65
3311.14169	13151.55
3313.38269	13034.65
3315.62236	12996.95
3317.86068	12901.35
3320.09766	12774.65
3322.3333	12671.35
3324.5676	12659.65
3326.80056	12436.25
3329.03219	12352.85
3331.26248	4.45
3333.49143	0.15
3335.71905	0.85
