Data from AgNPs_FTO_APTES_UA_200uM_R6G_10uM_NaF_0.1M_Addition_RamanShift__26__16-30-37-524.txt Node

Date: Fri Dec 17 16:30:37 GMT 2021
User: TCL
Spectrometer: QEP01345
Trigger mode: 4
Integration Time (sec): 7.000000E0
Scans to average: 10
Electric dark correction enabled: true
Nonlinearity correction enabled: false
Boxcar width: 0
XAxis mode: Raman Shifts
Number of Pixels in Spectrum: 1044
>>>>>Begin Spectral Data<<<<<
46.04893	0.25
50.45542	-1.25
54.85868	-0.25
59.25871	-0.15
63.6555	47.75
68.04907	52.25
72.43941	53.65
76.82654	55.45
81.21044	55.85
85.59113	61.25
89.96862	64.45
94.34289	65.25
98.71396	65.85
103.08183	69.55
107.4465	74.85
111.80798	73.65
116.16626	72.15
120.52136	73.45
124.87327	80.75
129.222	83.15
133.56755	80.85
137.90993	92.75
142.24913	102.15
146.58517	105.95
150.91804	126.25
155.24774	145.45
159.57429	183.85
163.89768	228.95
168.21792	301.35
172.53501	400.15
176.84895	553.05
181.15975	782.25
185.46741	1096.85
189.77193	1519.05
194.07331	2053.65
198.37157	2640.95
202.6667	3264.65
206.9587	3888.35
211.24758	4479.55
215.53334	5093.15
219.81599	5704.55
224.09553	6398.55
228.37195	7157.55
232.64527	8003.25
236.91549	8879.65
241.18261	9817.55
245.44663	10660.85
249.70755	11452.75
253.96539	12128.35
258.22014	12708.05
262.4718	13170.25
266.72039	13475.45
270.96589	13683.45
275.20832	13675.95
279.44768	13568.55
283.68397	13369.65
287.91719	13132.15
292.14735	13024.45
296.37445	13032.35
300.59849	13092.55
304.81948	13168.45
309.03742	13191.45
313.25231	13061.35
317.46415	12767.05
321.67296	12389.65
325.87872	12084.25
330.08145	11973.25
334.28114	12007.25
338.47781	12091.85
342.67145	12269.75
346.86207	12498.85
351.04966	12797.85
355.23424	13127.45
359.4158	13426.15
363.59435	13643.15
367.76989	13810.45
371.94243	13934.75
376.11196	14019.45
380.27849	14103.75
384.44203	14147.05
388.60257	14136.65
392.76012	14155.15
396.91468	14246.35
401.06626	14415.95
405.21485	14576.05
409.36047	14492.95
413.50311	14230.85
417.64277	13953.35
421.77947	13767.55
425.9132	13685.05
430.04396	13692.45
434.17176	13724.95
438.2966	13803.85
442.41849	13924.05
446.53742	14066.75
450.6534	14193.45
454.76644	14292.75
458.87653	14387.25
462.98368	14338.85
467.08789	14368.15
471.18916	14273.75
475.2875	14188.35
479.38291	14144.35
483.4754	14088.65
487.56496	14067.45
491.6516	14039.45
495.73531	14016.85
499.81612	14016.35
503.89401	14027.25
507.96899	14039.95
512.04106	14183.75
516.11023	14235.05
520.1765	14358.55
524.23987	14346.25
528.30034	14287.85
532.35792	14180.85
536.41261	14094.35
540.46441	13932.95
544.51333	13873.15
548.55936	13832.95
552.60252	13917.95
556.64279	14031.05
560.6802	14043.35
564.71473	14077.65
568.7464	14176.85
572.7752	14254.45
576.80114	14154.35
580.82422	14022.95
584.84444	13991.25
588.86181	14003.15
592.87633	13979.95
596.888	14054.75
600.89682	14249.25
604.9028	14844.25
608.90594	16463.75
612.90624	18586.75
616.90371	18344.55
620.89834	15717.15
624.89015	14462.05
628.87913	14280.65
632.86528	14445.75
636.84862	14616.25
640.82913	14526.55
644.80683	14224.65
648.78172	13883.85
652.75379	13788.55
656.72306	13874.65
660.68952	14067.85
664.65319	14015.55
668.61405	13797.25
672.57211	13684.15
676.52738	13684.55
680.47986	13666.55
684.42955	13621.55
688.37646	13555.55
692.32058	13545.35
696.26192	13570.65
700.20048	13588.95
704.13626	13617.55
708.06928	13601.75
711.99952	13563.05
715.927	13523.05
719.85171	13511.95
723.77365	13535.35
727.69284	13503.15
731.60928	13441.75
735.52295	13407.25
739.43388	13366.55
743.34206	13359.25
747.24749	13379.05
751.15017	13377.75
755.05012	13419.15
758.94733	13609.35
762.8418	14042.45
766.73354	14959.25
770.62254	16022.95
774.50882	16714.45
778.39237	16322.35
782.27321	15190.95
786.15132	14199.45
790.02671	13572.15
793.89938	13302.95
797.76935	13198.05
801.6366	13146.35
805.50115	13166.75
809.36299	13198.95
813.22213	13185.75
817.07857	13190.75
820.93231	13112.95
824.78336	13056.95
828.63172	12968.45
832.47738	12926.35
836.32036	12896.95
840.16066	12828.65
843.99827	12797.65
847.8332	12756.25
851.66546	12742.55
855.49504	12734.85
859.32195	12705.25
863.1462	12710.15
866.96777	12696.35
870.78668	12696.25
874.60293	12731.05
878.41652	12748.45
882.22745	12796.45
886.03573	12825.85
889.84136	12839.65
893.64433	12757.35
897.44466	12681.55
901.24235	12589.05
905.0374	12488.15
908.8298	12434.65
912.61957	12368.65
916.40671	12367.05
920.19121	12348.25
923.97308	12382.85
927.75233	12397.75
931.52895	12410.45
935.30295	12405.75
939.07433	12219.95
942.84309	12104.45
946.60924	12013.15
950.37278	11935.95
954.13371	11875.45
957.89203	11845.85
961.64774	11808.95
965.40086	11730.15
969.15137	11698.75
972.89929	11666.25
976.64461	11638.35
980.38733	11608.35
984.12747	11601.95
987.86502	11602.05
991.59999	11614.55
995.33237	11659.75
999.06217	11703.75
1002.78939	11807.25
1006.51404	11890.65
1010.23611	12012.95
1013.95561	12115.75
1017.67255	12106.05
1021.38692	12060.05
1025.09872	11978.75
1028.80796	11917.55
1032.51465	11891.85
1036.21877	11852.45
1039.92035	11864.45
1043.61937	11858.25
1047.31584	11824.85
1051.00976	11805.15
1054.70114	11779.75
1058.38998	11790.25
1062.07627	11825.05
1065.76003	11879.95
1069.44126	11965.45
1073.11995	12002.55
1076.79611	12065.45
1080.46974	12089.55
1084.14085	12038.65
1087.80943	12102.65
1091.47549	12086.55
1095.13903	12011.75
1098.80005	11888.25
1102.45857	11687.95
1106.11456	11618.95
1109.76805	11616.55
1113.41903	11689.75
1117.06751	11838.65
1120.71348	12067.35
1124.35696	12306.15
1127.99793	12531.95
1131.63641	12684.55
1135.2724	12590.55
1138.90589	12347.55
1142.5369	12138.25
1146.16542	11882.15
1149.79145	11659.35
1153.415	11546.35
1157.03607	11474.35
1160.65467	11506.65
1164.27079	11622.55
1167.88443	11837.85
1171.49561	12230.05
1175.10432	12820.25
1178.71056	13657.45
1182.31434	14490.95
1185.91565	14772.55
1189.51451	14609.55
1193.11091	14128.35
1196.70485	13554.55
1200.29634	13128.25
1203.88538	12850.45
1207.47197	12490.05
1211.05612	12108.35
1214.63782	11816.35
1218.21708	11639.25
1221.79391	11539.85
1225.36829	11509.15
1228.94024	11480.05
1232.50976	11487.25
1236.07685	11494.35
1239.6415	11504.05
1243.20374	11561.45
1246.76355	11613.85
1250.32093	11636.25
1253.8759	11697.85
1257.42845	11850.95
1260.97859	11968.35
1264.52631	12112.55
1268.07163	12227.45
1271.61453	12372.95
1275.15503	12475.35
1278.69312	12524.35
1282.22882	12527.85
1285.76211	12602.05
1289.29301	12766.95
1292.82151	12981.55
1296.34761	13220.55
1299.87133	13608.35
1303.39266	14170.05
1306.9116	15003.85
1310.42815	15924.75
1313.94233	16516.25
1317.45412	16387.95
1320.96354	15700.95
1324.47058	14952.45
1327.97525	14239.25
1331.47754	13775.15
1334.97747	13519.35
1338.47502	13481.35
1341.97022	13643.85
1345.46305	13914.55
1348.95352	14345.05
1352.44163	15042.95
1355.92738	15958.65
1359.41078	17410.75
1362.89183	19046.95
1366.37053	19214.65
1369.84688	17273.75
1373.32088	15074.85
1376.79254	13565.65
1380.26186	12811.55
1383.72883	12399.35
1387.19347	12115.45
1390.65578	11817.25
1394.11575	11574.85
1397.57339	11361.55
1401.0287	11284.35
1404.48168	11231.75
1407.93234	11190.45
1411.38068	11170.55
1414.82669	11190.35
1418.27039	11086.65
1421.71177	11032.35
1425.15083	10959.75
1428.58758	10830.55
1432.02203	10792.95
1435.45416	10827.05
1438.88399	10812.15
1442.31151	10813.75
1445.73673	10798.75
1449.15965	10812.45
1452.58027	10816.95
1455.9986	10766.75
1459.41463	10795.45
1462.82837	10795.55
1466.23982	10921.65
1469.64898	11045.25
1473.05586	11152.25
1476.46045	11269.55
1479.86276	11358.85
1483.26279	11502.35
1486.66054	11692.95
1490.05602	11905.75
1493.44922	12191.45
1496.84016	12664.35
1500.22882	13464.65
1503.61521	14531.55
1506.99934	15845.25
1510.38121	17073.25
1513.76081	17603.15
1517.13816	17012.45
1520.51324	15649.25
1523.88607	14127.45
1527.25665	13028.55
1530.62498	12375.55
1533.99105	12037.35
1537.35488	11802.05
1540.71647	11732.35
1544.07581	11666.95
1547.4329	11610.15
1550.78776	11631.75
1554.14038	11672.65
1557.49077	11742.05
1560.83892	11888.35
1564.18484	12063.15
1567.52853	12243.35
1570.86999	12437.45
1574.20922	12606.95
1577.54624	12638.95
1580.88103	12387.55
1584.2136	11888.75
1587.54395	11478.85
1590.87208	11346.45
1594.19801	11454.35
1597.52172	11808.45
1600.84321	11970.45
1604.16251	11817.05
1607.47959	11515.45
1610.79447	11176.35
1614.10715	10813.05
1617.41763	10452.75
1620.7259	10207.25
1624.03199	10089.85
1627.33587	10021.25
1630.63757	10072.55
1633.93707	10221.15
1637.23439	10500.45
1640.52951	10937.15
1643.82246	11599.35
1647.11321	12487.15
1650.40179	13298.45
1653.68819	13424.85
1656.97241	12612.25
1660.25446	11410.25
1663.53433	10463.25
1666.81203	9921.35
1670.08756	9555.35
1673.36092	9326.75
1676.63211	9153.85
1679.90115	9054.95
1683.16801	8945.85
1686.43272	8871.75
1689.69527	8824.95
1692.95567	8786.95
1696.2139	8770.45
1699.46999	8734.25
1702.72392	8690.25
1705.97571	8622.25
1709.22535	8560.15
1712.47284	8509.75
1715.71819	8473.95
1718.96139	8439.55
1722.20246	8408.75
1725.44139	8383.45
1728.67818	8294.55
1731.91284	8262.05
1735.14537	8216.15
1738.37576	8206.55
1741.60403	8153.15
1744.83017	8119.35
1748.05418	8111.55
1751.27607	8110.35
1754.49584	8095.95
1757.71349	8083.75
1760.92903	8049.95
1764.14244	8063.35
1767.35375	8056.15
1770.56294	8042.35
1773.77002	7999.75
1776.97499	7984.35
1780.17785	7947.45
1783.37861	7905.15
1786.57727	7903.45
1789.77382	7870.75
1792.96828	7866.05
1796.16064	7835.85
1799.3509	7834.65
1802.53907	7809.45
1805.72514	7780.45
1808.90913	7763.75
1812.09102	7717.85
1815.27083	7704.05
1818.44856	7670.25
1821.6242	7676.55
1824.79776	7645.95
1827.96924	7635.85
1831.13864	7631.25
1834.30597	7624.35
1837.47122	7591.85
1840.6344	7596.75
1843.7955	7587.85
1846.95454	7561.95
1850.11151	7562.35
1853.26642	7546.05
1856.41926	7543.55
1859.57004	7536.15
1862.71876	7516.45
1865.86542	7498.65
1869.01003	7504.95
1872.15258	7499.95
1875.29308	7464.15
1878.43152	7427.95
1881.56792	7447.65
1884.70227	7440.85
1887.83457	7430.45
1890.96482	7409.55
1894.09304	7395.05
1897.21921	7393.75
1900.34335	7381.65
1903.46544	7372.45
1906.58551	7353.85
1909.70353	7336.35
1912.81953	7318.75
1915.93349	7326.95
1919.04543	7313.55
1922.15534	7259.35
1925.26322	7263.15
1928.36908	7251.15
1931.47292	7219.05
1934.57473	7201.55
1937.67453	7170.85
1940.77232	7159.35
1943.86808	7133.65
1946.96184	7119.95
1950.05358	7122.15
1953.14331	7079.95
1956.23103	7041.35
1959.31675	7039.05
1962.40046	7038.75
1965.48217	6994.65
1968.56188	6977.15
1971.63959	6953.05
1974.7153	6926.95
1977.78901	6895.85
1980.86073	6856.15
1983.93046	6854.85
1986.99819	6817.95
1990.06394	6796.55
1993.1277	6764.65
1996.18947	6741.95
1999.24925	6729.25
2002.30706	6704.35
2005.36288	6678.95
2008.41672	6645.85
2011.46859	6639.35
2014.51848	6610.45
2017.56639	6575.65
2020.61233	6552.75
2023.6563	6550.15
2026.6983	6541.15
2029.73833	6519.15
2032.7764	6493.95
2035.8125	6471.45
2038.84664	6469.25
2041.87881	6456.15
2044.90903	6452.55
2047.93729	6421.75
2050.96359	6406.55
2053.98794	6391.15
2057.01034	6372.55
2060.03078	6377.85
2063.04927	6365.65
2066.06582	6367.15
2069.08042	6360.75
2072.09307	6337.95
2075.10378	6321.75
2078.11255	6320.85
2081.11938	6329.25
2084.12426	6307.15
2087.12722	6321.65
2090.12824	6301.95
2093.12732	6303.15
2096.12447	6314.65
2099.11969	6291.25
2102.11299	6288.65
2105.10435	6293.05
2108.09379	6279.95
2111.08131	6304.65
2114.0669	6294.55
2117.05057	6298.45
2120.03233	6300.35
2123.01216	6309.05
2125.99008	6275.05
2128.96609	6311.75
2131.94018	6321.05
2134.91236	6327.35
2137.88263	6320.85
2140.851	6307.75
2143.81746	6301.05
2146.78201	6307.45
2149.74466	6309.55
2152.7054	6300.65
2155.66425	6271.45
2158.6212	6302.15
2161.57625	6278.55
2164.52941	6282.55
2167.48067	6270.65
2170.43004	6273.35
2173.37752	6268.75
2176.32311	6247.75
2179.26681	6246.65
2182.20863	6257.25
2185.14856	6250.15
2188.08661	6231.85
2191.02278	6227.95
2193.95707	6225.85
2196.88948	6214.75
2199.82001	6214.05
2202.74867	6195.45
2205.67545	6186.75
2208.60037	6175.45
2211.52341	6161.65
2214.44458	6154.35
2217.36388	6129.35
2220.28132	6131.15
2223.1969	6109.15
2226.11061	6101.75
2229.02246	6086.65
2231.93245	6063.15
2234.84058	6058.15
2237.74686	6038.45
2240.65128	6051.15
2243.55385	6031.15
2246.45456	6008.95
2249.35343	6004.65
2252.25044	6001.85
2255.14561	5993.05
2258.03893	5989.65
2260.93041	5966.95
2263.82004	5949.05
2266.70783	5958.65
2269.59378	5912.65
2272.4779	5911.05
2275.36017	5879.45
2278.24061	5902.15
2281.11922	5862.85
2283.996	5852.25
2286.87094	5835.65
2289.74405	5802.55
2292.61534	5826.45
2295.4848	5803.35
2298.35243	5791.25
2301.21824	5778.55
2304.08223	5759.45
2306.94439	5771.45
2309.80474	5760.45
2312.66327	5761.45
2315.51999	5739.15
2318.37489	5739.75
2321.22797	5727.15
2324.07925	5728.15
2326.92871	5709.35
2329.77637	5713.85
2332.62222	5696.75
2335.46626	5686.55
2338.3085	5673.85
2341.14893	5669.75
2343.98756	5647.15
2346.8244	5657.15
2349.65943	5642.25
2352.49267	5635.75
2355.32411	5641.35
2358.15376	5629.85
2360.98161	5643.15
2363.80768	5624.15
2366.63195	5628.45
2369.45444	5611.35
2372.27514	5585.75
2375.09405	5587.25
2377.91118	5570.75
2380.72652	5577.25
2383.54009	5543.75
2386.35187	5557.05
2389.16188	5513.55
2391.97011	5502.25
2394.77657	5479.95
2397.58125	5488.15
2400.38416	5455.25
2403.18529	5460.05
2405.98466	5443.95
2408.78226	5438.25
2411.57809	5424.35
2414.37216	5418.35
2417.16446	5422.75
2419.955	5401.95
2422.74378	5375.35
2425.5308	5376.65
2428.31606	5381.25
2431.09956	5371.05
2433.88131	5361.15
2436.6613	5351.75
2439.43954	5356.95
2442.21603	5337.05
2444.99077	5325.65
2447.76377	5341.15
2450.53501	5316.95
2453.30451	5318.05
2456.07226	5296.55
2458.83827	5300.95
2461.60254	5292.15
2464.36507	5280.85
2467.12586	5275.95
2469.88492	5273.65
2472.64224	5270.95
2475.39782	5268.05
2478.15167	5256.95
2480.90379	5262.75
2483.65417	5251.55
2486.40283	5261.35
2489.14976	5262.45
2491.89497	5254.05
2494.63845	5251.25
2497.3802	5250.95
2500.12024	5217.55
2502.85855	5214.85
2505.59514	5217.95
2508.33002	5202.85
2511.06318	5192.05
2513.79462	5168.55
2516.52435	5150.85
2519.25237	5152.35
2521.97867	5148.05
2524.70327	5126.85
2527.42616	5098.35
2530.14734	5100.35
2532.86681	5087.05
2535.58458	5086.85
2538.30065	5076.65
2541.01501	5067.15
2543.72768	5052.95
2546.43864	5060.95
2549.14791	5048.15
2551.85548	5031.85
2554.56136	5008.55
2557.26554	5021.75
2559.96803	5008.25
2562.66883	4995.95
2565.36794	4998.65
2568.06536	4982.25
2570.7611	4963.85
2573.45514	4950.05
2576.14751	4933.65
2578.83819	4931.05
2581.52719	4920.85
2584.21451	4913.35
2586.90015	4927.05
2589.58411	4899.25
2592.2664	4899.95
2594.94701	4876.95
2597.62594	4870.25
2600.30321	4850.15
2602.9788	4846.25
2605.65273	4826.65
2608.32498	4834.15
2610.99557	4818.15
2613.66449	4823.35
2616.33175	4817.35
2618.99734	4812.15
2621.66128	4801.95
2624.32355	4795.15
2626.98416	4797.95
2629.64311	4771.15
2632.30041	4767.95
2634.95605	4769.05
2637.61004	4759.45
2640.26238	4739.55
2642.91306	4746.35
2645.56209	4731.05
2648.20948	4738.85
2650.85521	4732.95
2653.4993	4721.45
2656.14175	4707.85
2658.78255	4723.75
2661.42171	4721.35
2664.05923	4703.85
2666.6951	4719.05
2669.32934	4703.35
2671.96194	4701.65
2674.59291	4705.25
2677.22224	4710.05
2679.84993	4699.25
2682.476	4688.75
2685.10043	4698.25
2687.72324	4704.15
2690.34441	4704.65
2692.96396	4676.15
2695.58188	4703.15
2698.19818	4683.85
2700.81285	4693.35
2703.4259	4702.75
2706.03733	4720.45
2708.64714	4703.95
2711.25533	4685.35
2713.86191	4680.75
2716.46687	4685.65
2719.07021	4679.85
2721.67194	4664.75
2724.27206	4658.65
2726.87057	4679.45
2729.46747	4656.85
2732.06276	4651.35
2734.65644	4650.85
2737.24852	4649.65
2739.83899	4645.75
2742.42786	4633.75
2745.01513	4630.75
2747.60079	4604.35
2750.18486	4621.85
2752.76733	4630.55
2755.3482	4597.55
2757.92747	4603.75
2760.50515	4597.55
2763.08123	4599.15
2765.65573	4578.15
2768.22863	4573.35
2770.79994	4548.85
2773.36967	4550.45
2775.9378	4554.05
2778.50435	4557.85
2781.06932	4537.75
2783.6327	4533.15
2786.1945	4533.85
2788.75471	4528.75
2791.31335	4510.65
2793.87041	4502.45
2796.42589	4481.65
2798.97979	4493.15
2801.53212	4454.05
2804.08288	4459.15
2806.63206	4455.65
2809.17967	4448.45
2811.72571	4441.65
2814.27018	4435.05
2816.81308	4423.45
2819.35442	4426.45
2821.89419	4409.05
2824.43239	4425.55
2826.96904	4403.55
2829.50412	4410.95
2832.03763	4402.85
2834.56959	4396.45
2837.1	4399.95
2839.62884	4404.05
2842.15613	4386.25
2844.68186	4405.85
2847.20604	4386.55
2849.72867	4400.35
2852.24974	4403.75
2854.76927	4408.45
2857.28724	4396.05
2859.80367	4379.95
2862.31855	4374.35
2864.83189	4364.85
2867.34368	4370.55
2869.85393	4379.75
2872.36264	4371.15
2874.8698	4374.65
2877.37543	4376.25
2879.87952	4370.65
2882.38207	4359.65
2884.88308	4362.85
2887.38256	4373.65
2889.88051	4361.05
2892.37692	4351.25
2894.8718	4352.65
2897.36515	4351.05
2899.85698	4357.85
2902.34727	4368.55
2904.83604	4362.65
2907.32328	4362.35
2909.809	4346.15
2912.29319	4371.55
2914.77587	4351.55
2917.25702	4355.15
2919.73665	4338.95
2922.21476	4342.95
2924.69136	4342.75
2927.16644	4342.85
2929.64	4343.15
2932.11205	4325.85
2934.58258	4330.35
2937.05161	4321.85
2939.51912	4300.35
2941.98513	4309.95
2944.44962	4292.35
2946.91261	4273.95
2949.37409	4290.05
2951.83407	4272.75
2954.29254	4278.15
2956.74951	4267.65
2959.20498	4265.85
2961.65895	4272.05
2964.11142	4262.75
2966.56239	4252.35
2969.01186	4261.05
2971.45984	4251.35
2973.90632	4231.75
2976.35131	4215.05
2978.7948	4209.65
2981.23681	4208.45
2983.67732	4196.75
2986.11635	4182.25
2988.55388	4192.75
2990.98993	4183.95
2993.4245	4173.25
2995.85758	4161.45
2998.28917	4153.15
3000.71928	4162.35
3003.14791	4147.95
3005.57506	4142.35
3008.00073	4144.35
3010.42493	4151.45
3012.84764	4139.65
3015.26888	4129.35
3017.68865	4121.25
3020.10694	4122.35
3022.52376	4115.45
3024.9391	4127.95
3027.35298	4096.85
3029.76539	4091.35
3032.17632	4089.95
3034.5858	4071.75
3036.9938	4081.25
3039.40034	4068.35
3041.80542	4074.25
3044.20903	4064.05
3046.61118	4062.35
3049.01187	4059.15
3051.4111	4059.55
3053.80888	4044.85
3056.20519	4038.85
3058.60005	4046.15
3060.99345	4035.25
3063.3854	4037.25
3065.7759	4027.05
3068.16494	4025.05
3070.55254	4023.95
3072.93868	4017.95
3075.32338	4005.65
3077.70662	4008.15
3080.08842	4007.65
3082.46878	4000.25
3084.84769	4005.75
3087.22515	3999.55
3089.60118	4025.15
3091.97576	4002.75
3094.3489	4018.15
3096.72061	4023.15
3099.09087	4024.05
3101.4597	4007.55
3103.82709	4021.75
3106.19305	4008.45
3108.55757	4024.95
3110.92066	4003.65
3113.28232	4003.35
3115.64255	4001.15
3118.00134	3981.95
3120.35871	3994.65
3122.71466	3991.55
3125.06917	3982.05
3127.42226	3976.05
3129.77393	3992.95
3132.12417	4000.85
3134.47299	4021.45
3136.82039	4007.15
3139.16636	4018.15
3141.51092	4014.85
3143.85406	4023.65
3146.19579	4030.25
3148.53609	4038.75
3150.87499	4051.45
3153.21246	4052.15
3155.54853	4052.85
3157.88318	4052.55
3160.21642	4065.15
3162.54826	4074.95
3164.87868	4065.85
3167.2077	4083.35
3169.5353	4078.35
3171.86151	4073.05
3174.18631	4063.85
3176.5097	4067.05
3178.83169	4066.55
3181.15228	4073.55
3183.47147	4085.95
3185.78926	4078.85
3188.10565	4079.85
3190.42065	4087.65
3192.73424	4079.15
3195.04645	4098.35
3197.35725	4099.15
3199.66667	4094.35
3201.97469	4100.05
3204.28132	4104.85
3206.58656	4100.85
3208.8904	4100.55
3211.19287	4115.75
3213.49394	4127.65
3215.79363	4126.85
3218.09193	4136.05
3220.38884	4135.55
3222.68438	4127.95
3224.97853	4126.05
3227.2713	4116.55
3229.56269	4119.75
3231.8527	4130.95
3234.14133	4111.95
3236.42858	4109.55
3238.71446	4097.55
3240.99896	4097.95
3243.28209	4093.45
3245.56384	4083.45
3247.84423	4093.25
3250.12324	4100.35
3252.40088	4099.35
3254.67715	4086.65
3256.95205	4085.35
3259.22558	4079.75
3261.49775	4066.45
3263.76855	4073.75
3266.03799	4073.35
3268.30606	4067.55
3270.57277	4058.15
3272.83812	4047.45
3275.10211	4050.35
3277.36474	4056.15
3279.62601	4060.85
3281.88593	4025.05
3284.14448	4033.95
3286.40168	4022.55
3288.65753	4038.05
3290.91202	4019.35
3293.16516	4009.35
3295.41695	3990.55
3297.66738	3974.15
3299.91647	3943.55
3302.16421	3932.35
3304.4106	3934.05
3306.65564	3907.85
3308.89933	3871.75
3311.14169	3886.15
3313.38269	3847.05
3315.62236	3825.85
3317.86068	3796.05
3320.09766	3753.95
3322.3333	3725.45
3324.5676	3734.85
3326.80056	3667.75
3329.03219	3635.15
3331.26248	0.95
3333.49143	0.75
3335.71905	0.15
