Data from AgNPs_FTO_APTES_UA_2uM_R6G_10uM_NaF_0.1M_Addition_RamanShift__30__12-18-37-237.txt Node

Date: Fri Dec 17 12:18:37 GMT 2021
User: TCL
Spectrometer: QEP01345
Trigger mode: 4
Integration Time (sec): 7.000000E0
Scans to average: 10
Electric dark correction enabled: true
Nonlinearity correction enabled: false
Boxcar width: 0
XAxis mode: Raman Shifts
Number of Pixels in Spectrum: 1044
>>>>>Begin Spectral Data<<<<<
46.04893	0.65
50.45542	-0.65
54.85868	-1.65
59.25871	0.55
63.6555	66.45
68.04907	68.05
72.43941	77.05
76.82654	85.55
81.21044	86.45
85.59113	87.95
89.96862	93.95
94.34289	95.45
98.71396	101.05
103.08183	103.05
107.4465	102.75
111.80798	101.45
116.16626	104.55
120.52136	98.75
124.87327	109.35
129.222	110.45
133.56755	110.25
137.90993	114.05
142.24913	117.15
146.58517	125.75
150.91804	139.05
155.24774	151.75
159.57429	181.05
163.89768	222.85
168.21792	278.45
172.53501	361.95
176.84895	492.85
181.15975	665.95
185.46741	922.85
189.77193	1256.85
194.07331	1668.75
198.37157	2139.45
202.6667	2643.65
206.9587	3143.55
211.24758	3626.25
215.53334	4127.45
219.81599	4688.65
224.09553	5312.85
228.37195	6009.55
232.64527	6746.45
236.91549	7533.85
241.18261	8232.75
245.44663	8872.75
249.70755	9383.05
253.96539	9809.05
258.22014	10199.15
262.4718	10556.55
266.72039	10871.75
270.96589	11045.85
275.20832	11100.45
279.44768	10973.55
283.68397	10841.85
287.91719	10707.75
292.14735	10690.75
296.37445	10815.25
300.59849	11098.35
304.81948	11508.95
309.03742	11805.85
313.25231	11771.45
317.46415	11311.45
321.67296	10606.85
325.87872	10023.75
330.08145	9768.85
334.28114	9765.15
338.47781	9951.55
342.67145	10201.55
346.86207	10593.25
351.04966	11123.65
355.23424	11803.15
359.4158	12293.05
363.59435	12586.65
367.76989	12698.55
371.94243	12728.85
376.11196	12691.25
380.27849	12680.85
384.44203	12607.65
388.60257	12473.45
392.76012	12438.85
396.91468	12594.15
401.06626	12919.85
405.21485	13151.75
409.36047	13020.85
413.50311	12523.25
417.64277	12047.95
421.77947	11773.25
425.9132	11696.55
430.04396	11701.05
434.17176	11761.95
438.2966	11977.55
442.41849	12206.45
446.53742	12549.75
450.6534	12895.95
454.76644	13153.35
458.87653	13236.65
462.98368	13147.75
467.08789	12974.25
471.18916	12691.65
475.2875	12391.75
479.38291	12146.75
483.4754	11963.85
487.56496	11825.25
491.6516	11762.65
495.73531	11698.65
499.81612	11712.45
503.89401	11778.95
507.96899	11932.25
512.04106	12085.25
516.11023	12246.75
520.1765	12382.65
524.23987	12353.15
528.30034	12164.65
532.35792	11938.75
536.41261	11726.95
540.46441	11503.85
544.51333	11404.65
548.55936	11488.85
552.60252	11688.65
556.64279	11882.45
560.6802	11991.85
564.71473	12110.45
568.7464	12500.45
572.7752	12768.05
576.80114	12587.45
580.82422	12356.25
584.84444	12304.45
588.86181	12268.45
592.87633	12330.35
596.888	12478.25
600.89682	12909.15
604.9028	14151.25
608.90594	17191.95
612.90624	21013.65
616.90371	20318.35
620.89834	15237.45
624.89015	12748.65
628.87913	12288.75
632.86528	12289.15
636.84862	12393.15
640.82913	12298.05
644.80683	11934.55
648.78172	11694.55
652.75379	11749.55
656.72306	12194.85
660.68952	12660.65
664.65319	12585.25
668.61405	12092.85
672.57211	11853.95
676.52738	11839.65
680.47986	11826.85
684.42955	11810.35
688.37646	11811.65
692.32058	11870.85
696.26192	11963.05
700.20048	12128.85
704.13626	12211.65
708.06928	12212.75
711.99952	12102.75
715.927	12043.35
719.85171	12045.25
723.77365	12004.75
727.69284	11949.15
731.60928	11866.45
735.52295	11881.45
739.43388	11925.65
743.34206	12019.15
747.24749	12084.35
751.15017	12207.25
755.05012	12391.75
758.94733	12887.95
762.8418	13855.05
766.73354	15456.25
770.62254	17217.75
774.50882	18195.25
778.39237	17593.75
782.27321	15723.35
786.15132	13911.15
790.02671	12859.75
793.89938	12406.95
797.76935	12236.45
801.6366	12149.85
805.50115	12094.35
809.36299	12037.75
813.22213	12026.35
817.07857	12013.85
820.93231	12027.75
824.78336	12063.45
828.63172	12100.45
832.47738	12111.05
836.32036	12099.25
840.16066	12102.05
843.99827	12075.25
847.8332	12051.35
851.66546	12028.95
855.49504	12048.05
859.32195	12016.75
863.1462	12009.75
866.96777	11964.65
870.78668	11964.05
874.60293	12009.45
878.41652	12036.55
882.22745	12088.65
886.03573	12143.55
889.84136	12106.05
893.64433	12075.35
897.44466	12077.55
901.24235	12048.65
905.0374	12031.75
908.8298	12011.15
912.61957	12023.05
916.40671	12086.95
920.19121	12168.65
923.97308	12256.35
927.75233	12383.75
931.52895	12431.45
935.30295	12337.65
939.07433	12111.85
942.84309	11941.15
946.60924	11810.15
950.37278	11735.95
954.13371	11675.45
957.89203	11628.45
961.64774	11629.05
965.40086	11589.45
969.15137	11542.35
972.89929	11528.55
976.64461	11499.55
980.38733	11543.85
984.12747	11567.95
987.86502	11619.95
991.59999	11701.65
995.33237	11809.95
999.06217	12056.35
1002.78939	12352.65
1006.51404	12648.15
1010.23611	12929.35
1013.95561	13096.45
1017.67255	13066.65
1021.38692	12896.55
1025.09872	12725.95
1028.80796	12680.85
1032.51465	12774.75
1036.21877	12955.25
1039.92035	13080.05
1043.61937	13046.65
1047.31584	12933.55
1051.00976	12741.05
1054.70114	12653.55
1058.38998	12605.85
1062.07627	12642.95
1065.76003	12739.55
1069.44126	12791.95
1073.11995	12913.35
1076.79611	13003.85
1080.46974	13125.75
1084.14085	13329.05
1087.80943	13579.75
1091.47549	13660.75
1095.13903	13484.25
1098.80005	13124.65
1102.45857	12835.45
1106.11456	12732.75
1109.76805	12771.25
1113.41903	12935.15
1117.06751	13185.65
1120.71348	13568.35
1124.35696	13921.85
1127.99793	14289.55
1131.63641	14260.15
1135.2724	13868.15
1138.90589	13451.15
1142.5369	13171.35
1146.16542	13012.55
1149.79145	12895.55
1153.415	12899.35
1157.03607	13009.55
1160.65467	13215.95
1164.27079	13551.35
1167.88443	14018.55
1171.49561	14818.35
1175.10432	16086.45
1178.71056	17885.95
1182.31434	19357.75
1185.91565	19916.25
1189.51451	19651.85
1193.11091	18723.55
1196.70485	17463.45
1200.29634	16497.45
1203.88538	15814.05
1207.47197	15098.55
1211.05612	14550.85
1214.63782	14237.85
1218.21708	14182.85
1221.79391	14211.15
1225.36829	14335.65
1228.94024	14635.15
1232.50976	14677.55
1236.07685	14809.75
1239.6415	14932.25
1243.20374	14861.75
1246.76355	14903.85
1250.32093	15062.35
1253.8759	15291.55
1257.42845	15644.35
1260.97859	15974.55
1264.52631	16269.65
1268.07163	16610.95
1271.61453	16913.15
1275.15503	17173.05
1278.69312	17348.45
1282.22882	17484.05
1285.76211	17787.35
1289.29301	18174.45
1292.82151	18592.45
1296.34761	18949.75
1299.87133	19458.65
1303.39266	20467.75
1306.9116	22098.05
1310.42815	23970.85
1313.94233	25223.55
1317.45412	25049.35
1320.96354	23972.65
1324.47058	22671.75
1327.97525	21546.75
1331.47754	20897.45
1334.97747	20820.75
1338.47502	21081.05
1341.97022	21486.25
1345.46305	21918.25
1348.95352	22559.55
1352.44163	23516.05
1355.92738	24998.45
1359.41078	27457.85
1362.89183	29920.95
1366.37053	29338.55
1369.84688	25832.35
1373.32088	22185.95
1376.79254	19834.65
1380.26186	18580.45
1383.72883	17955.65
1387.19347	17471.05
1390.65578	16938.85
1394.11575	16526.15
1397.57339	16343.65
1401.0287	16437.05
1404.48168	16773.55
1407.93234	17267.35
1411.38068	17675.25
1414.82669	17827.35
1418.27039	17640.95
1421.71177	17302.85
1425.15083	16966.15
1428.58758	16787.75
1432.02203	16779.65
1435.45416	16858.95
1438.88399	16917.45
1442.31151	16919.55
1445.73673	16961.65
1449.15965	17055.35
1452.58027	17008.05
1455.9986	16807.85
1459.41463	16720.45
1462.82837	16764.65
1466.23982	17005.35
1469.64898	17256.45
1473.05586	17510.55
1476.46045	17701.35
1479.86276	17966.55
1483.26279	18330.35
1486.66054	18768.35
1490.05602	19313.15
1493.44922	20030.55
1496.84016	20904.25
1500.22882	22183.35
1503.61521	23784.65
1506.99934	25604.25
1510.38121	27398.75
1513.76081	28132.75
1517.13816	27117.75
1520.51324	24672.45
1523.88607	22159.85
1527.25665	20358.05
1530.62498	19318.25
1533.99105	18688.35
1537.35488	18286.25
1540.71647	18045.05
1544.07581	17955.35
1547.4329	17884.25
1550.78776	17836.15
1554.14038	17760.95
1557.49077	17807.95
1560.83892	17940.15
1564.18484	18203.85
1567.52853	18435.05
1570.86999	18686.85
1574.20922	18867.35
1577.54624	18850.55
1580.88103	18314.35
1584.2136	17582.45
1587.54395	17304.45
1590.87208	17688.55
1594.19801	18582.55
1597.52172	19690.45
1600.84321	20209.15
1604.16251	19753.75
1607.47959	18686.25
1610.79447	17482.35
1614.10715	16315.25
1617.41763	15402.75
1620.7259	14875.75
1624.03199	14625.65
1627.33587	14638.55
1630.63757	14945.35
1633.93707	15544.25
1637.23439	16372.45
1640.52951	17411.35
1643.82246	18611.45
1647.11321	19813.05
1650.40179	20667.55
1653.68819	20156.75
1656.97241	18178.25
1660.25446	15947.45
1663.53433	14353.65
1666.81203	13377.85
1670.08756	12820.05
1673.36092	12471.15
1676.63211	12232.35
1679.90115	12063.75
1683.16801	11931.85
1686.43272	11867.35
1689.69527	11793.75
1692.95567	11734.45
1696.2139	11704.25
1699.46999	11671.85
1702.72392	11674.05
1705.97571	11650.95
1709.22535	11674.05
1712.47284	11678.15
1715.71819	11671.75
1718.96139	11681.75
1722.20246	11664.45
1725.44139	11626.75
1728.67818	11526.95
1731.91284	11470.75
1735.14537	11428.65
1738.37576	11346.15
1741.60403	11294.95
1744.83017	11265.65
1748.05418	11262.85
1751.27607	11234.05
1754.49584	11222.75
1757.71349	11215.35
1760.92903	11177.45
1764.14244	11190.35
1767.35375	11202.05
1770.56294	11189.25
1773.77002	11165.25
1776.97499	11143.95
1780.17785	11134.05
1783.37861	11104.65
1786.57727	11093.55
1789.77382	11067.25
1792.96828	11074.75
1796.16064	11076.15
1799.3509	11055.05
1802.53907	11030.95
1805.72514	11038.35
1808.90913	11005.05
1812.09102	10977.55
1815.27083	10945.95
1818.44856	10923.75
1821.6242	10907.25
1824.79776	10911.65
1827.96924	10912.85
1831.13864	10905.05
1834.30597	10881.05
1837.47122	10875.55
1840.6344	10888.45
1843.7955	10883.55
1846.95454	10891.35
1850.11151	10877.45
1853.26642	10893.85
1856.41926	10890.25
1859.57004	10894.15
1862.71876	10907.95
1865.86542	10881.65
1869.01003	10906.45
1872.15258	10888.85
1875.29308	10906.85
1878.43152	10902.25
1881.56792	10940.35
1884.70227	10916.45
1887.83457	10937.25
1890.96482	10932.65
1894.09304	10919.25
1897.21921	10943.45
1900.34335	10922.05
1903.46544	10936.05
1906.58551	10929.65
1909.70353	10913.85
1912.81953	10905.55
1915.93349	10888.45
1919.04543	10880.45
1922.15534	10870.85
1925.26322	10839.65
1928.36908	10816.35
1931.47292	10820.95
1934.57473	10747.35
1937.67453	10691.15
1940.77232	10648.65
1943.86808	10610.45
1946.96184	10581.05
1950.05358	10543.35
1953.14331	10503.25
1956.23103	10493.75
1959.31675	10430.95
1962.40046	10380.85
1965.48217	10385.25
1968.56188	10313.65
1971.63959	10308.85
1974.7153	10270.25
1977.78901	10242.05
1980.86073	10201.75
1983.93046	10188.15
1986.99819	10123.55
1990.06394	10114.05
1993.1277	10064.25
1996.18947	10035.25
1999.24925	10022.45
2002.30706	10004.55
2005.36288	9965.75
2008.41672	9929.55
2011.46859	9908.75
2014.51848	9852.85
2017.56639	9854.95
2020.61233	9826.75
2023.6563	9804.35
2026.6983	9774.35
2029.73833	9749.65
2032.7764	9719.35
2035.8125	9708.05
2038.84664	9678.45
2041.87881	9694.95
2044.90903	9658.95
2047.93729	9639.85
2050.96359	9638.45
2053.98794	9628.05
2057.01034	9604.05
2060.03078	9578.05
2063.04927	9598.75
2066.06582	9588.35
2069.08042	9574.75
2072.09307	9570.75
2075.10378	9522.05
2078.11255	9541.45
2081.11938	9524.25
2084.12426	9515.25
2087.12722	9504.55
2090.12824	9509.65
2093.12732	9509.35
2096.12447	9525.55
2099.11969	9522.25
2102.11299	9490.15
2105.10435	9534.45
2108.09379	9515.55
2111.08131	9530.35
2114.0669	9529.45
2117.05057	9530.35
2120.03233	9536.55
2123.01216	9530.65
2125.99008	9543.35
2128.96609	9559.35
2131.94018	9559.05
2134.91236	9554.85
2137.88263	9554.55
2140.851	9556.55
2143.81746	9583.05
2146.78201	9567.95
2149.74466	9545.15
2152.7054	9559.55
2155.66425	9542.55
2158.6212	9561.55
2161.57625	9543.75
2164.52941	9542.65
2167.48067	9540.05
2170.43004	9532.65
2173.37752	9552.75
2176.32311	9540.75
2179.26681	9533.55
2182.20863	9533.05
2185.14856	9515.95
2188.08661	9547.15
2191.02278	9528.55
2193.95707	9518.45
2196.88948	9496.65
2199.82001	9532.85
2202.74867	9497.35
2205.67545	9483.95
2208.60037	9490.65
2211.52341	9465.55
2214.44458	9446.15
2217.36388	9437.85
2220.28132	9405.25
2223.1969	9388.75
2226.11061	9385.55
2229.02246	9356.25
2231.93245	9314.85
2234.84058	9321.85
2237.74686	9301.15
2240.65128	9306.05
2243.55385	9278.95
2246.45456	9238.85
2249.35343	9272.65
2252.25044	9240.05
2255.14561	9232.85
2258.03893	9218.05
2260.93041	9199.65
2263.82004	9177.25
2266.70783	9158.45
2269.59378	9156.45
2272.4779	9124.15
2275.36017	9106.05
2278.24061	9070.25
2281.11922	9064.35
2283.996	9048.35
2286.87094	9023.75
2289.74405	8999.75
2292.61534	9014.25
2295.4848	8964.25
2298.35243	8993.75
2301.21824	8945.25
2304.08223	8973.35
2306.94439	8976.65
2309.80474	8941.45
2312.66327	8962.05
2315.51999	8945.35
2318.37489	8948.25
2321.22797	8953.75
2324.07925	8907.95
2326.92871	8915.25
2329.77637	8896.55
2332.62222	8884.15
2335.46626	8858.45
2338.3085	8857.35
2341.14893	8851.25
2343.98756	8868.15
2346.8244	8843.05
2349.65943	8851.85
2352.49267	8828.15
2355.32411	8842.85
2358.15376	8850.05
2360.98161	8856.25
2363.80768	8828.95
2366.63195	8828.85
2369.45444	8811.95
2372.27514	8816.05
2375.09405	8799.45
2377.91118	8764.65
2380.72652	8738.35
2383.54009	8724.05
2386.35187	8675.55
2389.16188	8670.45
2391.97011	8639.75
2394.77657	8618.55
2397.58125	8583.55
2400.38416	8600.85
2403.18529	8583.55
2405.98466	8551.75
2408.78226	8521.15
2411.57809	8523.65
2414.37216	8522.05
2417.16446	8489.15
2419.955	8476.65
2422.74378	8473.25
2425.5308	8472.95
2428.31606	8449.05
2431.09956	8460.25
2433.88131	8429.15
2436.6613	8433.05
2439.43954	8439.55
2442.21603	8431.05
2444.99077	8411.65
2447.76377	8426.65
2450.53501	8390.15
2453.30451	8408.25
2456.07226	8396.05
2458.83827	8391.45
2461.60254	8394.05
2464.36507	8375.35
2467.12586	8371.55
2469.88492	8350.75
2472.64224	8373.85
2475.39782	8343.95
2478.15167	8348.25
2480.90379	8362.55
2483.65417	8366.85
2486.40283	8347.15
2489.14976	8375.35
2491.89497	8370.05
2494.63845	8372.15
2497.3802	8376.85
2500.12024	8368.55
2502.85855	8368.15
2505.59514	8334.55
2508.33002	8328.35
2511.06318	8296.95
2513.79462	8279.85
2516.52435	8269.85
2519.25237	8248.95
2521.97867	8218.75
2524.70327	8223.45
2527.42616	8199.75
2530.14734	8177.65
2532.86681	8173.35
2535.58458	8152.05
2538.30065	8168.85
2541.01501	8123.35
2543.72768	8143.05
2546.43864	8127.95
2549.14791	8128.35
2551.85548	8107.95
2554.56136	8079.35
2557.26554	8083.25
2559.96803	8079.85
2562.66883	8061.75
2565.36794	8044.35
2568.06536	8063.05
2570.7611	8045.35
2573.45514	8000.25
2576.14751	8010.25
2578.83819	7989.95
2581.52719	7974.55
2584.21451	7979.95
2586.90015	7978.55
2589.58411	7957.15
2592.2664	7942.45
2594.94701	7944.95
2597.62594	7919.55
2600.30321	7909.95
2602.9788	7917.85
2605.65273	7895.95
2608.32498	7898.05
2610.99557	7892.35
2613.66449	7884.85
2616.33175	7893.45
2618.99734	7872.65
2621.66128	7861.75
2624.32355	7836.65
2626.98416	7851.25
2629.64311	7851.45
2632.30041	7842.45
2634.95605	7832.15
2637.61004	7804.35
2640.26238	7815.15
2642.91306	7767.65
2645.56209	7776.25
2648.20948	7770.05
2650.85521	7761.05
2653.4993	7759.85
2656.14175	7732.85
2658.78255	7775.15
2661.42171	7751.85
2664.05923	7764.95
2666.6951	7762.85
2669.32934	7781.75
2671.96194	7792.85
2674.59291	7785.65
2677.22224	7787.85
2679.84993	7793.15
2682.476	7778.35
2685.10043	7799.25
2687.72324	7785.25
2690.34441	7794.95
2692.96396	7777.65
2695.58188	7780.95
2698.19818	7769.25
2700.81285	7779.45
2703.4259	7768.95
2706.03733	7766.75
2708.64714	7778.75
2711.25533	7751.95
2713.86191	7755.55
2716.46687	7788.35
2719.07021	7790.05
2721.67194	7781.65
2724.27206	7778.55
2726.87057	7789.55
2729.46747	7773.15
2732.06276	7768.65
2734.65644	7774.05
2737.24852	7779.35
2739.83899	7762.85
2742.42786	7766.05
2745.01513	7729.25
2747.60079	7769.95
2750.18486	7747.85
2752.76733	7752.85
2755.3482	7722.65
2757.92747	7739.75
2760.50515	7711.75
2763.08123	7695.75
2765.65573	7701.55
2768.22863	7679.45
2770.79994	7678.15
2773.36967	7677.15
2775.9378	7662.15
2778.50435	7660.25
2781.06932	7650.75
2783.6327	7637.95
2786.1945	7645.55
2788.75471	7642.15
2791.31335	7628.95
2793.87041	7626.55
2796.42589	7594.25
2798.97979	7614.15
2801.53212	7586.95
2804.08288	7590.65
2806.63206	7588.45
2809.17967	7588.45
2811.72571	7573.35
2814.27018	7600.95
2816.81308	7604.85
2819.35442	7582.35
2821.89419	7589.25
2824.43239	7600.45
2826.96904	7578.35
2829.50412	7593.25
2832.03763	7579.25
2834.56959	7598.75
2837.1	7587.35
2839.62884	7586.95
2842.15613	7593.85
2844.68186	7655.85
2847.20604	7672.05
2849.72867	7728.35
2852.24974	7729.85
2854.76927	7716.85
2857.28724	7694.85
2859.80367	7676.95
2862.31855	7664.15
2864.83189	7659.35
2867.34368	7635.35
2869.85393	7617.55
2872.36264	7623.05
2874.8698	7609.85
2877.37543	7608.25
2879.87952	7601.25
2882.38207	7608.05
2884.88308	7601.65
2887.38256	7594.35
2889.88051	7586.45
2892.37692	7584.15
2894.8718	7576.05
2897.36515	7592.85
2899.85698	7585.25
2902.34727	7609.75
2904.83604	7610.85
2907.32328	7618.65
2909.809	7587.35
2912.29319	7591.35
2914.77587	7594.55
2917.25702	7577.45
2919.73665	7542.95
2922.21476	7530.65
2924.69136	7529.35
2927.16644	7541.25
2929.64	7509.45
2932.11205	7497.75
2934.58258	7453.75
2937.05161	7460.25
2939.51912	7453.95
2941.98513	7407.35
2944.44962	7380.65
2946.91261	7321.75
2949.37409	7298.25
2951.83407	7288.95
2954.29254	7269.75
2956.74951	7254.55
2959.20498	7203.95
2961.65895	7201.75
2964.11142	7206.35
2966.56239	7167.55
2969.01186	7161.55
2971.45984	7131.95
2973.90632	7135.15
2976.35131	7087.85
2978.7948	7057.25
2981.23681	7047.05
2983.67732	7032.35
2986.11635	6990.95
2988.55388	6986.55
2990.98993	6959.35
2993.4245	6950.85
2995.85758	6939.95
2998.28917	6920.95
3000.71928	6887.95
3003.14791	6883.95
3005.57506	6889.25
3008.00073	6839.85
3010.42493	6830.55
3012.84764	6824.55
3015.26888	6841.05
3017.68865	6798.65
3020.10694	6798.55
3022.52376	6782.85
3024.9391	6763.55
3027.35298	6755.05
3029.76539	6744.85
3032.17632	6732.95
3034.5858	6709.15
3036.9938	6700.45
3039.40034	6681.85
3041.80542	6688.35
3044.20903	6665.75
3046.61118	6659.25
3049.01187	6639.65
3051.4111	6645.05
3053.80888	6618.85
3056.20519	6592.85
3058.60005	6589.75
3060.99345	6589.75
3063.3854	6578.85
3065.7759	6547.95
3068.16494	6524.85
3070.55254	6502.25
3072.93868	6490.45
3075.32338	6472.75
3077.70662	6451.75
3080.08842	6440.45
3082.46878	6430.75
3084.84769	6426.75
3087.22515	6405.25
3089.60118	6412.45
3091.97576	6398.35
3094.3489	6384.25
3096.72061	6383.35
3099.09087	6367.45
3101.4597	6380.35
3103.82709	6358.45
3106.19305	6356.85
3108.55757	6331.55
3110.92066	6301.45
3113.28232	6315.55
3115.64255	6289.75
3118.00134	6283.55
3120.35871	6269.65
3122.71466	6258.55
3125.06917	6239.95
3127.42226	6232.55
3129.77393	6221.25
3132.12417	6221.25
3134.47299	6220.95
3136.82039	6229.95
3139.16636	6227.55
3141.51092	6212.65
3143.85406	6227.15
3146.19579	6238.75
3148.53609	6222.35
3150.87499	6243.55
3153.21246	6231.95
3155.54853	6235.05
3157.88318	6229.85
3160.21642	6227.85
3162.54826	6226.75
3164.87868	6218.25
3167.2077	6224.75
3169.5353	6213.85
3171.86151	6209.95
3174.18631	6206.45
3176.5097	6198.35
3178.83169	6183.25
3181.15228	6197.85
3183.47147	6167.05
3185.78926	6194.55
3188.10565	6192.35
3190.42065	6184.95
3192.73424	6173.15
3195.04645	6184.45
3197.35725	6183.75
3199.66667	6181.95
3201.97469	6175.45
3204.28132	6186.75
3206.58656	6203.05
3208.8904	6192.95
3211.19287	6197.35
3213.49394	6176.65
3215.79363	6191.45
3218.09193	6176.35
3220.38884	6170.15
3222.68438	6167.85
3224.97853	6158.95
3227.2713	6160.55
3229.56269	6131.65
3231.8527	6153.95
3234.14133	6127.15
3236.42858	6098.95
3238.71446	6103.85
3240.99896	6108.95
3243.28209	6079.95
3245.56384	6084.75
3247.84423	6088.55
3250.12324	6086.05
3252.40088	6063.95
3254.67715	6076.35
3256.95205	6068.25
3259.22558	6054.35
3261.49775	6028.55
3263.76855	6028.35
3266.03799	6006.45
3268.30606	5998.55
3270.57277	6005.55
3272.83812	5963.85
3275.10211	5970.15
3277.36474	5949.95
3279.62601	5971.45
3281.88593	5944.55
3284.14448	5958.75
3286.40168	5933.75
3288.65753	5947.05
3290.91202	5932.85
3293.16516	5899.05
3295.41695	5878.85
3297.66738	5858.05
3299.91647	5818.75
3302.16421	5770.15
3304.4106	5769.15
3306.65564	5734.85
3308.89933	5703.15
3311.14169	5663.45
3313.38269	5606.55
3315.62236	5583.55
3317.86068	5534.15
3320.09766	5478.05
3322.3333	5425.55
3324.5676	5416.25
3326.80056	5333.45
3329.03219	5314.85
3331.26248	1.95
3333.49143	0.65
3335.71905	-1.65
