Data from AgNPs_FTO_APTES_UA_20uM_R6G_10uM_NaF_0.1M_Addition_RamanShift__18__14-16-27-372.txt Node

Date: Fri Dec 17 14:16:27 GMT 2021
User: TCL
Spectrometer: QEP01345
Trigger mode: 4
Integration Time (sec): 7.000000E0
Scans to average: 10
Electric dark correction enabled: true
Nonlinearity correction enabled: false
Boxcar width: 0
XAxis mode: Raman Shifts
Number of Pixels in Spectrum: 1044
>>>>>Begin Spectral Data<<<<<
46.04893	-0.65
50.45542	0.05
54.85868	-1.45
59.25871	-0.45
63.6555	70.75
68.04907	74.05
72.43941	80.05
76.82654	83.45
81.21044	83.25
85.59113	87.55
89.96862	93.45
94.34289	94.65
98.71396	93.65
103.08183	98.05
107.4465	102.75
111.80798	104.25
116.16626	108.95
120.52136	112.15
124.87327	118.05
129.222	123.65
133.56755	130.75
137.90993	141.45
142.24913	150.25
146.58517	170.55
150.91804	197.75
155.24774	232.15
159.57429	294.15
163.89768	370.05
168.21792	486.75
172.53501	663.85
176.84895	919.95
181.15975	1283.55
185.46741	1807.05
189.77193	2492.35
194.07331	3329.75
198.37157	4302.75
202.6667	5316.95
206.9587	6319.35
211.24758	7279.05
215.53334	8255.45
219.81599	9324.55
224.09553	10457.65
228.37195	11727.85
232.64527	13151.85
236.91549	14636.65
241.18261	16185.95
245.44663	17624.25
249.70755	18846.45
253.96539	19972.65
258.22014	20872.35
262.4718	21616.45
266.72039	22188.95
270.96589	22469.25
275.20832	22490.75
279.44768	22302.15
283.68397	22009.85
287.91719	21775.25
292.14735	21605.95
296.37445	21634.65
300.59849	21674.35
304.81948	21803.25
309.03742	21785.75
313.25231	21589.25
317.46415	21118.85
321.67296	20575.95
325.87872	20084.15
330.08145	19886.75
334.28114	19927.65
338.47781	20080.45
342.67145	20336.65
346.86207	20695.95
351.04966	21171.85
355.23424	21644.95
359.4158	22051.45
363.59435	22447.65
367.76989	22691.55
371.94243	22895.85
376.11196	22983.15
380.27849	23120.45
384.44203	23234.25
388.60257	23363.65
392.76012	23430.85
396.91468	23711.05
401.06626	23968.65
405.21485	24215.05
409.36047	24149.65
413.50311	23737.05
417.64277	23385.95
421.77947	23190.95
425.9132	23195.15
430.04396	23250.65
434.17176	23308.95
438.2966	23490.65
442.41849	23804.75
446.53742	24247.45
450.6534	24757.95
454.76644	25176.95
458.87653	25381.55
462.98368	25308.95
467.08789	25116.45
471.18916	24894.35
475.2875	24553.15
479.38291	24308.75
483.4754	24078.65
487.56496	23839.75
491.6516	23649.35
495.73531	23482.05
499.81612	23517.15
503.89401	23660.65
507.96899	23806.15
512.04106	23853.55
516.11023	23877.15
520.1765	23902.95
524.23987	23788.85
528.30034	23631.75
532.35792	23460.55
536.41261	23275.35
540.46441	23037.25
544.51333	22935.95
548.55936	23086.15
552.60252	23381.15
556.64279	23743.85
560.6802	23918.55
564.71473	23994.25
568.7464	24179.35
572.7752	24451.85
576.80114	24662.55
580.82422	24850.15
584.84444	25106.35
588.86181	25293.75
592.87633	25433.95
596.888	25553.25
600.89682	25775.65
604.9028	26875.25
608.90594	29574.15
612.90624	32425.05
616.90371	30995.95
620.89834	26284.25
624.89015	24133.25
628.87913	23815.25
632.86528	23830.75
636.84862	23862.45
640.82913	23625.55
644.80683	23130.55
648.78172	22752.05
652.75379	22645.25
656.72306	22883.75
660.68952	23273.95
664.65319	23146.45
668.61405	22806.25
672.57211	22678.85
676.52738	22682.05
680.47986	22751.45
684.42955	22649.75
688.37646	22608.75
692.32058	22681.75
696.26192	22797.95
700.20048	22986.65
704.13626	23088.45
708.06928	22995.45
711.99952	22876.45
715.927	22799.95
719.85171	22813.05
723.77365	22793.05
727.69284	22654.05
731.60928	22490.55
735.52295	22414.75
739.43388	22389.05
743.34206	22509.85
747.24749	22553.85
751.15017	22626.45
755.05012	22834.95
758.94733	23319.75
762.8418	24325.75
766.73354	26047.15
770.62254	27828.95
774.50882	28688.25
778.39237	27761.05
782.27321	25838.45
786.15132	24142.15
790.02671	23131.35
793.89938	22652.85
797.76935	22445.05
801.6366	22364.75
805.50115	22311.65
809.36299	22219.15
813.22213	22073.35
817.07857	21945.45
820.93231	21856.15
824.78336	21825.55
828.63172	21788.35
832.47738	21801.15
836.32036	21843.25
840.16066	21865.25
843.99827	21866.15
847.8332	21872.75
851.66546	21799.85
855.49504	21784.05
859.32195	21778.45
863.1462	21749.75
866.96777	21696.85
870.78668	21656.25
874.60293	21704.55
878.41652	21684.15
882.22745	21749.45
886.03573	21832.65
889.84136	21838.55
893.64433	21774.25
897.44466	21657.05
901.24235	21537.55
905.0374	21488.15
908.8298	21407.45
912.61957	21389.15
916.40671	21480.25
920.19121	21701.45
923.97308	21852.05
927.75233	21961.25
931.52895	21944.75
935.30295	21791.35
939.07433	21484.65
942.84309	21198.35
946.60924	21069.15
950.37278	20994.15
954.13371	20912.35
957.89203	20797.15
961.64774	20762.15
965.40086	20708.45
969.15137	20602.45
972.89929	20589.05
976.64461	20533.55
980.38733	20613.65
984.12747	20620.45
987.86502	20787.35
991.59999	20984.15
995.33237	21245.05
999.06217	21797.35
1002.78939	22287.35
1006.51404	22582.65
1010.23611	22806.55
1013.95561	22901.85
1017.67255	22957.05
1021.38692	22751.55
1025.09872	22610.75
1028.80796	22694.45
1032.51465	23146.65
1036.21877	23596.15
1039.92035	23652.05
1043.61937	23422.85
1047.31584	22979.75
1051.00976	22571.25
1054.70114	22361.75
1058.38998	22341.65
1062.07627	22413.65
1065.76003	22538.15
1069.44126	22679.05
1073.11995	22898.95
1076.79611	23176.25
1080.46974	23334.55
1084.14085	23476.95
1087.80943	23610.95
1091.47549	23684.75
1095.13903	23577.95
1098.80005	23344.55
1102.45857	22943.75
1106.11456	22719.95
1109.76805	22636.35
1113.41903	22748.95
1117.06751	22887.65
1120.71348	23153.75
1124.35696	23400.05
1127.99793	23671.15
1131.63641	23897.15
1135.2724	23724.45
1138.90589	23461.15
1142.5369	23258.35
1146.16542	23057.35
1149.79145	22993.75
1153.415	23005.55
1157.03607	23156.25
1160.65467	23540.65
1164.27079	24223.55
1167.88443	25175.55
1171.49561	26411.05
1175.10432	28102.25
1178.71056	30261.05
1182.31434	32341.95
1185.91565	33496.85
1189.51451	33569.15
1193.11091	32607.45
1196.70485	31178.35
1200.29634	29815.55
1203.88538	28747.85
1207.47197	27839.75
1211.05612	27122.15
1214.63782	26612.25
1218.21708	26320.75
1221.79391	26252.85
1225.36829	26231.35
1228.94024	26106.85
1232.50976	25817.45
1236.07685	25571.75
1239.6415	25476.15
1243.20374	25426.65
1246.76355	25575.55
1250.32093	25938.85
1253.8759	26377.55
1257.42845	26990.15
1260.97859	27627.75
1264.52631	28218.35
1268.07163	28926.65
1271.61453	29684.15
1275.15503	30422.05
1278.69312	31136.75
1282.22882	31589.15
1285.76211	31988.95
1289.29301	32368.85
1292.82151	32972.65
1296.34761	33826.05
1299.87133	35120.15
1303.39266	36873.45
1306.9116	39076.95
1310.42815	41276.35
1313.94233	42669.25
1317.45412	42597.65
1320.96354	41657.95
1324.47058	40541.15
1327.97525	39522.05
1331.47754	38736.65
1334.97747	38342.35
1338.47502	38373.15
1341.97022	38517.25
1345.46305	38659.35
1348.95352	38761.95
1352.44163	39074.05
1355.92738	40005.25
1359.41078	41862.45
1362.89183	43678.25
1366.37053	43066.25
1369.84688	39455.35
1373.32088	35313.25
1376.79254	32396.75
1380.26186	30973.65
1383.72883	30469.05
1387.19347	30067.55
1390.65578	29596.65
1394.11575	29254.15
1397.57339	29231.55
1401.0287	29475.55
1404.48168	29784.05
1407.93234	30034.75
1411.38068	29961.15
1414.82669	29596.05
1418.27039	28966.45
1421.71177	28245.35
1425.15083	27654.25
1428.58758	27308.55
1432.02203	27362.75
1435.45416	27685.95
1438.88399	28188.75
1442.31151	28583.55
1445.73673	28909.65
1449.15965	29140.25
1452.58027	29294.55
1455.9986	29425.75
1459.41463	29642.15
1462.82837	30142.15
1466.23982	30674.85
1469.64898	31211.45
1473.05586	31548.65
1476.46045	31696.95
1479.86276	31535.85
1483.26279	31367.25
1486.66054	31274.25
1490.05602	31414.95
1493.44922	31734.75
1496.84016	32231.15
1500.22882	33082.05
1503.61521	34577.65
1506.99934	36326.75
1510.38121	37813.95
1513.76081	38184.15
1517.13816	36983.05
1520.51324	34969.05
1523.88607	33028.15
1527.25665	31698.75
1530.62498	31017.75
1533.99105	30740.85
1537.35488	30457.25
1540.71647	30218.25
1544.07581	29933.85
1547.4329	29701.85
1550.78776	29505.85
1554.14038	29323.15
1557.49077	29277.95
1560.83892	29251.65
1564.18484	29328.75
1567.52853	29439.35
1570.86999	29684.55
1574.20922	29940.45
1577.54624	30111.65
1580.88103	29900.25
1584.2136	29502.85
1587.54395	29524.15
1590.87208	30298.55
1594.19801	31655.95
1597.52172	33348.15
1600.84321	34150.05
1604.16251	33265.85
1607.47959	31528.25
1610.79447	29536.05
1614.10715	27679.55
1617.41763	25995.55
1620.7259	24804.85
1624.03199	24182.55
1627.33587	24011.35
1630.63757	24414.85
1633.93707	25480.35
1637.23439	27124.85
1640.52951	29406.25
1643.82246	32021.15
1647.11321	34077.45
1650.40179	34677.65
1653.68819	33113.05
1656.97241	29885.65
1660.25446	26490.05
1663.53433	23959.45
1666.81203	22348.25
1670.08756	21291.15
1673.36092	20614.25
1676.63211	20179.85
1679.90115	19815.35
1683.16801	19570.35
1686.43272	19367.05
1689.69527	19260.95
1692.95567	19120.15
1696.2139	19054.15
1699.46999	19017.55
1702.72392	18961.85
1705.97571	18858.15
1709.22535	18846.75
1712.47284	18836.15
1715.71819	18795.25
1718.96139	18730.75
1722.20246	18702.15
1725.44139	18579.65
1728.67818	18502.75
1731.91284	18432.85
1735.14537	18392.95
1738.37576	18261.95
1741.60403	18202.05
1744.83017	18148.55
1748.05418	18111.85
1751.27607	18075.75
1754.49584	18029.95
1757.71349	18051.85
1760.92903	18016.15
1764.14244	18008.55
1767.35375	18009.85
1770.56294	17978.75
1773.77002	17967.75
1776.97499	17913.05
1780.17785	17879.95
1783.37861	17841.25
1786.57727	17821.15
1789.77382	17781.75
1792.96828	17739.55
1796.16064	17762.35
1799.3509	17741.95
1802.53907	17648.15
1805.72514	17641.05
1808.90913	17596.75
1812.09102	17566.95
1815.27083	17537.25
1818.44856	17520.15
1821.6242	17478.55
1824.79776	17475.35
1827.96924	17479.25
1831.13864	17424.75
1834.30597	17458.25
1837.47122	17414.75
1840.6344	17420.95
1843.7955	17442.55
1846.95454	17443.95
1850.11151	17420.45
1853.26642	17434.75
1856.41926	17375.65
1859.57004	17396.65
1862.71876	17377.75
1865.86542	17356.35
1869.01003	17348.35
1872.15258	17286.55
1875.29308	17313.75
1878.43152	17304.45
1881.56792	17292.95
1884.70227	17290.45
1887.83457	17260.25
1890.96482	17263.85
1894.09304	17237.15
1897.21921	17214.65
1900.34335	17212.65
1903.46544	17158.05
1906.58551	17171.25
1909.70353	17119.25
1912.81953	17085.35
1915.93349	17100.65
1919.04543	17051.15
1922.15534	17004.95
1925.26322	16969.55
1928.36908	16955.45
1931.47292	16927.75
1934.57473	16894.15
1937.67453	16821.55
1940.77232	16793.45
1943.86808	16738.75
1946.96184	16707.05
1950.05358	16648.95
1953.14331	16599.05
1956.23103	16559.75
1959.31675	16515.05
1962.40046	16461.35
1965.48217	16414.65
1968.56188	16399.75
1971.63959	16334.65
1974.7153	16288.45
1977.78901	16244.05
1980.86073	16210.55
1983.93046	16152.15
1986.99819	16110.25
1990.06394	16051.65
1993.1277	16029.95
1996.18947	15941.35
1999.24925	15925.95
2002.30706	15846.95
2005.36288	15856.25
2008.41672	15816.15
2011.46859	15756.55
2014.51848	15712.95
2017.56639	15686.55
2020.61233	15641.05
2023.6563	15605.45
2026.6983	15575.95
2029.73833	15531.65
2032.7764	15504.15
2035.8125	15490.35
2038.84664	15466.45
2041.87881	15417.35
2044.90903	15443.25
2047.93729	15405.55
2050.96359	15371.85
2053.98794	15334.65
2057.01034	15325.55
2060.03078	15344.55
2063.04927	15311.15
2066.06582	15313.15
2069.08042	15318.55
2072.09307	15270.55
2075.10378	15283.45
2078.11255	15267.55
2081.11938	15260.15
2084.12426	15242.45
2087.12722	15228.45
2090.12824	15238.35
2093.12732	15243.45
2096.12447	15262.35
2099.11969	15220.45
2102.11299	15257.55
2105.10435	15223.75
2108.09379	15257.85
2111.08131	15272.85
2114.0669	15285.55
2117.05057	15290.55
2120.03233	15302.75
2123.01216	15313.95
2125.99008	15347.05
2128.96609	15322.65
2131.94018	15359.95
2134.91236	15382.55
2137.88263	15378.75
2140.851	15405.05
2143.81746	15400.15
2146.78201	15434.45
2149.74466	15422.35
2152.7054	15435.25
2155.66425	15416.35
2158.6212	15413.25
2161.57625	15418.05
2164.52941	15391.55
2167.48067	15402.65
2170.43004	15393.25
2173.37752	15392.35
2176.32311	15412.15
2179.26681	15396.25
2182.20863	15354.15
2185.14856	15368.95
2188.08661	15397.45
2191.02278	15399.15
2193.95707	15368.25
2196.88948	15353.25
2199.82001	15379.15
2202.74867	15352.25
2205.67545	15324.85
2208.60037	15344.55
2211.52341	15307.05
2214.44458	15293.45
2217.36388	15272.35
2220.28132	15264.95
2223.1969	15210.25
2226.11061	15213.15
2229.02246	15195.55
2231.93245	15174.45
2234.84058	15106.95
2237.74686	15086.95
2240.65128	15074.65
2243.55385	15047.15
2246.45456	15067.45
2249.35343	15002.55
2252.25044	15001.15
2255.14561	14999.95
2258.03893	14976.55
2260.93041	14945.45
2263.82004	14917.55
2266.70783	14911.55
2269.59378	14844.55
2272.4779	14807.95
2275.36017	14773.45
2278.24061	14786.15
2281.11922	14706.65
2283.996	14704.85
2286.87094	14702.35
2289.74405	14684.85
2292.61534	14635.35
2295.4848	14642.55
2298.35243	14647.15
2301.21824	14648.45
2304.08223	14682.65
2306.94439	14654.95
2309.80474	14660.95
2312.66327	14673.25
2315.51999	14672.35
2318.37489	14658.75
2321.22797	14620.55
2324.07925	14618.25
2326.92871	14605.25
2329.77637	14582.25
2332.62222	14557.45
2335.46626	14576.85
2338.3085	14506.35
2341.14893	14516.25
2343.98756	14531.45
2346.8244	14533.95
2349.65943	14544.95
2352.49267	14533.95
2355.32411	14516.65
2358.15376	14532.15
2360.98161	14515.85
2363.80768	14506.95
2366.63195	14477.25
2369.45444	14483.15
2372.27514	14478.75
2375.09405	14437.75
2377.91118	14390.25
2380.72652	14334.55
2383.54009	14331.65
2386.35187	14335.95
2389.16188	14271.55
2391.97011	14269.25
2394.77657	14238.25
2397.58125	14204.55
2400.38416	14174.85
2403.18529	14157.65
2405.98466	14139.95
2408.78226	14098.45
2411.57809	14096.85
2414.37216	14071.15
2417.16446	14044.45
2419.955	14030.95
2422.74378	14020.15
2425.5308	14015.55
2428.31606	14011.45
2431.09956	14015.25
2433.88131	13957.95
2436.6613	14000.85
2439.43954	13975.15
2442.21603	13963.95
2444.99077	13978.85
2447.76377	13964.95
2450.53501	13964.45
2453.30451	13937.35
2456.07226	13940.25
2458.83827	13925.45
2461.60254	13896.55
2464.36507	13901.95
2467.12586	13921.25
2469.88492	13904.25
2472.64224	13908.45
2475.39782	13904.35
2478.15167	13907.25
2480.90379	13899.05
2483.65417	13901.95
2486.40283	13912.85
2489.14976	13903.75
2491.89497	13892.45
2494.63845	13919.15
2497.3802	13870.95
2500.12024	13885.65
2502.85855	13910.75
2505.59514	13854.95
2508.33002	13859.15
2511.06318	13852.35
2513.79462	13826.35
2516.52435	13787.45
2519.25237	13790.45
2521.97867	13790.35
2524.70327	13770.25
2527.42616	13741.75
2530.14734	13760.05
2532.86681	13714.85
2535.58458	13735.85
2538.30065	13739.85
2541.01501	13693.45
2543.72768	13694.95
2546.43864	13684.85
2549.14791	13663.15
2551.85548	13650.55
2554.56136	13614.65
2557.26554	13632.85
2559.96803	13601.75
2562.66883	13575.35
2565.36794	13575.75
2568.06536	13563.25
2570.7611	13543.95
2573.45514	13523.15
2576.14751	13535.45
2578.83819	13501.95
2581.52719	13504.05
2584.21451	13491.55
2586.90015	13475.95
2589.58411	13439.65
2592.2664	13452.25
2594.94701	13412.85
2597.62594	13406.35
2600.30321	13385.45
2602.9788	13390.15
2605.65273	13371.65
2608.32498	13373.65
2610.99557	13369.05
2613.66449	13364.65
2616.33175	13310.35
2618.99734	13324.75
2621.66128	13316.45
2624.32355	13351.55
2626.98416	13323.65
2629.64311	13336.05
2632.30041	13341.35
2634.95605	13310.45
2637.61004	13282.95
2640.26238	13268.35
2642.91306	13289.45
2645.56209	13231.55
2648.20948	13265.05
2650.85521	13228.15
2653.4993	13258.15
2656.14175	13223.75
2658.78255	13227.15
2661.42171	13228.35
2664.05923	13242.15
2666.6951	13243.35
2669.32934	13248.85
2671.96194	13257.05
2674.59291	13269.95
2677.22224	13241.95
2679.84993	13244.95
2682.476	13232.95
2685.10043	13221.35
2687.72324	13199.95
2690.34441	13223.85
2692.96396	13155.75
2695.58188	13216.95
2698.19818	13182.55
2700.81285	13183.75
2703.4259	13182.75
2706.03733	13244.65
2708.64714	13213.05
2711.25533	13234.75
2713.86191	13217.15
2716.46687	13236.25
2719.07021	13233.35
2721.67194	13229.45
2724.27206	13217.45
2726.87057	13242.85
2729.46747	13231.15
2732.06276	13215.45
2734.65644	13203.55
2737.24852	13234.55
2739.83899	13193.25
2742.42786	13192.45
2745.01513	13177.55
2747.60079	13173.75
2750.18486	13159.05
2752.76733	13163.95
2755.3482	13158.65
2757.92747	13155.15
2760.50515	13111.05
2763.08123	13115.45
2765.65573	13091.75
2768.22863	13079.05
2770.79994	13100.85
2773.36967	13084.35
2775.9378	13084.15
2778.50435	13040.95
2781.06932	13032.95
2783.6327	13039.25
2786.1945	13037.95
2788.75471	13024.65
2791.31335	12964.45
2793.87041	12967.55
2796.42589	12904.05
2798.97979	12945.45
2801.53212	12908.55
2804.08288	12888.95
2806.63206	12826.95
2809.17967	12850.65
2811.72571	12802.05
2814.27018	12810.15
2816.81308	12818.25
2819.35442	12784.65
2821.89419	12754.25
2824.43239	12740.25
2826.96904	12742.15
2829.50412	12724.95
2832.03763	12682.05
2834.56959	12702.85
2837.1	12674.15
2839.62884	12680.15
2842.15613	12640.15
2844.68186	12658.95
2847.20604	12680.15
2849.72867	12683.45
2852.24974	12657.05
2854.76927	12629.55
2857.28724	12634.05
2859.80367	12625.75
2862.31855	12605.65
2864.83189	12575.75
2867.34368	12558.15
2869.85393	12583.25
2872.36264	12572.85
2874.8698	12556.35
2877.37543	12565.75
2879.87952	12601.15
2882.38207	12589.45
2884.88308	12569.95
2887.38256	12602.45
2889.88051	12567.05
2892.37692	12584.05
2894.8718	12579.85
2897.36515	12601.85
2899.85698	12581.15
2902.34727	12640.05
2904.83604	12628.65
2907.32328	12644.95
2909.809	12642.15
2912.29319	12633.95
2914.77587	12655.75
2917.25702	12653.35
2919.73665	12619.75
2922.21476	12641.05
2924.69136	12607.95
2927.16644	12607.85
2929.64	12592.95
2932.11205	12565.25
2934.58258	12501.85
2937.05161	12541.75
2939.51912	12531.35
2941.98513	12513.45
2944.44962	12492.05
2946.91261	12467.75
2949.37409	12499.45
2951.83407	12501.95
2954.29254	12500.05
2956.74951	12489.25
2959.20498	12469.85
2961.65895	12435.65
2964.11142	12450.25
2966.56239	12386.75
2969.01186	12402.05
2971.45984	12372.75
2973.90632	12355.45
2976.35131	12339.65
2978.7948	12323.65
2981.23681	12288.55
2983.67732	12250.75
2986.11635	12242.35
2988.55388	12217.25
2990.98993	12201.05
2993.4245	12177.75
2995.85758	12184.35
2998.28917	12133.15
3000.71928	12118.35
3003.14791	12104.55
3005.57506	12092.85
3008.00073	12096.55
3010.42493	12069.15
3012.84764	12056.55
3015.26888	12048.55
3017.68865	12024.75
3020.10694	12003.75
3022.52376	11998.75
3024.9391	11986.95
3027.35298	11938.75
3029.76539	11933.25
3032.17632	11933.95
3034.5858	11917.55
3036.9938	11906.15
3039.40034	11884.45
3041.80542	11864.55
3044.20903	11871.15
3046.61118	11835.15
3049.01187	11830.65
3051.4111	11802.05
3053.80888	11762.15
3056.20519	11793.85
3058.60005	11746.55
3060.99345	11762.05
3063.3854	11730.65
3065.7759	11682.85
3068.16494	11687.35
3070.55254	11640.55
3072.93868	11650.85
3075.32338	11620.25
3077.70662	11610.85
3080.08842	11580.85
3082.46878	11589.95
3084.84769	11578.85
3087.22515	11557.85
3089.60118	11562.55
3091.97576	11527.75
3094.3489	11542.05
3096.72061	11523.35
3099.09087	11543.45
3101.4597	11551.05
3103.82709	11557.85
3106.19305	11510.15
3108.55757	11493.15
3110.92066	11461.75
3113.28232	11480.05
3115.64255	11427.15
3118.00134	11400.15
3120.35871	11397.15
3122.71466	11384.15
3125.06917	11361.45
3127.42226	11333.75
3129.77393	11359.95
3132.12417	11349.05
3134.47299	11367.35
3136.82039	11343.95
3139.16636	11364.55
3141.51092	11338.85
3143.85406	11341.75
3146.19579	11384.25
3148.53609	11358.65
3150.87499	11360.05
3153.21246	11349.45
3155.54853	11399.85
3157.88318	11367.35
3160.21642	11400.05
3162.54826	11365.35
3164.87868	11365.05
3167.2077	11380.45
3169.5353	11370.25
3171.86151	11369.45
3174.18631	11335.25
3176.5097	11362.95
3178.83169	11298.75
3181.15228	11334.65
3183.47147	11290.35
3185.78926	11297.05
3188.10565	11269.65
3190.42065	11304.55
3192.73424	11307.95
3195.04645	11307.25
3197.35725	11290.05
3199.66667	11313.15
3201.97469	11326.85
3204.28132	11312.45
3206.58656	11326.75
3208.8904	11314.75
3211.19287	11315.85
3213.49394	11343.85
3215.79363	11296.05
3218.09193	11318.95
3220.38884	11339.75
3222.68438	11316.35
3224.97853	11288.45
3227.2713	11285.65
3229.56269	11294.15
3231.8527	11272.05
3234.14133	11264.95
3236.42858	11229.55
3238.71446	11205.05
3240.99896	11218.25
3243.28209	11241.25
3245.56384	11223.15
3247.84423	11246.25
3250.12324	11201.85
3252.40088	11193.35
3254.67715	11196.75
3256.95205	11176.05
3259.22558	11176.85
3261.49775	11152.05
3263.76855	11140.65
3266.03799	11127.65
3268.30606	11104.35
3270.57277	11095.55
3272.83812	11088.35
3275.10211	11081.45
3277.36474	11066.65
3279.62601	11062.55
3281.88593	11013.35
3284.14448	11042.95
3286.40168	11015.05
3288.65753	11010.45
3290.91202	10980.85
3293.16516	10971.35
3295.41695	10931.55
3297.66738	10874.95
3299.91647	10833.15
3302.16421	10784.65
3304.4106	10735.75
3306.65564	10690.25
3308.89933	10644.55
3311.14169	10584.05
3313.38269	10498.85
3315.62236	10433.55
3317.86068	10370.45
3320.09766	10247.15
3322.3333	10159.05
3324.5676	10176.85
3326.80056	10008.25
3329.03219	9989.75
3331.26248	2.75
3333.49143	1.65
3335.71905	0.15
