Data from AgNPs_FTO_APTES_UA_1uM_R6G_10uM_NaF_0.1M_Addition_RamanShift__32__11-41-17-194.txt Node

Date: Fri Dec 17 11:41:17 GMT 2021
User: TCL
Spectrometer: QEP01345
Trigger mode: 4
Integration Time (sec): 7.000000E0
Scans to average: 10
Electric dark correction enabled: true
Nonlinearity correction enabled: false
Boxcar width: 0
XAxis mode: Raman Shifts
Number of Pixels in Spectrum: 1044
>>>>>Begin Spectral Data<<<<<
46.04893	-0.95
50.45542	0.15
54.85868	-0.85
59.25871	0.35
63.6555	61.75
68.04907	65.25
72.43941	71.55
76.82654	74.65
81.21044	76.45
85.59113	79.85
89.96862	85.55
94.34289	88.75
98.71396	90.95
103.08183	93.75
107.4465	98.35
111.80798	94.75
116.16626	99.05
120.52136	94.25
124.87327	99.25
129.222	101.85
133.56755	98.85
137.90993	102.65
142.24913	110.55
146.58517	107.85
150.91804	120.35
155.24774	131.65
159.57429	156.65
163.89768	188.95
168.21792	229.55
172.53501	290.85
176.84895	385.55
181.15975	523.05
185.46741	714.25
189.77193	967.95
194.07331	1273.05
198.37157	1631.65
202.6667	2004.05
206.9587	2375.85
211.24758	2737.95
215.53334	3128.85
219.81599	3559.75
224.09553	4036.65
228.37195	4580.15
232.64527	5131.05
236.91549	5718.05
241.18261	6229.45
245.44663	6654.25
249.70755	7008.35
253.96539	7294.05
258.22014	7554.65
262.4718	7816.65
266.72039	7991.75
270.96589	8092.05
275.20832	8104.85
279.44768	8013.25
283.68397	7895.85
287.91719	7794.85
292.14735	7802.35
296.37445	7929.45
300.59849	8221.15
304.81948	8577.15
309.03742	8821.65
313.25231	8805.45
317.46415	8362.85
321.67296	7756.15
325.87872	7250.15
330.08145	7019.55
334.28114	7004.35
338.47781	7118.55
342.67145	7349.95
346.86207	7701.35
351.04966	8181.35
355.23424	8727.95
359.4158	9160.75
363.59435	9388.25
367.76989	9455.35
371.94243	9448.65
376.11196	9414.95
380.27849	9380.75
384.44203	9292.85
388.60257	9156.85
392.76012	9076.05
396.91468	9153.55
401.06626	9376.75
405.21485	9589.65
409.36047	9436.25
413.50311	8997.85
417.64277	8552.05
421.77947	8302.25
425.9132	8209.55
430.04396	8198.45
434.17176	8243.05
438.2966	8379.25
442.41849	8605.95
446.53742	8875.55
450.6534	9149.85
454.76644	9322.35
458.87653	9342.05
462.98368	9287.05
467.08789	9078.25
471.18916	8877.75
475.2875	8634.95
479.38291	8424.25
483.4754	8319.25
487.56496	8222.75
491.6516	8137.35
495.73531	8106.75
499.81612	8124.25
503.89401	8212.95
507.96899	8312.85
512.04106	8458.05
516.11023	8635.15
520.1765	8766.85
524.23987	8748.95
528.30034	8586.35
532.35792	8401.25
536.41261	8185.25
540.46441	7989.65
544.51333	7897.75
548.55936	7936.35
552.60252	8071.65
556.64279	8267.35
560.6802	8331.95
564.71473	8492.65
568.7464	8775.85
572.7752	8974.25
576.80114	8744.85
580.82422	8508.95
584.84444	8442.55
588.86181	8426.25
592.87633	8474.45
596.888	8618.65
600.89682	9002.15
604.9028	9998.85
608.90594	12605.65
612.90624	15901.05
616.90371	15330.15
620.89834	10944.95
624.89015	8852.85
628.87913	8421.55
632.86528	8453.35
636.84862	8520.75
640.82913	8454.85
644.80683	8163.35
648.78172	7947.45
652.75379	8030.45
656.72306	8375.05
660.68952	8811.45
664.65319	8698.35
668.61405	8261.55
672.57211	8054.35
676.52738	8039.95
680.47986	8018.55
684.42955	7976.15
688.37646	7947.25
692.32058	8019.45
696.26192	8080.05
700.20048	8205.85
704.13626	8295.55
708.06928	8277.15
711.99952	8213.25
715.927	8164.35
719.85171	8151.35
723.77365	8170.55
727.69284	8086.45
731.60928	8042.15
735.52295	8031.65
739.43388	8045.25
743.34206	8132.35
747.24749	8177.35
751.15017	8236.85
755.05012	8389.95
758.94733	8734.05
762.8418	9553.95
766.73354	10921.95
770.62254	12415.75
774.50882	13338.35
778.39237	12887.25
782.27321	11359.65
786.15132	9774.25
790.02671	8847.65
793.89938	8474.75
797.76935	8333.55
801.6366	8235.85
805.50115	8181.05
809.36299	8149.65
813.22213	8137.75
817.07857	8107.55
820.93231	8121.35
824.78336	8150.75
828.63172	8165.45
832.47738	8194.85
836.32036	8195.55
840.16066	8168.75
843.99827	8136.75
847.8332	8109.75
851.66546	8117.45
855.49504	8130.45
859.32195	8110.95
863.1462	8053.25
866.96777	8050.95
870.78668	8065.75
874.60293	8063.75
878.41652	8083.95
882.22745	8145.75
886.03573	8172.85
889.84136	8161.75
893.64433	8136.35
897.44466	8137.15
901.24235	8143.25
905.0374	8121.35
908.8298	8097.25
912.61957	8086.35
916.40671	8124.65
920.19121	8190.35
923.97308	8265.75
927.75233	8357.15
931.52895	8446.85
935.30295	8375.75
939.07433	8196.65
942.84309	8044.15
946.60924	7938.35
950.37278	7868.65
954.13371	7813.45
957.89203	7782.65
961.64774	7756.05
965.40086	7734.25
969.15137	7688.15
972.89929	7698.35
976.64461	7676.85
980.38733	7697.95
984.12747	7697.85
987.86502	7739.25
991.59999	7786.95
995.33237	7850.25
999.06217	8000.55
1002.78939	8181.65
1006.51404	8375.45
1010.23611	8543.55
1013.95561	8656.45
1017.67255	8654.25
1021.38692	8515.65
1025.09872	8387.75
1028.80796	8306.15
1032.51465	8344.15
1036.21877	8443.15
1039.92035	8591.35
1043.61937	8619.45
1047.31584	8565.85
1051.00976	8499.35
1054.70114	8388.75
1058.38998	8342.75
1062.07627	8385.15
1065.76003	8397.05
1069.44126	8440.05
1073.11995	8545.25
1076.79611	8628.25
1080.46974	8755.15
1084.14085	8912.95
1087.80943	9100.95
1091.47549	9173.95
1095.13903	8992.25
1098.80005	8689.85
1102.45857	8471.35
1106.11456	8355.85
1109.76805	8419.65
1113.41903	8581.05
1117.06751	8849.65
1120.71348	9149.95
1124.35696	9468.35
1127.99793	9791.65
1131.63641	9763.45
1135.2724	9377.85
1138.90589	8979.95
1142.5369	8739.85
1146.16542	8572.95
1149.79145	8500.75
1153.415	8496.15
1157.03607	8591.55
1160.65467	8742.55
1164.27079	8997.95
1167.88443	9380.85
1171.49561	10026.65
1175.10432	11129.75
1178.71056	12644.15
1182.31434	13857.75
1185.91565	14225.35
1189.51451	13997.35
1193.11091	13172.35
1196.70485	12103.95
1200.29634	11293.15
1203.88538	10703.05
1207.47197	10088.45
1211.05612	9607.25
1214.63782	9333.65
1218.21708	9277.15
1221.79391	9291.75
1225.36829	9407.15
1228.94024	9536.05
1232.50976	9642.25
1236.07685	9741.75
1239.6415	9785.95
1243.20374	9774.85
1246.76355	9775.55
1250.32093	9840.65
1253.8759	9993.15
1257.42845	10266.25
1260.97859	10512.75
1264.52631	10785.75
1268.07163	11073.25
1271.61453	11339.25
1275.15503	11528.95
1278.69312	11614.95
1282.22882	11658.95
1285.76211	11880.15
1289.29301	12218.55
1292.82151	12540.35
1296.34761	12820.45
1299.87133	13285.15
1303.39266	14085.65
1306.9116	15416.65
1310.42815	17038.65
1313.94233	18043.45
1317.45412	17837.95
1320.96354	16839.05
1324.47058	15703.95
1327.97525	14690.85
1331.47754	14082.05
1334.97747	13903.35
1338.47502	14017.05
1341.97022	14233.35
1345.46305	14652.45
1348.95352	15378.95
1352.44163	16430.85
1355.92738	17918.35
1359.41078	20115.35
1362.89183	22199.55
1366.37053	21787.65
1369.84688	18878.85
1373.32088	15834.45
1376.79254	13838.65
1380.26186	12811.55
1383.72883	12248.25
1387.19347	11795.75
1390.65578	11315.85
1394.11575	10912.75
1397.57339	10744.15
1401.0287	10770.75
1404.48168	10939.95
1407.93234	11205.55
1411.38068	11443.65
1414.82669	11492.05
1418.27039	11346.55
1421.71177	11133.55
1425.15083	10968.55
1428.58758	10853.55
1432.02203	10874.45
1435.45416	11002.95
1438.88399	11048.95
1442.31151	11101.15
1445.73673	11080.95
1449.15965	11115.15
1452.58027	11041.55
1455.9986	10913.45
1459.41463	10865.95
1462.82837	10900.05
1466.23982	11077.35
1469.64898	11260.05
1473.05586	11366.15
1476.46045	11496.15
1479.86276	11659.15
1483.26279	11916.15
1486.66054	12191.05
1490.05602	12546.95
1493.44922	13059.05
1496.84016	13828.55
1500.22882	14961.75
1503.61521	16501.75
1506.99934	18202.55
1510.38121	19831.45
1513.76081	20548.55
1517.13816	19601.35
1520.51324	17451.15
1523.88607	15176.35
1527.25665	13683.95
1530.62498	12824.95
1533.99105	12349.05
1537.35488	11992.45
1540.71647	11812.45
1544.07581	11764.65
1547.4329	11692.45
1550.78776	11657.95
1554.14038	11619.15
1557.49077	11631.35
1560.83892	11747.65
1564.18484	11967.65
1567.52853	12263.65
1570.86999	12562.55
1574.20922	12842.25
1577.54624	12841.45
1580.88103	12372.35
1584.2136	11658.75
1587.54395	11312.05
1590.87208	11449.65
1594.19801	12037.95
1597.52172	12813.55
1600.84321	13222.25
1604.16251	12885.55
1607.47959	12203.35
1610.79447	11332.15
1614.10715	10495.95
1617.41763	9830.25
1620.7259	9450.55
1624.03199	9291.85
1627.33587	9300.95
1630.63757	9515.95
1633.93707	9880.35
1637.23439	10471.35
1640.52951	11264.95
1643.82246	12311.05
1647.11321	13451.65
1650.40179	14262.15
1653.68819	13936.45
1656.97241	12357.35
1660.25446	10596.55
1663.53433	9322.05
1666.81203	8616.55
1670.08756	8158.05
1673.36092	7896.55
1676.63211	7724.45
1679.90115	7595.25
1683.16801	7508.35
1686.43272	7448.65
1689.69527	7398.35
1692.95567	7381.25
1696.2139	7345.95
1699.46999	7315.75
1702.72392	7300.15
1705.97571	7318.65
1709.22535	7312.85
1712.47284	7292.35
1715.71819	7312.85
1718.96139	7310.85
1722.20246	7306.65
1725.44139	7259.55
1728.67818	7226.75
1731.91284	7160.35
1735.14537	7115.75
1738.37576	7090.95
1741.60403	7033.15
1744.83017	7019.15
1748.05418	6974.75
1751.27607	6964.65
1754.49584	6968.35
1757.71349	6955.45
1760.92903	6940.65
1764.14244	6942.05
1767.35375	6909.05
1770.56294	6926.45
1773.77002	6892.85
1776.97499	6883.85
1780.17785	6876.85
1783.37861	6862.55
1786.57727	6834.05
1789.77382	6819.05
1792.96828	6845.35
1796.16064	6828.35
1799.3509	6802.45
1802.53907	6805.35
1805.72514	6783.45
1808.90913	6753.25
1812.09102	6746.55
1815.27083	6722.75
1818.44856	6710.25
1821.6242	6704.95
1824.79776	6691.05
1827.96924	6690.45
1831.13864	6690.55
1834.30597	6680.85
1837.47122	6672.75
1840.6344	6686.85
1843.7955	6696.65
1846.95454	6661.75
1850.11151	6671.85
1853.26642	6673.95
1856.41926	6675.15
1859.57004	6691.55
1862.71876	6676.05
1865.86542	6692.25
1869.01003	6695.55
1872.15258	6679.95
1875.29308	6668.55
1878.43152	6695.95
1881.56792	6692.15
1884.70227	6691.15
1887.83457	6700.45
1890.96482	6712.05
1894.09304	6700.65
1897.21921	6702.55
1900.34335	6695.95
1903.46544	6691.85
1906.58551	6685.15
1909.70353	6701.45
1912.81953	6690.55
1915.93349	6677.25
1919.04543	6648.45
1922.15534	6629.15
1925.26322	6621.55
1928.36908	6600.95
1931.47292	6592.75
1934.57473	6549.45
1937.67453	6539.55
1940.77232	6522.75
1943.86808	6469.85
1946.96184	6447.35
1950.05358	6425.75
1953.14331	6389.35
1956.23103	6372.55
1959.31675	6349.85
1962.40046	6322.75
1965.48217	6309.45
1968.56188	6292.35
1971.63959	6277.35
1974.7153	6263.55
1977.78901	6245.55
1980.86073	6220.75
1983.93046	6213.85
1986.99819	6160.75
1990.06394	6138.45
1993.1277	6149.05
1996.18947	6104.45
1999.24925	6111.05
2002.30706	6082.75
2005.36288	6052.75
2008.41672	6051.55
2011.46859	6005.85
2014.51848	6007.45
2017.56639	6000.65
2020.61233	5985.55
2023.6563	5966.25
2026.6983	5941.75
2029.73833	5921.45
2032.7764	5912.05
2035.8125	5887.45
2038.84664	5891.55
2041.87881	5885.25
2044.90903	5869.75
2047.93729	5870.25
2050.96359	5856.25
2053.98794	5853.65
2057.01034	5820.35
2060.03078	5817.95
2063.04927	5809.45
2066.06582	5810.75
2069.08042	5801.85
2072.09307	5818.65
2075.10378	5797.25
2078.11255	5797.65
2081.11938	5779.15
2084.12426	5790.55
2087.12722	5789.95
2090.12824	5768.75
2093.12732	5774.75
2096.12447	5779.55
2099.11969	5768.45
2102.11299	5781.55
2105.10435	5768.85
2108.09379	5778.45
2111.08131	5776.95
2114.0669	5783.85
2117.05057	5773.25
2120.03233	5779.45
2123.01216	5797.85
2125.99008	5798.65
2128.96609	5781.45
2131.94018	5795.75
2134.91236	5786.45
2137.88263	5799.15
2140.851	5808.85
2143.81746	5799.55
2146.78201	5808.55
2149.74466	5800.35
2152.7054	5792.65
2155.66425	5782.95
2158.6212	5795.15
2161.57625	5798.75
2164.52941	5784.15
2167.48067	5767.85
2170.43004	5781.75
2173.37752	5780.45
2176.32311	5767.45
2179.26681	5761.35
2182.20863	5768.15
2185.14856	5773.25
2188.08661	5768.35
2191.02278	5764.35
2193.95707	5754.05
2196.88948	5760.35
2199.82001	5745.75
2202.74867	5758.35
2205.67545	5745.05
2208.60037	5731.15
2211.52341	5727.45
2214.44458	5703.65
2217.36388	5691.85
2220.28132	5663.25
2223.1969	5658.95
2226.11061	5636.25
2229.02246	5643.95
2231.93245	5619.65
2234.84058	5598.05
2237.74686	5601.45
2240.65128	5611.95
2243.55385	5600.15
2246.45456	5592.35
2249.35343	5587.55
2252.25044	5581.65
2255.14561	5573.65
2258.03893	5574.65
2260.93041	5544.15
2263.82004	5549.15
2266.70783	5541.65
2269.59378	5525.55
2272.4779	5500.95
2275.36017	5498.15
2278.24061	5483.75
2281.11922	5467.85
2283.996	5464.45
2286.87094	5446.55
2289.74405	5419.85
2292.61534	5441.65
2295.4848	5396.05
2298.35243	5404.35
2301.21824	5398.45
2304.08223	5396.05
2306.94439	5377.95
2309.80474	5389.45
2312.66327	5393.55
2315.51999	5387.85
2318.37489	5379.85
2321.22797	5363.85
2324.07925	5358.65
2326.92871	5355.85
2329.77637	5345.85
2332.62222	5334.65
2335.46626	5320.35
2338.3085	5319.55
2341.14893	5305.95
2343.98756	5321.35
2346.8244	5315.35
2349.65943	5316.15
2352.49267	5309.25
2355.32411	5305.95
2358.15376	5305.05
2360.98161	5306.45
2363.80768	5314.65
2366.63195	5313.15
2369.45444	5318.05
2372.27514	5304.75
2375.09405	5306.15
2377.91118	5288.55
2380.72652	5258.95
2383.54009	5247.15
2386.35187	5239.55
2389.16188	5217.25
2391.97011	5186.95
2394.77657	5185.05
2397.58125	5168.95
2400.38416	5156.35
2403.18529	5138.45
2405.98466	5149.95
2408.78226	5136.75
2411.57809	5111.25
2414.37216	5102.75
2417.16446	5107.25
2419.955	5083.85
2422.74378	5079.35
2425.5308	5080.55
2428.31606	5082.65
2431.09956	5073.45
2433.88131	5042.65
2436.6613	5065.95
2439.43954	5058.45
2442.21603	5050.85
2444.99077	5045.55
2447.76377	5054.05
2450.53501	5042.95
2453.30451	5050.95
2456.07226	5039.35
2458.83827	5052.65
2461.60254	5028.75
2464.36507	5033.55
2467.12586	5032.05
2469.88492	5022.65
2472.64224	5021.85
2475.39782	4995.15
2478.15167	5016.85
2480.90379	5018.15
2483.65417	5029.15
2486.40283	5031.55
2489.14976	5039.15
2491.89497	5034.45
2494.63845	5031.85
2497.3802	5019.75
2500.12024	5042.05
2502.85855	5016.55
2505.59514	5016.85
2508.33002	4987.55
2511.06318	4981.65
2513.79462	4964.05
2516.52435	4948.15
2519.25237	4942.55
2521.97867	4929.85
2524.70327	4907.65
2527.42616	4923.85
2530.14734	4895.55
2532.86681	4886.65
2535.58458	4897.05
2538.30065	4887.45
2541.01501	4884.45
2543.72768	4883.55
2546.43864	4879.35
2549.14791	4848.95
2551.85548	4869.45
2554.56136	4852.65
2557.26554	4864.25
2559.96803	4863.85
2562.66883	4845.45
2565.36794	4842.75
2568.06536	4828.45
2570.7611	4821.85
2573.45514	4806.15
2576.14751	4801.85
2578.83819	4794.25
2581.52719	4782.65
2584.21451	4784.95
2586.90015	4771.95
2589.58411	4789.55
2592.2664	4755.95
2594.94701	4752.45
2597.62594	4747.75
2600.30321	4733.85
2602.9788	4732.45
2605.65273	4720.15
2608.32498	4729.05
2610.99557	4731.55
2613.66449	4725.15
2616.33175	4721.45
2618.99734	4707.25
2621.66128	4702.95
2624.32355	4699.65
2626.98416	4690.55
2629.64311	4686.15
2632.30041	4673.45
2634.95605	4676.95
2637.61004	4656.45
2640.26238	4656.15
2642.91306	4659.55
2645.56209	4650.85
2648.20948	4634.35
2650.85521	4640.95
2653.4993	4633.05
2656.14175	4647.95
2658.78255	4647.95
2661.42171	4648.35
2664.05923	4643.15
2666.6951	4660.45
2669.32934	4667.55
2671.96194	4663.55
2674.59291	4663.65
2677.22224	4663.55
2679.84993	4670.15
2682.476	4666.75
2685.10043	4673.85
2687.72324	4683.05
2690.34441	4684.95
2692.96396	4679.55
2695.58188	4668.95
2698.19818	4666.05
2700.81285	4687.45
2703.4259	4675.35
2706.03733	4657.45
2708.64714	4680.25
2711.25533	4696.55
2713.86191	4692.65
2716.46687	4692.75
2719.07021	4709.95
2721.67194	4695.95
2724.27206	4700.15
2726.87057	4703.65
2729.46747	4705.25
2732.06276	4700.25
2734.65644	4696.95
2737.24852	4691.65
2739.83899	4689.25
2742.42786	4691.85
2745.01513	4685.15
2747.60079	4675.85
2750.18486	4680.55
2752.76733	4664.65
2755.3482	4679.35
2757.92747	4679.45
2760.50515	4673.75
2763.08123	4672.75
2765.65573	4661.95
2768.22863	4678.35
2770.79994	4670.05
2773.36967	4676.25
2775.9378	4660.15
2778.50435	4678.55
2781.06932	4670.05
2783.6327	4677.05
2786.1945	4678.35
2788.75471	4687.35
2791.31335	4682.95
2793.87041	4711.45
2796.42589	4685.75
2798.97979	4714.15
2801.53212	4700.05
2804.08288	4705.85
2806.63206	4706.25
2809.17967	4728.25
2811.72571	4710.65
2814.27018	4741.95
2816.81308	4748.55
2819.35442	4765.15
2821.89419	4783.85
2824.43239	4777.25
2826.96904	4784.35
2829.50412	4769.25
2832.03763	4782.35
2834.56959	4773.75
2837.1	4781.35
2839.62884	4810.45
2842.15613	4837.95
2844.68186	4897.75
2847.20604	4952.85
2849.72867	4995.15
2852.24974	5006.15
2854.76927	5009.55
2857.28724	5007.85
2859.80367	4970.45
2862.31855	4960.65
2864.83189	4933.65
2867.34368	4939.75
2869.85393	4922.05
2872.36264	4929.25
2874.8698	4910.95
2877.37543	4916.85
2879.87952	4913.35
2882.38207	4907.65
2884.88308	4883.85
2887.38256	4889.95
2889.88051	4886.55
2892.37692	4881.95
2894.8718	4886.65
2897.36515	4907.05
2899.85698	4879.05
2902.34727	4904.95
2904.83604	4909.35
2907.32328	4907.25
2909.809	4886.05
2912.29319	4870.25
2914.77587	4860.25
2917.25702	4840.75
2919.73665	4832.55
2922.21476	4829.25
2924.69136	4815.05
2927.16644	4807.85
2929.64	4797.15
2932.11205	4773.05
2934.58258	4753.15
2937.05161	4748.85
2939.51912	4716.15
2941.98513	4667.25
2944.44962	4633.95
2946.91261	4581.95
2949.37409	4557.35
2951.83407	4514.35
2954.29254	4496.45
2956.74951	4485.95
2959.20498	4466.35
2961.65895	4432.05
2964.11142	4412.35
2966.56239	4375.45
2969.01186	4374.75
2971.45984	4360.25
2973.90632	4339.25
2976.35131	4309.35
2978.7948	4299.75
2981.23681	4273.35
2983.67732	4265.75
2986.11635	4248.05
2988.55388	4238.75
2990.98993	4215.95
2993.4245	4189.95
2995.85758	4174.25
2998.28917	4177.25
3000.71928	4146.55
3003.14791	4146.65
3005.57506	4139.25
3008.00073	4118.45
3010.42493	4116.45
3012.84764	4109.05
3015.26888	4089.45
3017.68865	4089.05
3020.10694	4089.95
3022.52376	4074.95
3024.9391	4058.75
3027.35298	4043.45
3029.76539	4052.25
3032.17632	4054.75
3034.5858	4035.65
3036.9938	4037.75
3039.40034	4030.85
3041.80542	4031.25
3044.20903	4022.05
3046.61118	4010.75
3049.01187	3998.65
3051.4111	3985.45
3053.80888	3974.55
3056.20519	3977.75
3058.60005	3974.65
3060.99345	3971.85
3063.3854	3967.15
3065.7759	3937.05
3068.16494	3940.15
3070.55254	3941.75
3072.93868	3935.55
3075.32338	3921.35
3077.70662	3901.75
3080.08842	3898.75
3082.46878	3893.65
3084.84769	3885.75
3087.22515	3873.05
3089.60118	3877.65
3091.97576	3861.45
3094.3489	3857.35
3096.72061	3862.85
3099.09087	3860.05
3101.4597	3865.55
3103.82709	3855.95
3106.19305	3843.65
3108.55757	3850.15
3110.92066	3839.35
3113.28232	3836.65
3115.64255	3823.85
3118.00134	3819.45
3120.35871	3818.45
3122.71466	3810.85
3125.06917	3807.85
3127.42226	3797.95
3129.77393	3818.35
3132.12417	3801.15
3134.47299	3817.05
3136.82039	3819.35
3139.16636	3812.65
3141.51092	3825.65
3143.85406	3826.25
3146.19579	3819.55
3148.53609	3836.55
3150.87499	3836.65
3153.21246	3844.15
3155.54853	3856.85
3157.88318	3843.75
3160.21642	3851.05
3162.54826	3839.65
3164.87868	3826.25
3167.2077	3850.15
3169.5353	3838.15
3171.86151	3855.65
3174.18631	3851.95
3176.5097	3841.25
3178.83169	3828.95
3181.15228	3838.45
3183.47147	3851.25
3185.78926	3845.65
3188.10565	3834.75
3190.42065	3862.55
3192.73424	3871.65
3195.04645	3866.75
3197.35725	3856.15
3199.66667	3863.25
3201.97469	3853.15
3204.28132	3872.65
3206.58656	3892.85
3208.8904	3857.55
3211.19287	3869.15
3213.49394	3878.05
3215.79363	3887.45
3218.09193	3889.05
3220.38884	3888.85
3222.68438	3884.85
3224.97853	3873.85
3227.2713	3868.35
3229.56269	3871.75
3231.8527	3878.65
3234.14133	3870.55
3236.42858	3847.45
3238.71446	3852.65
3240.99896	3842.45
3243.28209	3856.55
3245.56384	3840.15
3247.84423	3851.95
3250.12324	3843.35
3252.40088	3846.15
3254.67715	3844.15
3256.95205	3818.25
3259.22558	3823.55
3261.49775	3832.95
3263.76855	3821.35
3266.03799	3808.65
3268.30606	3811.05
3270.57277	3807.35
3272.83812	3796.45
3275.10211	3795.05
3277.36474	3779.05
3279.62601	3800.85
3281.88593	3779.35
3284.14448	3793.05
3286.40168	3771.65
3288.65753	3762.95
3290.91202	3763.25
3293.16516	3760.25
3295.41695	3743.65
3297.66738	3723.65
3299.91647	3712.15
3302.16421	3688.95
3304.4106	3676.55
3306.65564	3638.95
3308.89933	3631.25
3311.14169	3606.45
3313.38269	3565.65
3315.62236	3545.95
3317.86068	3533.05
3320.09766	3487.45
3322.3333	3458.15
3324.5676	3449.75
3326.80056	3389.95
3329.03219	3366.45
3331.26248	0.95
3333.49143	1.25
3335.71905	-0.35
