Data from AgNPs_FTO_APTES_UA_0uM_R6G_10uM_NaF_0.1M_Addition_RamanShift__28__10-28-57-111.txt Node

Date: Fri Dec 17 10:28:57 GMT 2021
User: TCL
Spectrometer: QEP01345
Trigger mode: 4
Integration Time (sec): 7.000000E0
Scans to average: 10
Electric dark correction enabled: true
Nonlinearity correction enabled: false
Boxcar width: 0
XAxis mode: Raman Shifts
Number of Pixels in Spectrum: 1044
>>>>>Begin Spectral Data<<<<<
46.04893	-0.55
50.45542	-0.05
54.85868	-1.35
59.25871	-1.05
63.6555	78.85
68.04907	77.95
72.43941	86.15
76.82654	89.75
81.21044	90.75
85.59113	96.35
89.96862	96.95
94.34289	101.25
98.71396	103.35
103.08183	105.75
107.4465	111.25
111.80798	111.65
116.16626	118.55
120.52136	114.55
124.87327	128.75
129.222	132.85
133.56755	140.15
137.90993	151.65
142.24913	166.15
146.58517	186.95
150.91804	213.95
155.24774	251.95
159.57429	315.45
163.89768	400.85
168.21792	532.35
172.53501	716.05
176.84895	1001.45
181.15975	1402.35
185.46741	1957.75
189.77193	2697.55
194.07331	3593.35
198.37157	4638.35
202.6667	5721.25
206.9587	6795.55
211.24758	7838.05
215.53334	8927.75
219.81599	10038.95
224.09553	11296.45
228.37195	12716.25
232.64527	14245.95
236.91549	15830.55
241.18261	17398.35
245.44663	18815.85
249.70755	20070.45
253.96539	21165.75
258.22014	22014.35
262.4718	22746.75
266.72039	23229.15
270.96589	23425.85
275.20832	23379.75
279.44768	23136.45
283.68397	22838.25
287.91719	22514.15
292.14735	22383.05
296.37445	22329.25
300.59849	22445.85
304.81948	22645.85
309.03742	22822.65
313.25231	22875.25
317.46415	22851.55
321.67296	22596.95
325.87872	22374.65
330.08145	22293.25
334.28114	22280.95
338.47781	22410.45
342.67145	22706.65
346.86207	23119.95
351.04966	23626.75
355.23424	24006.65
359.4158	24356.95
363.59435	24634.05
367.76989	24838.95
371.94243	24956.25
376.11196	25020.65
380.27849	25113.65
384.44203	25297.55
388.60257	25522.05
392.76012	25732.65
396.91468	25948.15
401.06626	26265.25
405.21485	26577.85
409.36047	26606.75
413.50311	26575.55
417.64277	26739.35
421.77947	26987.55
425.9132	27035.55
430.04396	27145.65
434.17176	27290.95
438.2966	27527.45
442.41849	28153.15
446.53742	29189.65
450.6534	30276.55
454.76644	30840.75
458.87653	30747.55
462.98368	30147.65
467.08789	29341.65
471.18916	28457.45
475.2875	27601.25
479.38291	26849.15
483.4754	26436.75
487.56496	26244.45
491.6516	26132.95
495.73531	26141.15
499.81612	26319.05
503.89401	26628.95
507.96899	26723.35
512.04106	26638.95
516.11023	26442.65
520.1765	26244.75
524.23987	26241.65
528.30034	26277.95
532.35792	26164.95
536.41261	25819.05
540.46441	25386.05
544.51333	25255.95
548.55936	25386.85
552.60252	25863.45
556.64279	26573.95
560.6802	27138.15
564.71473	27247.95
568.7464	27306.45
572.7752	27799.15
576.80114	28544.15
580.82422	29689.05
584.84444	31617.15
588.86181	34058.55
592.87633	36446.45
596.888	36687.05
600.89682	34250.25
604.9028	32729.05
608.90594	34021.75
612.90624	35930.15
616.90371	34000.55
620.89834	29407.55
624.89015	27193.05
628.87913	26836.95
632.86528	26717.65
636.84862	26316.65
640.82913	25718.35
644.80683	25206.15
648.78172	24956.75
652.75379	25033.35
656.72306	25388.05
660.68952	25829.35
664.65319	25686.25
668.61405	25278.95
672.57211	25294.35
676.52738	25423.25
680.47986	25380.25
684.42955	25106.65
688.37646	25002.55
692.32058	25315.95
696.26192	25840.05
700.20048	26337.85
704.13626	26534.55
708.06928	26370.45
711.99952	26172.05
715.927	26267.55
719.85171	26459.05
723.77365	26442.35
727.69284	25948.65
731.60928	25561.75
735.52295	25432.35
739.43388	25524.85
743.34206	25686.15
747.24749	25832.95
751.15017	26067.65
755.05012	26449.65
758.94733	27059.85
762.8418	28144.65
766.73354	29793.25
770.62254	31267.65
774.50882	31537.15
778.39237	30384.05
782.27321	28817.45
786.15132	27395.55
790.02671	26529.95
793.89938	26126.65
797.76935	26026.95
801.6366	25984.75
805.50115	25934.35
809.36299	25833.75
813.22213	25570.65
817.07857	25369.75
820.93231	25205.65
824.78336	25108.45
828.63172	25051.75
832.47738	25081.65
836.32036	25172.75
840.16066	25311.65
843.99827	25393.85
847.8332	25379.05
851.66546	25287.95
855.49504	25262.95
859.32195	25286.35
863.1462	25183.15
866.96777	25073.45
870.78668	25048.55
874.60293	25115.65
878.41652	25152.35
882.22745	25328.65
886.03573	25424.75
889.84136	25411.85
893.64433	25312.05
897.44466	25109.05
901.24235	25055.65
905.0374	24959.45
908.8298	24926.55
912.61957	24974.45
916.40671	25168.15
920.19121	25530.75
923.97308	25916.55
927.75233	26134.15
931.52895	26059.75
935.30295	25638.85
939.07433	25184.35
942.84309	24935.65
946.60924	24846.35
950.37278	24844.95
954.13371	24786.05
957.89203	24675.65
961.64774	24604.25
965.40086	24560.55
969.15137	24585.45
972.89929	24551.65
976.64461	24529.35
980.38733	24636.45
984.12747	24710.15
987.86502	24928.55
991.59999	25216.85
995.33237	25675.65
999.06217	26414.55
1002.78939	27301.85
1006.51404	28053.45
1010.23611	28527.35
1013.95561	28834.55
1017.67255	28914.95
1021.38692	28538.65
1025.09872	28060.05
1028.80796	28076.95
1032.51465	28810.45
1036.21877	29552.55
1039.92035	29754.55
1043.61937	29395.65
1047.31584	28654.75
1051.00976	27796.35
1054.70114	27330.95
1058.38998	27144.45
1062.07627	27098.45
1065.76003	27174.35
1069.44126	27339.05
1073.11995	27777.25
1076.79611	28233.95
1080.46974	28487.95
1084.14085	28796.65
1087.80943	29126.95
1091.47549	29201.15
1095.13903	29015.25
1098.80005	28524.85
1102.45857	27965.95
1106.11456	27540.65
1109.76805	27460.35
1113.41903	27553.65
1117.06751	27663.85
1120.71348	27860.55
1124.35696	28022.05
1127.99793	28236.75
1131.63641	28360.85
1135.2724	28254.85
1138.90589	28174.75
1142.5369	28220.75
1146.16542	28345.85
1149.79145	28537.75
1153.415	28688.05
1157.03607	28927.45
1160.65467	29749.35
1164.27079	31175.45
1167.88443	32908.35
1171.49561	34739.05
1175.10432	37030.05
1178.71056	40178.25
1182.31434	43178.25
1185.91565	44423.25
1189.51451	43547.55
1193.11091	41628.55
1196.70485	39824.75
1200.29634	38243.45
1203.88538	37231.65
1207.47197	36727.05
1211.05612	36210.35
1214.63782	35558.65
1218.21708	34961.55
1221.79391	34603.65
1225.36829	34644.85
1228.94024	34332.25
1232.50976	33545.95
1236.07685	32550.85
1239.6415	31957.85
1243.20374	31800.45
1246.76355	32029.55
1250.32093	32602.85
1253.8759	33432.25
1257.42845	34379.65
1260.97859	35455.15
1264.52631	36590.65
1268.07163	37815.55
1271.61453	39060.55
1275.15503	40286.85
1278.69312	41579.45
1282.22882	42796.95
1285.76211	44079.25
1289.29301	45729.35
1292.82151	47603.25
1296.34761	50080.95
1299.87133	53364.35
1303.39266	57282.45
1306.9116	61146.35
1310.42815	64270.85
1313.94233	65797.95
1317.45412	64842.45
1320.96354	62055.95
1324.47058	59335.25
1327.97525	57279.45
1331.47754	55925.05
1334.97747	54903.55
1338.47502	53767.25
1341.97022	52254.85
1345.46305	50727.85
1348.95352	50228.25
1352.44163	51420.55
1355.92738	54714.35
1359.41078	59061.15
1362.89183	62285.75
1366.37053	61826.05
1369.84688	56964.85
1373.32088	49779.75
1376.79254	44713.45
1380.26186	42936.05
1383.72883	42883.95
1387.19347	42775.05
1390.65578	41969.15
1394.11575	41615.65
1397.57339	42110.15
1401.0287	42998.25
1404.48168	43897.45
1407.93234	44219.45
1411.38068	43887.85
1414.82669	42991.55
1418.27039	41698.55
1421.71177	40134.15
1425.15083	38868.45
1428.58758	38385.15
1432.02203	39056.45
1435.45416	40468.35
1438.88399	41780.65
1442.31151	42538.15
1445.73673	42609.75
1449.15965	42418.35
1452.58027	41752.05
1455.9986	40958.05
1459.41463	40617.95
1462.82837	41181.25
1466.23982	42372.45
1469.64898	43478.95
1473.05586	44358.85
1476.46045	44928.15
1479.86276	44885.95
1483.26279	44521.75
1486.66054	44409.45
1490.05602	44674.35
1493.44922	44812.95
1496.84016	44645.95
1500.22882	44421.45
1503.61521	44600.85
1506.99934	45099.65
1510.38121	45708.75
1513.76081	45706.75
1517.13816	44843.45
1520.51324	43483.65
1523.88607	42615.65
1527.25665	42588.35
1530.62498	42943.75
1533.99105	43105.45
1537.35488	42846.65
1540.71647	42096.85
1544.07581	41138.95
1547.4329	40055.65
1550.78776	39013.65
1554.14038	38229.05
1557.49077	37547.25
1560.83892	37088.95
1564.18484	36964.95
1567.52853	37022.35
1570.86999	37295.45
1574.20922	37865.05
1577.54624	38423.75
1580.88103	38636.35
1584.2136	39145.25
1587.54395	41032.45
1590.87208	44232.35
1594.19801	48318.35
1597.52172	52166.55
1600.84321	53594.95
1604.16251	51209.45
1607.47959	46118.05
1610.79447	40768.55
1614.10715	36373.45
1617.41763	33387.15
1620.7259	31726.25
1624.03199	31099.45
1627.33587	31408.25
1630.63757	32473.85
1633.93707	34659.95
1637.23439	38320.65
1640.52951	43898.25
1643.82246	50816.25
1647.11321	56129.75
1650.40179	56073.45
1653.68819	50249.35
1656.97241	42198.35
1660.25446	35531.15
1663.53433	31225.05
1666.81203	28710.25
1670.08756	27266.65
1673.36092	26374.95
1676.63211	25787.85
1679.90115	25348.35
1683.16801	25064.55
1686.43272	24793.35
1689.69527	24613.75
1692.95567	24470.15
1696.2139	24436.85
1699.46999	24341.05
1702.72392	24307.55
1705.97571	24297.15
1709.22535	24276.05
1712.47284	24244.35
1715.71819	24243.25
1718.96139	24178.95
1722.20246	24098.85
1725.44139	23999.35
1728.67818	23902.65
1731.91284	23790.25
1735.14537	23650.65
1738.37576	23590.55
1741.60403	23527.55
1744.83017	23439.75
1748.05418	23394.15
1751.27607	23390.25
1754.49584	23307.25
1757.71349	23315.15
1760.92903	23279.05
1764.14244	23258.45
1767.35375	23274.85
1770.56294	23254.95
1773.77002	23196.75
1776.97499	23141.45
1780.17785	23117.45
1783.37861	23131.85
1786.57727	23116.65
1789.77382	23051.35
1792.96828	23050.65
1796.16064	23025.45
1799.3509	23005.25
1802.53907	22950.85
1805.72514	22877.45
1808.90913	22857.95
1812.09102	22779.75
1815.27083	22728.55
1818.44856	22709.95
1821.6242	22694.15
1824.79776	22663.85
1827.96924	22667.05
1831.13864	22659.15
1834.30597	22686.75
1837.47122	22685.25
1840.6344	22632.15
1843.7955	22684.95
1846.95454	22705.05
1850.11151	22621.95
1853.26642	22650.85
1856.41926	22644.65
1859.57004	22618.95
1862.71876	22595.35
1865.86542	22580.85
1869.01003	22612.85
1872.15258	22616.75
1875.29308	22605.95
1878.43152	22605.35
1881.56792	22590.45
1884.70227	22561.65
1887.83457	22573.65
1890.96482	22548.55
1894.09304	22517.15
1897.21921	22489.65
1900.34335	22498.25
1903.46544	22462.15
1906.58551	22477.05
1909.70353	22467.75
1912.81953	22430.15
1915.93349	22366.95
1919.04543	22351.45
1922.15534	22297.05
1925.26322	22252.65
1928.36908	22209.45
1931.47292	22174.05
1934.57473	22099.15
1937.67453	22067.45
1940.77232	21978.75
1943.86808	21946.45
1946.96184	21926.65
1950.05358	21875.95
1953.14331	21869.45
1956.23103	21785.35
1959.31675	21708.25
1962.40046	21682.65
1965.48217	21583.55
1968.56188	21551.95
1971.63959	21533.95
1974.7153	21432.95
1977.78901	21386.85
1980.86073	21289.65
1983.93046	21252.35
1986.99819	21178.65
1990.06394	21149.85
1993.1277	21089.85
1996.18947	21036.65
1999.24925	20968.25
2002.30706	20935.65
2005.36288	20875.25
2008.41672	20840.65
2011.46859	20778.75
2014.51848	20714.55
2017.56639	20675.35
2020.61233	20674.15
2023.6563	20640.55
2026.6983	20579.95
2029.73833	20560.75
2032.7764	20551.55
2035.8125	20505.05
2038.84664	20508.75
2041.87881	20492.65
2044.90903	20457.25
2047.93729	20425.55
2050.96359	20433.15
2053.98794	20381.35
2057.01034	20333.05
2060.03078	20314.45
2063.04927	20279.45
2066.06582	20310.75
2069.08042	20320.75
2072.09307	20289.25
2075.10378	20246.45
2078.11255	20234.35
2081.11938	20254.05
2084.12426	20247.95
2087.12722	20236.45
2090.12824	20205.75
2093.12732	20274.15
2096.12447	20293.15
2099.11969	20299.75
2102.11299	20274.35
2105.10435	20287.85
2108.09379	20325.85
2111.08131	20298.25
2114.0669	20317.35
2117.05057	20336.55
2120.03233	20335.55
2123.01216	20342.25
2125.99008	20359.95
2128.96609	20401.25
2131.94018	20428.45
2134.91236	20454.15
2137.88263	20431.95
2140.851	20487.35
2143.81746	20495.25
2146.78201	20492.15
2149.74466	20493.95
2152.7054	20495.55
2155.66425	20491.35
2158.6212	20509.55
2161.57625	20474.45
2164.52941	20489.55
2167.48067	20492.45
2170.43004	20516.75
2173.37752	20521.85
2176.32311	20494.05
2179.26681	20526.35
2182.20863	20527.15
2185.14856	20554.35
2188.08661	20533.35
2191.02278	20556.65
2193.95707	20530.95
2196.88948	20560.95
2199.82001	20526.55
2202.74867	20542.15
2205.67545	20530.35
2208.60037	20560.15
2211.52341	20467.45
2214.44458	20454.05
2217.36388	20437.85
2220.28132	20396.75
2223.1969	20382.55
2226.11061	20357.55
2229.02246	20354.25
2231.93245	20283.35
2234.84058	20301.85
2237.74686	20263.05
2240.65128	20279.75
2243.55385	20247.55
2246.45456	20196.55
2249.35343	20161.75
2252.25044	20126.75
2255.14561	20108.05
2258.03893	20058.45
2260.93041	19996.55
2263.82004	19951.15
2266.70783	19938.55
2269.59378	19899.35
2272.4779	19865.15
2275.36017	19815.55
2278.24061	19808.85
2281.11922	19747.75
2283.996	19766.65
2286.87094	19785.05
2289.74405	19717.85
2292.61534	19712.15
2295.4848	19691.15
2298.35243	19721.75
2301.21824	19708.65
2304.08223	19728.05
2306.94439	19754.65
2309.80474	19773.25
2312.66327	19767.75
2315.51999	19753.65
2318.37489	19780.45
2321.22797	19766.15
2324.07925	19737.45
2326.92871	19716.45
2329.77637	19734.95
2332.62222	19711.25
2335.46626	19697.75
2338.3085	19670.15
2341.14893	19673.15
2343.98756	19706.45
2346.8244	19692.05
2349.65943	19678.75
2352.49267	19676.85
2355.32411	19624.55
2358.15376	19602.95
2360.98161	19585.25
2363.80768	19582.95
2366.63195	19527.95
2369.45444	19514.55
2372.27514	19485.35
2375.09405	19449.05
2377.91118	19440.85
2380.72652	19403.75
2383.54009	19320.35
2386.35187	19371.45
2389.16188	19352.85
2391.97011	19325.45
2394.77657	19269.35
2397.58125	19266.55
2400.38416	19244.55
2403.18529	19218.35
2405.98466	19198.95
2408.78226	19124.55
2411.57809	19141.35
2414.37216	19067.95
2417.16446	19057.65
2419.955	19039.35
2422.74378	19035.05
2425.5308	19036.35
2428.31606	19006.75
2431.09956	19005.65
2433.88131	19013.15
2436.6613	19005.85
2439.43954	18978.25
2442.21603	18947.55
2444.99077	18949.65
2447.76377	18960.65
2450.53501	18955.35
2453.30451	18932.75
2456.07226	18940.75
2458.83827	18951.85
2461.60254	18964.35
2464.36507	18957.55
2467.12586	18957.05
2469.88492	18947.75
2472.64224	18946.15
2475.39782	18924.45
2478.15167	18945.65
2480.90379	18932.25
2483.65417	18962.65
2486.40283	18918.05
2489.14976	18963.55
2491.89497	18911.25
2494.63845	18966.95
2497.3802	18903.85
2500.12024	18919.25
2502.85855	18966.45
2505.59514	18960.85
2508.33002	18961.35
2511.06318	18901.55
2513.79462	18877.75
2516.52435	18896.85
2519.25237	18878.75
2521.97867	18855.05
2524.70327	18861.05
2527.42616	18851.75
2530.14734	18862.85
2532.86681	18820.55
2535.58458	18825.45
2538.30065	18773.85
2541.01501	18775.35
2543.72768	18737.05
2546.43864	18766.35
2549.14791	18713.25
2551.85548	18715.75
2554.56136	18739.95
2557.26554	18706.05
2559.96803	18690.95
2562.66883	18699.05
2565.36794	18691.25
2568.06536	18735.55
2570.7611	18708.55
2573.45514	18686.65
2576.14751	18640.65
2578.83819	18656.25
2581.52719	18653.65
2584.21451	18648.65
2586.90015	18675.25
2589.58411	18616.55
2592.2664	18619.35
2594.94701	18585.75
2597.62594	18620.65
2600.30321	18581.75
2602.9788	18571.25
2605.65273	18537.65
2608.32498	18559.65
2610.99557	18530.65
2613.66449	18544.45
2616.33175	18526.95
2618.99734	18512.55
2621.66128	18529.35
2624.32355	18491.95
2626.98416	18498.35
2629.64311	18482.95
2632.30041	18476.65
2634.95605	18497.65
2637.61004	18460.85
2640.26238	18449.35
2642.91306	18367.25
2645.56209	18378.55
2648.20948	18361.35
2650.85521	18349.55
2653.4993	18389.45
2656.14175	18368.85
2658.78255	18376.45
2661.42171	18368.85
2664.05923	18407.05
2666.6951	18390.85
2669.32934	18426.35
2671.96194	18450.75
2674.59291	18469.45
2677.22224	18453.25
2679.84993	18439.45
2682.476	18425.45
2685.10043	18415.05
2687.72324	18387.15
2690.34441	18424.05
2692.96396	18373.55
2695.58188	18374.05
2698.19818	18383.65
2700.81285	18404.95
2703.4259	18372.75
2706.03733	18402.15
2708.64714	18419.35
2711.25533	18401.65
2713.86191	18398.45
2716.46687	18422.25
2719.07021	18419.85
2721.67194	18456.85
2724.27206	18417.05
2726.87057	18457.65
2729.46747	18432.25
2732.06276	18460.35
2734.65644	18486.25
2737.24852	18454.55
2739.83899	18437.85
2742.42786	18482.95
2745.01513	18440.55
2747.60079	18455.35
2750.18486	18461.65
2752.76733	18473.25
2755.3482	18450.55
2757.92747	18456.45
2760.50515	18452.15
2763.08123	18460.05
2765.65573	18416.25
2768.22863	18467.25
2770.79994	18459.55
2773.36967	18448.55
2775.9378	18428.95
2778.50435	18433.65
2781.06932	18404.75
2783.6327	18396.15
2786.1945	18390.45
2788.75471	18370.55
2791.31335	18325.45
2793.87041	18275.65
2796.42589	18263.95
2798.97979	18276.95
2801.53212	18207.15
2804.08288	18204.05
2806.63206	18143.75
2809.17967	18176.85
2811.72571	18122.75
2814.27018	18093.75
2816.81308	18083.85
2819.35442	18054.65
2821.89419	18080.35
2824.43239	18034.45
2826.96904	17985.45
2829.50412	17957.65
2832.03763	17951.05
2834.56959	17946.35
2837.1	17943.15
2839.62884	17906.85
2842.15613	17893.45
2844.68186	17964.75
2847.20604	17948.65
2849.72867	17923.95
2852.24974	17939.05
2854.76927	17905.35
2857.28724	17929.85
2859.80367	17907.55
2862.31855	17876.75
2864.83189	17877.65
2867.34368	17884.15
2869.85393	17879.65
2872.36264	17892.55
2874.8698	17859.05
2877.37543	17909.65
2879.87952	17920.35
2882.38207	17895.85
2884.88308	17911.65
2887.38256	17924.75
2889.88051	17956.75
2892.37692	17954.35
2894.8718	17938.35
2897.36515	17955.85
2899.85698	17951.45
2902.34727	18018.85
2904.83604	17999.45
2907.32328	18055.05
2909.809	18020.85
2912.29319	18030.55
2914.77587	18016.95
2917.25702	18024.55
2919.73665	18013.95
2922.21476	18038.15
2924.69136	17985.85
2927.16644	18002.25
2929.64	17944.55
2932.11205	17950.65
2934.58258	17886.15
2937.05161	17970.55
2939.51912	17936.45
2941.98513	17903.55
2944.44962	17831.65
2946.91261	17793.05
2949.37409	17845.85
2951.83407	17804.85
2954.29254	17861.95
2956.74951	17822.85
2959.20498	17804.05
2961.65895	17806.95
2964.11142	17754.45
2966.56239	17680.45
2969.01186	17715.45
2971.45984	17643.15
2973.90632	17653.35
2976.35131	17585.95
2978.7948	17556.55
2981.23681	17492.15
2983.67732	17475.85
2986.11635	17404.25
2988.55388	17387.75
2990.98993	17307.05
2993.4245	17311.55
2995.85758	17282.95
2998.28917	17267.05
3000.71928	17242.15
3003.14791	17190.55
3005.57506	17196.45
3008.00073	17170.85
3010.42493	17156.75
3012.84764	17108.25
3015.26888	17109.25
3017.68865	17065.25
3020.10694	17069.85
3022.52376	17019.85
3024.9391	16988.85
3027.35298	16933.25
3029.76539	16921.75
3032.17632	16896.15
3034.5858	16884.15
3036.9938	16887.25
3039.40034	16878.15
3041.80542	16864.95
3044.20903	16834.25
3046.61118	16854.85
3049.01187	16797.05
3051.4111	16784.15
3053.80888	16769.75
3056.20519	16755.65
3058.60005	16710.85
3060.99345	16694.25
3063.3854	16630.15
3065.7759	16573.65
3068.16494	16558.65
3070.55254	16503.45
3072.93868	16522.05
3075.32338	16486.05
3077.70662	16453.15
3080.08842	16401.65
3082.46878	16407.55
3084.84769	16344.55
3087.22515	16365.15
3089.60118	16355.55
3091.97576	16347.35
3094.3489	16367.85
3096.72061	16328.75
3099.09087	16346.35
3101.4597	16296.95
3103.82709	16286.95
3106.19305	16286.55
3108.55757	16261.15
3110.92066	16214.35
3113.28232	16222.85
3115.64255	16181.35
3118.00134	16111.05
3120.35871	16148.15
3122.71466	16097.75
3125.06917	16079.75
3127.42226	16078.35
3129.77393	16116.65
3132.12417	16076.45
3134.47299	16049.95
3136.82039	16038.25
3139.16636	16047.65
3141.51092	16059.65
3143.85406	16049.15
3146.19579	16046.15
3148.53609	16009.75
3150.87499	16060.85
3153.21246	16029.25
3155.54853	16055.95
3157.88318	16020.25
3160.21642	16033.85
3162.54826	15992.35
3164.87868	15960.25
3167.2077	15975.35
3169.5353	15961.55
3171.86151	15961.55
3174.18631	15966.55
3176.5097	15928.15
3178.83169	15929.85
3181.15228	15906.55
3183.47147	15893.15
3185.78926	15944.45
3188.10565	15924.45
3190.42065	15933.95
3192.73424	15928.15
3195.04645	15911.65
3197.35725	15923.65
3199.66667	15911.25
3201.97469	15910.15
3204.28132	15896.55
3206.58656	15874.25
3208.8904	15857.65
3211.19287	15901.75
3213.49394	15855.05
3215.79363	15830.15
3218.09193	15853.25
3220.38884	15832.75
3222.68438	15840.35
3224.97853	15814.25
3227.2713	15812.55
3229.56269	15779.85
3231.8527	15830.15
3234.14133	15780.35
3236.42858	15767.25
3238.71446	15764.85
3240.99896	15731.15
3243.28209	15706.15
3245.56384	15733.25
3247.84423	15749.05
3250.12324	15713.65
3252.40088	15668.55
3254.67715	15664.85
3256.95205	15628.85
3259.22558	15646.55
3261.49775	15607.55
3263.76855	15553.75
3266.03799	15560.35
3268.30606	15533.55
3270.57277	15507.15
3272.83812	15514.65
3275.10211	15495.75
3277.36474	15488.75
3279.62601	15499.35
3281.88593	15453.45
3284.14448	15473.85
3286.40168	15449.15
3288.65753	15441.85
3290.91202	15426.35
3293.16516	15380.85
3295.41695	15373.65
3297.66738	15233.35
3299.91647	15171.85
3302.16421	15102.15
3304.4106	15011.95
3306.65564	14949.45
3308.89933	14874.25
3311.14169	14774.15
3313.38269	14672.15
3315.62236	14590.15
3317.86068	14465.75
3320.09766	14331.55
3322.3333	14207.85
3324.5676	14187.25
3326.80056	13955.55
3329.03219	13877.55
3331.26248	4.25
3333.49143	0.95
3335.71905	-0.95
