Data from AgNPs_FTO_APTES_UA_100uM_R6G_10uM_NaF_0.1M_Addition_RamanShift__2__15-19-27-444.txt Node

Date: Fri Dec 17 15:19:27 GMT 2021
User: TCL
Spectrometer: QEP01345
Trigger mode: 4
Integration Time (sec): 7.000000E0
Scans to average: 10
Electric dark correction enabled: true
Nonlinearity correction enabled: false
Boxcar width: 0
XAxis mode: Raman Shifts
Number of Pixels in Spectrum: 1044
>>>>>Begin Spectral Data<<<<<
46.04893	-0.05
50.45542	-0.05
54.85868	-1.65
59.25871	0.75
63.6555	61.55
68.04907	63.45
72.43941	66.95
76.82654	73.55
81.21044	72.85
85.59113	77.45
89.96862	81.35
94.34289	85.35
98.71396	86.25
103.08183	89.65
107.4465	92.55
111.80798	93.65
116.16626	96.55
120.52136	94.45
124.87327	100.95
129.222	108.05
133.56755	108.55
137.90993	115.45
142.24913	121.25
146.58517	131.55
150.91804	147.85
155.24774	176.45
159.57429	214.05
163.89768	260.45
168.21792	338.65
172.53501	454.05
176.84895	628.05
181.15975	871.25
185.46741	1216.35
189.77193	1674.05
194.07331	2229.25
198.37157	2882.35
202.6667	3555.25
206.9587	4230.75
211.24758	4897.55
215.53334	5555.25
219.81599	6239.75
224.09553	7023.45
228.37195	7882.85
232.64527	8872.15
236.91549	9887.95
241.18261	10896.35
245.44663	11810.85
249.70755	12636.75
253.96539	13367.95
258.22014	13966.85
262.4718	14445.45
266.72039	14772.85
270.96589	15003.45
275.20832	15030.05
279.44768	14888.95
283.68397	14731.45
287.91719	14521.15
292.14735	14432.55
296.37445	14448.25
300.59849	14555.05
304.81948	14648.55
309.03742	14702.75
313.25231	14551.85
317.46415	14197.15
321.67296	13795.45
325.87872	13381.35
330.08145	13215.65
334.28114	13209.85
338.47781	13320.65
342.67145	13492.55
346.86207	13708.95
351.04966	14028.75
355.23424	14367.95
359.4158	14642.35
363.59435	14867.65
367.76989	15022.05
371.94243	15159.25
376.11196	15203.95
380.27849	15269.45
384.44203	15344.05
388.60257	15392.15
392.76012	15476.65
396.91468	15634.65
401.06626	15850.45
405.21485	16004.95
409.36047	15922.35
413.50311	15565.35
417.64277	15296.95
421.77947	15089.85
425.9132	15054.25
430.04396	15041.25
434.17176	15066.15
438.2966	15209.05
442.41849	15339.25
446.53742	15546.75
450.6534	15816.35
454.76644	16005.55
458.87653	16096.35
462.98368	16139.65
467.08789	16122.05
471.18916	15983.75
475.2875	15793.25
479.38291	15718.15
483.4754	15611.25
487.56496	15463.45
491.6516	15387.15
495.73531	15292.35
499.81612	15263.85
503.89401	15349.75
507.96899	15407.65
512.04106	15454.15
516.11023	15517.95
520.1765	15508.45
524.23987	15442.55
528.30034	15335.75
532.35792	15198.05
536.41261	15134.55
540.46441	14964.55
544.51333	14953.65
548.55936	15063.15
552.60252	15242.65
556.64279	15473.95
560.6802	15633.65
564.71473	15656.65
568.7464	15814.95
572.7752	15990.15
576.80114	16080.15
580.82422	16173.15
584.84444	16282.95
588.86181	16408.15
592.87633	16446.35
596.888	16447.95
600.89682	16605.95
604.9028	17355.65
608.90594	19274.95
612.90624	21372.25
616.90371	20499.45
620.89834	17183.55
624.89015	15586.65
628.87913	15375.95
632.86528	15531.05
636.84862	15725.35
640.82913	15653.85
644.80683	15271.05
648.78172	14959.15
652.75379	14854.95
656.72306	15002.55
660.68952	15259.95
664.65319	15184.15
668.61405	14895.15
672.57211	14782.95
676.52738	14795.15
680.47986	14783.55
684.42955	14713.25
688.37646	14687.55
692.32058	14695.05
696.26192	14771.45
700.20048	14901.05
704.13626	14979.65
708.06928	14952.15
711.99952	14911.25
715.927	14910.35
719.85171	14878.45
723.77365	14855.85
727.69284	14804.75
731.60928	14660.85
735.52295	14636.55
739.43388	14646.55
743.34206	14636.35
747.24749	14727.85
751.15017	14758.95
755.05012	14881.35
758.94733	15222.15
762.8418	15959.35
766.73354	17222.45
770.62254	18580.35
774.50882	19263.15
778.39237	18573.35
782.27321	17091.65
786.15132	15903.65
790.02671	15156.15
793.89938	14787.85
797.76935	14608.65
801.6366	14555.75
805.50115	14504.95
809.36299	14464.05
813.22213	14405.05
817.07857	14390.85
820.93231	14383.85
824.78336	14322.45
828.63172	14295.05
832.47738	14278.15
836.32036	14265.35
840.16066	14270.35
843.99827	14246.75
847.8332	14241.75
851.66546	14222.55
855.49504	14176.95
859.32195	14211.65
863.1462	14165.05
866.96777	14165.65
870.78668	14168.35
874.60293	14183.85
878.41652	14182.95
882.22745	14219.75
886.03573	14304.85
889.84136	14293.75
893.64433	14281.65
897.44466	14224.85
901.24235	14187.55
905.0374	14118.45
908.8298	14054.85
912.61957	14024.35
916.40671	14098.75
920.19121	14225.95
923.97308	14263.65
927.75233	14286.85
931.52895	14276.25
935.30295	14175.05
939.07433	13978.55
942.84309	13787.55
946.60924	13671.35
950.37278	13593.15
954.13371	13563.75
957.89203	13528.45
961.64774	13506.95
965.40086	13476.35
969.15137	13419.95
972.89929	13422.85
976.64461	13397.55
980.38733	13411.65
984.12747	13399.15
987.86502	13465.15
991.59999	13560.95
995.33237	13647.85
999.06217	13784.05
1002.78939	13980.45
1006.51404	14112.45
1010.23611	14288.45
1013.95561	14395.05
1017.67255	14384.25
1021.38692	14331.95
1025.09872	14218.45
1028.80796	14152.55
1032.51465	14197.55
1036.21877	14270.85
1039.92035	14345.85
1043.61937	14364.65
1047.31584	14328.45
1051.00976	14273.55
1054.70114	14238.05
1058.38998	14278.75
1062.07627	14354.65
1065.76003	14501.55
1069.44126	14671.05
1073.11995	14882.85
1076.79611	15067.75
1080.46974	15136.75
1084.14085	15181.95
1087.80943	15252.85
1091.47549	15339.15
1095.13903	15334.75
1098.80005	15194.85
1102.45857	14922.65
1106.11456	14702.75
1109.76805	14601.05
1113.41903	14647.85
1117.06751	14776.55
1120.71348	14976.85
1124.35696	15186.75
1127.99793	15451.15
1131.63641	15614.95
1135.2724	15475.15
1138.90589	15271.25
1142.5369	15084.95
1146.16542	14989.35
1149.79145	14889.15
1153.415	14897.05
1157.03607	14959.65
1160.65467	15171.95
1164.27079	15559.05
1167.88443	16123.55
1171.49561	16831.65
1175.10432	17880.05
1178.71056	19215.05
1182.31434	20405.75
1185.91565	21039.35
1189.51451	21036.85
1193.11091	20505.15
1196.70485	19740.35
1200.29634	18984.05
1203.88538	18342.65
1207.47197	17734.75
1211.05612	17197.05
1214.63782	16792.35
1218.21708	16538.55
1221.79391	16329.85
1225.36829	16177.15
1228.94024	16117.45
1232.50976	16057.25
1236.07685	16051.45
1239.6415	16045.85
1243.20374	16106.65
1246.76355	16176.15
1250.32093	16357.95
1253.8759	16584.05
1257.42845	16962.15
1260.97859	17288.85
1264.52631	17665.85
1268.07163	17976.45
1271.61453	18332.95
1275.15503	18639.65
1278.69312	18896.65
1282.22882	19033.35
1285.76211	19344.25
1289.29301	19683.55
1292.82151	20167.75
1296.34761	20780.15
1299.87133	21512.85
1303.39266	22442.55
1306.9116	23611.25
1310.42815	24696.55
1313.94233	25300.65
1317.45412	25173.85
1320.96354	24591.45
1324.47058	24004.05
1327.97525	23384.45
1331.47754	22920.65
1334.97747	22668.35
1338.47502	22676.35
1341.97022	22852.15
1345.46305	23193.15
1348.95352	23632.55
1352.44163	24273.75
1355.92738	25128.25
1359.41078	26461.65
1362.89183	27958.05
1366.37053	27812.45
1369.84688	25358.45
1373.32088	22537.95
1376.79254	20542.35
1380.26186	19544.35
1383.72883	19057.05
1387.19347	18781.45
1390.65578	18380.45
1394.11575	18071.75
1397.57339	17839.65
1401.0287	17814.85
1404.48168	17731.25
1407.93234	17689.55
1411.38068	17525.45
1414.82669	17306.85
1418.27039	16976.75
1421.71177	16707.05
1425.15083	16383.85
1428.58758	16218.95
1432.02203	16229.25
1435.45416	16368.05
1438.88399	16558.45
1442.31151	16760.35
1445.73673	16895.65
1449.15965	17018.55
1452.58027	17094.05
1455.9986	17145.15
1459.41463	17267.45
1462.82837	17431.85
1466.23982	17680.05
1469.64898	17962.95
1473.05586	18189.75
1476.46045	18320.15
1479.86276	18412.85
1483.26279	18497.45
1486.66054	18640.25
1490.05602	18876.35
1493.44922	19255.85
1496.84016	19995.15
1500.22882	21057.65
1503.61521	22532.85
1506.99934	24173.55
1510.38121	25511.95
1513.76081	25885.65
1517.13816	25005.75
1520.51324	23384.85
1523.88607	21779.85
1527.25665	20691.45
1530.62498	20040.75
1533.99105	19668.15
1537.35488	19337.75
1540.71647	19075.15
1544.07581	18739.15
1547.4329	18508.05
1550.78776	18285.35
1554.14038	18148.85
1557.49077	18121.15
1560.83892	18174.85
1564.18484	18361.05
1567.52853	18551.05
1570.86999	18835.25
1574.20922	19100.85
1577.54624	19213.55
1580.88103	18948.15
1584.2136	18486.05
1587.54395	18206.75
1590.87208	18311.65
1594.19801	18772.95
1597.52172	19423.05
1600.84321	19694.25
1604.16251	19318.05
1607.47959	18560.15
1610.79447	17700.65
1614.10715	16814.35
1617.41763	15996.55
1620.7259	15390.35
1624.03199	14990.15
1627.33587	14919.75
1630.63757	15029.25
1633.93707	15462.75
1637.23439	16248.85
1640.52951	17405.95
1643.82246	18911.85
1647.11321	20434.55
1650.40179	21377.05
1653.68819	20942.85
1656.97241	19261.25
1660.25446	17189.45
1663.53433	15547.05
1666.81203	14461.45
1670.08756	13764.45
1673.36092	13335.05
1676.63211	13037.85
1679.90115	12822.65
1683.16801	12655.45
1686.43272	12539.55
1689.69527	12418.95
1692.95567	12362.95
1696.2139	12342.95
1699.46999	12305.55
1702.72392	12238.95
1705.97571	12178.85
1709.22535	12140.55
1712.47284	12098.15
1715.71819	12037.45
1718.96139	12000.35
1722.20246	11959.55
1725.44139	11913.45
1728.67818	11820.05
1731.91284	11782.95
1735.14537	11710.65
1738.37576	11681.25
1741.60403	11648.75
1744.83017	11599.45
1748.05418	11557.25
1751.27607	11579.65
1754.49584	11551.95
1757.71349	11531.85
1760.92903	11530.15
1764.14244	11515.25
1767.35375	11529.65
1770.56294	11488.75
1773.77002	11490.05
1776.97499	11454.65
1780.17785	11430.45
1783.37861	11397.75
1786.57727	11389.35
1789.77382	11356.85
1792.96828	11358.75
1796.16064	11328.75
1799.3509	11293.15
1802.53907	11267.85
1805.72514	11246.95
1808.90913	11221.85
1812.09102	11210.05
1815.27083	11179.05
1818.44856	11126.65
1821.6242	11122.55
1824.79776	11129.85
1827.96924	11093.65
1831.13864	11067.85
1834.30597	11089.45
1837.47122	11071.35
1840.6344	11093.15
1843.7955	11055.95
1846.95454	11039.35
1850.11151	11016.75
1853.26642	11045.95
1856.41926	11054.25
1859.57004	11009.35
1862.71876	11006.45
1865.86542	11003.75
1869.01003	10994.65
1872.15258	10991.95
1875.29308	10963.85
1878.43152	10949.85
1881.56792	10937.25
1884.70227	10918.55
1887.83457	10910.35
1890.96482	10896.15
1894.09304	10902.85
1897.21921	10859.25
1900.34335	10855.05
1903.46544	10830.95
1906.58551	10827.25
1909.70353	10825.65
1912.81953	10810.25
1915.93349	10784.05
1919.04543	10735.05
1922.15534	10769.05
1925.26322	10735.55
1928.36908	10729.35
1931.47292	10666.95
1934.57473	10641.75
1937.67453	10606.05
1940.77232	10588.95
1943.86808	10583.15
1946.96184	10552.55
1950.05358	10540.75
1953.14331	10494.05
1956.23103	10472.55
1959.31675	10436.65
1962.40046	10418.15
1965.48217	10394.45
1968.56188	10382.75
1971.63959	10302.55
1974.7153	10282.75
1977.78901	10246.35
1980.86073	10216.15
1983.93046	10200.75
1986.99819	10164.45
1990.06394	10176.35
1993.1277	10103.55
1996.18947	10065.25
1999.24925	10058.15
2002.30706	10023.65
2005.36288	9978.85
2008.41672	9946.95
2011.46859	9935.05
2014.51848	9933.85
2017.56639	9896.35
2020.61233	9854.55
2023.6563	9814.45
2026.6983	9792.25
2029.73833	9798.05
2032.7764	9767.75
2035.8125	9759.65
2038.84664	9734.25
2041.87881	9721.05
2044.90903	9723.15
2047.93729	9698.35
2050.96359	9674.25
2053.98794	9650.65
2057.01034	9638.05
2060.03078	9636.55
2063.04927	9622.75
2066.06582	9641.05
2069.08042	9606.25
2072.09307	9597.35
2075.10378	9596.15
2078.11255	9584.45
2081.11938	9607.05
2084.12426	9601.35
2087.12722	9586.35
2090.12824	9580.65
2093.12732	9589.45
2096.12447	9599.35
2099.11969	9575.55
2102.11299	9576.15
2105.10435	9590.65
2108.09379	9606.35
2111.08131	9626.35
2114.0669	9596.95
2117.05057	9604.35
2120.03233	9637.85
2123.01216	9659.35
2125.99008	9640.15
2128.96609	9651.25
2131.94018	9664.25
2134.91236	9648.75
2137.88263	9660.35
2140.851	9654.55
2143.81746	9685.55
2146.78201	9689.25
2149.74466	9672.65
2152.7054	9656.65
2155.66425	9670.15
2158.6212	9655.45
2161.57625	9645.65
2164.52941	9663.65
2167.48067	9641.05
2170.43004	9648.75
2173.37752	9649.15
2176.32311	9640.05
2179.26681	9640.15
2182.20863	9646.35
2185.14856	9643.25
2188.08661	9640.75
2191.02278	9643.35
2193.95707	9608.65
2196.88948	9608.75
2199.82001	9603.75
2202.74867	9591.45
2205.67545	9606.25
2208.60037	9583.75
2211.52341	9548.45
2214.44458	9548.55
2217.36388	9518.75
2220.28132	9508.25
2223.1969	9484.15
2226.11061	9464.55
2229.02246	9464.65
2231.93245	9461.65
2234.84058	9421.55
2237.74686	9427.35
2240.65128	9408.85
2243.55385	9413.35
2246.45456	9387.75
2249.35343	9357.55
2252.25044	9371.75
2255.14561	9362.15
2258.03893	9361.75
2260.93041	9326.85
2263.82004	9292.85
2266.70783	9303.15
2269.59378	9281.55
2272.4779	9258.85
2275.36017	9234.65
2278.24061	9212.65
2281.11922	9194.65
2283.996	9172.15
2286.87094	9165.15
2289.74405	9156.05
2292.61534	9139.65
2295.4848	9137.45
2298.35243	9116.65
2301.21824	9124.35
2304.08223	9134.25
2306.94439	9092.15
2309.80474	9086.15
2312.66327	9100.75
2315.51999	9072.45
2318.37489	9091.25
2321.22797	9054.65
2324.07925	9041.25
2326.92871	9044.95
2329.77637	9029.55
2332.62222	9031.55
2335.46626	9009.75
2338.3085	8997.95
2341.14893	8986.15
2343.98756	8985.55
2346.8244	8979.65
2349.65943	8960.95
2352.49267	8997.55
2355.32411	8958.45
2358.15376	8959.85
2360.98161	8980.35
2363.80768	8963.95
2366.63195	8959.05
2369.45444	8971.85
2372.27514	8939.95
2375.09405	8941.95
2377.91118	8914.65
2380.72652	8885.05
2383.54009	8868.85
2386.35187	8891.85
2389.16188	8842.85
2391.97011	8797.65
2394.77657	8796.65
2397.58125	8776.55
2400.38416	8740.75
2403.18529	8742.05
2405.98466	8744.55
2408.78226	8713.65
2411.57809	8711.45
2414.37216	8714.65
2417.16446	8711.25
2419.955	8698.95
2422.74378	8669.85
2425.5308	8676.05
2428.31606	8698.85
2431.09956	8672.85
2433.88131	8652.05
2436.6613	8680.45
2439.43954	8658.65
2442.21603	8649.95
2444.99077	8637.55
2447.76377	8642.85
2450.53501	8606.85
2453.30451	8625.05
2456.07226	8597.95
2458.83827	8609.15
2461.60254	8604.65
2464.36507	8581.25
2467.12586	8581.55
2469.88492	8583.65
2472.64224	8601.45
2475.39782	8583.05
2478.15167	8576.55
2480.90379	8571.05
2483.65417	8580.55
2486.40283	8574.75
2489.14976	8585.65
2491.89497	8563.25
2494.63845	8586.15
2497.3802	8551.05
2500.12024	8555.85
2502.85855	8554.95
2505.59514	8525.35
2508.33002	8518.15
2511.06318	8502.85
2513.79462	8490.35
2516.52435	8476.85
2519.25237	8458.75
2521.97867	8462.55
2524.70327	8466.95
2527.42616	8440.85
2530.14734	8425.65
2532.86681	8398.85
2535.58458	8413.85
2538.30065	8399.95
2541.01501	8382.45
2543.72768	8378.65
2546.43864	8370.35
2549.14791	8353.55
2551.85548	8364.15
2554.56136	8343.45
2557.26554	8339.95
2559.96803	8321.95
2562.66883	8305.65
2565.36794	8312.95
2568.06536	8299.85
2570.7611	8312.95
2573.45514	8272.75
2576.14751	8268.95
2578.83819	8271.25
2581.52719	8261.35
2584.21451	8228.05
2586.90015	8214.55
2589.58411	8209.05
2592.2664	8180.75
2594.94701	8161.45
2597.62594	8153.25
2600.30321	8132.25
2602.9788	8109.15
2605.65273	8121.75
2608.32498	8114.05
2610.99557	8127.85
2613.66449	8104.05
2616.33175	8096.25
2618.99734	8101.05
2621.66128	8077.45
2624.32355	8067.15
2626.98416	8077.55
2629.64311	8063.05
2632.30041	8080.75
2634.95605	8036.85
2637.61004	8037.75
2640.26238	8021.95
2642.91306	8022.05
2645.56209	8003.85
2648.20948	8000.15
2650.85521	8007.85
2653.4993	8005.75
2656.14175	7993.55
2658.78255	8003.45
2661.42171	7989.75
2664.05923	8014.15
2666.6951	8002.05
2669.32934	7994.15
2671.96194	7992.75
2674.59291	8002.25
2677.22224	8001.65
2679.84993	8005.45
2682.476	7994.85
2685.10043	8002.65
2687.72324	7977.25
2690.34441	8011.45
2692.96396	8008.35
2695.58188	7992.55
2698.19818	7991.95
2700.81285	7974.15
2703.4259	8000.15
2706.03733	8010.15
2708.64714	8009.65
2711.25533	8012.25
2713.86191	8001.15
2716.46687	7984.45
2719.07021	7999.85
2721.67194	8004.75
2724.27206	7980.55
2726.87057	7998.65
2729.46747	7981.75
2732.06276	7977.05
2734.65644	8000.95
2737.24852	7973.75
2739.83899	7965.95
2742.42786	7968.75
2745.01513	7943.55
2747.60079	7952.45
2750.18486	7943.95
2752.76733	7955.05
2755.3482	7927.95
2757.92747	7921.95
2760.50515	7925.45
2763.08123	7913.25
2765.65573	7905.45
2768.22863	7892.75
2770.79994	7888.55
2773.36967	7899.75
2775.9378	7890.05
2778.50435	7870.65
2781.06932	7847.15
2783.6327	7843.75
2786.1945	7855.65
2788.75471	7833.85
2791.31335	7814.05
2793.87041	7797.55
2796.42589	7789.35
2798.97979	7773.85
2801.53212	7752.85
2804.08288	7763.85
2806.63206	7728.55
2809.17967	7711.75
2811.72571	7708.85
2814.27018	7693.75
2816.81308	7688.95
2819.35442	7670.25
2821.89419	7640.45
2824.43239	7655.45
2826.96904	7662.25
2829.50412	7666.55
2832.03763	7628.65
2834.56959	7638.55
2837.1	7636.95
2839.62884	7625.45
2842.15613	7647.65
2844.68186	7654.75
2847.20604	7652.25
2849.72867	7661.15
2852.24974	7651.75
2854.76927	7659.15
2857.28724	7647.95
2859.80367	7623.55
2862.31855	7619.35
2864.83189	7614.05
2867.34368	7591.65
2869.85393	7615.85
2872.36264	7611.55
2874.8698	7600.95
2877.37543	7620.75
2879.87952	7603.05
2882.38207	7590.75
2884.88308	7600.65
2887.38256	7609.05
2889.88051	7588.95
2892.37692	7598.05
2894.8718	7602.45
2897.36515	7593.45
2899.85698	7579.75
2902.34727	7611.95
2904.83604	7586.15
2907.32328	7600.65
2909.809	7613.35
2912.29319	7607.15
2914.77587	7630.35
2917.25702	7604.05
2919.73665	7620.05
2922.21476	7622.25
2924.69136	7586.65
2927.16644	7593.25
2929.64	7578.45
2932.11205	7592.05
2934.58258	7557.45
2937.05161	7584.55
2939.51912	7570.15
2941.98513	7553.65
2944.44962	7545.35
2946.91261	7512.25
2949.37409	7535.35
2951.83407	7498.75
2954.29254	7489.35
2956.74951	7509.55
2959.20498	7482.15
2961.65895	7467.05
2964.11142	7470.55
2966.56239	7461.25
2969.01186	7452.25
2971.45984	7427.65
2973.90632	7423.45
2976.35131	7402.15
2978.7948	7386.65
2981.23681	7377.45
2983.67732	7377.35
2986.11635	7356.95
2988.55388	7338.15
2990.98993	7347.45
2993.4245	7315.55
2995.85758	7323.85
2998.28917	7302.45
3000.71928	7284.95
3003.14791	7305.75
3005.57506	7273.55
3008.00073	7266.85
3010.42493	7257.15
3012.84764	7255.75
3015.26888	7256.95
3017.68865	7242.55
3020.10694	7216.45
3022.52376	7210.75
3024.9391	7198.95
3027.35298	7185.55
3029.76539	7154.85
3032.17632	7149.55
3034.5858	7149.25
3036.9938	7146.05
3039.40034	7141.35
3041.80542	7138.25
3044.20903	7122.85
3046.61118	7127.95
3049.01187	7103.05
3051.4111	7122.85
3053.80888	7086.05
3056.20519	7080.95
3058.60005	7071.75
3060.99345	7062.95
3063.3854	7053.05
3065.7759	7055.35
3068.16494	7042.55
3070.55254	7023.15
3072.93868	7030.25
3075.32338	7018.45
3077.70662	6997.85
3080.08842	6997.95
3082.46878	7009.15
3084.84769	6989.75
3087.22515	6998.05
3089.60118	6989.55
3091.97576	6974.65
3094.3489	6979.65
3096.72061	6975.85
3099.09087	6986.75
3101.4597	6955.95
3103.82709	6980.95
3106.19305	6963.95
3108.55757	6968.35
3110.92066	6926.05
3113.28232	6943.15
3115.64255	6918.35
3118.00134	6911.95
3120.35871	6916.35
3122.71466	6910.55
3125.06917	6877.05
3127.42226	6879.35
3129.77393	6891.15
3132.12417	6890.45
3134.47299	6898.95
3136.82039	6902.55
3139.16636	6894.55
3141.51092	6906.75
3143.85406	6900.05
3146.19579	6913.15
3148.53609	6907.25
3150.87499	6888.75
3153.21246	6929.45
3155.54853	6951.35
3157.88318	6952.65
3160.21642	6938.45
3162.54826	6943.65
3164.87868	6949.05
3167.2077	6943.35
3169.5353	6931.95
3171.86151	6938.85
3174.18631	6931.65
3176.5097	6917.55
3178.83169	6915.75
3181.15228	6934.25
3183.47147	6925.55
3185.78926	6916.35
3188.10565	6893.75
3190.42065	6912.25
3192.73424	6926.55
3195.04645	6917.15
3197.35725	6923.85
3199.66667	6919.25
3201.97469	6909.05
3204.28132	6913.45
3206.58656	6939.35
3208.8904	6932.65
3211.19287	6963.75
3213.49394	6956.95
3215.79363	6939.85
3218.09193	6957.35
3220.38884	6946.15
3222.68438	6964.35
3224.97853	6928.45
3227.2713	6920.85
3229.56269	6931.55
3231.8527	6932.85
3234.14133	6932.35
3236.42858	6916.95
3238.71446	6892.05
3240.99896	6893.55
3243.28209	6894.15
3245.56384	6890.35
3247.84423	6881.45
3250.12324	6883.45
3252.40088	6889.65
3254.67715	6867.75
3256.95205	6863.95
3259.22558	6864.35
3261.49775	6829.75
3263.76855	6832.75
3266.03799	6838.35
3268.30606	6815.85
3270.57277	6815.45
3272.83812	6808.05
3275.10211	6804.35
3277.36474	6793.85
3279.62601	6790.95
3281.88593	6774.65
3284.14448	6779.15
3286.40168	6752.75
3288.65753	6747.65
3290.91202	6754.35
3293.16516	6728.15
3295.41695	6710.25
3297.66738	6671.75
3299.91647	6636.05
3302.16421	6611.05
3304.4106	6584.95
3306.65564	6542.85
3308.89933	6511.35
3311.14169	6463.45
3313.38269	6426.25
3315.62236	6389.95
3317.86068	6338.65
3320.09766	6278.35
3322.3333	6224.15
3324.5676	6243.75
3326.80056	6125.95
3329.03219	6085.55
3331.26248	1.35
3333.49143	0.25
3335.71905	-0.55
