Data from AgNPs_FTO_APTES_UA_100uM_R6G_10uM_NaF_0.1M_Addition_RamanShift__13__15-32-17-458.txt Node

Date: Fri Dec 17 15:32:17 GMT 2021
User: TCL
Spectrometer: QEP01345
Trigger mode: 4
Integration Time (sec): 7.000000E0
Scans to average: 10
Electric dark correction enabled: true
Nonlinearity correction enabled: false
Boxcar width: 0
XAxis mode: Raman Shifts
Number of Pixels in Spectrum: 1044
>>>>>Begin Spectral Data<<<<<
46.04893	-0.55
50.45542	-0.15
54.85868	-1.55
59.25871	0.65
63.6555	65.55
68.04907	62.05
72.43941	68.75
76.82654	78.55
81.21044	76.15
85.59113	78.85
89.96862	89.25
94.34289	86.75
98.71396	90.75
103.08183	91.05
107.4465	93.65
111.80798	97.85
116.16626	96.05
120.52136	99.15
124.87327	103.35
129.222	107.55
133.56755	111.95
137.90993	119.15
142.24913	124.65
146.58517	136.05
150.91804	151.85
155.24774	177.85
159.57429	218.15
163.89768	268.15
168.21792	348.45
172.53501	467.85
176.84895	646.35
181.15975	903.15
185.46741	1262.45
189.77193	1741.85
194.07331	2327.95
198.37157	3028.05
202.6667	3748.45
206.9587	4454.65
211.24758	5163.45
215.53334	5842.35
219.81599	6560.15
224.09553	7366.45
228.37195	8226.15
232.64527	9177.25
236.91549	10251.05
241.18261	11327.15
245.44663	12370.95
249.70755	13326.45
253.96539	14176.35
258.22014	14872.75
262.4718	15405.55
266.72039	15763.55
270.96589	15920.05
275.20832	15936.65
279.44768	15785.85
283.68397	15594.75
287.91719	15337.75
292.14735	15153.75
296.37445	15076.95
300.59849	15024.55
304.81948	15030.65
309.03742	14959.05
313.25231	14866.55
317.46415	14632.15
321.67296	14416.75
325.87872	14226.85
330.08145	14155.45
334.28114	14240.55
338.47781	14328.05
342.67145	14532.35
346.86207	14739.85
351.04966	14985.45
355.23424	15224.45
359.4158	15464.05
363.59435	15677.15
367.76989	15867.45
371.94243	16011.05
376.11196	16150.45
380.27849	16256.35
384.44203	16352.35
388.60257	16451.35
392.76012	16539.05
396.91468	16667.45
401.06626	16851.85
405.21485	17018.75
409.36047	17004.55
413.50311	16865.05
417.64277	16692.45
421.77947	16571.75
425.9132	16540.35
430.04396	16564.45
434.17176	16609.15
438.2966	16742.15
442.41849	16879.75
446.53742	17028.65
450.6534	17204.45
454.76644	17354.25
458.87653	17490.45
462.98368	17530.95
467.08789	17560.45
471.18916	17519.95
475.2875	17446.75
479.38291	17349.25
483.4754	17286.45
487.56496	17258.15
491.6516	17228.65
495.73531	17227.45
499.81612	17220.55
503.89401	17305.45
507.96899	17399.85
512.04106	17443.85
516.11023	17518.35
520.1765	17478.55
524.23987	17489.15
528.30034	17383.05
532.35792	17318.85
536.41261	17282.45
540.46441	17175.75
544.51333	17155.15
548.55936	17236.95
552.60252	17373.85
556.64279	17520.05
560.6802	17560.55
564.71473	17603.55
568.7464	17631.55
572.7752	17708.35
576.80114	17717.45
580.82422	17762.25
584.84444	17795.65
588.86181	17831.85
592.87633	17833.75
596.888	17850.45
600.89682	18034.55
604.9028	18603.85
608.90594	19874.65
612.90624	21321.35
616.90371	20865.25
620.89834	18856.35
624.89015	17844.95
628.87913	17644.15
632.86528	17715.15
636.84862	17884.35
640.82913	17880.35
644.80683	17692.35
648.78172	17514.35
652.75379	17510.45
656.72306	17658.55
660.68952	17809.55
664.65319	17875.75
668.61405	17764.95
672.57211	17746.65
676.52738	17761.35
680.47986	17758.15
684.42955	17675.15
688.37646	17665.25
692.32058	17681.85
696.26192	17759.45
700.20048	17849.35
704.13626	17945.05
708.06928	17946.15
711.99952	17831.75
715.927	17781.85
719.85171	17766.85
723.77365	17733.75
727.69284	17682.45
731.60928	17601.95
735.52295	17578.45
739.43388	17579.65
743.34206	17614.55
747.24749	17635.25
751.15017	17690.95
755.05012	17744.25
758.94733	17948.85
762.8418	18381.45
766.73354	19112.25
770.62254	19950.85
774.50882	20437.45
778.39237	20125.95
782.27321	19331.55
786.15132	18528.75
790.02671	18034.15
793.89938	17764.65
797.76935	17641.75
801.6366	17561.85
805.50115	17508.35
809.36299	17479.95
813.22213	17426.25
817.07857	17470.85
820.93231	17460.15
824.78336	17454.35
828.63172	17449.65
832.47738	17442.55
836.32036	17445.45
840.16066	17415.15
843.99827	17396.65
847.8332	17388.35
851.66546	17423.55
855.49504	17390.15
859.32195	17393.25
863.1462	17407.15
866.96777	17411.95
870.78668	17417.45
874.60293	17423.25
878.41652	17448.75
882.22745	17491.35
886.03573	17509.05
889.84136	17531.25
893.64433	17524.55
897.44466	17490.65
901.24235	17495.65
905.0374	17442.05
908.8298	17421.35
912.61957	17430.55
916.40671	17434.45
920.19121	17438.45
923.97308	17449.75
927.75233	17456.75
931.52895	17469.95
935.30295	17444.55
939.07433	17294.45
942.84309	17174.55
946.60924	17121.45
950.37278	17026.45
954.13371	16988.35
957.89203	16970.05
961.64774	16930.85
965.40086	16944.35
969.15137	16886.45
972.89929	16839.25
976.64461	16857.65
980.38733	16849.95
984.12747	16831.75
987.86502	16860.95
991.59999	16876.45
995.33237	16902.45
999.06217	16969.05
1002.78939	17032.95
1006.51404	17116.35
1010.23611	17209.45
1013.95561	17314.95
1017.67255	17357.45
1021.38692	17311.25
1025.09872	17254.25
1028.80796	17194.45
1032.51465	17171.25
1036.21877	17172.15
1039.92035	17150.35
1043.61937	17204.55
1047.31584	17235.05
1051.00976	17325.05
1054.70114	17323.55
1058.38998	17391.35
1062.07627	17447.55
1065.76003	17555.75
1069.44126	17614.55
1073.11995	17788.25
1076.79611	17931.65
1080.46974	17999.95
1084.14085	18010.95
1087.80943	18030.85
1091.47549	18049.95
1095.13903	18082.75
1098.80005	18063.15
1102.45857	17965.35
1106.11456	17831.75
1109.76805	17746.25
1113.41903	17719.45
1117.06751	17733.85
1120.71348	17824.95
1124.35696	17954.75
1127.99793	18065.35
1131.63641	18153.45
1135.2724	18010.95
1138.90589	17864.55
1142.5369	17735.45
1146.16542	17640.95
1149.79145	17600.25
1153.415	17513.55
1157.03607	17533.35
1160.65467	17605.85
1164.27079	17768.75
1167.88443	18063.85
1171.49561	18435.25
1175.10432	18971.55
1178.71056	19736.35
1182.31434	20418.85
1185.91565	20847.15
1189.51451	20978.25
1193.11091	20790.75
1196.70485	20458.35
1200.29634	20058.85
1203.88538	19667.85
1207.47197	19212.55
1211.05612	18749.55
1214.63782	18452.35
1218.21708	18252.95
1221.79391	18126.05
1225.36829	18020.95
1228.94024	17991.55
1232.50976	18029.75
1236.07685	18081.65
1239.6415	18099.25
1243.20374	18120.75
1246.76355	18221.65
1250.32093	18267.25
1253.8759	18352.55
1257.42845	18515.55
1260.97859	18700.25
1264.52631	18909.65
1268.07163	19058.55
1271.61453	19190.35
1275.15503	19287.05
1278.69312	19368.25
1282.22882	19429.15
1285.76211	19469.55
1289.29301	19581.25
1292.82151	19768.75
1296.34761	20000.05
1299.87133	20325.65
1303.39266	20789.65
1306.9116	21348.65
1310.42815	21995.75
1313.94233	22344.75
1317.45412	22306.05
1320.96354	22050.15
1324.47058	21694.95
1327.97525	21370.55
1331.47754	21057.45
1334.97747	20958.85
1338.47502	21027.45
1341.97022	21334.55
1345.46305	21801.85
1348.95352	22294.95
1352.44163	22796.95
1355.92738	23219.95
1359.41078	23863.25
1362.89183	24578.95
1366.37053	24380.75
1369.84688	22953.15
1373.32088	21329.45
1376.79254	20197.95
1380.26186	19469.95
1383.72883	19064.65
1387.19347	18774.35
1390.65578	18499.35
1394.11575	18187.55
1397.57339	17988.95
1401.0287	17822.65
1404.48168	17720.25
1407.93234	17672.25
1411.38068	17597.55
1414.82669	17625.05
1418.27039	17489.15
1421.71177	17387.45
1425.15083	17254.95
1428.58758	17091.85
1432.02203	17042.25
1435.45416	16993.45
1438.88399	17019.85
1442.31151	17045.45
1445.73673	17079.85
1449.15965	17130.85
1452.58027	17161.15
1455.9986	17177.85
1459.41463	17245.95
1462.82837	17415.35
1466.23982	17557.25
1469.64898	17780.45
1473.05586	17954.85
1476.46045	18081.15
1479.86276	18243.45
1483.26279	18354.35
1486.66054	18489.35
1490.05602	18625.65
1493.44922	18995.15
1496.84016	19491.05
1500.22882	20350.65
1503.61521	21405.85
1506.99934	22516.45
1510.38121	23267.65
1513.76081	23275.35
1517.13816	22572.35
1520.51324	21512.05
1523.88607	20537.65
1527.25665	19806.15
1530.62498	19358.05
1533.99105	19129.85
1537.35488	18928.75
1540.71647	18775.95
1544.07581	18675.15
1547.4329	18589.35
1550.78776	18535.75
1554.14038	18467.95
1557.49077	18502.35
1560.83892	18588.25
1564.18484	18677.95
1567.52853	18839.75
1570.86999	18970.55
1574.20922	19114.25
1577.54624	19113.75
1580.88103	18834.45
1584.2136	18448.05
1587.54395	18151.85
1590.87208	18059.85
1594.19801	18219.95
1597.52172	18502.05
1600.84321	18701.15
1604.16251	18640.65
1607.47959	18405.05
1610.79447	18137.85
1614.10715	17673.95
1617.41763	17241.55
1620.7259	16870.35
1624.03199	16608.25
1627.33587	16489.65
1630.63757	16419.15
1633.93707	16492.65
1637.23439	16790.75
1640.52951	17265.15
1643.82246	17934.25
1647.11321	18743.95
1650.40179	19362.05
1653.68819	19366.05
1656.97241	18621.55
1660.25446	17614.25
1663.53433	16768.45
1666.81203	16181.25
1670.08756	15783.35
1673.36092	15505.05
1676.63211	15282.75
1679.90115	15151.75
1683.16801	15035.45
1686.43272	14969.95
1689.69527	14867.05
1692.95567	14816.85
1696.2139	14767.45
1699.46999	14738.15
1702.72392	14717.55
1705.97571	14679.05
1709.22535	14661.75
1712.47284	14636.55
1715.71819	14609.85
1718.96139	14615.35
1722.20246	14558.75
1725.44139	14509.15
1728.67818	14460.65
1731.91284	14383.65
1735.14537	14336.55
1738.37576	14317.75
1741.60403	14234.45
1744.83017	14236.85
1748.05418	14178.45
1751.27607	14155.75
1754.49584	14107.75
1757.71349	14116.95
1760.92903	14089.45
1764.14244	14085.05
1767.35375	14081.55
1770.56294	14057.75
1773.77002	14033.05
1776.97499	14009.45
1780.17785	13936.75
1783.37861	13957.35
1786.57727	13937.25
1789.77382	13899.55
1792.96828	13865.25
1796.16064	13834.45
1799.3509	13815.75
1802.53907	13776.85
1805.72514	13755.75
1808.90913	13699.05
1812.09102	13659.05
1815.27083	13668.15
1818.44856	13639.55
1821.6242	13589.85
1824.79776	13574.05
1827.96924	13535.35
1831.13864	13549.25
1834.30597	13529.35
1837.47122	13514.35
1840.6344	13514.05
1843.7955	13490.05
1846.95454	13467.55
1850.11151	13445.85
1853.26642	13425.35
1856.41926	13434.65
1859.57004	13405.35
1862.71876	13401.55
1865.86542	13374.95
1869.01003	13374.35
1872.15258	13339.85
1875.29308	13331.95
1878.43152	13285.45
1881.56792	13291.35
1884.70227	13257.15
1887.83457	13243.55
1890.96482	13233.15
1894.09304	13188.55
1897.21921	13180.15
1900.34335	13193.45
1903.46544	13164.35
1906.58551	13115.95
1909.70353	13106.75
1912.81953	13093.55
1915.93349	13058.85
1919.04543	13040.55
1922.15534	13007.45
1925.26322	12988.75
1928.36908	12950.05
1931.47292	12938.05
1934.57473	12896.45
1937.67453	12853.55
1940.77232	12825.15
1943.86808	12805.15
1946.96184	12785.15
1950.05358	12745.85
1953.14331	12727.75
1956.23103	12680.65
1959.31675	12614.95
1962.40046	12601.85
1965.48217	12555.95
1968.56188	12522.75
1971.63959	12478.05
1974.7153	12422.85
1977.78901	12376.85
1980.86073	12333.55
1983.93046	12291.45
1986.99819	12276.85
1990.06394	12223.45
1993.1277	12187.55
1996.18947	12166.15
1999.24925	12128.05
2002.30706	12085.25
2005.36288	12040.65
2008.41672	12016.25
2011.46859	11968.85
2014.51848	11933.85
2017.56639	11891.25
2020.61233	11867.25
2023.6563	11833.45
2026.6983	11806.05
2029.73833	11743.65
2032.7764	11728.05
2035.8125	11686.75
2038.84664	11668.45
2041.87881	11642.25
2044.90903	11625.15
2047.93729	11580.65
2050.96359	11584.65
2053.98794	11530.75
2057.01034	11523.15
2060.03078	11495.75
2063.04927	11468.75
2066.06582	11482.15
2069.08042	11474.85
2072.09307	11456.05
2075.10378	11464.75
2078.11255	11456.05
2081.11938	11465.55
2084.12426	11437.15
2087.12722	11424.75
2090.12824	11424.25
2093.12732	11399.05
2096.12447	11430.25
2099.11969	11421.75
2102.11299	11403.35
2105.10435	11417.45
2108.09379	11417.95
2111.08131	11438.65
2114.0669	11420.35
2117.05057	11417.25
2120.03233	11428.95
2123.01216	11443.25
2125.99008	11439.75
2128.96609	11453.45
2131.94018	11450.25
2134.91236	11449.25
2137.88263	11470.55
2140.851	11464.25
2143.81746	11471.85
2146.78201	11456.05
2149.74466	11468.05
2152.7054	11462.75
2155.66425	11446.85
2158.6212	11444.55
2161.57625	11444.35
2164.52941	11445.95
2167.48067	11425.45
2170.43004	11431.05
2173.37752	11400.05
2176.32311	11393.95
2179.26681	11393.15
2182.20863	11394.45
2185.14856	11383.05
2188.08661	11357.35
2191.02278	11361.85
2193.95707	11341.95
2196.88948	11357.15
2199.82001	11340.95
2202.74867	11313.95
2205.67545	11304.75
2208.60037	11301.15
2211.52341	11246.75
2214.44458	11215.35
2217.36388	11189.55
2220.28132	11180.95
2223.1969	11137.65
2226.11061	11118.75
2229.02246	11105.65
2231.93245	11070.75
2234.84058	11038.75
2237.74686	11050.15
2240.65128	11035.15
2243.55385	11010.35
2246.45456	10988.65
2249.35343	10976.85
2252.25044	10939.45
2255.14561	10943.85
2258.03893	10930.15
2260.93041	10887.15
2263.82004	10896.35
2266.70783	10860.15
2269.59378	10826.35
2272.4779	10796.35
2275.36017	10773.25
2278.24061	10767.65
2281.11922	10732.35
2283.996	10685.75
2286.87094	10707.15
2289.74405	10637.85
2292.61534	10647.85
2295.4848	10619.95
2298.35243	10603.65
2301.21824	10596.65
2304.08223	10592.95
2306.94439	10585.25
2309.80474	10569.75
2312.66327	10546.35
2315.51999	10517.15
2318.37489	10515.55
2321.22797	10492.55
2324.07925	10481.15
2326.92871	10457.55
2329.77637	10436.95
2332.62222	10435.35
2335.46626	10396.55
2338.3085	10380.55
2341.14893	10360.45
2343.98756	10333.55
2346.8244	10318.85
2349.65943	10325.25
2352.49267	10297.25
2355.32411	10307.05
2358.15376	10290.95
2360.98161	10282.55
2363.80768	10276.05
2366.63195	10261.05
2369.45444	10233.65
2372.27514	10226.95
2375.09405	10234.05
2377.91118	10210.95
2380.72652	10180.55
2383.54009	10150.95
2386.35187	10151.45
2389.16188	10112.05
2391.97011	10088.45
2394.77657	10038.95
2397.58125	10034.35
2400.38416	9996.85
2403.18529	10006.45
2405.98466	9978.25
2408.78226	9928.25
2411.57809	9917.95
2414.37216	9924.45
2417.16446	9924.65
2419.955	9887.95
2422.74378	9870.25
2425.5308	9869.75
2428.31606	9844.05
2431.09956	9851.75
2433.88131	9843.75
2436.6613	9827.05
2439.43954	9824.85
2442.21603	9775.45
2444.99077	9776.75
2447.76377	9775.95
2450.53501	9762.95
2453.30451	9765.25
2456.07226	9724.85
2458.83827	9721.05
2461.60254	9712.95
2464.36507	9697.35
2467.12586	9678.25
2469.88492	9657.15
2472.64224	9659.95
2475.39782	9667.75
2478.15167	9644.75
2480.90379	9632.25
2483.65417	9615.05
2486.40283	9592.75
2489.14976	9608.85
2491.89497	9591.75
2494.63845	9593.25
2497.3802	9561.55
2500.12024	9534.75
2502.85855	9525.85
2505.59514	9518.85
2508.33002	9508.95
2511.06318	9494.65
2513.79462	9483.25
2516.52435	9464.35
2519.25237	9444.15
2521.97867	9438.95
2524.70327	9416.55
2527.42616	9374.95
2530.14734	9382.05
2532.86681	9367.75
2535.58458	9331.65
2538.30065	9317.55
2541.01501	9300.05
2543.72768	9288.35
2546.43864	9275.55
2549.14791	9247.65
2551.85548	9235.55
2554.56136	9201.35
2557.26554	9210.75
2559.96803	9173.15
2562.66883	9135.25
2565.36794	9149.15
2568.06536	9154.05
2570.7611	9104.25
2573.45514	9079.05
2576.14751	9073.55
2578.83819	9052.85
2581.52719	9045.15
2584.21451	9021.35
2586.90015	8998.75
2589.58411	8994.85
2592.2664	8970.25
2594.94701	8918.15
2597.62594	8930.05
2600.30321	8872.75
2602.9788	8874.25
2605.65273	8859.95
2608.32498	8839.85
2610.99557	8840.25
2613.66449	8805.25
2616.33175	8791.85
2618.99734	8773.05
2621.66128	8759.65
2624.32355	8751.65
2626.98416	8736.25
2629.64311	8744.75
2632.30041	8731.25
2634.95605	8700.25
2637.61004	8672.95
2640.26238	8676.75
2642.91306	8638.65
2645.56209	8635.05
2648.20948	8622.65
2650.85521	8612.65
2653.4993	8598.45
2656.14175	8606.45
2658.78255	8612.45
2661.42171	8603.65
2664.05923	8602.45
2666.6951	8594.35
2669.32934	8586.65
2671.96194	8567.55
2674.59291	8583.35
2677.22224	8570.25
2679.84993	8563.75
2682.476	8546.15
2685.10043	8576.35
2687.72324	8559.75
2690.34441	8552.95
2692.96396	8538.35
2695.58188	8550.95
2698.19818	8537.75
2700.81285	8524.75
2703.4259	8524.85
2706.03733	8530.95
2708.64714	8518.85
2711.25533	8521.15
2713.86191	8512.45
2716.46687	8520.25
2719.07021	8490.75
2721.67194	8504.75
2724.27206	8475.65
2726.87057	8484.95
2729.46747	8459.05
2732.06276	8475.95
2734.65644	8430.55
2737.24852	8458.25
2739.83899	8421.85
2742.42786	8422.25
2745.01513	8432.95
2747.60079	8407.55
2750.18486	8404.45
2752.76733	8394.25
2755.3482	8369.75
2757.92747	8377.15
2760.50515	8349.45
2763.08123	8344.65
2765.65573	8322.15
2768.22863	8313.05
2770.79994	8291.05
2773.36967	8298.45
2775.9378	8265.05
2778.50435	8262.35
2781.06932	8242.55
2783.6327	8213.05
2786.1945	8212.65
2788.75471	8195.95
2791.31335	8153.65
2793.87041	8160.55
2796.42589	8114.95
2798.97979	8110.85
2801.53212	8087.95
2804.08288	8080.85
2806.63206	8053.65
2809.17967	8034.85
2811.72571	8014.15
2814.27018	8014.45
2816.81308	7992.15
2819.35442	7964.55
2821.89419	7928.15
2824.43239	7925.05
2826.96904	7913.35
2829.50412	7920.25
2832.03763	7897.05
2834.56959	7903.05
2837.1	7895.35
2839.62884	7889.95
2842.15613	7859.15
2844.68186	7886.85
2847.20604	7868.55
2849.72867	7868.15
2852.24974	7856.25
2854.76927	7833.75
2857.28724	7837.25
2859.80367	7823.75
2862.31855	7803.75
2864.83189	7796.65
2867.34368	7762.45
2869.85393	7768.35
2872.36264	7783.65
2874.8698	7744.85
2877.37543	7771.65
2879.87952	7773.05
2882.38207	7762.35
2884.88308	7758.15
2887.38256	7742.15
2889.88051	7730.95
2892.37692	7724.85
2894.8718	7713.65
2897.36515	7737.35
2899.85698	7716.45
2902.34727	7723.15
2904.83604	7725.75
2907.32328	7710.55
2909.809	7724.75
2912.29319	7744.95
2914.77587	7708.15
2917.25702	7698.45
2919.73665	7700.25
2922.21476	7689.45
2924.69136	7676.95
2927.16644	7671.95
2929.64	7657.25
2932.11205	7675.65
2934.58258	7622.55
2937.05161	7650.05
2939.51912	7639.95
2941.98513	7648.05
2944.44962	7618.05
2946.91261	7594.65
2949.37409	7588.75
2951.83407	7598.45
2954.29254	7567.45
2956.74951	7563.05
2959.20498	7562.15
2961.65895	7560.55
2964.11142	7555.55
2966.56239	7523.05
2969.01186	7537.05
2971.45984	7536.35
2973.90632	7508.25
2976.35131	7488.45
2978.7948	7477.25
2981.23681	7467.15
2983.67732	7445.55
2986.11635	7432.35
2988.55388	7409.35
2990.98993	7408.55
2993.4245	7389.95
2995.85758	7394.15
2998.28917	7388.95
3000.71928	7361.35
3003.14791	7337.85
3005.57506	7339.95
3008.00073	7314.35
3010.42493	7319.65
3012.84764	7298.95
3015.26888	7283.25
3017.68865	7268.25
3020.10694	7272.25
3022.52376	7238.15
3024.9391	7249.45
3027.35298	7213.65
3029.76539	7203.15
3032.17632	7188.55
3034.5858	7179.65
3036.9938	7158.55
3039.40034	7161.55
3041.80542	7137.35
3044.20903	7133.85
3046.61118	7139.55
3049.01187	7104.95
3051.4111	7136.35
3053.80888	7092.75
3056.20519	7091.05
3058.60005	7079.15
3060.99345	7070.95
3063.3854	7074.65
3065.7759	7034.65
3068.16494	7031.15
3070.55254	7001.75
3072.93868	7021.75
3075.32338	6994.35
3077.70662	6998.15
3080.08842	6972.25
3082.46878	6980.65
3084.84769	6962.45
3087.22515	6963.65
3089.60118	6975.25
3091.97576	6965.75
3094.3489	6967.15
3096.72061	6954.55
3099.09087	6993.95
3101.4597	6952.45
3103.82709	6959.15
3106.19305	6958.25
3108.55757	6948.05
3110.92066	6916.55
3113.28232	6915.65
3115.64255	6887.75
3118.00134	6884.15
3120.35871	6914.55
3122.71466	6860.05
3125.06917	6859.05
3127.42226	6841.95
3129.77393	6865.95
3132.12417	6855.55
3134.47299	6865.75
3136.82039	6854.85
3139.16636	6851.15
3141.51092	6866.15
3143.85406	6838.45
3146.19579	6867.35
3148.53609	6855.05
3150.87499	6885.75
3153.21246	6864.95
3155.54853	6905.15
3157.88318	6900.75
3160.21642	6912.55
3162.54826	6881.45
3164.87868	6894.95
3167.2077	6885.45
3169.5353	6877.95
3171.86151	6874.15
3174.18631	6862.35
3176.5097	6835.45
3178.83169	6857.05
3181.15228	6855.55
3183.47147	6832.55
3185.78926	6854.25
3188.10565	6845.55
3190.42065	6824.45
3192.73424	6825.25
3195.04645	6831.55
3197.35725	6826.95
3199.66667	6816.15
3201.97469	6848.75
3204.28132	6823.45
3206.58656	6830.45
3208.8904	6866.05
3211.19287	6843.75
3213.49394	6870.35
3215.79363	6842.95
3218.09193	6865.85
3220.38884	6842.75
3222.68438	6855.25
3224.97853	6830.35
3227.2713	6828.55
3229.56269	6835.45
3231.8527	6822.25
3234.14133	6812.65
3236.42858	6793.05
3238.71446	6767.05
3240.99896	6765.55
3243.28209	6764.55
3245.56384	6759.25
3247.84423	6767.85
3250.12324	6761.35
3252.40088	6756.75
3254.67715	6744.25
3256.95205	6726.05
3259.22558	6716.15
3261.49775	6706.45
3263.76855	6707.15
3266.03799	6692.55
3268.30606	6677.35
3270.57277	6676.65
3272.83812	6640.95
3275.10211	6645.95
3277.36474	6649.95
3279.62601	6622.05
3281.88593	6623.75
3284.14448	6635.05
3286.40168	6614.65
3288.65753	6599.25
3290.91202	6576.95
3293.16516	6565.35
3295.41695	6531.55
3297.66738	6506.35
3299.91647	6463.35
3302.16421	6424.05
3304.4106	6410.55
3306.65564	6386.85
3308.89933	6339.75
3311.14169	6314.05
3313.38269	6259.25
3315.62236	6240.75
3317.86068	6159.35
3320.09766	6132.75
3322.3333	6071.75
3324.5676	6084.95
3326.80056	5951.85
3329.03219	5925.65
3331.26248	2.55
3333.49143	-0.65
3335.71905	0.55
