Data from AgNPs_FTO_APTES_UA_100uM_R6G_10uM_NaF_0.1M_Addition_RamanShift__1__15-18-17-442.txt Node

Date: Fri Dec 17 15:18:17 GMT 2021
User: TCL
Spectrometer: QEP01345
Trigger mode: 4
Integration Time (sec): 7.000000E0
Scans to average: 10
Electric dark correction enabled: true
Nonlinearity correction enabled: false
Boxcar width: 0
XAxis mode: Raman Shifts
Number of Pixels in Spectrum: 1044
>>>>>Begin Spectral Data<<<<<
46.04893	-1.05
50.45542	0.75
54.85868	-1.95
59.25871	0.45
63.6555	62.35
68.04907	67.15
72.43941	67.05
76.82654	73.15
81.21044	75.05
85.59113	79.65
89.96862	83.05
94.34289	84.15
98.71396	90.25
103.08183	89.05
107.4465	90.85
111.80798	91.15
116.16626	100.45
120.52136	93.05
124.87327	100.55
129.222	105.95
133.56755	108.25
137.90993	115.55
142.24913	127.45
146.58517	134.45
150.91804	155.35
155.24774	178.75
159.57429	216.95
163.89768	265.65
168.21792	344.35
172.53501	462.95
176.84895	642.85
181.15975	889.75
185.46741	1237.15
189.77193	1703.75
194.07331	2278.65
198.37157	2936.35
202.6667	3634.35
206.9587	4322.55
211.24758	5007.55
215.53334	5677.65
219.81599	6389.45
224.09553	7185.95
228.37195	8056.15
232.64527	9047.35
236.91549	10101.35
241.18261	11140.45
245.44663	12086.65
249.70755	12951.95
253.96539	13653.25
258.22014	14282.25
262.4718	14782.25
266.72039	15137.05
270.96589	15322.65
275.20832	15344.95
279.44768	15226.85
283.68397	15044.55
287.91719	14847.25
292.14735	14773.65
296.37445	14781.25
300.59849	14857.25
304.81948	15003.25
309.03742	15007.65
313.25231	14875.05
317.46415	14527.35
321.67296	14082.45
325.87872	13735.15
330.08145	13543.25
334.28114	13550.85
338.47781	13674.45
342.67145	13872.65
346.86207	14067.25
351.04966	14409.15
355.23424	14763.05
359.4158	15037.15
363.59435	15289.15
367.76989	15440.35
371.94243	15579.25
376.11196	15668.25
380.27849	15713.25
384.44203	15813.95
388.60257	15818.35
392.76012	15904.75
396.91468	16067.55
401.06626	16281.35
405.21485	16459.25
409.36047	16340.35
413.50311	16045.25
417.64277	15737.95
421.77947	15549.25
425.9132	15462.25
430.04396	15503.15
434.17176	15555.15
438.2966	15624.25
442.41849	15807.75
446.53742	16044.55
450.6534	16266.75
454.76644	16525.95
458.87653	16640.55
462.98368	16675.35
467.08789	16598.25
471.18916	16488.95
475.2875	16309.65
479.38291	16192.15
483.4754	16070.25
487.56496	15975.45
491.6516	15845.65
495.73531	15774.65
499.81612	15760.85
503.89401	15834.85
507.96899	15908.35
512.04106	15939.65
516.11023	16017.95
520.1765	16030.55
524.23987	15973.75
528.30034	15867.35
532.35792	15752.45
536.41261	15616.75
540.46441	15518.95
544.51333	15442.35
548.55936	15577.85
552.60252	15750.95
556.64279	16011.05
560.6802	16125.25
564.71473	16192.25
568.7464	16293.95
572.7752	16520.45
576.80114	16562.75
580.82422	16668.85
584.84444	16798.05
588.86181	16955.45
592.87633	16984.85
596.888	17033.75
600.89682	17169.75
604.9028	17937.15
608.90594	19838.45
612.90624	22030.35
616.90371	21162.85
620.89834	17758.05
624.89015	16175.95
628.87913	15927.15
632.86528	16103.95
636.84862	16297.45
640.82913	16225.45
644.80683	15872.25
648.78172	15547.35
652.75379	15454.65
656.72306	15591.95
660.68952	15855.85
664.65319	15761.55
668.61405	15464.95
672.57211	15350.85
676.52738	15386.25
680.47986	15374.15
684.42955	15332.95
688.37646	15250.85
692.32058	15285.75
696.26192	15386.65
700.20048	15501.55
704.13626	15603.95
708.06928	15605.95
711.99952	15489.05
715.927	15516.05
719.85171	15494.65
723.77365	15498.95
727.69284	15401.45
731.60928	15257.45
735.52295	15228.75
739.43388	15236.75
743.34206	15302.15
747.24749	15328.45
751.15017	15362.55
755.05012	15506.25
758.94733	15860.05
762.8418	16554.75
766.73354	17815.35
770.62254	19192.25
774.50882	19885.05
778.39237	19199.15
782.27321	17785.05
786.15132	16530.85
790.02671	15768.95
793.89938	15402.95
797.76935	15235.75
801.6366	15167.85
805.50115	15130.25
809.36299	15072.15
813.22213	15032.95
817.07857	15037.15
820.93231	14981.05
824.78336	14979.05
828.63172	14923.65
832.47738	14898.55
836.32036	14907.05
840.16066	14870.15
843.99827	14902.45
847.8332	14871.15
851.66546	14843.15
855.49504	14825.05
859.32195	14830.05
863.1462	14828.25
866.96777	14807.05
870.78668	14814.95
874.60293	14807.55
878.41652	14852.15
882.22745	14890.75
886.03573	14955.55
889.84136	14979.75
893.64433	14930.15
897.44466	14901.75
901.24235	14840.65
905.0374	14749.05
908.8298	14743.25
912.61957	14704.45
916.40671	14795.65
920.19121	14878.65
923.97308	14930.95
927.75233	14971.15
931.52895	14944.35
935.30295	14826.85
939.07433	14638.45
942.84309	14466.45
946.60924	14342.85
950.37278	14277.35
954.13371	14232.75
957.89203	14187.65
961.64774	14194.85
965.40086	14138.75
969.15137	14109.95
972.89929	14104.65
976.64461	14089.65
980.38733	14044.85
984.12747	14095.25
987.86502	14138.55
991.59999	14218.15
995.33237	14323.05
999.06217	14468.75
1002.78939	14650.95
1006.51404	14800.05
1010.23611	14935.75
1013.95561	15054.05
1017.67255	15076.95
1021.38692	15046.55
1025.09872	14899.45
1028.80796	14830.45
1032.51465	14842.75
1036.21877	14907.75
1039.92035	14985.15
1043.61937	15015.45
1047.31584	15004.05
1051.00976	14954.75
1054.70114	14946.45
1058.38998	14964.05
1062.07627	15044.25
1065.76003	15204.65
1069.44126	15342.35
1073.11995	15569.25
1076.79611	15782.05
1080.46974	15843.45
1084.14085	15877.45
1087.80943	15959.05
1091.47549	16047.05
1095.13903	16073.55
1098.80005	15878.45
1102.45857	15659.15
1106.11456	15422.75
1109.76805	15319.15
1113.41903	15382.95
1117.06751	15503.95
1120.71348	15727.75
1124.35696	15933.25
1127.99793	16174.25
1131.63641	16328.15
1135.2724	16201.85
1138.90589	15958.55
1142.5369	15802.85
1146.16542	15682.95
1149.79145	15639.75
1153.415	15551.55
1157.03607	15647.15
1160.65467	15859.15
1164.27079	16237.15
1167.88443	16760.85
1171.49561	17512.65
1175.10432	18563.45
1178.71056	19894.05
1182.31434	21134.35
1185.91565	21738.45
1189.51451	21696.65
1193.11091	21157.15
1196.70485	20403.45
1200.29634	19659.35
1203.88538	19057.85
1207.47197	18441.85
1211.05612	17940.95
1214.63782	17506.45
1218.21708	17257.15
1221.79391	17044.55
1225.36829	16925.85
1228.94024	16821.75
1232.50976	16782.25
1236.07685	16806.25
1239.6415	16816.75
1243.20374	16838.85
1246.76355	16932.95
1250.32093	17119.35
1253.8759	17339.35
1257.42845	17708.75
1260.97859	18054.25
1264.52631	18371.25
1268.07163	18721.45
1271.61453	19104.75
1275.15503	19319.05
1278.69312	19596.55
1282.22882	19758.55
1285.76211	20051.45
1289.29301	20376.75
1292.82151	20887.75
1296.34761	21465.85
1299.87133	22243.95
1303.39266	23197.85
1306.9116	24300.85
1310.42815	25379.75
1313.94233	26067.05
1317.45412	25882.85
1320.96354	25292.15
1324.47058	24711.45
1327.97525	24075.75
1331.47754	23566.15
1334.97747	23351.95
1338.47502	23327.15
1341.97022	23520.25
1345.46305	23837.35
1348.95352	24311.15
1352.44163	24953.65
1355.92738	25862.55
1359.41078	27247.35
1362.89183	28749.95
1366.37053	28607.45
1369.84688	26131.05
1373.32088	23269.85
1376.79254	21236.15
1380.26186	20246.85
1383.72883	19742.55
1387.19347	19383.15
1390.65578	19012.95
1394.11575	18746.55
1397.57339	18473.75
1401.0287	18441.85
1404.48168	18395.15
1407.93234	18349.55
1411.38068	18184.55
1414.82669	18010.05
1418.27039	17710.65
1421.71177	17380.85
1425.15083	17097.95
1428.58758	16887.25
1432.02203	16888.05
1435.45416	17076.75
1438.88399	17278.95
1442.31151	17442.35
1445.73673	17605.65
1449.15965	17725.95
1452.58027	17811.95
1455.9986	17817.55
1459.41463	17918.65
1462.82837	18105.65
1466.23982	18347.05
1469.64898	18646.65
1473.05586	18878.85
1476.46045	19026.85
1479.86276	19134.45
1483.26279	19224.95
1486.66054	19361.65
1490.05602	19596.55
1493.44922	20000.25
1496.84016	20722.75
1500.22882	21806.15
1503.61521	23296.05
1506.99934	24913.45
1510.38121	26272.75
1513.76081	26597.85
1517.13816	25753.35
1520.51324	24108.15
1523.88607	22486.25
1527.25665	21348.95
1530.62498	20709.15
1533.99105	20332.25
1537.35488	20021.05
1540.71647	19710.05
1544.07581	19411.85
1547.4329	19172.75
1550.78776	18965.25
1554.14038	18838.45
1557.49077	18799.15
1560.83892	18875.25
1564.18484	19007.95
1567.52853	19237.65
1570.86999	19509.85
1574.20922	19786.35
1577.54624	19883.65
1580.88103	19593.55
1584.2136	19152.25
1587.54395	18875.25
1590.87208	18982.05
1594.19801	19451.75
1597.52172	20111.05
1600.84321	20401.75
1604.16251	20027.05
1607.47959	19268.15
1610.79447	18409.55
1614.10715	17542.35
1617.41763	16710.85
1620.7259	16082.15
1624.03199	15676.65
1627.33587	15573.25
1630.63757	15709.65
1633.93707	16133.25
1637.23439	16896.85
1640.52951	18120.85
1643.82246	19617.15
1647.11321	21164.85
1650.40179	22110.65
1653.68819	21676.15
1656.97241	19963.85
1660.25446	17863.65
1663.53433	16198.55
1666.81203	15116.65
1670.08756	14445.15
1673.36092	14034.25
1676.63211	13702.35
1679.90115	13494.05
1683.16801	13313.55
1686.43272	13193.55
1689.69527	13120.55
1692.95567	13044.25
1696.2139	13011.55
1699.46999	12948.45
1702.72392	12910.45
1705.97571	12877.85
1709.22535	12803.75
1712.47284	12746.55
1715.71819	12717.15
1718.96139	12687.35
1722.20246	12619.35
1725.44139	12567.95
1728.67818	12507.05
1731.91284	12449.05
1735.14537	12416.65
1738.37576	12377.45
1741.60403	12295.65
1744.83017	12291.25
1748.05418	12266.65
1751.27607	12227.15
1754.49584	12202.95
1757.71349	12224.75
1760.92903	12207.55
1764.14244	12190.25
1767.35375	12168.95
1770.56294	12149.95
1773.77002	12138.65
1776.97499	12106.05
1780.17785	12099.45
1783.37861	12063.95
1786.57727	12065.85
1789.77382	12044.05
1792.96828	12010.45
1796.16064	11972.15
1799.3509	11961.25
1802.53907	11953.35
1805.72514	11933.45
1808.90913	11882.15
1812.09102	11860.65
1815.27083	11820.75
1818.44856	11819.25
1821.6242	11802.05
1824.79776	11782.15
1827.96924	11774.45
1831.13864	11751.75
1834.30597	11739.45
1837.47122	11721.25
1840.6344	11727.45
1843.7955	11723.95
1846.95454	11716.85
1850.11151	11707.35
1853.26642	11684.75
1856.41926	11688.05
1859.57004	11698.35
1862.71876	11678.85
1865.86542	11664.25
1869.01003	11656.15
1872.15258	11623.25
1875.29308	11600.45
1878.43152	11589.55
1881.56792	11595.45
1884.70227	11583.25
1887.83457	11566.15
1890.96482	11533.85
1894.09304	11517.35
1897.21921	11483.55
1900.34335	11522.45
1903.46544	11478.65
1906.58551	11484.85
1909.70353	11458.25
1912.81953	11463.15
1915.93349	11452.95
1919.04543	11426.55
1922.15534	11376.95
1925.26322	11377.45
1928.36908	11331.95
1931.47292	11312.95
1934.57473	11322.65
1937.67453	11247.45
1940.77232	11249.95
1943.86808	11206.75
1946.96184	11186.75
1950.05358	11167.15
1953.14331	11146.15
1956.23103	11091.95
1959.31675	11062.15
1962.40046	11034.95
1965.48217	11014.75
1968.56188	11001.75
1971.63959	10961.25
1974.7153	10933.65
1977.78901	10883.25
1980.86073	10836.25
1983.93046	10815.95
1986.99819	10795.65
1990.06394	10757.85
1993.1277	10726.55
1996.18947	10686.35
1999.24925	10682.25
2002.30706	10617.95
2005.36288	10570.75
2008.41672	10575.85
2011.46859	10540.25
2014.51848	10509.65
2017.56639	10458.15
2020.61233	10450.15
2023.6563	10404.65
2026.6983	10400.25
2029.73833	10396.15
2032.7764	10365.65
2035.8125	10343.35
2038.84664	10314.15
2041.87881	10285.85
2044.90903	10277.45
2047.93729	10259.55
2050.96359	10256.75
2053.98794	10236.25
2057.01034	10219.85
2060.03078	10204.95
2063.04927	10201.05
2066.06582	10204.65
2069.08042	10164.45
2072.09307	10177.85
2075.10378	10166.25
2078.11255	10167.15
2081.11938	10169.75
2084.12426	10156.55
2087.12722	10148.15
2090.12824	10153.25
2093.12732	10138.45
2096.12447	10176.25
2099.11969	10164.35
2102.11299	10162.25
2105.10435	10155.65
2108.09379	10141.95
2111.08131	10189.95
2114.0669	10170.65
2117.05057	10194.75
2120.03233	10203.95
2123.01216	10216.05
2125.99008	10207.15
2128.96609	10225.45
2131.94018	10233.15
2134.91236	10227.45
2137.88263	10243.95
2140.851	10243.05
2143.81746	10264.55
2146.78201	10233.45
2149.74466	10248.95
2152.7054	10247.75
2155.66425	10244.45
2158.6212	10250.75
2161.57625	10227.85
2164.52941	10212.85
2167.48067	10226.95
2170.43004	10213.15
2173.37752	10221.55
2176.32311	10207.65
2179.26681	10218.05
2182.20863	10185.45
2185.14856	10212.75
2188.08661	10201.75
2191.02278	10200.95
2193.95707	10174.95
2196.88948	10188.55
2199.82001	10171.55
2202.74867	10162.55
2205.67545	10162.25
2208.60037	10140.65
2211.52341	10115.05
2214.44458	10111.95
2217.36388	10105.75
2220.28132	10066.65
2223.1969	10046.85
2226.11061	10034.45
2229.02246	10003.55
2231.93245	9999.25
2234.84058	9985.15
2237.74686	9972.65
2240.65128	9970.75
2243.55385	9970.65
2246.45456	9944.45
2249.35343	9938.55
2252.25044	9932.85
2255.14561	9893.65
2258.03893	9897.15
2260.93041	9872.95
2263.82004	9846.75
2266.70783	9825.05
2269.59378	9810.35
2272.4779	9806.05
2275.36017	9757.55
2278.24061	9747.95
2281.11922	9737.25
2283.996	9705.75
2286.87094	9695.35
2289.74405	9666.25
2292.61534	9688.75
2295.4848	9658.35
2298.35243	9633.85
2301.21824	9643.95
2304.08223	9640.15
2306.94439	9641.55
2309.80474	9615.25
2312.66327	9614.85
2315.51999	9600.15
2318.37489	9621.75
2321.22797	9602.25
2324.07925	9586.25
2326.92871	9545.05
2329.77637	9554.35
2332.62222	9537.35
2335.46626	9515.05
2338.3085	9494.05
2341.14893	9511.65
2343.98756	9482.85
2346.8244	9480.45
2349.65943	9478.45
2352.49267	9454.55
2355.32411	9472.85
2358.15376	9472.35
2360.98161	9472.25
2363.80768	9462.15
2366.63195	9469.85
2369.45444	9450.05
2372.27514	9445.95
2375.09405	9423.25
2377.91118	9404.55
2380.72652	9404.85
2383.54009	9367.65
2386.35187	9373.35
2389.16188	9317.25
2391.97011	9293.05
2394.77657	9276.85
2397.58125	9266.65
2400.38416	9256.35
2403.18529	9237.05
2405.98466	9246.05
2408.78226	9196.85
2411.57809	9192.45
2414.37216	9188.25
2417.16446	9198.05
2419.955	9177.65
2422.74378	9168.15
2425.5308	9165.45
2428.31606	9158.15
2431.09956	9161.95
2433.88131	9142.45
2436.6613	9150.55
2439.43954	9113.15
2442.21603	9142.85
2444.99077	9119.75
2447.76377	9124.15
2450.53501	9114.65
2453.30451	9112.25
2456.07226	9066.65
2458.83827	9080.15
2461.60254	9067.05
2464.36507	9066.35
2467.12586	9039.15
2469.88492	9072.75
2472.64224	9060.75
2475.39782	9048.25
2478.15167	9054.85
2480.90379	9045.25
2483.65417	9037.55
2486.40283	9041.55
2489.14976	9042.05
2491.89497	9024.65
2494.63845	9037.25
2497.3802	9044.35
2500.12024	9025.05
2502.85855	9008.15
2505.59514	9011.15
2508.33002	8975.25
2511.06318	8970.75
2513.79462	8958.85
2516.52435	8946.15
2519.25237	8941.95
2521.97867	8924.75
2524.70327	8936.15
2527.42616	8878.85
2530.14734	8873.85
2532.86681	8863.25
2535.58458	8873.25
2538.30065	8851.75
2541.01501	8849.85
2543.72768	8833.75
2546.43864	8837.25
2549.14791	8825.35
2551.85548	8805.15
2554.56136	8788.05
2557.26554	8783.55
2559.96803	8774.65
2562.66883	8781.65
2565.36794	8749.35
2568.06536	8739.25
2570.7611	8736.85
2573.45514	8706.55
2576.14751	8704.15
2578.83819	8703.55
2581.52719	8675.85
2584.21451	8684.05
2586.90015	8671.35
2589.58411	8630.35
2592.2664	8612.55
2594.94701	8604.95
2597.62594	8571.65
2600.30321	8565.95
2602.9788	8569.15
2605.65273	8565.75
2608.32498	8542.35
2610.99557	8530.75
2613.66449	8541.55
2616.33175	8510.35
2618.99734	8522.35
2621.66128	8497.95
2624.32355	8490.05
2626.98416	8482.05
2629.64311	8486.85
2632.30041	8479.15
2634.95605	8460.45
2637.61004	8440.15
2640.26238	8420.45
2642.91306	8432.75
2645.56209	8408.65
2648.20948	8392.45
2650.85521	8415.35
2653.4993	8418.75
2656.14175	8406.05
2658.78255	8410.65
2661.42171	8424.45
2664.05923	8408.95
2666.6951	8387.15
2669.32934	8409.15
2671.96194	8408.75
2674.59291	8406.75
2677.22224	8417.25
2679.84993	8415.35
2682.476	8391.15
2685.10043	8429.15
2687.72324	8392.95
2690.34441	8390.15
2692.96396	8380.95
2695.58188	8406.45
2698.19818	8393.65
2700.81285	8406.15
2703.4259	8416.25
2706.03733	8404.05
2708.64714	8385.65
2711.25533	8391.65
2713.86191	8403.45
2716.46687	8402.65
2719.07021	8392.25
2721.67194	8398.45
2724.27206	8378.65
2726.87057	8394.25
2729.46747	8395.95
2732.06276	8372.25
2734.65644	8362.75
2737.24852	8366.35
2739.83899	8381.15
2742.42786	8352.75
2745.01513	8347.75
2747.60079	8331.45
2750.18486	8318.75
2752.76733	8346.35
2755.3482	8313.05
2757.92747	8329.25
2760.50515	8313.35
2763.08123	8301.75
2765.65573	8284.35
2768.22863	8272.95
2770.79994	8264.15
2773.36967	8255.65
2775.9378	8251.75
2778.50435	8250.35
2781.06932	8214.65
2783.6327	8229.05
2786.1945	8224.95
2788.75471	8198.75
2791.31335	8164.65
2793.87041	8161.85
2796.42589	8146.25
2798.97979	8131.65
2801.53212	8105.45
2804.08288	8138.05
2806.63206	8087.95
2809.17967	8072.85
2811.72571	8083.65
2814.27018	8078.75
2816.81308	8056.35
2819.35442	8054.25
2821.89419	8023.15
2824.43239	8019.45
2826.96904	8010.25
2829.50412	8010.55
2832.03763	7997.45
2834.56959	7990.35
2837.1	7978.25
2839.62884	7993.85
2842.15613	7978.65
2844.68186	7994.15
2847.20604	8012.65
2849.72867	8009.15
2852.24974	8006.85
2854.76927	7992.35
2857.28724	7981.55
2859.80367	7969.65
2862.31855	7950.45
2864.83189	7937.85
2867.34368	7952.95
2869.85393	7953.65
2872.36264	7949.65
2874.8698	7974.15
2877.37543	7943.55
2879.87952	7933.15
2882.38207	7935.35
2884.88308	7932.55
2887.38256	7950.95
2889.88051	7949.75
2892.37692	7946.55
2894.8718	7907.15
2897.36515	7947.05
2899.85698	7945.95
2902.34727	7936.95
2904.83604	7939.65
2907.32328	7950.55
2909.809	7928.75
2912.29319	7973.05
2914.77587	7947.55
2917.25702	7931.75
2919.73665	7929.35
2922.21476	7917.15
2924.69136	7917.85
2927.16644	7952.85
2929.64	7907.35
2932.11205	7900.95
2934.58258	7892.75
2937.05161	7903.15
2939.51912	7893.65
2941.98513	7880.05
2944.44962	7861.05
2946.91261	7831.45
2949.37409	7828.55
2951.83407	7825.65
2954.29254	7828.85
2956.74951	7824.75
2959.20498	7798.25
2961.65895	7811.45
2964.11142	7806.05
2966.56239	7769.75
2969.01186	7782.25
2971.45984	7745.15
2973.90632	7757.95
2976.35131	7748.25
2978.7948	7707.85
2981.23681	7698.25
2983.67732	7684.15
2986.11635	7663.55
2988.55388	7660.35
2990.98993	7662.55
2993.4245	7651.85
2995.85758	7644.45
2998.28917	7636.55
3000.71928	7604.65
3003.14791	7596.05
3005.57506	7573.95
3008.00073	7578.25
3010.42493	7554.05
3012.84764	7558.75
3015.26888	7526.55
3017.68865	7522.45
3020.10694	7524.85
3022.52376	7523.65
3024.9391	7497.45
3027.35298	7498.85
3029.76539	7477.85
3032.17632	7455.35
3034.5858	7441.55
3036.9938	7434.15
3039.40034	7413.85
3041.80542	7435.55
3044.20903	7418.55
3046.61118	7419.55
3049.01187	7387.75
3051.4111	7405.75
3053.80888	7389.55
3056.20519	7396.35
3058.60005	7371.35
3060.99345	7370.85
3063.3854	7375.45
3065.7759	7315.85
3068.16494	7337.35
3070.55254	7317.65
3072.93868	7314.45
3075.32338	7298.25
3077.70662	7295.15
3080.08842	7292.05
3082.46878	7275.15
3084.84769	7271.95
3087.22515	7279.85
3089.60118	7263.55
3091.97576	7257.15
3094.3489	7262.85
3096.72061	7260.95
3099.09087	7262.45
3101.4597	7260.75
3103.82709	7249.05
3106.19305	7228.85
3108.55757	7224.15
3110.92066	7231.85
3113.28232	7210.85
3115.64255	7176.55
3118.00134	7187.65
3120.35871	7201.35
3122.71466	7164.75
3125.06917	7156.65
3127.42226	7150.85
3129.77393	7152.55
3132.12417	7148.25
3134.47299	7177.55
3136.82039	7172.05
3139.16636	7164.85
3141.51092	7159.85
3143.85406	7189.75
3146.19579	7185.35
3148.53609	7192.65
3150.87499	7178.85
3153.21246	7195.35
3155.54853	7201.05
3157.88318	7199.15
3160.21642	7215.75
3162.54826	7218.35
3164.87868	7209.65
3167.2077	7195.05
3169.5353	7217.85
3171.86151	7197.55
3174.18631	7202.25
3176.5097	7191.65
3178.83169	7175.85
3181.15228	7200.65
3183.47147	7178.55
3185.78926	7164.05
3188.10565	7181.75
3190.42065	7171.95
3192.73424	7169.65
3195.04645	7168.45
3197.35725	7150.55
3199.66667	7163.05
3201.97469	7181.85
3204.28132	7183.35
3206.58656	7191.85
3208.8904	7190.75
3211.19287	7193.45
3213.49394	7208.65
3215.79363	7191.05
3218.09193	7201.65
3220.38884	7199.35
3222.68438	7192.45
3224.97853	7170.45
3227.2713	7179.85
3229.56269	7163.15
3231.8527	7172.05
3234.14133	7161.25
3236.42858	7165.65
3238.71446	7136.15
3240.99896	7139.25
3243.28209	7149.05
3245.56384	7117.75
3247.84423	7118.75
3250.12324	7115.85
3252.40088	7144.35
3254.67715	7110.75
3256.95205	7092.65
3259.22558	7092.45
3261.49775	7082.65
3263.76855	7068.25
3266.03799	7056.35
3268.30606	7053.95
3270.57277	7045.45
3272.83812	7032.85
3275.10211	7029.65
3277.36474	7021.85
3279.62601	7019.95
3281.88593	7006.65
3284.14448	7028.05
3286.40168	6997.65
3288.65753	6995.65
3290.91202	6982.15
3293.16516	6945.85
3295.41695	6931.55
3297.66738	6913.95
3299.91647	6868.15
3302.16421	6838.05
3304.4106	6811.65
3306.65564	6770.65
3308.89933	6725.15
3311.14169	6707.75
3313.38269	6660.55
3315.62236	6620.25
3317.86068	6552.75
3320.09766	6481.65
3322.3333	6456.15
3324.5676	6435.75
3326.80056	6345.25
3329.03219	6291.45
3331.26248	1.65
3333.49143	1.55
3335.71905	-0.35
