Data from AgNPs_FTO_APTES_UA_1uM_R6G_10uM_NaF_0.1M_Addition_RamanShift__14__11-20-17-170.txt Node

Date: Fri Dec 17 11:20:17 GMT 2021
User: TCL
Spectrometer: QEP01345
Trigger mode: 4
Integration Time (sec): 7.000000E0
Scans to average: 10
Electric dark correction enabled: true
Nonlinearity correction enabled: false
Boxcar width: 0
XAxis mode: Raman Shifts
Number of Pixels in Spectrum: 1044
>>>>>Begin Spectral Data<<<<<
46.04893	-0.25
50.45542	0.45
54.85868	-1.35
59.25871	-0.65
63.6555	99.15
68.04907	102.85
72.43941	108.55
76.82654	114.65
81.21044	114.05
85.59113	119.95
89.96862	130.85
94.34289	126.25
98.71396	135.95
103.08183	143.15
107.4465	144.35
111.80798	147.55
116.16626	151.25
120.52136	151.95
124.87327	162.35
129.222	168.25
133.56755	175.15
137.90993	187.65
142.24913	203.85
146.58517	225.95
150.91804	256.35
155.24774	298.35
159.57429	367.55
163.89768	466.55
168.21792	607.65
172.53501	813.05
176.84895	1126.05
181.15975	1555.45
185.46741	2193.35
189.77193	3044.25
194.07331	4078.75
198.37157	5265.65
202.6667	6547.65
206.9587	7803.65
211.24758	9039.85
215.53334	10268.55
219.81599	11551.35
224.09553	12985.45
228.37195	14520.65
232.64527	16316.35
236.91549	18178.65
241.18261	20110.55
245.44663	21984.95
249.70755	23703.65
253.96539	25195.25
258.22014	26449.05
262.4718	27412.75
266.72039	27956.95
270.96589	28219.25
275.20832	28063.85
279.44768	27705.45
283.68397	27243.15
287.91719	26755.15
292.14735	26320.75
296.37445	25995.25
300.59849	25806.75
304.81948	25660.15
309.03742	25544.95
313.25231	25326.55
317.46415	25008.55
321.67296	24658.15
325.87872	24452.25
330.08145	24362.05
334.28114	24411.75
338.47781	24579.65
342.67145	24833.65
346.86207	25134.35
351.04966	25493.25
355.23424	25860.85
359.4158	26230.35
363.59435	26535.25
367.76989	26792.25
371.94243	26971.65
376.11196	27064.25
380.27849	27147.35
384.44203	27224.95
388.60257	27364.25
392.76012	27629.15
396.91468	27862.75
401.06626	28235.65
405.21485	28478.15
409.36047	28464.45
413.50311	28214.95
417.64277	28031.55
421.77947	28015.25
425.9132	28137.95
430.04396	28282.15
434.17176	28407.05
438.2966	28556.45
442.41849	28786.95
446.53742	29070.65
450.6534	29470.35
454.76644	29748.35
458.87653	29901.25
462.98368	29988.55
467.08789	29903.95
471.18916	29806.25
475.2875	29629.05
479.38291	29426.05
483.4754	29342.75
487.56496	29269.75
491.6516	29179.75
495.73531	29083.25
499.81612	28999.55
503.89401	29074.95
507.96899	29186.85
512.04106	29262.05
516.11023	29338.95
520.1765	29242.95
524.23987	29163.05
528.30034	29028.05
532.35792	28956.55
536.41261	28903.65
540.46441	28823.15
544.51333	28836.65
548.55936	29038.45
552.60252	29335.85
556.64279	29688.55
560.6802	29876.65
564.71473	30106.35
568.7464	30322.85
572.7752	30594.85
576.80114	30898.75
580.82422	31208.95
584.84444	31550.85
588.86181	31888.55
592.87633	32157.95
596.888	32135.45
600.89682	32115.85
604.9028	32698.85
608.90594	34521.15
612.90624	36381.85
616.90371	35254.85
620.89834	32037.85
624.89015	30515.85
628.87913	30147.25
632.86528	30140.65
636.84862	30058.75
640.82913	29773.85
644.80683	29316.45
648.78172	28952.05
652.75379	28879.55
656.72306	29067.25
660.68952	29371.15
664.65319	29380.05
668.61405	29185.85
672.57211	29124.15
676.52738	29293.95
680.47986	29270.75
684.42955	29165.85
688.37646	29173.35
692.32058	29204.75
696.26192	29389.65
700.20048	29554.65
704.13626	29784.25
708.06928	29795.55
711.99952	29700.75
715.927	29632.75
719.85171	29535.85
723.77365	29492.65
727.69284	29366.65
731.60928	29139.75
735.52295	29017.75
739.43388	28988.65
743.34206	29111.35
747.24749	29143.75
751.15017	29282.05
755.05012	29472.25
758.94733	29861.25
762.8418	30607.65
766.73354	31801.15
770.62254	33007.25
774.50882	33442.65
778.39237	32844.55
782.27321	31751.25
786.15132	30716.45
790.02671	30025.05
793.89938	29602.55
797.76935	29377.25
801.6366	29240.85
805.50115	29161.75
809.36299	29061.85
813.22213	28965.65
817.07857	28952.35
820.93231	28941.55
824.78336	28919.75
828.63172	28914.15
832.47738	28907.05
836.32036	28892.35
840.16066	28885.75
843.99827	28875.45
847.8332	28896.25
851.66546	28931.55
855.49504	29011.15
859.32195	28987.85
863.1462	29129.25
866.96777	29088.75
870.78668	29183.55
874.60293	29270.35
878.41652	29316.25
882.22745	29454.45
886.03573	29553.05
889.84136	29674.65
893.64433	29696.15
897.44466	29763.45
901.24235	29891.65
905.0374	30040.55
908.8298	30115.05
912.61957	30219.15
916.40671	30382.95
920.19121	30568.35
923.97308	30695.85
927.75233	30687.15
931.52895	30610.45
935.30295	30310.35
939.07433	29969.35
942.84309	29614.05
946.60924	29409.25
950.37278	29252.45
954.13371	29141.45
957.89203	29037.15
961.64774	28981.15
965.40086	28850.95
969.15137	28758.45
972.89929	28704.45
976.64461	28630.85
980.38733	28601.75
984.12747	28579.55
987.86502	28586.45
991.59999	28615.35
995.33237	28737.65
999.06217	28921.25
1002.78939	29143.15
1006.51404	29491.95
1010.23611	29819.65
1013.95561	30007.75
1017.67255	30035.05
1021.38692	29901.95
1025.09872	29757.65
1028.80796	29479.05
1032.51465	29404.15
1036.21877	29400.75
1039.92035	29490.45
1043.61937	29579.95
1047.31584	29690.95
1051.00976	29820.05
1054.70114	29893.95
1058.38998	29961.65
1062.07627	30102.15
1065.76003	30307.85
1069.44126	30518.35
1073.11995	30780.15
1076.79611	31041.95
1080.46974	31174.35
1084.14085	31230.15
1087.80943	31222.25
1091.47549	31325.25
1095.13903	31340.05
1098.80005	31170.15
1102.45857	30858.05
1106.11456	30485.05
1109.76805	30207.45
1113.41903	30051.35
1117.06751	29972.75
1120.71348	30081.55
1124.35696	30180.65
1127.99793	30328.95
1131.63641	30473.95
1135.2724	30375.55
1138.90589	30252.85
1142.5369	30240.45
1146.16542	30200.05
1149.79145	30200.25
1153.415	30246.15
1157.03607	30356.75
1160.65467	30599.15
1164.27079	31127.95
1167.88443	31882.55
1171.49561	32819.05
1175.10432	33993.35
1178.71056	35419.05
1182.31434	36863.75
1185.91565	37905.65
1189.51451	38416.95
1193.11091	38405.85
1196.70485	37775.85
1200.29634	36774.85
1203.88538	35817.65
1207.47197	35060.65
1211.05612	34474.35
1214.63782	33975.55
1218.21708	33551.85
1221.79391	33062.25
1225.36829	32695.55
1228.94024	32510.65
1232.50976	32430.05
1236.07685	32436.75
1239.6415	32471.55
1243.20374	32507.75
1246.76355	32608.95
1250.32093	32760.75
1253.8759	33031.35
1257.42845	33582.05
1260.97859	34211.75
1264.52631	34807.15
1268.07163	35340.85
1271.61453	35807.15
1275.15503	36279.95
1278.69312	36753.25
1282.22882	37155.55
1285.76211	37562.05
1289.29301	38060.45
1292.82151	38620.85
1296.34761	39353.75
1299.87133	40136.55
1303.39266	41028.05
1306.9116	42120.35
1310.42815	43198.15
1313.94233	43921.85
1317.45412	44123.65
1320.96354	44028.25
1324.47058	43880.85
1327.97525	43780.55
1331.47754	43642.85
1334.97747	43628.45
1338.47502	43821.85
1341.97022	44122.75
1345.46305	44528.65
1348.95352	44881.25
1352.44163	44988.75
1355.92738	44954.95
1359.41078	45098.15
1362.89183	45266.65
1366.37053	44568.35
1369.84688	42458.45
1373.32088	39915.75
1376.79254	37979.15
1380.26186	36933.15
1383.72883	36487.15
1387.19347	36120.45
1390.65578	35634.75
1394.11575	35360.75
1397.57339	35180.85
1401.0287	35180.65
1404.48168	35221.55
1407.93234	35218.25
1411.38068	34974.05
1414.82669	34621.35
1418.27039	34099.15
1421.71177	33578.15
1425.15083	33145.75
1428.58758	32933.65
1432.02203	32960.05
1435.45416	33157.05
1438.88399	33466.95
1442.31151	33670.55
1445.73673	33868.95
1449.15965	34050.45
1452.58027	34196.35
1455.9986	34285.05
1459.41463	34481.85
1462.82837	34806.35
1466.23982	35210.65
1469.64898	35550.95
1473.05586	35690.65
1476.46045	35791.15
1479.86276	35786.05
1483.26279	35768.65
1486.66054	35733.45
1490.05602	35944.65
1493.44922	36328.75
1496.84016	37007.55
1500.22882	37834.25
1503.61521	38940.75
1506.99934	39967.05
1510.38121	40670.85
1513.76081	40706.85
1517.13816	40112.85
1520.51324	39140.45
1523.88607	38100.15
1527.25665	37436.85
1530.62498	36981.05
1533.99105	36658.75
1537.35488	36278.55
1540.71647	35797.55
1544.07581	35320.25
1547.4329	34883.05
1550.78776	34514.45
1554.14038	34324.55
1557.49077	34303.95
1560.83892	34413.05
1564.18484	34605.75
1567.52853	34790.05
1570.86999	34917.05
1574.20922	35194.95
1577.54624	35507.35
1580.88103	35474.95
1584.2136	35340.65
1587.54395	35486.25
1590.87208	35853.65
1594.19801	36627.65
1597.52172	37481.45
1600.84321	37691.05
1604.16251	36941.65
1607.47959	35627.85
1610.79447	34232.85
1614.10715	32815.45
1617.41763	31435.75
1620.7259	30473.35
1624.03199	29851.25
1627.33587	29811.25
1630.63757	30148.15
1633.93707	31056.25
1637.23439	32465.05
1640.52951	34467.35
1643.82246	36768.95
1647.11321	38653.55
1650.40179	38975.75
1653.68819	37607.65
1656.97241	34880.35
1660.25446	32113.65
1663.53433	29972.05
1666.81203	28497.35
1670.08756	27552.95
1673.36092	26926.05
1676.63211	26492.65
1679.90115	26201.55
1683.16801	25965.35
1686.43272	25756.95
1689.69527	25623.95
1692.95567	25523.05
1696.2139	25447.45
1699.46999	25404.25
1702.72392	25313.95
1705.97571	25332.75
1709.22535	25272.35
1712.47284	25291.85
1715.71819	25295.85
1718.96139	25236.65
1722.20246	25143.95
1725.44139	25091.35
1728.67818	25009.55
1731.91284	24948.95
1735.14537	24804.85
1738.37576	24734.05
1741.60403	24662.55
1744.83017	24618.95
1748.05418	24602.25
1751.27607	24564.85
1754.49584	24510.35
1757.71349	24528.55
1760.92903	24483.85
1764.14244	24443.75
1767.35375	24405.25
1770.56294	24382.65
1773.77002	24328.05
1776.97499	24279.75
1780.17785	24237.65
1783.37861	24254.85
1786.57727	24216.85
1789.77382	24212.45
1792.96828	24139.35
1796.16064	24122.85
1799.3509	24081.35
1802.53907	24045.75
1805.72514	23949.05
1808.90913	23925.15
1812.09102	23876.95
1815.27083	23832.25
1818.44856	23808.35
1821.6242	23791.05
1824.79776	23755.95
1827.96924	23731.95
1831.13864	23757.15
1834.30597	23735.15
1837.47122	23732.95
1840.6344	23791.05
1843.7955	23789.45
1846.95454	23789.05
1850.11151	23747.55
1853.26642	23754.65
1856.41926	23727.05
1859.57004	23736.45
1862.71876	23676.05
1865.86542	23637.85
1869.01003	23631.15
1872.15258	23584.75
1875.29308	23535.95
1878.43152	23516.15
1881.56792	23448.75
1884.70227	23443.55
1887.83457	23410.25
1890.96482	23382.05
1894.09304	23308.35
1897.21921	23275.85
1900.34335	23227.25
1903.46544	23201.05
1906.58551	23172.35
1909.70353	23176.15
1912.81953	23082.75
1915.93349	23045.45
1919.04543	22977.05
1922.15534	22911.85
1925.26322	22881.15
1928.36908	22831.75
1931.47292	22817.55
1934.57473	22737.85
1937.67453	22660.85
1940.77232	22618.75
1943.86808	22548.75
1946.96184	22498.65
1950.05358	22412.95
1953.14331	22361.85
1956.23103	22276.65
1959.31675	22231.65
1962.40046	22145.65
1965.48217	22064.05
1968.56188	22017.05
1971.63959	21914.45
1974.7153	21876.95
1977.78901	21794.35
1980.86073	21682.65
1983.93046	21665.25
1986.99819	21590.85
1990.06394	21524.45
1993.1277	21427.35
1996.18947	21391.25
1999.24925	21351.25
2002.30706	21283.95
2005.36288	21225.05
2008.41672	21176.15
2011.46859	21113.15
2014.51848	21019.65
2017.56639	21013.75
2020.61233	20942.85
2023.6563	20927.65
2026.6983	20883.05
2029.73833	20815.65
2032.7764	20727.35
2035.8125	20754.55
2038.84664	20720.95
2041.87881	20727.85
2044.90903	20693.15
2047.93729	20634.35
2050.96359	20594.95
2053.98794	20607.95
2057.01034	20574.55
2060.03078	20605.95
2063.04927	20569.85
2066.06582	20596.65
2069.08042	20597.25
2072.09307	20590.25
2075.10378	20591.95
2078.11255	20545.95
2081.11938	20572.15
2084.12426	20522.25
2087.12722	20517.35
2090.12824	20532.65
2093.12732	20534.15
2096.12447	20519.25
2099.11969	20490.85
2102.11299	20469.95
2105.10435	20468.45
2108.09379	20459.25
2111.08131	20471.25
2114.0669	20432.65
2117.05057	20433.65
2120.03233	20417.75
2123.01216	20445.55
2125.99008	20432.85
2128.96609	20428.75
2131.94018	20433.05
2134.91236	20432.85
2137.88263	20421.35
2140.851	20389.85
2143.81746	20431.55
2146.78201	20438.05
2149.74466	20430.75
2152.7054	20441.25
2155.66425	20414.75
2158.6212	20417.15
2161.57625	20443.45
2164.52941	20390.65
2167.48067	20377.85
2170.43004	20335.75
2173.37752	20331.45
2176.32311	20347.25
2179.26681	20339.75
2182.20863	20321.45
2185.14856	20318.85
2188.08661	20316.45
2191.02278	20290.45
2193.95707	20253.95
2196.88948	20268.15
2199.82001	20231.45
2202.74867	20207.05
2205.67545	20191.75
2208.60037	20182.35
2211.52341	20138.75
2214.44458	20103.45
2217.36388	20026.75
2220.28132	20006.75
2223.1969	19986.15
2226.11061	19921.35
2229.02246	19852.75
2231.93245	19845.85
2234.84058	19813.05
2237.74686	19811.45
2240.65128	19797.15
2243.55385	19722.75
2246.45456	19745.55
2249.35343	19710.95
2252.25044	19652.65
2255.14561	19603.25
2258.03893	19614.05
2260.93041	19544.15
2263.82004	19490.35
2266.70783	19501.25
2269.59378	19417.85
2272.4779	19379.15
2275.36017	19342.55
2278.24061	19320.45
2281.11922	19238.35
2283.996	19244.45
2286.87094	19202.55
2289.74405	19132.15
2292.61534	19131.35
2295.4848	19059.55
2298.35243	19077.05
2301.21824	19053.75
2304.08223	19043.05
2306.94439	19024.55
2309.80474	18963.65
2312.66327	18952.55
2315.51999	18939.15
2318.37489	18936.25
2321.22797	18870.35
2324.07925	18856.75
2326.92871	18846.35
2329.77637	18825.35
2332.62222	18792.55
2335.46626	18734.65
2338.3085	18717.85
2341.14893	18702.75
2343.98756	18665.15
2346.8244	18661.05
2349.65943	18623.05
2352.49267	18599.75
2355.32411	18595.45
2358.15376	18582.95
2360.98161	18510.35
2363.80768	18536.15
2366.63195	18557.05
2369.45444	18498.85
2372.27514	18462.85
2375.09405	18455.45
2377.91118	18441.25
2380.72652	18453.25
2383.54009	18367.35
2386.35187	18344.65
2389.16188	18324.85
2391.97011	18271.95
2394.77657	18238.35
2397.58125	18160.65
2400.38416	18147.15
2403.18529	18109.85
2405.98466	18115.35
2408.78226	18069.85
2411.57809	18055.25
2414.37216	18023.45
2417.16446	18002.95
2419.955	17971.65
2422.74378	17943.25
2425.5308	17921.65
2428.31606	17905.45
2431.09956	17916.95
2433.88131	17861.45
2436.6613	17860.75
2439.43954	17856.55
2442.21603	17823.15
2444.99077	17788.05
2447.76377	17774.25
2450.53501	17791.05
2453.30451	17766.85
2456.07226	17702.05
2458.83827	17733.85
2461.60254	17677.05
2464.36507	17689.95
2467.12586	17671.45
2469.88492	17643.85
2472.64224	17646.25
2475.39782	17591.95
2478.15167	17587.15
2480.90379	17561.65
2483.65417	17545.65
2486.40283	17560.95
2489.14976	17529.25
2491.89497	17468.05
2494.63845	17490.15
2497.3802	17432.15
2500.12024	17463.35
2502.85855	17445.05
2505.59514	17413.85
2508.33002	17385.45
2511.06318	17406.85
2513.79462	17385.05
2516.52435	17373.95
2519.25237	17344.25
2521.97867	17311.35
2524.70327	17335.75
2527.42616	17283.45
2530.14734	17242.35
2532.86681	17207.25
2535.58458	17188.05
2538.30065	17161.65
2541.01501	17153.25
2543.72768	17131.15
2546.43864	17063.55
2549.14791	17054.75
2551.85548	17043.85
2554.56136	17027.05
2557.26554	16972.65
2559.96803	16968.35
2562.66883	16940.45
2565.36794	16926.45
2568.06536	16876.05
2570.7611	16846.35
2573.45514	16825.15
2576.14751	16754.35
2578.83819	16764.75
2581.52719	16704.35
2584.21451	16686.95
2586.90015	16676.55
2589.58411	16614.95
2592.2664	16620.95
2594.94701	16530.45
2597.62594	16547.45
2600.30321	16484.15
2602.9788	16474.55
2605.65273	16432.25
2608.32498	16437.55
2610.99557	16415.35
2613.66449	16391.95
2616.33175	16350.55
2618.99734	16335.45
2621.66128	16299.35
2624.32355	16297.75
2626.98416	16258.25
2629.64311	16247.65
2632.30041	16240.75
2634.95605	16239.05
2637.61004	16183.65
2640.26238	16166.65
2642.91306	16152.45
2645.56209	16135.35
2648.20948	16105.75
2650.85521	16120.35
2653.4993	16102.45
2656.14175	16085.65
2658.78255	16093.65
2661.42171	16076.45
2664.05923	16072.85
2666.6951	16059.05
2669.32934	16059.15
2671.96194	16047.35
2674.59291	16067.45
2677.22224	16076.55
2679.84993	16081.05
2682.476	16052.75
2685.10043	16015.25
2687.72324	16008.75
2690.34441	16032.55
2692.96396	16014.65
2695.58188	16021.45
2698.19818	16003.15
2700.81285	16012.85
2703.4259	15991.05
2706.03733	15948.75
2708.64714	15995.55
2711.25533	15981.35
2713.86191	15974.55
2716.46687	15985.65
2719.07021	15975.65
2721.67194	15960.05
2724.27206	15942.95
2726.87057	15957.05
2729.46747	15972.95
2732.06276	15940.05
2734.65644	15934.85
2737.24852	15918.85
2739.83899	15898.95
2742.42786	15900.85
2745.01513	15872.95
2747.60079	15868.45
2750.18486	15827.55
2752.76733	15819.55
2755.3482	15800.65
2757.92747	15821.65
2760.50515	15805.25
2763.08123	15792.25
2765.65573	15766.35
2768.22863	15755.35
2770.79994	15688.15
2773.36967	15723.15
2775.9378	15680.85
2778.50435	15621.35
2781.06932	15596.15
2783.6327	15594.45
2786.1945	15538.35
2788.75471	15540.25
2791.31335	15479.65
2793.87041	15469.45
2796.42589	15388.85
2798.97979	15424.65
2801.53212	15317.05
2804.08288	15305.55
2806.63206	15273.75
2809.17967	15266.35
2811.72571	15244.95
2814.27018	15195.65
2816.81308	15200.75
2819.35442	15146.15
2821.89419	15132.85
2824.43239	15101.95
2826.96904	15045.75
2829.50412	15029.05
2832.03763	15028.35
2834.56959	15046.85
2837.1	15002.35
2839.62884	14992.85
2842.15613	14980.75
2844.68186	15035.45
2847.20604	14998.15
2849.72867	14964.65
2852.24974	14942.65
2854.76927	14921.95
2857.28724	14924.65
2859.80367	14886.65
2862.31855	14871.95
2864.83189	14845.05
2867.34368	14815.25
2869.85393	14816.45
2872.36264	14815.55
2874.8698	14825.55
2877.37543	14848.15
2879.87952	14814.75
2882.38207	14840.05
2884.88308	14806.25
2887.38256	14836.85
2889.88051	14834.85
2892.37692	14837.05
2894.8718	14804.95
2897.36515	14846.75
2899.85698	14824.55
2902.34727	14864.95
2904.83604	14827.55
2907.32328	14851.65
2909.809	14827.55
2912.29319	14823.95
2914.77587	14829.95
2917.25702	14787.05
2919.73665	14787.45
2922.21476	14791.05
2924.69136	14769.75
2927.16644	14790.55
2929.64	14765.45
2932.11205	14739.55
2934.58258	14710.05
2937.05161	14719.45
2939.51912	14700.55
2941.98513	14708.05
2944.44962	14657.85
2946.91261	14601.85
2949.37409	14627.55
2951.83407	14584.55
2954.29254	14555.55
2956.74951	14535.25
2959.20498	14538.35
2961.65895	14506.65
2964.11142	14512.35
2966.56239	14430.15
2969.01186	14426.65
2971.45984	14391.45
2973.90632	14376.05
2976.35131	14350.75
2978.7948	14313.15
2981.23681	14286.05
2983.67732	14241.95
2986.11635	14230.25
2988.55388	14162.85
2990.98993	14118.65
2993.4245	14089.35
2995.85758	14079.35
2998.28917	14091.75
3000.71928	14055.35
3003.14791	13964.05
3005.57506	13980.85
3008.00073	13942.35
3010.42493	13922.35
3012.84764	13904.25
3015.26888	13900.45
3017.68865	13848.65
3020.10694	13846.75
3022.52376	13796.25
3024.9391	13787.85
3027.35298	13764.35
3029.76539	13714.45
3032.17632	13711.75
3034.5858	13676.05
3036.9938	13656.05
3039.40034	13650.85
3041.80542	13654.45
3044.20903	13584.05
3046.61118	13588.85
3049.01187	13535.25
3051.4111	13505.45
3053.80888	13491.65
3056.20519	13435.15
3058.60005	13427.65
3060.99345	13422.05
3063.3854	13363.65
3065.7759	13346.25
3068.16494	13308.45
3070.55254	13291.15
3072.93868	13278.85
3075.32338	13222.55
3077.70662	13224.85
3080.08842	13202.15
3082.46878	13192.35
3084.84769	13133.75
3087.22515	13131.35
3089.60118	13129.05
3091.97576	13156.05
3094.3489	13134.85
3096.72061	13125.25
3099.09087	13117.55
3101.4597	13102.45
3103.82709	13076.05
3106.19305	13048.55
3108.55757	13054.25
3110.92066	13022.75
3113.28232	12994.55
3115.64255	12934.95
3118.00134	12903.75
3120.35871	12893.25
3122.71466	12895.05
3125.06917	12850.95
3127.42226	12833.55
3129.77393	12864.15
3132.12417	12849.25
3134.47299	12831.45
3136.82039	12827.85
3139.16636	12818.65
3141.51092	12832.35
3143.85406	12841.95
3146.19579	12813.75
3148.53609	12814.65
3150.87499	12808.45
3153.21246	12836.45
3155.54853	12844.15
3157.88318	12836.15
3160.21642	12841.75
3162.54826	12816.75
3164.87868	12805.55
3167.2077	12773.75
3169.5353	12760.05
3171.86151	12755.15
3174.18631	12734.85
3176.5097	12715.55
3178.83169	12702.05
3181.15228	12713.75
3183.47147	12650.55
3185.78926	12678.35
3188.10565	12666.15
3190.42065	12649.95
3192.73424	12628.45
3195.04645	12633.65
3197.35725	12638.75
3199.66667	12638.45
3201.97469	12632.45
3204.28132	12628.65
3206.58656	12628.15
3208.8904	12615.25
3211.19287	12613.15
3213.49394	12588.75
3215.79363	12571.35
3218.09193	12584.65
3220.38884	12590.45
3222.68438	12581.55
3224.97853	12548.75
3227.2713	12533.45
3229.56269	12529.85
3231.8527	12544.85
3234.14133	12483.45
3236.42858	12466.05
3238.71446	12443.35
3240.99896	12422.25
3243.28209	12425.15
3245.56384	12442.45
3247.84423	12422.55
3250.12324	12378.05
3252.40088	12388.45
3254.67715	12360.25
3256.95205	12342.95
3259.22558	12339.75
3261.49775	12321.25
3263.76855	12276.05
3266.03799	12275.65
3268.30606	12251.55
3270.57277	12210.15
3272.83812	12217.45
3275.10211	12210.95
3277.36474	12194.45
3279.62601	12195.75
3281.88593	12148.85
3284.14448	12115.75
3286.40168	12136.55
3288.65753	12107.65
3290.91202	12068.55
3293.16516	12042.45
3295.41695	12003.45
3297.66738	11949.95
3299.91647	11879.15
3302.16421	11804.45
3304.4106	11764.45
3306.65564	11727.05
3308.89933	11622.05
3311.14169	11551.85
3313.38269	11455.75
3315.62236	11412.65
3317.86068	11305.05
3320.09766	11204.35
3322.3333	11084.45
3324.5676	11088.25
3326.80056	10896.35
3329.03219	10839.35
3331.26248	2.55
3333.49143	0.05
3335.71905	-0.15
