Data from AgNPs_FTO_APTES_UA_5uM_R6G_10uM_NaF_0.1M_Addition_RamanShift__29__12-59-27-284.txt Node

Date: Fri Dec 17 12:59:27 GMT 2021
User: TCL
Spectrometer: QEP01345
Trigger mode: 4
Integration Time (sec): 7.000000E0
Scans to average: 10
Electric dark correction enabled: true
Nonlinearity correction enabled: false
Boxcar width: 0
XAxis mode: Raman Shifts
Number of Pixels in Spectrum: 1044
>>>>>Begin Spectral Data<<<<<
46.04893	0.35
50.45542	-0.85
54.85868	-0.15
59.25871	-0.85
63.6555	73.25
68.04907	73.35
72.43941	79.75
76.82654	79.75
81.21044	82.95
85.59113	87.65
89.96862	95.55
94.34289	97.55
98.71396	105.05
103.08183	103.05
107.4465	106.85
111.80798	104.75
116.16626	107.55
120.52136	106.35
124.87327	111.25
129.222	113.05
133.56755	114.95
137.90993	122.45
142.24913	127.55
146.58517	139.55
150.91804	151.65
155.24774	168.45
159.57429	202.55
163.89768	235.45
168.21792	311.45
172.53501	400.15
176.84895	539.65
181.15975	737.65
185.46741	1022.85
189.77193	1392.25
194.07331	1849.25
198.37157	2363.75
202.6667	2931.65
206.9587	3466.45
211.24758	4016.05
215.53334	4571.45
219.81599	5200.85
224.09553	5909.95
228.37195	6676.95
232.64527	7507.25
236.91549	8396.55
241.18261	9201.95
245.44663	9860.85
249.70755	10422.85
253.96539	10918.45
258.22014	11356.05
262.4718	11726.85
266.72039	12059.95
270.96589	12261.55
275.20832	12302.95
279.44768	12209.05
283.68397	12042.85
287.91719	11915.55
292.14735	11930.55
296.37445	12108.95
300.59849	12479.05
304.81948	12924.85
309.03742	13254.35
313.25231	13234.85
317.46415	12726.95
321.67296	11871.65
325.87872	11196.15
330.08145	10871.45
334.28114	10839.65
338.47781	11011.15
342.67145	11325.15
346.86207	11789.05
351.04966	12420.45
355.23424	13174.65
359.4158	13747.75
363.59435	14062.65
367.76989	14182.55
371.94243	14188.85
376.11196	14157.55
380.27849	14087.65
384.44203	14017.25
388.60257	13879.85
392.76012	13816.35
396.91468	13966.65
401.06626	14304.05
405.21485	14607.95
409.36047	14449.15
413.50311	13845.55
417.64277	13314.65
421.77947	12998.35
425.9132	12905.15
430.04396	12909.15
434.17176	12983.75
438.2966	13116.25
442.41849	13398.75
446.53742	13756.65
450.6534	14119.95
454.76644	14397.55
458.87653	14485.95
462.98368	14424.85
467.08789	14212.65
471.18916	13919.15
475.2875	13561.55
479.38291	13267.35
483.4754	13074.15
487.56496	12921.85
491.6516	12824.05
495.73531	12772.65
499.81612	12821.85
503.89401	12937.45
507.96899	13063.25
512.04106	13234.35
516.11023	13434.25
520.1765	13569.35
524.23987	13507.95
528.30034	13327.05
532.35792	13078.85
536.41261	12847.45
540.46441	12578.05
544.51333	12487.95
548.55936	12564.45
552.60252	12792.05
556.64279	13033.75
560.6802	13185.85
564.71473	13341.75
568.7464	13775.45
572.7752	14087.35
576.80114	13858.55
580.82422	13594.25
584.84444	13488.65
588.86181	13449.55
592.87633	13483.85
596.888	13641.85
600.89682	14096.45
604.9028	15561.35
608.90594	19160.95
612.90624	23701.85
616.90371	22793.05
620.89834	16839.85
624.89015	13950.25
628.87913	13342.35
632.86528	13409.95
636.84862	13574.35
640.82913	13434.55
644.80683	13001.85
648.78172	12722.65
652.75379	12782.85
656.72306	13279.65
660.68952	13839.65
664.65319	13723.95
668.61405	13161.25
672.57211	12889.15
676.52738	12887.25
680.47986	12870.45
684.42955	12836.65
688.37646	12791.85
692.32058	12870.75
696.26192	12985.25
700.20048	13167.95
704.13626	13281.25
708.06928	13251.15
711.99952	13128.25
715.927	13094.35
719.85171	13109.25
723.77365	13084.75
727.69284	12960.45
731.60928	12901.25
735.52295	12901.55
739.43388	12965.65
743.34206	13045.05
747.24749	13130.25
751.15017	13245.55
755.05012	13536.25
758.94733	14043.15
762.8418	15189.25
766.73354	17105.85
770.62254	19186.35
774.50882	20269.75
778.39237	19509.35
782.27321	17299.95
786.15132	15238.15
790.02671	13983.75
793.89938	13469.25
797.76935	13234.25
801.6366	13158.95
805.50115	13055.95
809.36299	13045.45
813.22213	13001.15
817.07857	12965.15
820.93231	13004.55
824.78336	13020.25
828.63172	13092.15
832.47738	13104.75
836.32036	13102.95
840.16066	13062.75
843.99827	12984.65
847.8332	12994.65
851.66546	12984.25
855.49504	12998.15
859.32195	12965.65
863.1462	12910.35
866.96777	12890.85
870.78668	12876.75
874.60293	12944.85
878.41652	12950.85
882.22745	13024.05
886.03573	13065.45
889.84136	13071.45
893.64433	12990.95
897.44466	12952.55
901.24235	12975.85
905.0374	12935.15
908.8298	12921.75
912.61957	12899.15
916.40671	12987.95
920.19121	13097.75
923.97308	13195.15
927.75233	13292.45
931.52895	13373.25
935.30295	13274.75
939.07433	13021.75
942.84309	12775.75
946.60924	12678.55
950.37278	12581.95
954.13371	12497.15
957.89203	12447.45
961.64774	12451.65
965.40086	12392.65
969.15137	12334.15
972.89929	12316.75
976.64461	12307.45
980.38733	12353.65
984.12747	12401.25
987.86502	12448.85
991.59999	12519.35
995.33237	12675.75
999.06217	12961.45
1002.78939	13290.35
1006.51404	13618.85
1010.23611	13952.25
1013.95561	14094.35
1017.67255	14101.65
1021.38692	13881.45
1025.09872	13695.65
1028.80796	13657.95
1032.51465	13773.05
1036.21877	13936.15
1039.92035	14069.95
1043.61937	14044.05
1047.31584	13866.85
1051.00976	13709.15
1054.70114	13585.95
1058.38998	13560.45
1062.07627	13612.85
1065.76003	13703.55
1069.44126	13774.15
1073.11995	13912.05
1076.79611	14033.95
1080.46974	14159.65
1084.14085	14392.05
1087.80943	14684.65
1091.47549	14802.55
1095.13903	14571.75
1098.80005	14212.55
1102.45857	13878.45
1106.11456	13716.25
1109.76805	13782.75
1113.41903	13943.35
1117.06751	14272.05
1120.71348	14673.35
1124.35696	15078.45
1127.99793	15477.35
1131.63641	15503.65
1135.2724	15032.65
1138.90589	14552.25
1142.5369	14252.05
1146.16542	14052.25
1149.79145	13899.05
1153.415	13934.25
1157.03607	14086.65
1160.65467	14314.05
1164.27079	14685.35
1167.88443	15267.05
1171.49561	16165.75
1175.10432	17724.45
1178.71056	19799.65
1182.31434	21469.35
1185.91565	22035.45
1189.51451	21689.05
1193.11091	20540.55
1196.70485	19086.45
1200.29634	17991.85
1203.88538	17207.75
1207.47197	16446.05
1211.05612	15803.55
1214.63782	15446.75
1218.21708	15370.85
1221.79391	15444.35
1225.36829	15525.85
1228.94024	15701.95
1232.50976	15893.45
1236.07685	16052.35
1239.6415	16069.55
1243.20374	16099.05
1246.76355	16158.25
1250.32093	16299.75
1253.8759	16606.95
1257.42845	17010.55
1260.97859	17366.05
1264.52631	17769.95
1268.07163	18111.85
1271.61453	18544.55
1275.15503	18834.15
1278.69312	19031.95
1282.22882	19243.25
1285.76211	19571.65
1289.29301	20021.65
1292.82151	20453.75
1296.34761	20897.05
1299.87133	21538.05
1303.39266	22709.95
1306.9116	24665.05
1310.42815	26933.75
1313.94233	28404.95
1317.45412	28292.65
1320.96354	26947.95
1324.47058	25392.15
1327.97525	24015.55
1331.47754	23221.35
1334.97747	23036.55
1338.47502	23264.25
1341.97022	23706.65
1345.46305	24192.35
1348.95352	24913.35
1352.44163	25966.65
1355.92738	27769.35
1359.41078	30780.55
1362.89183	33762.05
1366.37053	33168.45
1369.84688	28952.45
1373.32088	24595.85
1376.79254	21796.75
1380.26186	20452.25
1383.72883	19720.05
1387.19347	19172.55
1390.65578	18548.65
1394.11575	18059.85
1397.57339	17856.15
1401.0287	17974.15
1404.48168	18412.55
1407.93234	18933.35
1411.38068	19437.05
1414.82669	19563.45
1418.27039	19337.85
1421.71177	18913.45
1425.15083	18485.65
1428.58758	18261.85
1432.02203	18237.95
1435.45416	18272.45
1438.88399	18331.65
1442.31151	18343.95
1445.73673	18407.15
1449.15965	18520.35
1452.58027	18459.35
1455.9986	18261.35
1459.41463	18162.95
1462.82837	18252.95
1466.23982	18511.45
1469.64898	18881.35
1473.05586	19168.75
1476.46045	19393.85
1479.86276	19700.05
1483.26279	20107.05
1486.66054	20625.45
1490.05602	21239.65
1493.44922	22002.35
1496.84016	23050.75
1500.22882	24457.55
1503.61521	26394.15
1506.99934	28650.75
1510.38121	30823.95
1513.76081	31852.25
1517.13816	30648.25
1520.51324	27789.25
1523.88607	24805.55
1527.25665	22629.35
1530.62498	21332.25
1533.99105	20591.35
1537.35488	20090.55
1540.71647	19798.15
1544.07581	19661.55
1547.4329	19587.55
1550.78776	19502.95
1554.14038	19436.55
1557.49077	19514.95
1560.83892	19747.65
1564.18484	20096.05
1567.52853	20387.15
1570.86999	20611.15
1574.20922	20877.85
1577.54624	20846.25
1580.88103	20162.75
1584.2136	19336.85
1587.54395	19037.25
1590.87208	19488.75
1594.19801	20506.75
1597.52172	21732.85
1600.84321	22274.85
1604.16251	21652.45
1607.47959	20401.85
1610.79447	19043.35
1614.10715	17753.55
1617.41763	16723.85
1620.7259	16128.15
1624.03199	15843.65
1627.33587	15904.65
1630.63757	16229.15
1633.93707	16934.75
1637.23439	17904.85
1640.52951	19129.65
1643.82246	20523.55
1647.11321	22074.55
1650.40179	23069.55
1653.68819	22518.95
1656.97241	20231.75
1660.25446	17580.25
1663.53433	15661.75
1666.81203	14506.25
1670.08756	13834.65
1673.36092	13404.25
1676.63211	13131.35
1679.90115	12933.05
1683.16801	12785.45
1686.43272	12697.75
1689.69527	12601.65
1692.95567	12530.75
1696.2139	12531.75
1699.46999	12482.65
1702.72392	12476.15
1705.97571	12472.55
1709.22535	12450.95
1712.47284	12456.85
1715.71819	12466.55
1718.96139	12462.95
1722.20246	12441.35
1725.44139	12389.75
1728.67818	12325.85
1731.91284	12245.05
1735.14537	12164.65
1738.37576	12135.85
1741.60403	12100.55
1744.83017	12036.45
1748.05418	12035.75
1751.27607	11979.65
1754.49584	11953.35
1757.71349	11950.95
1760.92903	11976.75
1764.14244	11933.45
1767.35375	11953.15
1770.56294	11911.65
1773.77002	11906.95
1776.97499	11892.25
1780.17785	11850.45
1783.37861	11832.55
1786.57727	11821.75
1789.77382	11814.85
1792.96828	11790.15
1796.16064	11789.05
1799.3509	11766.45
1802.53907	11775.75
1805.72514	11746.25
1808.90913	11732.85
1812.09102	11693.05
1815.27083	11661.35
1818.44856	11645.05
1821.6242	11631.95
1824.79776	11633.55
1827.96924	11633.95
1831.13864	11620.25
1834.30597	11615.45
1837.47122	11609.35
1840.6344	11593.45
1843.7955	11598.85
1846.95454	11614.15
1850.11151	11606.95
1853.26642	11604.05
1856.41926	11617.45
1859.57004	11611.85
1862.71876	11632.85
1865.86542	11629.05
1869.01003	11638.65
1872.15258	11660.45
1875.29308	11655.45
1878.43152	11685.45
1881.56792	11687.75
1884.70227	11678.15
1887.83457	11699.75
1890.96482	11711.85
1894.09304	11716.55
1897.21921	11681.55
1900.34335	11681.15
1903.46544	11707.65
1906.58551	11696.05
1909.70353	11691.85
1912.81953	11713.05
1915.93349	11683.65
1919.04543	11687.35
1922.15534	11659.55
1925.26322	11659.85
1928.36908	11602.05
1931.47292	11556.55
1934.57473	11472.25
1937.67453	11414.65
1940.77232	11385.35
1943.86808	11327.65
1946.96184	11305.05
1950.05358	11263.25
1953.14331	11212.35
1956.23103	11160.45
1959.31675	11110.15
1962.40046	11096.65
1965.48217	11048.65
1968.56188	11005.95
1971.63959	11020.45
1974.7153	10978.15
1977.78901	10917.75
1980.86073	10889.65
1983.93046	10847.45
1986.99819	10791.05
1990.06394	10795.85
1993.1277	10757.85
1996.18947	10722.35
1999.24925	10689.95
2002.30706	10637.25
2005.36288	10611.75
2008.41672	10591.85
2011.46859	10572.55
2014.51848	10554.65
2017.56639	10485.95
2020.61233	10480.85
2023.6563	10455.35
2026.6983	10415.55
2029.73833	10412.25
2032.7764	10372.65
2035.8125	10333.75
2038.84664	10340.35
2041.87881	10324.85
2044.90903	10296.55
2047.93729	10306.35
2050.96359	10253.95
2053.98794	10267.05
2057.01034	10234.15
2060.03078	10220.35
2063.04927	10200.65
2066.06582	10225.35
2069.08042	10211.05
2072.09307	10195.95
2075.10378	10183.05
2078.11255	10168.35
2081.11938	10172.85
2084.12426	10140.75
2087.12722	10162.35
2090.12824	10140.95
2093.12732	10137.45
2096.12447	10149.75
2099.11969	10159.95
2102.11299	10171.55
2105.10435	10140.55
2108.09379	10140.45
2111.08131	10162.15
2114.0669	10149.45
2117.05057	10161.85
2120.03233	10149.45
2123.01216	10169.45
2125.99008	10174.85
2128.96609	10200.55
2131.94018	10175.35
2134.91236	10195.35
2137.88263	10214.35
2140.851	10195.45
2143.81746	10222.75
2146.78201	10224.95
2149.74466	10205.75
2152.7054	10198.15
2155.66425	10176.25
2158.6212	10184.95
2161.57625	10185.55
2164.52941	10178.95
2167.48067	10163.15
2170.43004	10188.95
2173.37752	10165.45
2176.32311	10176.45
2179.26681	10158.35
2182.20863	10167.85
2185.14856	10170.75
2188.08661	10175.05
2191.02278	10150.05
2193.95707	10151.95
2196.88948	10156.05
2199.82001	10147.95
2202.74867	10125.05
2205.67545	10114.65
2208.60037	10107.55
2211.52341	10106.75
2214.44458	10084.25
2217.36388	10076.45
2220.28132	10029.45
2223.1969	10021.65
2226.11061	9975.85
2229.02246	9977.95
2231.93245	9938.65
2234.84058	9926.15
2237.74686	9929.35
2240.65128	9918.95
2243.55385	9888.25
2246.45456	9864.65
2249.35343	9857.85
2252.25044	9862.65
2255.14561	9859.45
2258.03893	9851.25
2260.93041	9848.65
2263.82004	9808.75
2266.70783	9794.15
2269.59378	9761.15
2272.4779	9737.05
2275.36017	9686.65
2278.24061	9691.45
2281.11922	9679.15
2283.996	9640.65
2286.87094	9613.45
2289.74405	9601.55
2292.61534	9592.65
2295.4848	9582.55
2298.35243	9587.85
2301.21824	9579.65
2304.08223	9563.55
2306.94439	9581.25
2309.80474	9554.65
2312.66327	9568.15
2315.51999	9543.35
2318.37489	9553.55
2321.22797	9550.75
2324.07925	9533.05
2326.92871	9513.75
2329.77637	9497.55
2332.62222	9477.35
2335.46626	9466.35
2338.3085	9463.85
2341.14893	9449.05
2343.98756	9455.55
2346.8244	9445.25
2349.65943	9440.35
2352.49267	9429.85
2355.32411	9431.85
2358.15376	9428.75
2360.98161	9443.55
2363.80768	9449.55
2366.63195	9427.05
2369.45444	9437.45
2372.27514	9426.55
2375.09405	9381.05
2377.91118	9378.15
2380.72652	9332.95
2383.54009	9326.45
2386.35187	9279.35
2389.16188	9253.65
2391.97011	9222.95
2394.77657	9207.05
2397.58125	9186.05
2400.38416	9147.15
2403.18529	9159.55
2405.98466	9136.05
2408.78226	9117.35
2411.57809	9103.75
2414.37216	9089.45
2417.16446	9088.65
2419.955	9082.75
2422.74378	9058.55
2425.5308	9040.25
2428.31606	9026.95
2431.09956	9042.25
2433.88131	9009.05
2436.6613	9007.15
2439.43954	9024.85
2442.21603	9001.95
2444.99077	9004.15
2447.76377	8990.45
2450.53501	8964.05
2453.30451	8977.05
2456.07226	8979.65
2458.83827	8950.95
2461.60254	8949.75
2464.36507	8952.45
2467.12586	8935.65
2469.88492	8941.45
2472.64224	8936.45
2475.39782	8955.65
2478.15167	8931.65
2480.90379	8949.95
2483.65417	8935.85
2486.40283	8939.85
2489.14976	8957.25
2491.89497	8976.05
2494.63845	8960.95
2497.3802	8937.15
2500.12024	8951.75
2502.85855	8921.45
2505.59514	8915.25
2508.33002	8918.55
2511.06318	8875.75
2513.79462	8870.75
2516.52435	8813.65
2519.25237	8817.05
2521.97867	8814.35
2524.70327	8789.65
2527.42616	8774.05
2530.14734	8769.55
2532.86681	8742.75
2535.58458	8739.55
2538.30065	8732.85
2541.01501	8722.75
2543.72768	8711.85
2546.43864	8724.85
2549.14791	8710.15
2551.85548	8709.55
2554.56136	8666.85
2557.26554	8642.55
2559.96803	8655.75
2562.66883	8658.05
2565.36794	8638.15
2568.06536	8626.85
2570.7611	8613.55
2573.45514	8584.75
2576.14751	8577.15
2578.83819	8561.25
2581.52719	8549.95
2584.21451	8546.95
2586.90015	8538.45
2589.58411	8506.65
2592.2664	8523.05
2594.94701	8508.15
2597.62594	8510.35
2600.30321	8483.15
2602.9788	8483.25
2605.65273	8467.95
2608.32498	8477.95
2610.99557	8461.45
2613.66449	8466.95
2616.33175	8454.15
2618.99734	8465.35
2621.66128	8437.95
2624.32355	8426.05
2626.98416	8422.35
2629.64311	8403.55
2632.30041	8408.95
2634.95605	8409.25
2637.61004	8379.25
2640.26238	8368.65
2642.91306	8356.45
2645.56209	8335.15
2648.20948	8341.35
2650.85521	8337.55
2653.4993	8341.15
2656.14175	8310.55
2658.78255	8336.35
2661.42171	8343.25
2664.05923	8335.25
2666.6951	8359.55
2669.32934	8356.75
2671.96194	8357.85
2674.59291	8372.55
2677.22224	8382.05
2679.84993	8393.35
2682.476	8364.85
2685.10043	8382.25
2687.72324	8344.65
2690.34441	8372.75
2692.96396	8374.25
2695.58188	8366.45
2698.19818	8338.65
2700.81285	8375.95
2703.4259	8339.45
2706.03733	8357.15
2708.64714	8335.95
2711.25533	8350.75
2713.86191	8364.65
2716.46687	8375.55
2719.07021	8358.95
2721.67194	8367.85
2724.27206	8330.45
2726.87057	8355.45
2729.46747	8365.45
2732.06276	8354.95
2734.65644	8364.35
2737.24852	8345.65
2739.83899	8323.55
2742.42786	8355.85
2745.01513	8341.95
2747.60079	8322.85
2750.18486	8341.35
2752.76733	8334.15
2755.3482	8313.15
2757.92747	8303.45
2760.50515	8283.05
2763.08123	8276.75
2765.65573	8242.95
2768.22863	8237.05
2770.79994	8232.25
2773.36967	8260.55
2775.9378	8229.25
2778.50435	8231.15
2781.06932	8204.65
2783.6327	8224.75
2786.1945	8221.45
2788.75471	8191.55
2791.31335	8153.95
2793.87041	8161.85
2796.42589	8160.05
2798.97979	8157.65
2801.53212	8120.45
2804.08288	8134.45
2806.63206	8111.85
2809.17967	8099.95
2811.72571	8097.05
2814.27018	8141.05
2816.81308	8132.85
2819.35442	8097.85
2821.89419	8102.45
2824.43239	8117.05
2826.96904	8092.55
2829.50412	8102.65
2832.03763	8106.45
2834.56959	8105.35
2837.1	8095.25
2839.62884	8105.45
2842.15613	8112.55
2844.68186	8141.45
2847.20604	8175.35
2849.72867	8211.95
2852.24974	8220.75
2854.76927	8225.65
2857.28724	8201.15
2859.80367	8176.05
2862.31855	8151.15
2864.83189	8162.15
2867.34368	8138.65
2869.85393	8125.55
2872.36264	8113.85
2874.8698	8106.35
2877.37543	8111.75
2879.87952	8100.65
2882.38207	8089.15
2884.88308	8083.35
2887.38256	8065.95
2889.88051	8064.95
2892.37692	8087.05
2894.8718	8068.45
2897.36515	8097.25
2899.85698	8086.75
2902.34727	8087.75
2904.83604	8097.35
2907.32328	8106.15
2909.809	8089.25
2912.29319	8091.25
2914.77587	8071.55
2917.25702	8076.75
2919.73665	8048.35
2922.21476	8076.75
2924.69136	8030.55
2927.16644	8035.75
2929.64	8014.15
2932.11205	7999.75
2934.58258	7960.35
2937.05161	7969.65
2939.51912	7951.25
2941.98513	7936.25
2944.44962	7891.45
2946.91261	7844.45
2949.37409	7838.85
2951.83407	7819.15
2954.29254	7809.55
2956.74951	7784.35
2959.20498	7752.65
2961.65895	7764.25
2964.11142	7727.65
2966.56239	7706.45
2969.01186	7704.45
2971.45984	7681.05
2973.90632	7668.35
2976.35131	7639.95
2978.7948	7628.65
2981.23681	7594.55
2983.67732	7560.55
2986.11635	7538.65
2988.55388	7531.15
2990.98993	7513.45
2993.4245	7498.55
2995.85758	7459.15
2998.28917	7466.05
3000.71928	7455.05
3003.14791	7435.55
3005.57506	7421.85
3008.00073	7401.05
3010.42493	7393.15
3012.84764	7374.35
3015.26888	7380.05
3017.68865	7353.25
3020.10694	7353.65
3022.52376	7322.45
3024.9391	7330.15
3027.35298	7310.65
3029.76539	7289.15
3032.17632	7253.75
3034.5858	7250.05
3036.9938	7272.35
3039.40034	7235.15
3041.80542	7211.65
3044.20903	7198.05
3046.61118	7201.55
3049.01187	7179.85
3051.4111	7171.35
3053.80888	7145.45
3056.20519	7141.35
3058.60005	7125.15
3060.99345	7111.05
3063.3854	7083.05
3065.7759	7061.05
3068.16494	7029.45
3070.55254	6998.35
3072.93868	6999.85
3075.32338	6991.55
3077.70662	6966.35
3080.08842	6948.65
3082.46878	6918.55
3084.84769	6920.25
3087.22515	6883.25
3089.60118	6909.55
3091.97576	6864.95
3094.3489	6894.85
3096.72061	6868.25
3099.09087	6862.35
3101.4597	6845.65
3103.82709	6849.75
3106.19305	6844.35
3108.55757	6824.75
3110.92066	6795.85
3113.28232	6778.75
3115.64255	6770.65
3118.00134	6768.05
3120.35871	6740.05
3122.71466	6732.15
3125.06917	6739.35
3127.42226	6698.95
3129.77393	6720.15
3132.12417	6702.65
3134.47299	6714.85
3136.82039	6695.05
3139.16636	6711.25
3141.51092	6712.25
3143.85406	6709.85
3146.19579	6711.95
3148.53609	6695.35
3150.87499	6698.35
3153.21246	6712.75
3155.54853	6707.25
3157.88318	6692.65
3160.21642	6714.45
3162.54826	6699.15
3164.87868	6699.45
3167.2077	6680.05
3169.5353	6654.25
3171.86151	6693.05
3174.18631	6674.15
3176.5097	6654.25
3178.83169	6664.75
3181.15228	6671.85
3183.47147	6656.85
3185.78926	6641.75
3188.10565	6634.35
3190.42065	6644.05
3192.73424	6643.45
3195.04645	6655.45
3197.35725	6639.25
3199.66667	6630.55
3201.97469	6637.75
3204.28132	6632.15
3206.58656	6654.65
3208.8904	6644.55
3211.19287	6659.45
3213.49394	6646.65
3215.79363	6645.75
3218.09193	6634.45
3220.38884	6630.25
3222.68438	6639.85
3224.97853	6611.05
3227.2713	6612.25
3229.56269	6604.45
3231.8527	6624.35
3234.14133	6574.95
3236.42858	6544.25
3238.71446	6557.05
3240.99896	6538.35
3243.28209	6553.65
3245.56384	6544.15
3247.84423	6553.95
3250.12324	6527.25
3252.40088	6516.35
3254.67715	6514.55
3256.95205	6480.85
3259.22558	6491.65
3261.49775	6484.15
3263.76855	6464.95
3266.03799	6445.45
3268.30606	6453.85
3270.57277	6431.85
3272.83812	6434.95
3275.10211	6406.55
3277.36474	6388.15
3279.62601	6423.05
3281.88593	6393.25
3284.14448	6386.85
3286.40168	6368.35
3288.65753	6378.25
3290.91202	6360.15
3293.16516	6343.85
3295.41695	6320.25
3297.66738	6278.95
3299.91647	6251.75
3302.16421	6205.05
3304.4106	6196.65
3306.65564	6163.15
3308.89933	6119.25
3311.14169	6088.55
3313.38269	6034.75
3315.62236	5996.45
3317.86068	5967.55
3320.09766	5874.85
3322.3333	5833.55
3324.5676	5819.55
3326.80056	5727.65
3329.03219	5689.45
3331.26248	2.25
3333.49143	0.85
3335.71905	-0.65
