Data from AgNPs_FTO_APTES_UA_50uM_R6G_10uM_NaF_0.1M_Addition_RamanShift__29__15-10-07-432.txt Node

Date: Fri Dec 17 15:10:07 GMT 2021
User: TCL
Spectrometer: QEP01345
Trigger mode: 4
Integration Time (sec): 7.000000E0
Scans to average: 10
Electric dark correction enabled: true
Nonlinearity correction enabled: false
Boxcar width: 0
XAxis mode: Raman Shifts
Number of Pixels in Spectrum: 1044
>>>>>Begin Spectral Data<<<<<
46.04893	-0.25
50.45542	-0.75
54.85868	-1.35
59.25871	1.15
63.6555	62.45
68.04907	64.25
72.43941	71.45
76.82654	74.75
81.21044	74.45
85.59113	79.75
89.96862	85.75
94.34289	87.45
98.71396	89.25
103.08183	89.55
107.4465	93.15
111.80798	93.35
116.16626	96.15
120.52136	96.15
124.87327	102.45
129.222	105.95
133.56755	106.85
137.90993	113.85
142.24913	121.15
146.58517	130.25
150.91804	145.65
155.24774	168.35
159.57429	202.65
163.89768	254.75
168.21792	332.35
172.53501	438.25
176.84895	600.05
181.15975	828.65
185.46741	1157.75
189.77193	1584.45
194.07331	2110.85
198.37157	2722.55
202.6667	3351.65
206.9587	3996.55
211.24758	4601.65
215.53334	5282.85
219.81599	5962.55
224.09553	6780.35
228.37195	7645.05
232.64527	8615.45
236.91549	9636.15
241.18261	10609.05
245.44663	11420.95
249.70755	12131.65
253.96539	12710.45
258.22014	13236.95
262.4718	13718.65
266.72039	14080.85
270.96589	14270.55
275.20832	14345.15
279.44768	14255.95
283.68397	14150.95
287.91719	14001.15
292.14735	13988.95
296.37445	14165.05
300.59849	14492.45
304.81948	14881.35
309.03742	15172.05
313.25231	15109.45
317.46415	14578.45
321.67296	13752.85
325.87872	13073.35
330.08145	12749.35
334.28114	12723.65
338.47781	12904.05
342.67145	13211.15
346.86207	13657.15
351.04966	14239.85
355.23424	14971.35
359.4158	15497.85
363.59435	15825.25
367.76989	15990.15
371.94243	16037.85
376.11196	16067.75
380.27849	16058.65
384.44203	15979.75
388.60257	15906.35
392.76012	15885.95
396.91468	16053.85
401.06626	16442.75
405.21485	16709.95
409.36047	16580.15
413.50311	15975.75
417.64277	15448.95
421.77947	15108.85
425.9132	15021.95
430.04396	15021.05
434.17176	15103.45
438.2966	15231.05
442.41849	15487.55
446.53742	15805.25
450.6534	16159.85
454.76644	16444.55
458.87653	16542.35
462.98368	16515.85
467.08789	16318.75
471.18916	16075.05
475.2875	15752.45
479.38291	15514.65
483.4754	15274.25
487.56496	15186.65
491.6516	15061.05
495.73531	15039.65
499.81612	15080.85
503.89401	15186.55
507.96899	15320.05
512.04106	15473.05
516.11023	15689.75
520.1765	15799.35
524.23987	15735.15
528.30034	15559.05
532.35792	15328.25
536.41261	15085.35
540.46441	14872.65
544.51333	14786.85
548.55936	14857.25
552.60252	15092.95
556.64279	15376.65
560.6802	15571.55
564.71473	15668.85
568.7464	16056.05
572.7752	16399.85
576.80114	16256.05
580.82422	16029.35
584.84444	15968.35
588.86181	15922.65
592.87633	15952.15
596.888	16064.45
600.89682	16566.15
604.9028	18028.05
608.90594	21645.15
612.90624	26197.35
616.90371	25250.55
620.89834	19212.55
624.89015	16287.85
628.87913	15795.15
632.86528	15851.75
636.84862	16077.45
640.82913	15930.65
644.80683	15466.65
648.78172	15081.35
652.75379	15121.95
656.72306	15571.05
660.68952	16100.35
664.65319	15979.65
668.61405	15488.75
672.57211	15222.45
676.52738	15200.75
680.47986	15213.75
684.42955	15131.85
688.37646	15093.25
692.32058	15180.15
696.26192	15290.85
700.20048	15477.45
704.13626	15591.15
708.06928	15629.35
711.99952	15517.85
715.927	15419.25
719.85171	15453.15
723.77365	15428.05
727.69284	15339.95
731.60928	15245.35
735.52295	15191.55
739.43388	15267.55
743.34206	15337.65
747.24749	15410.35
751.15017	15575.65
755.05012	15875.45
758.94733	16413.35
762.8418	17649.85
766.73354	19680.05
770.62254	21863.45
774.50882	22997.45
778.39237	22118.35
782.27321	19737.95
786.15132	17565.85
790.02671	16352.75
793.89938	15755.65
797.76935	15529.45
801.6366	15435.65
805.50115	15408.05
809.36299	15379.25
813.22213	15356.75
817.07857	15355.65
820.93231	15313.15
824.78336	15349.85
828.63172	15368.15
832.47738	15390.95
836.32036	15382.15
840.16066	15342.35
843.99827	15317.95
847.8332	15273.45
851.66546	15252.75
855.49504	15288.95
859.32195	15266.05
863.1462	15201.55
866.96777	15185.95
870.78668	15172.75
874.60293	15220.05
878.41652	15294.25
882.22745	15354.55
886.03573	15419.85
889.84136	15406.05
893.64433	15353.55
897.44466	15320.05
901.24235	15290.45
905.0374	15271.25
908.8298	15221.25
912.61957	15206.55
916.40671	15286.05
920.19121	15413.15
923.97308	15511.25
927.75233	15596.45
931.52895	15645.25
935.30295	15534.05
939.07433	15257.35
942.84309	15007.75
946.60924	14869.05
950.37278	14802.95
954.13371	14716.55
957.89203	14681.15
961.64774	14668.95
965.40086	14630.95
969.15137	14607.45
972.89929	14563.35
976.64461	14558.95
980.38733	14551.05
984.12747	14576.05
987.86502	14680.05
991.59999	14742.35
995.33237	14922.95
999.06217	15159.55
1002.78939	15494.95
1006.51404	15821.25
1010.23611	16127.45
1013.95561	16341.75
1017.67255	16307.75
1021.38692	16163.05
1025.09872	15999.75
1028.80796	15957.85
1032.51465	16050.65
1036.21877	16205.45
1039.92035	16321.05
1043.61937	16273.35
1047.31584	16170.55
1051.00976	16010.55
1054.70114	15958.85
1058.38998	15989.65
1062.07627	16046.85
1065.76003	16164.95
1069.44126	16310.95
1073.11995	16408.85
1076.79611	16529.75
1080.46974	16659.45
1084.14085	16884.95
1087.80943	17133.05
1091.47549	17269.45
1095.13903	17103.55
1098.80005	16699.15
1102.45857	16355.25
1106.11456	16177.35
1109.76805	16191.55
1113.41903	16386.65
1117.06751	16726.55
1120.71348	17140.15
1124.35696	17582.15
1127.99793	18003.45
1131.63641	18027.25
1135.2724	17552.95
1138.90589	17100.45
1142.5369	16787.95
1146.16542	16554.35
1149.79145	16412.65
1153.415	16430.05
1157.03607	16510.95
1160.65467	16787.95
1164.27079	17154.55
1167.88443	17816.65
1171.49561	18756.35
1175.10432	20350.45
1178.71056	22475.95
1182.31434	24114.05
1185.91565	24666.85
1189.51451	24259.05
1193.11091	23162.25
1196.70485	21843.85
1200.29634	20807.55
1203.88538	20080.25
1207.47197	19254.35
1211.05612	18549.85
1214.63782	18101.05
1218.21708	17962.85
1221.79391	17969.55
1225.36829	18080.55
1228.94024	18167.75
1232.50976	18271.75
1236.07685	18351.95
1239.6415	18445.35
1243.20374	18495.25
1246.76355	18569.05
1250.32093	18741.75
1253.8759	19049.95
1257.42845	19501.05
1260.97859	19896.35
1264.52631	20224.75
1268.07163	20622.95
1271.61453	20952.35
1275.15503	21339.85
1278.69312	21554.35
1282.22882	21745.65
1285.76211	22093.55
1289.29301	22531.35
1292.82151	23017.95
1296.34761	23520.15
1299.87133	24334.15
1303.39266	25651.25
1306.9116	27672.65
1310.42815	29870.35
1313.94233	31284.85
1317.45412	30983.25
1320.96354	29582.85
1324.47058	28045.25
1327.97525	26616.35
1331.47754	25792.45
1334.97747	25698.05
1338.47502	26002.85
1341.97022	26581.25
1345.46305	27159.65
1348.95352	27919.35
1352.44163	28967.25
1355.92738	30717.55
1359.41078	33655.75
1362.89183	36790.35
1366.37053	36102.45
1369.84688	31929.55
1373.32088	27483.25
1376.79254	24602.95
1380.26186	23047.55
1383.72883	22280.35
1387.19347	21778.75
1390.65578	21204.25
1394.11575	20781.55
1397.57339	20591.35
1401.0287	20627.95
1404.48168	20917.95
1407.93234	21365.95
1411.38068	21729.75
1414.82669	21880.15
1418.27039	21600.45
1421.71177	21169.05
1425.15083	20678.05
1428.58758	20420.05
1432.02203	20362.45
1435.45416	20416.95
1438.88399	20468.05
1442.31151	20521.05
1445.73673	20622.45
1449.15965	20746.75
1452.58027	20700.95
1455.9986	20606.65
1459.41463	20598.65
1462.82837	20721.95
1466.23982	20998.55
1469.64898	21389.45
1473.05586	21704.35
1476.46045	21970.15
1479.86276	22336.65
1483.26279	22771.15
1486.66054	23270.65
1490.05602	23961.35
1493.44922	24792.25
1496.84016	25947.35
1500.22882	27581.65
1503.61521	29794.55
1506.99934	32198.45
1510.38121	34312.45
1513.76081	35112.65
1517.13816	33721.35
1520.51324	30747.95
1523.88607	27683.15
1527.25665	25549.25
1530.62498	24309.35
1533.99105	23583.95
1537.35488	23165.75
1540.71647	22855.75
1544.07581	22745.45
1547.4329	22660.65
1550.78776	22557.75
1554.14038	22526.05
1557.49077	22649.25
1560.83892	22878.35
1564.18484	23182.75
1567.52853	23523.35
1570.86999	23852.85
1574.20922	24034.75
1577.54624	23934.15
1580.88103	23219.95
1584.2136	22297.15
1587.54395	21903.15
1590.87208	22171.75
1594.19801	23166.85
1597.52172	24378.25
1600.84321	24951.05
1604.16251	24387.45
1607.47959	23188.05
1610.79447	21855.15
1614.10715	20610.45
1617.41763	19555.75
1620.7259	18886.55
1624.03199	18558.55
1627.33587	18516.55
1630.63757	18811.45
1633.93707	19427.45
1637.23439	20396.75
1640.52951	21716.55
1643.82246	23287.15
1647.11321	25044.95
1650.40179	26323.05
1653.68819	25837.35
1656.97241	23462.25
1660.25446	20682.55
1663.53433	18593.45
1666.81203	17342.35
1670.08756	16578.75
1673.36092	16088.35
1676.63211	15770.35
1679.90115	15561.85
1683.16801	15364.35
1686.43272	15227.35
1689.69527	15134.65
1692.95567	15101.75
1696.2139	15037.55
1699.46999	15020.65
1702.72392	15010.95
1705.97571	14954.75
1709.22535	14922.95
1712.47284	14939.35
1715.71819	14937.05
1718.96139	14906.25
1722.20246	14863.15
1725.44139	14833.35
1728.67818	14771.75
1731.91284	14677.25
1735.14537	14618.15
1738.37576	14578.95
1741.60403	14503.05
1744.83017	14488.35
1748.05418	14464.85
1751.27607	14442.45
1754.49584	14435.75
1757.71349	14437.55
1760.92903	14433.85
1764.14244	14410.75
1767.35375	14429.35
1770.56294	14367.55
1773.77002	14361.25
1776.97499	14320.45
1780.17785	14307.35
1783.37861	14265.05
1786.57727	14293.25
1789.77382	14256.95
1792.96828	14270.35
1796.16064	14219.65
1799.3509	14205.05
1802.53907	14210.85
1805.72514	14162.95
1808.90913	14118.35
1812.09102	14125.05
1815.27083	14089.05
1818.44856	14071.95
1821.6242	14050.55
1824.79776	14035.75
1827.96924	14017.05
1831.13864	14035.95
1834.30597	14021.25
1837.47122	14009.65
1840.6344	14028.25
1843.7955	14044.05
1846.95454	14022.15
1850.11151	13992.35
1853.26642	13991.65
1856.41926	13993.65
1859.57004	14011.65
1862.71876	14010.65
1865.86542	14028.75
1869.01003	14029.55
1872.15258	14047.95
1875.29308	14014.85
1878.43152	14006.25
1881.56792	14021.15
1884.70227	14009.55
1887.83457	14027.85
1890.96482	14033.05
1894.09304	14000.05
1897.21921	14026.15
1900.34335	14004.35
1903.46544	14034.65
1906.58551	14017.45
1909.70353	14013.95
1912.81953	14022.75
1915.93349	14013.45
1919.04543	13998.15
1922.15534	13976.85
1925.26322	13952.05
1928.36908	13911.85
1931.47292	13887.55
1934.57473	13821.45
1937.67453	13758.75
1940.77232	13714.65
1943.86808	13672.05
1946.96184	13661.45
1950.05358	13611.25
1953.14331	13579.35
1956.23103	13529.85
1959.31675	13501.95
1962.40046	13478.25
1965.48217	13441.95
1968.56188	13370.45
1971.63959	13336.85
1974.7153	13294.65
1977.78901	13266.15
1980.86073	13248.45
1983.93046	13212.05
1986.99819	13148.45
1990.06394	13119.25
1993.1277	13064.25
1996.18947	13029.35
1999.24925	13017.35
2002.30706	12976.15
2005.36288	12907.25
2008.41672	12898.95
2011.46859	12887.35
2014.51848	12841.45
2017.56639	12800.95
2020.61233	12758.15
2023.6563	12741.35
2026.6983	12725.55
2029.73833	12680.75
2032.7764	12681.15
2035.8125	12622.55
2038.84664	12609.55
2041.87881	12597.75
2044.90903	12575.95
2047.93729	12527.55
2050.96359	12553.95
2053.98794	12542.45
2057.01034	12504.45
2060.03078	12506.85
2063.04927	12489.15
2066.06582	12489.15
2069.08042	12465.05
2072.09307	12480.05
2075.10378	12449.05
2078.11255	12429.45
2081.11938	12445.75
2084.12426	12433.85
2087.12722	12430.05
2090.12824	12405.65
2093.12732	12403.15
2096.12447	12433.75
2099.11969	12413.15
2102.11299	12427.85
2105.10435	12434.45
2108.09379	12447.05
2111.08131	12442.05
2114.0669	12478.75
2117.05057	12463.45
2120.03233	12490.25
2123.01216	12490.45
2125.99008	12506.25
2128.96609	12476.45
2131.94018	12518.05
2134.91236	12523.55
2137.88263	12521.55
2140.851	12514.35
2143.81746	12559.45
2146.78201	12548.85
2149.74466	12547.55
2152.7054	12569.35
2155.66425	12545.15
2158.6212	12556.95
2161.57625	12519.15
2164.52941	12552.15
2167.48067	12524.45
2170.43004	12519.15
2173.37752	12525.75
2176.32311	12521.45
2179.26681	12525.65
2182.20863	12522.75
2185.14856	12518.15
2188.08661	12534.25
2191.02278	12532.75
2193.95707	12490.35
2196.88948	12493.45
2199.82001	12491.75
2202.74867	12468.65
2205.67545	12472.45
2208.60037	12431.35
2211.52341	12430.35
2214.44458	12432.55
2217.36388	12390.35
2220.28132	12370.45
2223.1969	12371.75
2226.11061	12342.45
2229.02246	12309.65
2231.93245	12273.45
2234.84058	12252.45
2237.74686	12244.05
2240.65128	12243.05
2243.55385	12230.95
2246.45456	12184.05
2249.35343	12169.35
2252.25044	12205.35
2255.14561	12179.85
2258.03893	12184.55
2260.93041	12146.55
2263.82004	12151.65
2266.70783	12109.25
2269.59378	12068.45
2272.4779	12062.05
2275.36017	12014.05
2278.24061	12002.55
2281.11922	11964.35
2283.996	11954.25
2286.87094	11972.65
2289.74405	11907.05
2292.61534	11897.65
2295.4848	11888.85
2298.35243	11851.25
2301.21824	11843.35
2304.08223	11846.25
2306.94439	11843.15
2309.80474	11851.45
2312.66327	11836.25
2315.51999	11834.25
2318.37489	11839.35
2321.22797	11804.35
2324.07925	11827.25
2326.92871	11808.15
2329.77637	11766.75
2332.62222	11759.35
2335.46626	11721.55
2338.3085	11741.85
2341.14893	11716.45
2343.98756	11721.05
2346.8244	11723.45
2349.65943	11731.95
2352.49267	11722.75
2355.32411	11717.95
2358.15376	11709.85
2360.98161	11709.75
2363.80768	11720.55
2366.63195	11713.45
2369.45444	11685.75
2372.27514	11673.25
2375.09405	11675.05
2377.91118	11646.25
2380.72652	11626.85
2383.54009	11601.75
2386.35187	11563.75
2389.16188	11509.95
2391.97011	11491.95
2394.77657	11482.65
2397.58125	11446.55
2400.38416	11432.35
2403.18529	11404.25
2405.98466	11393.75
2408.78226	11360.45
2411.57809	11359.15
2414.37216	11338.55
2417.16446	11331.25
2419.955	11328.15
2422.74378	11309.65
2425.5308	11270.85
2428.31606	11252.75
2431.09956	11271.85
2433.88131	11269.05
2436.6613	11279.55
2439.43954	11249.75
2442.21603	11228.35
2444.99077	11208.65
2447.76377	11242.95
2450.53501	11216.55
2453.30451	11219.75
2456.07226	11182.95
2458.83827	11197.05
2461.60254	11173.15
2464.36507	11167.65
2467.12586	11187.45
2469.88492	11153.15
2472.64224	11157.15
2475.39782	11159.65
2478.15167	11166.05
2480.90379	11177.45
2483.65417	11163.95
2486.40283	11161.65
2489.14976	11175.45
2491.89497	11171.85
2494.63845	11196.25
2497.3802	11171.85
2500.12024	11168.65
2502.85855	11153.35
2505.59514	11163.45
2508.33002	11146.95
2511.06318	11096.95
2513.79462	11064.95
2516.52435	11062.15
2519.25237	11012.15
2521.97867	11009.65
2524.70327	10997.05
2527.42616	10973.55
2530.14734	10954.55
2532.86681	10940.15
2535.58458	10945.55
2538.30065	10912.75
2541.01501	10909.15
2543.72768	10912.55
2546.43864	10889.75
2549.14791	10860.25
2551.85548	10860.45
2554.56136	10851.75
2557.26554	10847.65
2559.96803	10840.75
2562.66883	10793.75
2565.36794	10799.85
2568.06536	10806.25
2570.7611	10775.65
2573.45514	10742.65
2576.14751	10747.75
2578.83819	10720.05
2581.52719	10719.85
2584.21451	10720.05
2586.90015	10690.75
2589.58411	10702.45
2592.2664	10644.15
2594.94701	10637.25
2597.62594	10658.85
2600.30321	10618.15
2602.9788	10618.55
2605.65273	10590.45
2608.32498	10598.45
2610.99557	10566.25
2613.66449	10591.55
2616.33175	10588.45
2618.99734	10573.95
2621.66128	10550.95
2624.32355	10560.75
2626.98416	10542.75
2629.64311	10549.55
2632.30041	10549.55
2634.95605	10513.25
2637.61004	10509.05
2640.26238	10484.95
2642.91306	10452.75
2645.56209	10459.05
2648.20948	10451.25
2650.85521	10449.35
2653.4993	10443.65
2656.14175	10436.15
2658.78255	10422.55
2661.42171	10437.85
2664.05923	10451.75
2666.6951	10441.65
2669.32934	10434.85
2671.96194	10452.35
2674.59291	10465.05
2677.22224	10476.45
2679.84993	10475.55
2682.476	10494.45
2685.10043	10502.45
2687.72324	10462.45
2690.34441	10465.75
2692.96396	10469.25
2695.58188	10469.05
2698.19818	10467.25
2700.81285	10494.25
2703.4259	10450.55
2706.03733	10479.25
2708.64714	10468.35
2711.25533	10473.35
2713.86191	10443.15
2716.46687	10461.65
2719.07021	10465.45
2721.67194	10465.75
2724.27206	10437.55
2726.87057	10466.15
2729.46747	10463.35
2732.06276	10451.05
2734.65644	10439.85
2737.24852	10455.85
2739.83899	10415.15
2742.42786	10443.45
2745.01513	10423.05
2747.60079	10424.45
2750.18486	10422.45
2752.76733	10404.05
2755.3482	10395.25
2757.92747	10392.55
2760.50515	10388.65
2763.08123	10367.45
2765.65573	10321.65
2768.22863	10341.75
2770.79994	10312.95
2773.36967	10311.45
2775.9378	10299.85
2778.50435	10289.45
2781.06932	10268.15
2783.6327	10294.75
2786.1945	10265.55
2788.75471	10252.55
2791.31335	10250.05
2793.87041	10210.55
2796.42589	10189.25
2798.97979	10193.35
2801.53212	10169.85
2804.08288	10162.85
2806.63206	10132.15
2809.17967	10134.45
2811.72571	10119.05
2814.27018	10129.25
2816.81308	10120.75
2819.35442	10079.05
2821.89419	10079.25
2824.43239	10104.95
2826.96904	10094.45
2829.50412	10096.95
2832.03763	10109.75
2834.56959	10085.75
2837.1	10046.15
2839.62884	10090.45
2842.15613	10069.05
2844.68186	10107.95
2847.20604	10085.95
2849.72867	10091.55
2852.24974	10118.85
2854.76927	10093.95
2857.28724	10133.75
2859.80367	10058.65
2862.31855	10046.95
2864.83189	10048.65
2867.34368	10027.65
2869.85393	10035.05
2872.36264	10021.25
2874.8698	10042.35
2877.37543	10020.45
2879.87952	10003.45
2882.38207	10024.75
2884.88308	9980.65
2887.38256	9991.65
2889.88051	10008.65
2892.37692	9995.05
2894.8718	9977.85
2897.36515	10025.25
2899.85698	10004.75
2902.34727	10012.45
2904.83604	9985.45
2907.32328	10019.85
2909.809	9990.65
2912.29319	9985.45
2914.77587	10018.05
2917.25702	10001.85
2919.73665	9984.05
2922.21476	9978.15
2924.69136	9967.35
2927.16644	9976.55
2929.64	9983.85
2932.11205	9933.95
2934.58258	9913.75
2937.05161	9920.65
2939.51912	9897.05
2941.98513	9903.55
2944.44962	9873.15
2946.91261	9846.25
2949.37409	9823.85
2951.83407	9807.85
2954.29254	9804.55
2956.74951	9787.35
2959.20498	9772.65
2961.65895	9752.85
2964.11142	9747.25
2966.56239	9731.65
2969.01186	9693.35
2971.45984	9702.25
2973.90632	9704.55
2976.35131	9605.55
2978.7948	9636.25
2981.23681	9590.35
2983.67732	9589.35
2986.11635	9555.35
2988.55388	9532.65
2990.98993	9547.55
2993.4245	9509.55
2995.85758	9501.05
2998.28917	9493.85
3000.71928	9458.35
3003.14791	9442.75
3005.57506	9442.05
3008.00073	9402.75
3010.42493	9404.25
3012.84764	9409.85
3015.26888	9365.15
3017.68865	9361.55
3020.10694	9346.35
3022.52376	9325.25
3024.9391	9318.55
3027.35298	9303.05
3029.76539	9269.95
3032.17632	9256.05
3034.5858	9232.95
3036.9938	9225.25
3039.40034	9223.85
3041.80542	9220.05
3044.20903	9186.25
3046.61118	9192.45
3049.01187	9147.65
3051.4111	9148.75
3053.80888	9132.15
3056.20519	9137.75
3058.60005	9100.85
3060.99345	9090.55
3063.3854	9083.45
3065.7759	9034.75
3068.16494	9022.85
3070.55254	9002.35
3072.93868	8974.75
3075.32338	8959.05
3077.70662	8926.75
3080.08842	8901.95
3082.46878	8918.25
3084.84769	8922.85
3087.22515	8892.55
3089.60118	8893.95
3091.97576	8887.05
3094.3489	8876.25
3096.72061	8859.75
3099.09087	8848.25
3101.4597	8846.45
3103.82709	8853.05
3106.19305	8812.55
3108.55757	8816.15
3110.92066	8804.95
3113.28232	8783.25
3115.64255	8740.65
3118.00134	8726.85
3120.35871	8725.05
3122.71466	8708.85
3125.06917	8684.65
3127.42226	8683.25
3129.77393	8708.55
3132.12417	8692.25
3134.47299	8691.95
3136.82039	8700.65
3139.16636	8663.35
3141.51092	8680.25
3143.85406	8688.25
3146.19579	8686.05
3148.53609	8694.05
3150.87499	8686.95
3153.21246	8690.85
3155.54853	8705.75
3157.88318	8694.25
3160.21642	8692.25
3162.54826	8698.25
3164.87868	8690.05
3167.2077	8686.05
3169.5353	8676.75
3171.86151	8690.95
3174.18631	8652.25
3176.5097	8640.75
3178.83169	8640.35
3181.15228	8648.45
3183.47147	8615.35
3185.78926	8618.65
3188.10565	8584.25
3190.42065	8614.15
3192.73424	8609.55
3195.04645	8608.75
3197.35725	8608.15
3199.66667	8607.85
3201.97469	8616.85
3204.28132	8627.85
3206.58656	8627.15
3208.8904	8616.35
3211.19287	8623.35
3213.49394	8626.95
3215.79363	8635.25
3218.09193	8598.55
3220.38884	8621.25
3222.68438	8629.85
3224.97853	8612.25
3227.2713	8604.35
3229.56269	8590.65
3231.8527	8579.45
3234.14133	8548.85
3236.42858	8538.35
3238.71446	8523.75
3240.99896	8528.75
3243.28209	8530.55
3245.56384	8489.65
3247.84423	8520.85
3250.12324	8506.85
3252.40088	8471.95
3254.67715	8497.75
3256.95205	8451.95
3259.22558	8451.15
3261.49775	8447.75
3263.76855	8461.25
3266.03799	8433.05
3268.30606	8466.25
3270.57277	8402.75
3272.83812	8388.25
3275.10211	8390.05
3277.36474	8353.45
3279.62601	8370.45
3281.88593	8346.05
3284.14448	8347.65
3286.40168	8357.35
3288.65753	8302.85
3290.91202	8291.75
3293.16516	8275.65
3295.41695	8242.35
3297.66738	8209.45
3299.91647	8183.85
3302.16421	8135.45
3304.4106	8078.85
3306.65564	8060.05
3308.89933	8001.15
3311.14169	7939.75
3313.38269	7881.95
3315.62236	7843.75
3317.86068	7781.75
3320.09766	7719.05
3322.3333	7630.75
3324.5676	7632.45
3326.80056	7509.15
3329.03219	7483.15
3331.26248	2.35
3333.49143	-0.35
3335.71905	0.25
