Data from AgNPs_FTO_APTES_UA_1uM_R6G_10uM_NaF_0.1M_Addition_RamanShift__1__11-05-07-153.txt Node

Date: Fri Dec 17 11:05:07 GMT 2021
User: TCL
Spectrometer: QEP01345
Trigger mode: 4
Integration Time (sec): 7.000000E0
Scans to average: 10
Electric dark correction enabled: true
Nonlinearity correction enabled: false
Boxcar width: 0
XAxis mode: Raman Shifts
Number of Pixels in Spectrum: 1044
>>>>>Begin Spectral Data<<<<<
46.04893	-0.65
50.45542	-0.65
54.85868	-0.75
59.25871	-0.15
63.6555	95.05
68.04907	97.55
72.43941	106.35
76.82654	113.85
81.21044	116.25
85.59113	121.25
89.96862	126.55
94.34289	128.95
98.71396	136.35
103.08183	139.25
107.4465	141.85
111.80798	139.85
116.16626	144.75
120.52136	143.45
124.87327	154.35
129.222	160.85
133.56755	166.55
137.90993	178.95
142.24913	193.15
146.58517	208.75
150.91804	234.15
155.24774	272.15
159.57429	332.95
163.89768	412.15
168.21792	541.45
172.53501	721.45
176.84895	988.45
181.15975	1369.25
185.46741	1930.85
189.77193	2658.55
194.07331	3532.75
198.37157	4579.65
202.6667	5669.95
206.9587	6744.45
211.24758	7853.85
215.53334	8908.45
219.81599	10027.95
224.09553	11289.35
228.37195	12671.95
232.64527	14214.05
236.91549	15826.45
241.18261	17456.85
245.44663	18991.15
249.70755	20382.25
253.96539	21515.95
258.22014	22498.45
262.4718	23269.35
266.72039	23738.65
270.96589	23934.15
275.20832	23909.25
279.44768	23624.45
283.68397	23250.95
287.91719	22853.25
292.14735	22621.15
296.37445	22457.15
300.59849	22485.15
304.81948	22613.75
309.03742	22651.25
313.25231	22568.55
317.46415	22401.75
321.67296	22118.95
325.87872	21810.45
330.08145	21719.65
334.28114	21787.25
338.47781	21936.75
342.67145	22145.65
346.86207	22499.25
351.04966	22915.05
355.23424	23285.45
359.4158	23662.65
363.59435	23964.15
367.76989	24163.25
371.94243	24258.75
376.11196	24354.75
380.27849	24372.65
384.44203	24488.65
388.60257	24558.65
392.76012	24783.35
396.91468	24992.65
401.06626	25306.35
405.21485	25531.95
409.36047	25528.65
413.50311	25273.45
417.64277	25057.85
421.77947	25014.45
425.9132	25049.05
430.04396	25094.35
434.17176	25184.45
438.2966	25338.85
442.41849	25587.55
446.53742	26040.95
450.6534	26557.35
454.76644	26893.45
458.87653	27024.85
462.98368	26990.85
467.08789	26852.45
471.18916	26632.75
475.2875	26354.85
479.38291	26071.15
483.4754	25854.25
487.56496	25746.05
491.6516	25700.95
495.73531	25700.75
499.81612	25776.15
503.89401	25922.05
507.96899	25968.95
512.04106	25981.15
516.11023	25948.05
520.1765	25960.75
524.23987	25911.95
528.30034	25843.35
532.35792	25823.55
536.41261	25598.65
540.46441	25348.65
544.51333	25242.15
548.55936	25333.05
552.60252	25578.85
556.64279	25887.45
560.6802	26094.05
564.71473	26163.55
568.7464	26286.45
572.7752	26442.85
576.80114	26534.95
580.82422	26779.25
584.84444	27317.35
588.86181	28017.55
592.87633	28694.65
596.888	29040.95
600.89682	28873.75
604.9028	29447.05
608.90594	31675.75
612.90624	34160.45
616.90371	32936.15
620.89834	28939.45
624.89015	26956.95
628.87913	26544.65
632.86528	26598.65
636.84862	26568.45
640.82913	26382.55
644.80683	26013.85
648.78172	25756.75
652.75379	25778.25
656.72306	26067.55
660.68952	26478.85
664.65319	26415.45
668.61405	26122.55
672.57211	26140.25
676.52738	26289.45
680.47986	26304.75
684.42955	26171.55
688.37646	26094.55
692.32058	26237.85
696.26192	26470.15
700.20048	26797.55
704.13626	26995.35
708.06928	26884.15
711.99952	26701.95
715.927	26697.85
719.85171	26794.15
723.77365	26775.35
727.69284	26584.15
731.60928	26318.35
735.52295	26225.25
739.43388	26193.95
743.34206	26365.75
747.24749	26450.65
751.15017	26527.85
755.05012	26756.15
758.94733	27126.65
762.8418	27900.15
766.73354	29177.75
770.62254	30584.15
774.50882	31090.85
778.39237	30543.45
782.27321	29315.75
786.15132	28156.15
790.02671	27345.65
793.89938	26917.05
797.76935	26691.05
801.6366	26568.55
805.50115	26507.85
809.36299	26384.25
813.22213	26323.85
817.07857	26269.85
820.93231	26143.85
824.78336	26174.05
828.63172	26179.85
832.47738	26235.25
836.32036	26253.65
840.16066	26343.55
843.99827	26382.65
847.8332	26343.85
851.66546	26275.65
855.49504	26314.95
859.32195	26401.75
863.1462	26357.65
866.96777	26346.65
870.78668	26385.65
874.60293	26423.45
878.41652	26471.85
882.22745	26647.35
886.03573	26754.55
889.84136	26812.65
893.64433	26772.55
897.44466	26722.75
901.24235	26685.55
905.0374	26651.65
908.8298	26678.55
912.61957	26690.95
916.40671	26765.25
920.19121	26902.75
923.97308	27142.75
927.75233	27331.25
931.52895	27409.15
935.30295	27247.95
939.07433	26918.35
942.84309	26590.55
946.60924	26449.35
950.37278	26353.25
954.13371	26269.65
957.89203	26191.45
961.64774	26144.85
965.40086	26109.55
969.15137	26095.55
972.89929	26123.25
976.64461	26187.15
980.38733	26226.35
984.12747	26301.65
987.86502	26418.25
991.59999	26637.65
995.33237	26783.15
999.06217	27152.75
1002.78939	27574.75
1006.51404	27976.45
1010.23611	28270.15
1013.95561	28474.05
1017.67255	28418.85
1021.38692	28296.85
1025.09872	28119.45
1028.80796	28092.35
1032.51465	28260.75
1036.21877	28506.15
1039.92035	28621.25
1043.61937	28575.35
1047.31584	28435.95
1051.00976	28281.55
1054.70114	28180.55
1058.38998	28207.65
1062.07627	28347.85
1065.76003	28496.05
1069.44126	28697.75
1073.11995	29043.45
1076.79611	29431.35
1080.46974	29645.15
1084.14085	29757.25
1087.80943	29860.65
1091.47549	29963.25
1095.13903	29799.25
1098.80005	29558.25
1102.45857	29093.75
1106.11456	28755.25
1109.76805	28574.85
1113.41903	28524.95
1117.06751	28548.05
1120.71348	28703.75
1124.35696	28930.45
1127.99793	29118.15
1131.63641	29203.45
1135.2724	28983.05
1138.90589	28799.95
1142.5369	28620.65
1146.16542	28543.75
1149.79145	28534.05
1153.415	28483.55
1157.03607	28499.25
1160.65467	28785.65
1164.27079	29329.45
1167.88443	30092.75
1171.49561	31116.95
1175.10432	32494.05
1178.71056	34359.05
1182.31434	36107.25
1185.91565	37180.65
1189.51451	37439.55
1193.11091	37047.35
1196.70485	36168.05
1200.29634	35161.45
1203.88538	34164.25
1207.47197	33245.55
1211.05612	32544.35
1214.63782	31992.95
1218.21708	31570.75
1221.79391	31239.85
1225.36829	31145.75
1228.94024	31081.05
1232.50976	30929.85
1236.07685	30832.05
1239.6415	30718.35
1243.20374	30749.25
1246.76355	30871.05
1250.32093	31123.85
1253.8759	31531.75
1257.42845	32086.05
1260.97859	32757.15
1264.52631	33435.75
1268.07163	34142.85
1271.61453	34761.55
1275.15503	35336.35
1278.69312	35784.65
1282.22882	36089.25
1285.76211	36502.15
1289.29301	36989.05
1292.82151	37566.05
1296.34761	38305.25
1299.87133	39231.75
1303.39266	40510.65
1306.9116	41971.25
1310.42815	43404.95
1313.94233	44389.75
1317.45412	44289.35
1320.96354	43525.25
1324.47058	42616.25
1327.97525	41829.95
1331.47754	41211.55
1334.97747	40890.45
1338.47502	40786.15
1341.97022	40780.75
1345.46305	40861.15
1348.95352	41255.95
1352.44163	41960.65
1355.92738	43115.55
1359.41078	44804.65
1362.89183	46343.35
1366.37053	46054.05
1369.84688	43316.75
1373.32088	39720.95
1376.79254	37101.65
1380.26186	35821.05
1383.72883	35261.25
1387.19347	34874.75
1390.65578	34270.45
1394.11575	33821.35
1397.57339	33540.05
1401.0287	33466.85
1404.48168	33517.05
1407.93234	33550.95
1411.38068	33662.35
1414.82669	33553.35
1418.27039	33241.05
1421.71177	32911.65
1425.15083	32624.75
1428.58758	32520.85
1432.02203	32650.65
1435.45416	33003.45
1438.88399	33379.55
1442.31151	33503.15
1445.73673	33523.35
1449.15965	33524.85
1452.58027	33397.25
1455.9986	33225.65
1459.41463	33275.65
1462.82837	33569.25
1466.23982	34041.35
1469.64898	34494.85
1473.05586	34889.35
1476.46045	35092.25
1479.86276	35268.65
1483.26279	35393.95
1486.66054	35502.65
1490.05602	35826.35
1493.44922	36258.25
1496.84016	36661.85
1500.22882	37327.45
1503.61521	38380.25
1506.99934	39584.85
1510.38121	40602.05
1513.76081	40945.65
1517.13816	40178.05
1520.51324	38615.75
1523.88607	36938.65
1527.25665	35845.85
1530.62498	35227.35
1533.99105	34820.05
1537.35488	34484.05
1540.71647	34043.05
1544.07581	33689.45
1547.4329	33455.75
1550.78776	33267.25
1554.14038	33153.65
1557.49077	33150.25
1560.83892	33187.85
1564.18484	33368.75
1567.52853	33515.75
1570.86999	33728.95
1574.20922	34078.65
1577.54624	34240.45
1580.88103	34149.55
1584.2136	33878.75
1587.54395	34105.95
1590.87208	34851.65
1594.19801	36007.95
1597.52172	37311.45
1600.84321	37903.45
1604.16251	37175.65
1607.47959	35639.75
1610.79447	33934.95
1614.10715	32215.45
1617.41763	30812.65
1620.7259	29873.55
1624.03199	29473.35
1627.33587	29476.25
1630.63757	29927.05
1633.93707	30777.15
1637.23439	32233.45
1640.52951	34354.45
1643.82246	36968.15
1647.11321	39054.45
1650.40179	39547.95
1653.68819	37832.45
1656.97241	34636.05
1660.25446	31525.15
1663.53433	29315.65
1666.81203	27955.55
1670.08756	27161.35
1673.36092	26671.55
1676.63211	26314.75
1679.90115	26058.45
1683.16801	25866.35
1686.43272	25712.45
1689.69527	25604.65
1692.95567	25522.55
1696.2139	25447.75
1699.46999	25363.95
1702.72392	25408.65
1705.97571	25376.05
1709.22535	25390.25
1712.47284	25416.95
1715.71819	25423.55
1718.96139	25372.75
1722.20246	25305.55
1725.44139	25269.85
1728.67818	25210.95
1731.91284	25125.55
1735.14537	25025.85
1738.37576	24931.35
1741.60403	24875.05
1744.83017	24843.75
1748.05418	24775.25
1751.27607	24779.85
1754.49584	24729.95
1757.71349	24757.55
1760.92903	24729.45
1764.14244	24680.85
1767.35375	24708.35
1770.56294	24707.15
1773.77002	24657.55
1776.97499	24622.35
1780.17785	24630.55
1783.37861	24621.35
1786.57727	24588.25
1789.77382	24573.25
1792.96828	24557.05
1796.16064	24498.25
1799.3509	24513.35
1802.53907	24463.75
1805.72514	24439.25
1808.90913	24350.95
1812.09102	24331.15
1815.27083	24299.65
1818.44856	24305.85
1821.6242	24271.65
1824.79776	24215.25
1827.96924	24238.45
1831.13864	24231.95
1834.30597	24250.35
1837.47122	24236.45
1840.6344	24225.15
1843.7955	24261.65
1846.95454	24237.25
1850.11151	24210.35
1853.26642	24265.65
1856.41926	24246.05
1859.57004	24236.35
1862.71876	24154.65
1865.86542	24149.25
1869.01003	24184.55
1872.15258	24159.85
1875.29308	24161.95
1878.43152	24104.15
1881.56792	24117.35
1884.70227	24052.25
1887.83457	24087.45
1890.96482	24048.85
1894.09304	24003.35
1897.21921	23989.65
1900.34335	23988.25
1903.46544	23929.15
1906.58551	23950.65
1909.70353	23917.15
1912.81953	23920.95
1915.93349	23836.15
1919.04543	23803.25
1922.15534	23772.45
1925.26322	23695.85
1928.36908	23700.35
1931.47292	23662.35
1934.57473	23599.45
1937.67453	23568.65
1940.77232	23508.55
1943.86808	23471.35
1946.96184	23412.75
1950.05358	23349.85
1953.14331	23314.75
1956.23103	23251.85
1959.31675	23233.05
1962.40046	23150.65
1965.48217	23128.75
1968.56188	23088.15
1971.63959	22989.15
1974.7153	22947.65
1977.78901	22871.95
1980.86073	22790.95
1983.93046	22747.75
1986.99819	22680.25
1990.06394	22615.05
1993.1277	22580.85
1996.18947	22529.85
1999.24925	22512.65
2002.30706	22442.95
2005.36288	22345.05
2008.41672	22330.95
2011.46859	22270.05
2014.51848	22187.85
2017.56639	22173.35
2020.61233	22097.65
2023.6563	22071.45
2026.6983	22055.55
2029.73833	21988.95
2032.7764	21970.55
2035.8125	21964.25
2038.84664	21898.05
2041.87881	21885.35
2044.90903	21891.25
2047.93729	21823.75
2050.96359	21810.55
2053.98794	21760.35
2057.01034	21738.35
2060.03078	21731.65
2063.04927	21729.25
2066.06582	21726.65
2069.08042	21730.85
2072.09307	21708.05
2075.10378	21679.85
2078.11255	21693.95
2081.11938	21697.55
2084.12426	21697.15
2087.12722	21745.45
2090.12824	21711.65
2093.12732	21738.95
2096.12447	21707.45
2099.11969	21753.35
2102.11299	21757.25
2105.10435	21793.75
2108.09379	21756.15
2111.08131	21787.05
2114.0669	21845.55
2117.05057	21855.95
2120.03233	21848.35
2123.01216	21902.95
2125.99008	21893.75
2128.96609	21948.05
2131.94018	21964.95
2134.91236	21983.25
2137.88263	21983.55
2140.851	22015.35
2143.81746	22071.15
2146.78201	22085.75
2149.74466	22136.25
2152.7054	22115.65
2155.66425	22090.15
2158.6212	22119.05
2161.57625	22115.45
2164.52941	22072.55
2167.48067	22068.95
2170.43004	22127.85
2173.37752	22117.75
2176.32311	22106.05
2179.26681	22080.35
2182.20863	22138.25
2185.14856	22157.35
2188.08661	22114.65
2191.02278	22130.35
2193.95707	22115.25
2196.88948	22112.35
2199.82001	22144.05
2202.74867	22112.05
2205.67545	22092.15
2208.60037	22073.95
2211.52341	22016.35
2214.44458	22003.15
2217.36388	21961.85
2220.28132	21988.25
2223.1969	21891.05
2226.11061	21885.35
2229.02246	21837.15
2231.93245	21813.05
2234.84058	21798.85
2237.74686	21793.55
2240.65128	21779.05
2243.55385	21788.15
2246.45456	21759.85
2249.35343	21708.75
2252.25044	21696.15
2255.14561	21658.75
2258.03893	21646.95
2260.93041	21615.15
2263.82004	21542.95
2266.70783	21523.65
2269.59378	21505.95
2272.4779	21428.35
2275.36017	21415.35
2278.24061	21413.35
2281.11922	21372.75
2283.996	21376.55
2286.87094	21354.15
2289.74405	21277.05
2292.61534	21305.75
2295.4848	21249.85
2298.35243	21235.55
2301.21824	21235.35
2304.08223	21277.35
2306.94439	21221.95
2309.80474	21271.05
2312.66327	21220.75
2315.51999	21235.15
2318.37489	21202.85
2321.22797	21182.15
2324.07925	21185.65
2326.92871	21148.45
2329.77637	21140.05
2332.62222	21109.65
2335.46626	21107.95
2338.3085	21023.15
2341.14893	21042.35
2343.98756	21043.85
2346.8244	21049.45
2349.65943	21024.85
2352.49267	21011.85
2355.32411	20980.05
2358.15376	20972.25
2360.98161	20963.05
2363.80768	20970.95
2366.63195	20935.15
2369.45444	20900.65
2372.27514	20896.15
2375.09405	20891.95
2377.91118	20897.45
2380.72652	20827.55
2383.54009	20805.95
2386.35187	20807.45
2389.16188	20723.55
2391.97011	20728.15
2394.77657	20666.25
2397.58125	20692.65
2400.38416	20634.65
2403.18529	20599.65
2405.98466	20597.85
2408.78226	20535.85
2411.57809	20524.05
2414.37216	20516.55
2417.16446	20459.75
2419.955	20505.05
2422.74378	20492.05
2425.5308	20450.25
2428.31606	20443.35
2431.09956	20447.25
2433.88131	20406.45
2436.6613	20433.05
2439.43954	20387.15
2442.21603	20357.75
2444.99077	20342.85
2447.76377	20357.15
2450.53501	20350.05
2453.30451	20315.85
2456.07226	20315.65
2458.83827	20310.15
2461.60254	20301.55
2464.36507	20304.85
2467.12586	20278.55
2469.88492	20270.85
2472.64224	20291.95
2475.39782	20232.55
2478.15167	20257.45
2480.90379	20266.05
2483.65417	20237.85
2486.40283	20238.75
2489.14976	20223.65
2491.89497	20187.45
2494.63845	20208.05
2497.3802	20178.95
2500.12024	20196.95
2502.85855	20170.55
2505.59514	20152.35
2508.33002	20147.65
2511.06318	20146.25
2513.79462	20130.85
2516.52435	20122.25
2519.25237	20123.45
2521.97867	20038.85
2524.70327	20055.95
2527.42616	20042.55
2530.14734	20025.65
2532.86681	20005.85
2535.58458	19975.85
2538.30065	19975.85
2541.01501	19949.85
2543.72768	19931.35
2546.43864	19899.75
2549.14791	19881.75
2551.85548	19876.55
2554.56136	19858.05
2557.26554	19857.25
2559.96803	19766.85
2562.66883	19797.75
2565.36794	19803.55
2568.06536	19767.65
2570.7611	19747.65
2573.45514	19726.25
2576.14751	19701.75
2578.83819	19643.65
2581.52719	19640.45
2584.21451	19595.85
2586.90015	19619.85
2589.58411	19569.35
2592.2664	19541.95
2594.94701	19515.55
2597.62594	19482.65
2600.30321	19464.65
2602.9788	19429.85
2605.65273	19408.25
2608.32498	19415.95
2610.99557	19389.85
2613.66449	19367.65
2616.33175	19321.55
2618.99734	19337.75
2621.66128	19292.15
2624.32355	19289.55
2626.98416	19276.45
2629.64311	19250.35
2632.30041	19258.55
2634.95605	19249.15
2637.61004	19220.85
2640.26238	19186.95
2642.91306	19142.55
2645.56209	19127.05
2648.20948	19099.35
2650.85521	19102.05
2653.4993	19118.45
2656.14175	19129.35
2658.78255	19147.35
2661.42171	19118.85
2664.05923	19121.75
2666.6951	19138.85
2669.32934	19130.35
2671.96194	19168.85
2674.59291	19170.05
2677.22224	19185.05
2679.84993	19190.95
2682.476	19152.35
2685.10043	19174.35
2687.72324	19125.35
2690.34441	19155.55
2692.96396	19137.95
2695.58188	19172.85
2698.19818	19134.65
2700.81285	19208.45
2703.4259	19148.05
2706.03733	19165.95
2708.64714	19187.85
2711.25533	19178.85
2713.86191	19189.65
2716.46687	19159.95
2719.07021	19194.15
2721.67194	19237.85
2724.27206	19197.55
2726.87057	19192.45
2729.46747	19202.65
2732.06276	19208.85
2734.65644	19172.25
2737.24852	19203.75
2739.83899	19167.25
2742.42786	19178.65
2745.01513	19167.75
2747.60079	19157.85
2750.18486	19139.65
2752.76733	19157.05
2755.3482	19130.55
2757.92747	19172.05
2760.50515	19123.95
2763.08123	19141.25
2765.65573	19099.95
2768.22863	19123.85
2770.79994	19075.65
2773.36967	19061.15
2775.9378	19052.55
2778.50435	19036.95
2781.06932	18995.75
2783.6327	18982.35
2786.1945	18922.15
2788.75471	18946.35
2791.31335	18867.85
2793.87041	18891.55
2796.42589	18828.55
2798.97979	18811.75
2801.53212	18762.15
2804.08288	18750.75
2806.63206	18693.95
2809.17967	18725.25
2811.72571	18647.25
2814.27018	18632.25
2816.81308	18630.55
2819.35442	18625.35
2821.89419	18580.65
2824.43239	18575.55
2826.96904	18543.55
2829.50412	18523.05
2832.03763	18479.85
2834.56959	18501.75
2837.1	18479.05
2839.62884	18496.15
2842.15613	18495.65
2844.68186	18516.75
2847.20604	18501.55
2849.72867	18550.75
2852.24974	18545.35
2854.76927	18518.95
2857.28724	18562.65
2859.80367	18555.15
2862.31855	18530.75
2864.83189	18535.95
2867.34368	18514.65
2869.85393	18524.95
2872.36264	18535.65
2874.8698	18571.15
2877.37543	18564.65
2879.87952	18609.45
2882.38207	18623.75
2884.88308	18609.55
2887.38256	18647.35
2889.88051	18657.35
2892.37692	18699.15
2894.8718	18683.25
2897.36515	18716.45
2899.85698	18659.85
2902.34727	18709.45
2904.83604	18709.05
2907.32328	18722.05
2909.809	18718.95
2912.29319	18738.75
2914.77587	18664.15
2917.25702	18688.45
2919.73665	18678.25
2922.21476	18697.15
2924.69136	18640.15
2927.16644	18696.75
2929.64	18622.65
2932.11205	18667.95
2934.58258	18599.75
2937.05161	18617.55
2939.51912	18559.55
2941.98513	18553.25
2944.44962	18516.25
2946.91261	18405.55
2949.37409	18441.55
2951.83407	18401.65
2954.29254	18350.75
2956.74951	18319.45
2959.20498	18313.55
2961.65895	18286.45
2964.11142	18285.25
2966.56239	18225.65
2969.01186	18201.75
2971.45984	18137.75
2973.90632	18105.85
2976.35131	18062.45
2978.7948	18052.35
2981.23681	17970.55
2983.67732	17932.35
2986.11635	17929.65
2988.55388	17875.55
2990.98993	17814.95
2993.4245	17788.75
2995.85758	17761.35
2998.28917	17750.75
3000.71928	17721.85
3003.14791	17668.15
3005.57506	17674.05
3008.00073	17611.95
3010.42493	17614.95
3012.84764	17574.85
3015.26888	17592.15
3017.68865	17522.55
3020.10694	17512.95
3022.52376	17484.55
3024.9391	17478.55
3027.35298	17439.15
3029.76539	17414.45
3032.17632	17401.85
3034.5858	17352.05
3036.9938	17362.05
3039.40034	17301.25
3041.80542	17301.05
3044.20903	17257.55
3046.61118	17260.25
3049.01187	17242.75
3051.4111	17207.45
3053.80888	17158.05
3056.20519	17141.35
3058.60005	17152.35
3060.99345	17093.35
3063.3854	17072.15
3065.7759	17022.15
3068.16494	16966.55
3070.55254	16971.95
3072.93868	16955.55
3075.32338	16928.35
3077.70662	16905.35
3080.08842	16899.55
3082.46878	16880.95
3084.84769	16856.35
3087.22515	16854.85
3089.60118	16872.75
3091.97576	16803.65
3094.3489	16796.65
3096.72061	16825.15
3099.09087	16823.95
3101.4597	16796.65
3103.82709	16817.15
3106.19305	16767.65
3108.55757	16781.85
3110.92066	16740.65
3113.28232	16681.45
3115.64255	16657.25
3118.00134	16632.35
3120.35871	16656.05
3122.71466	16624.15
3125.06917	16583.55
3127.42226	16558.85
3129.77393	16594.65
3132.12417	16542.85
3134.47299	16568.05
3136.82039	16539.25
3139.16636	16576.85
3141.51092	16560.85
3143.85406	16566.35
3146.19579	16586.35
3148.53609	16542.75
3150.87499	16603.55
3153.21246	16584.65
3155.54853	16610.95
3157.88318	16589.35
3160.21642	16617.65
3162.54826	16587.75
3164.87868	16573.55
3167.2077	16571.85
3169.5353	16523.35
3171.86151	16528.65
3174.18631	16509.15
3176.5097	16504.25
3178.83169	16465.95
3181.15228	16478.05
3183.47147	16411.55
3185.78926	16452.35
3188.10565	16470.05
3190.42065	16449.05
3192.73424	16460.65
3195.04645	16411.85
3197.35725	16469.45
3199.66667	16450.05
3201.97469	16417.85
3204.28132	16458.15
3206.58656	16481.55
3208.8904	16469.95
3211.19287	16462.15
3213.49394	16461.25
3215.79363	16429.75
3218.09193	16425.45
3220.38884	16429.05
3222.68438	16432.85
3224.97853	16405.55
3227.2713	16385.15
3229.56269	16389.85
3231.8527	16391.95
3234.14133	16360.45
3236.42858	16338.05
3238.71446	16310.35
3240.99896	16276.25
3243.28209	16284.85
3245.56384	16282.65
3247.84423	16318.45
3250.12324	16271.85
3252.40088	16266.45
3254.67715	16245.15
3256.95205	16255.95
3259.22558	16248.15
3261.49775	16212.95
3263.76855	16199.45
3266.03799	16164.55
3268.30606	16152.95
3270.57277	16137.45
3272.83812	16092.45
3275.10211	16109.05
3277.36474	16102.65
3279.62601	16106.85
3281.88593	16033.35
3284.14448	16041.15
3286.40168	16052.85
3288.65753	16008.25
3290.91202	15970.35
3293.16516	15915.05
3295.41695	15886.85
3297.66738	15826.95
3299.91647	15724.35
3302.16421	15656.05
3304.4106	15593.95
3306.65564	15528.45
3308.89933	15449.95
3311.14169	15315.65
3313.38269	15230.05
3315.62236	15138.65
3317.86068	14998.45
3320.09766	14862.35
3322.3333	14741.75
3324.5676	14755.95
3326.80056	14491.65
3329.03219	14425.55
3331.26248	3.85
3333.49143	0.65
3335.71905	-0.85
