Data from AgNPs_FTO_APTES_UA_0uM_R6G_10uM_NaF_0.1M_Addition_RamanShift__2__09-57-27-075.txt Node

Date: Fri Dec 17 09:57:27 GMT 2021
User: TCL
Spectrometer: QEP01345
Trigger mode: 4
Integration Time (sec): 7.000000E0
Scans to average: 10
Electric dark correction enabled: true
Nonlinearity correction enabled: false
Boxcar width: 0
XAxis mode: Raman Shifts
Number of Pixels in Spectrum: 1044
>>>>>Begin Spectral Data<<<<<
46.04893	-0.05
50.45542	0.45
54.85868	0.35
59.25871	0.35
63.6555	28.95
68.04907	30.05
72.43941	34.05
76.82654	36.45
81.21044	37.55
85.59113	39.55
89.96862	44.45
94.34289	42.65
98.71396	44.15
103.08183	45.55
107.4465	43.95
111.80798	45.65
116.16626	45.55
120.52136	46.15
124.87327	49.45
129.222	51.15
133.56755	49.35
137.90993	47.75
142.24913	51.15
146.58517	50.95
150.91804	59.25
155.24774	65.35
159.57429	78.85
163.89768	90.45
168.21792	112.55
172.53501	142.55
176.84895	185.05
181.15975	245.55
185.46741	336.65
189.77193	464.35
194.07331	618.65
198.37157	811.55
202.6667	1021.25
206.9587	1243.95
211.24758	1457.25
215.53334	1682.45
219.81599	1904.75
224.09553	2152.75
228.37195	2414.75
232.64527	2708.75
236.91549	3014.55
241.18261	3315.95
245.44663	3602.35
249.70755	3855.45
253.96539	4048.65
258.22014	4187.15
262.4718	4282.85
266.72039	4285.25
270.96589	4215.05
275.20832	4127.15
279.44768	3977.95
283.68397	3819.35
287.91719	3645.55
292.14735	3516.85
296.37445	3373.05
300.59849	3278.35
304.81948	3199.05
309.03742	3125.25
313.25231	3077.35
317.46415	3020.45
321.67296	2979.05
325.87872	2919.35
330.08145	2897.65
334.28114	2867.95
338.47781	2841.85
342.67145	2815.75
346.86207	2787.35
351.04966	2759.55
355.23424	2731.55
359.4158	2686.45
363.59435	2652.55
367.76989	2616.95
371.94243	2578.95
376.11196	2545.05
380.27849	2508.45
384.44203	2488.05
388.60257	2472.85
392.76012	2464.55
396.91468	2469.15
401.06626	2459.65
405.21485	2471.05
409.36047	2451.65
413.50311	2451.25
417.64277	2453.45
421.77947	2457.45
425.9132	2494.05
430.04396	2495.55
434.17176	2515.35
438.2966	2544.95
442.41849	2577.95
446.53742	2593.45
450.6534	2619.65
454.76644	2638.35
458.87653	2639.45
462.98368	2649.15
467.08789	2648.15
471.18916	2647.05
475.2875	2621.35
479.38291	2614.45
483.4754	2589.95
487.56496	2587.55
491.6516	2574.55
495.73531	2567.35
499.81612	2554.95
503.89401	2566.15
507.96899	2549.45
512.04106	2577.05
516.11023	2563.45
520.1765	2579.15
524.23987	2586.35
528.30034	2578.55
532.35792	2587.55
536.41261	2573.95
540.46441	2570.25
544.51333	2573.25
548.55936	2589.05
552.60252	2608.85
556.64279	2641.95
560.6802	2658.15
564.71473	2655.05
568.7464	2660.45
572.7752	2657.45
576.80114	2608.35
580.82422	2590.75
584.84444	2603.05
588.86181	2609.95
592.87633	2647.75
596.888	2688.05
600.89682	2763.15
604.9028	2877.35
608.90594	3078.25
612.90624	3296.35
616.90371	3314.55
620.89834	3107.95
624.89015	2945.05
628.87913	2830.95
632.86528	2720.45
636.84862	2637.35
640.82913	2584.35
644.80683	2532.25
648.78172	2539.65
652.75379	2525.05
656.72306	2542.55
660.68952	2583.85
664.65319	2605.95
668.61405	2621.55
672.57211	2658.95
676.52738	2723.75
680.47986	2756.45
684.42955	2797.35
688.37646	2822.75
692.32058	2813.45
696.26192	2812.05
700.20048	2805.55
704.13626	2814.65
708.06928	2810.75
711.99952	2806.75
715.927	2789.05
719.85171	2772.55
723.77365	2781.65
727.69284	2787.65
731.60928	2776.75
735.52295	2780.75
739.43388	2782.55
743.34206	2760.25
747.24749	2749.85
751.15017	2745.75
755.05012	2746.45
758.94733	2761.75
762.8418	2793.95
766.73354	2858.15
770.62254	2929.85
774.50882	2960.55
778.39237	2939.55
782.27321	2863.15
786.15132	2811.85
790.02671	2768.35
793.89938	2768.75
797.76935	2770.55
801.6366	2772.95
805.50115	2793.85
809.36299	2788.05
813.22213	2777.15
817.07857	2751.15
820.93231	2755.85
824.78336	2752.55
828.63172	2740.05
832.47738	2763.05
836.32036	2746.65
840.16066	2763.65
843.99827	2764.35
847.8332	2762.95
851.66546	2766.15
855.49504	2756.95
859.32195	2758.25
863.1462	2775.45
866.96777	2793.25
870.78668	2806.85
874.60293	2825.15
878.41652	2849.45
882.22745	2876.55
886.03573	2915.85
889.84136	2976.75
893.64433	3060.85
897.44466	3132.95
901.24235	3225.05
905.0374	3308.15
908.8298	3422.85
912.61957	3565.25
916.40671	3738.65
920.19121	3930.25
923.97308	4092.85
927.75233	4178.15
931.52895	4212.85
935.30295	4122.55
939.07433	3975.05
942.84309	3801.05
946.60924	3634.25
950.37278	3510.25
954.13371	3400.45
957.89203	3301.05
961.64774	3226.15
965.40086	3159.45
969.15137	3087.95
972.89929	3041.65
976.64461	3004.85
980.38733	2970.05
984.12747	2940.65
987.86502	2935.15
991.59999	2941.65
995.33237	2959.65
999.06217	2972.55
1002.78939	3013.95
1006.51404	3029.45
1010.23611	3040.55
1013.95561	3023.35
1017.67255	3016.85
1021.38692	2989.85
1025.09872	2973.85
1028.80796	2957.15
1032.51465	2977.95
1036.21877	3016.45
1039.92035	3036.15
1043.61937	3080.55
1047.31584	3122.45
1051.00976	3163.95
1054.70114	3199.05
1058.38998	3219.95
1062.07627	3236.25
1065.76003	3204.65
1069.44126	3177.55
1073.11995	3144.05
1076.79611	3113.15
1080.46974	3088.25
1084.14085	3070.15
1087.80943	3047.85
1091.47549	3028.85
1095.13903	2993.25
1098.80005	2928.35
1102.45857	2883.85
1106.11456	2858.95
1109.76805	2848.75
1113.41903	2824.35
1117.06751	2829.65
1120.71348	2830.05
1124.35696	2834.05
1127.99793	2849.15
1131.63641	2850.65
1135.2724	2824.85
1138.90589	2773.95
1142.5369	2734.25
1146.16542	2722.15
1149.79145	2678.45
1153.415	2633.45
1157.03607	2618.55
1160.65467	2638.55
1164.27079	2649.55
1167.88443	2696.15
1171.49561	2756.45
1175.10432	2867.25
1178.71056	3022.95
1182.31434	3201.25
1185.91565	3361.75
1189.51451	3440.85
1193.11091	3473.25
1196.70485	3388.15
1200.29634	3245.25
1203.88538	3113.15
1207.47197	2992.55
1211.05612	2888.05
1214.63782	2841.95
1218.21708	2816.45
1221.79391	2826.75
1225.36829	2878.05
1228.94024	2912.75
1232.50976	2911.55
1236.07685	2920.95
1239.6415	2871.35
1243.20374	2854.05
1246.76355	2827.85
1250.32093	2825.15
1253.8759	2825.85
1257.42845	2842.05
1260.97859	2882.55
1264.52631	2925.95
1268.07163	2959.65
1271.61453	3018.85
1275.15503	3059.85
1278.69312	3097.65
1282.22882	3149.05
1285.76211	3200.85
1289.29301	3289.85
1292.82151	3364.35
1296.34761	3439.95
1299.87133	3502.95
1303.39266	3562.25
1306.9116	3602.65
1310.42815	3668.25
1313.94233	3680.65
1317.45412	3653.25
1320.96354	3573.65
1324.47058	3506.55
1327.97525	3445.05
1331.47754	3434.15
1334.97747	3438.45
1338.47502	3469.25
1341.97022	3523.15
1345.46305	3578.95
1348.95352	3682.75
1352.44163	3799.55
1355.92738	3943.45
1359.41078	4102.35
1362.89183	4271.15
1366.37053	4324.25
1369.84688	4212.95
1373.32088	4041.85
1376.79254	3921.65
1380.26186	3863.65
1383.72883	3839.95
1387.19347	3827.65
1390.65578	3820.75
1394.11575	3793.85
1397.57339	3762.55
1401.0287	3731.45
1404.48168	3718.45
1407.93234	3696.35
1411.38068	3666.75
1414.82669	3637.65
1418.27039	3594.25
1421.71177	3547.95
1425.15083	3495.95
1428.58758	3431.05
1432.02203	3383.55
1435.45416	3340.85
1438.88399	3323.75
1442.31151	3319.15
1445.73673	3315.75
1449.15965	3302.95
1452.58027	3279.35
1455.9986	3267.05
1459.41463	3248.45
1462.82837	3259.05
1466.23982	3255.45
1469.64898	3276.15
1473.05586	3299.95
1476.46045	3306.35
1479.86276	3318.25
1483.26279	3344.45
1486.66054	3342.95
1490.05602	3362.35
1493.44922	3356.05
1496.84016	3387.75
1500.22882	3442.85
1503.61521	3495.55
1506.99934	3558.65
1510.38121	3626.75
1513.76081	3633.85
1517.13816	3565.45
1520.51324	3453.25
1523.88607	3325.95
1527.25665	3234.65
1530.62498	3184.65
1533.99105	3135.05
1537.35488	3101.65
1540.71647	3082.95
1544.07581	3047.65
1547.4329	3025.05
1550.78776	3004.15
1554.14038	2987.05
1557.49077	2956.35
1560.83892	2960.65
1564.18484	2941.25
1567.52853	2924.15
1570.86999	2923.35
1574.20922	2898.85
1577.54624	2876.25
1580.88103	2841.95
1584.2136	2778.95
1587.54395	2746.35
1590.87208	2710.15
1594.19801	2721.05
1597.52172	2730.05
1600.84321	2715.45
1604.16251	2697.05
1607.47959	2653.25
1610.79447	2621.75
1614.10715	2600.45
1617.41763	2563.95
1620.7259	2549.05
1624.03199	2541.55
1627.33587	2528.65
1630.63757	2517.15
1633.93707	2527.75
1637.23439	2519.45
1640.52951	2542.75
1643.82246	2573.15
1647.11321	2607.15
1650.40179	2615.15
1653.68819	2579.05
1656.97241	2471.45
1660.25446	2358.05
1663.53433	2251.75
1666.81203	2184.25
1670.08756	2137.25
1673.36092	2094.65
1676.63211	2075.65
1679.90115	2040.75
1683.16801	2004.25
1686.43272	1995.55
1689.69527	1973.85
1692.95567	1958.15
1696.2139	1923.25
1699.46999	1903.25
1702.72392	1894.05
1705.97571	1876.45
1709.22535	1876.95
1712.47284	1875.15
1715.71819	1862.55
1718.96139	1861.95
1722.20246	1848.75
1725.44139	1851.25
1728.67818	1826.75
1731.91284	1825.35
1735.14537	1805.95
1738.37576	1808.25
1741.60403	1793.35
1744.83017	1783.35
1748.05418	1783.95
1751.27607	1770.65
1754.49584	1767.75
1757.71349	1767.35
1760.92903	1752.95
1764.14244	1760.55
1767.35375	1738.45
1770.56294	1741.35
1773.77002	1745.35
1776.97499	1737.05
1780.17785	1738.45
1783.37861	1732.35
1786.57727	1736.95
1789.77382	1728.25
1792.96828	1728.55
1796.16064	1723.45
1799.3509	1714.05
1802.53907	1730.65
1805.72514	1714.05
1808.90913	1703.85
1812.09102	1710.95
1815.27083	1695.15
1818.44856	1688.25
1821.6242	1693.45
1824.79776	1687.75
1827.96924	1690.25
1831.13864	1697.95
1834.30597	1691.45
1837.47122	1682.05
1840.6344	1682.45
1843.7955	1687.75
1846.95454	1684.65
1850.11151	1685.55
1853.26642	1674.45
1856.41926	1685.45
1859.57004	1673.45
1862.71876	1659.15
1865.86542	1667.35
1869.01003	1659.35
1872.15258	1659.95
1875.29308	1673.55
1878.43152	1662.85
1881.56792	1654.85
1884.70227	1654.85
1887.83457	1656.25
1890.96482	1648.45
1894.09304	1644.95
1897.21921	1635.65
1900.34335	1644.05
1903.46544	1635.25
1906.58551	1645.05
1909.70353	1635.25
1912.81953	1635.95
1915.93349	1624.75
1919.04543	1636.25
1922.15534	1619.35
1925.26322	1615.75
1928.36908	1614.75
1931.47292	1616.45
1934.57473	1611.55
1937.67453	1603.45
1940.77232	1613.25
1943.86808	1602.65
1946.96184	1596.55
1950.05358	1598.25
1953.14331	1585.85
1956.23103	1583.25
1959.31675	1582.45
1962.40046	1576.25
1965.48217	1573.15
1968.56188	1568.35
1971.63959	1571.25
1974.7153	1559.75
1977.78901	1547.45
1980.86073	1544.65
1983.93046	1542.15
1986.99819	1531.15
1990.06394	1533.45
1993.1277	1535.85
1996.18947	1515.65
1999.24925	1518.95
2002.30706	1514.95
2005.36288	1508.45
2008.41672	1508.25
2011.46859	1499.75
2014.51848	1498.65
2017.56639	1495.35
2020.61233	1495.85
2023.6563	1492.75
2026.6983	1491.55
2029.73833	1487.85
2032.7764	1474.05
2035.8125	1474.75
2038.84664	1469.05
2041.87881	1468.45
2044.90903	1461.95
2047.93729	1465.35
2050.96359	1471.55
2053.98794	1478.15
2057.01034	1475.15
2060.03078	1478.95
2063.04927	1479.65
2066.06582	1485.55
2069.08042	1494.45
2072.09307	1503.35
2075.10378	1499.85
2078.11255	1505.95
2081.11938	1509.15
2084.12426	1503.95
2087.12722	1514.05
2090.12824	1516.95
2093.12732	1518.15
2096.12447	1524.75
2099.11969	1527.15
2102.11299	1532.05
2105.10435	1533.75
2108.09379	1527.95
2111.08131	1523.75
2114.0669	1528.95
2117.05057	1519.45
2120.03233	1518.85
2123.01216	1519.95
2125.99008	1507.25
2128.96609	1506.25
2131.94018	1498.45
2134.91236	1493.85
2137.88263	1494.45
2140.851	1486.75
2143.81746	1467.65
2146.78201	1476.65
2149.74466	1462.75
2152.7054	1460.45
2155.66425	1460.45
2158.6212	1463.95
2161.57625	1455.55
2164.52941	1459.65
2167.48067	1446.85
2170.43004	1454.45
2173.37752	1446.25
2176.32311	1450.85
2179.26681	1442.45
2182.20863	1441.65
2185.14856	1445.05
2188.08661	1435.55
2191.02278	1451.65
2193.95707	1435.95
2196.88948	1440.95
2199.82001	1439.35
2202.74867	1441.55
2205.67545	1437.85
2208.60037	1430.15
2211.52341	1435.25
2214.44458	1422.45
2217.36388	1425.85
2220.28132	1423.75
2223.1969	1412.35
2226.11061	1414.45
2229.02246	1407.75
2231.93245	1401.35
2234.84058	1397.35
2237.74686	1401.25
2240.65128	1398.15
2243.55385	1394.85
2246.45456	1401.95
2249.35343	1391.55
2252.25044	1397.85
2255.14561	1391.55
2258.03893	1391.05
2260.93041	1376.45
2263.82004	1371.55
2266.70783	1370.25
2269.59378	1372.55
2272.4779	1375.25
2275.36017	1361.25
2278.24061	1366.05
2281.11922	1356.35
2283.996	1366.55
2286.87094	1355.15
2289.74405	1356.45
2292.61534	1348.35
2295.4848	1347.85
2298.35243	1343.35
2301.21824	1343.55
2304.08223	1344.95
2306.94439	1340.05
2309.80474	1339.45
2312.66327	1340.35
2315.51999	1338.55
2318.37489	1333.45
2321.22797	1338.95
2324.07925	1336.05
2326.92871	1337.45
2329.77637	1334.45
2332.62222	1338.85
2335.46626	1321.95
2338.3085	1320.75
2341.14893	1312.75
2343.98756	1309.85
2346.8244	1314.05
2349.65943	1317.35
2352.49267	1311.85
2355.32411	1306.95
2358.15376	1310.35
2360.98161	1314.35
2363.80768	1310.45
2366.63195	1305.15
2369.45444	1306.15
2372.27514	1308.95
2375.09405	1302.45
2377.91118	1308.85
2380.72652	1304.75
2383.54009	1295.55
2386.35187	1299.25
2389.16188	1282.45
2391.97011	1285.65
2394.77657	1296.35
2397.58125	1278.45
2400.38416	1276.35
2403.18529	1278.75
2405.98466	1275.85
2408.78226	1273.25
2411.57809	1267.55
2414.37216	1270.95
2417.16446	1269.85
2419.955	1277.75
2422.74378	1262.85
2425.5308	1266.55
2428.31606	1258.65
2431.09956	1258.25
2433.88131	1245.05
2436.6613	1247.65
2439.43954	1254.95
2442.21603	1252.75
2444.99077	1245.65
2447.76377	1244.55
2450.53501	1250.65
2453.30451	1246.35
2456.07226	1239.95
2458.83827	1240.35
2461.60254	1243.05
2464.36507	1234.85
2467.12586	1238.85
2469.88492	1235.05
2472.64224	1237.45
2475.39782	1226.55
2478.15167	1219.45
2480.90379	1224.45
2483.65417	1223.05
2486.40283	1228.55
2489.14976	1235.05
2491.89497	1218.75
2494.63845	1222.85
2497.3802	1226.55
2500.12024	1217.45
2502.85855	1223.55
2505.59514	1216.55
2508.33002	1217.25
2511.06318	1214.05
2513.79462	1213.95
2516.52435	1212.45
2519.25237	1205.25
2521.97867	1196.15
2524.70327	1211.05
2527.42616	1197.45
2530.14734	1196.25
2532.86681	1191.35
2535.58458	1200.15
2538.30065	1201.95
2541.01501	1198.75
2543.72768	1190.85
2546.43864	1187.75
2549.14791	1186.45
2551.85548	1192.85
2554.56136	1188.65
2557.26554	1189.15
2559.96803	1186.65
2562.66883	1186.35
2565.36794	1182.25
2568.06536	1183.25
2570.7611	1174.25
2573.45514	1170.25
2576.14751	1171.25
2578.83819	1166.55
2581.52719	1165.25
2584.21451	1173.45
2586.90015	1162.95
2589.58411	1155.25
2592.2664	1160.35
2594.94701	1161.65
2597.62594	1159.25
2600.30321	1149.95
2602.9788	1154.55
2605.65273	1147.35
2608.32498	1147.25
2610.99557	1148.05
2613.66449	1144.35
2616.33175	1144.95
2618.99734	1140.85
2621.66128	1139.85
2624.32355	1143.75
2626.98416	1139.55
2629.64311	1145.75
2632.30041	1145.75
2634.95605	1140.65
2637.61004	1145.05
2640.26238	1137.25
2642.91306	1136.65
2645.56209	1140.75
2648.20948	1135.55
2650.85521	1139.05
2653.4993	1135.55
2656.14175	1135.45
2658.78255	1137.75
2661.42171	1147.65
2664.05923	1136.25
2666.6951	1133.45
2669.32934	1147.95
2671.96194	1132.85
2674.59291	1137.75
2677.22224	1142.75
2679.84993	1140.05
2682.476	1137.15
2685.10043	1147.75
2687.72324	1144.15
2690.34441	1148.65
2692.96396	1149.75
2695.58188	1147.65
2698.19818	1137.95
2700.81285	1149.45
2703.4259	1144.75
2706.03733	1117.15
2708.64714	1135.85
2711.25533	1139.75
2713.86191	1145.45
2716.46687	1144.35
2719.07021	1144.35
2721.67194	1153.05
2724.27206	1142.35
2726.87057	1154.15
2729.46747	1150.25
2732.06276	1149.65
2734.65644	1153.55
2737.24852	1158.65
2739.83899	1150.35
2742.42786	1152.15
2745.01513	1156.45
2747.60079	1159.35
2750.18486	1158.15
2752.76733	1151.55
2755.3482	1160.45
2757.92747	1156.45
2760.50515	1167.65
2763.08123	1164.85
2765.65573	1160.45
2768.22863	1165.15
2770.79994	1158.95
2773.36967	1167.45
2775.9378	1170.35
2778.50435	1165.95
2781.06932	1154.65
2783.6327	1157.65
2786.1945	1157.55
2788.75471	1153.75
2791.31335	1152.85
2793.87041	1159.05
2796.42589	1154.55
2798.97979	1153.85
2801.53212	1157.25
2804.08288	1158.65
2806.63206	1143.85
2809.17967	1143.75
2811.72571	1148.35
2814.27018	1154.95
2816.81308	1152.65
2819.35442	1144.75
2821.89419	1143.75
2824.43239	1151.05
2826.96904	1140.15
2829.50412	1149.05
2832.03763	1146.15
2834.56959	1150.25
2837.1	1153.75
2839.62884	1150.55
2842.15613	1152.45
2844.68186	1164.85
2847.20604	1173.35
2849.72867	1184.15
2852.24974	1195.95
2854.76927	1193.95
2857.28724	1209.15
2859.80367	1214.75
2862.31855	1240.55
2864.83189	1248.45
2867.34368	1265.15
2869.85393	1287.75
2872.36264	1306.15
2874.8698	1320.95
2877.37543	1331.05
2879.87952	1347.95
2882.38207	1368.85
2884.88308	1384.55
2887.38256	1398.35
2889.88051	1403.95
2892.37692	1429.25
2894.8718	1433.85
2897.36515	1439.15
2899.85698	1452.55
2902.34727	1459.75
2904.83604	1450.35
2907.32328	1474.95
2909.809	1473.05
2912.29319	1478.35
2914.77587	1495.25
2917.25702	1485.75
2919.73665	1495.75
2922.21476	1492.15
2924.69136	1496.55
2927.16644	1504.85
2929.64	1503.95
2932.11205	1502.85
2934.58258	1495.85
2937.05161	1490.35
2939.51912	1481.55
2941.98513	1466.35
2944.44962	1451.25
2946.91261	1419.65
2949.37409	1411.95
2951.83407	1398.05
2954.29254	1375.05
2956.74951	1355.95
2959.20498	1346.45
2961.65895	1329.45
2964.11142	1316.65
2966.56239	1294.05
2969.01186	1295.25
2971.45984	1273.45
2973.90632	1266.05
2976.35131	1255.75
2978.7948	1232.25
2981.23681	1219.55
2983.67732	1209.55
2986.11635	1188.35
2988.55388	1185.65
2990.98993	1175.45
2993.4245	1165.35
2995.85758	1165.25
2998.28917	1161.55
3000.71928	1140.45
3003.14791	1146.35
3005.57506	1136.25
3008.00073	1141.25
3010.42493	1128.45
3012.84764	1137.45
3015.26888	1127.95
3017.68865	1114.95
3020.10694	1123.85
3022.52376	1120.75
3024.9391	1117.95
3027.35298	1108.95
3029.76539	1115.15
3032.17632	1115.55
3034.5858	1114.05
3036.9938	1110.45
3039.40034	1109.65
3041.80542	1111.35
3044.20903	1110.45
3046.61118	1103.55
3049.01187	1102.25
3051.4111	1099.95
3053.80888	1103.25
3056.20519	1114.65
3058.60005	1106.45
3060.99345	1111.55
3063.3854	1111.45
3065.7759	1103.75
3068.16494	1106.55
3070.55254	1104.55
3072.93868	1108.85
3075.32338	1109.75
3077.70662	1113.15
3080.08842	1113.75
3082.46878	1128.25
3084.84769	1122.35
3087.22515	1130.85
3089.60118	1128.95
3091.97576	1135.55
3094.3489	1150.75
3096.72061	1144.45
3099.09087	1150.15
3101.4597	1151.45
3103.82709	1152.05
3106.19305	1164.55
3108.55757	1169.75
3110.92066	1160.95
3113.28232	1175.35
3115.64255	1171.45
3118.00134	1174.45
3120.35871	1188.75
3122.71466	1179.25
3125.06917	1192.65
3127.42226	1198.65
3129.77393	1195.15
3132.12417	1205.15
3134.47299	1212.35
3136.82039	1222.15
3139.16636	1221.05
3141.51092	1228.15
3143.85406	1236.35
3146.19579	1233.25
3148.53609	1241.05
3150.87499	1249.05
3153.21246	1260.25
3155.54853	1268.45
3157.88318	1274.35
3160.21642	1277.25
3162.54826	1274.95
3164.87868	1290.15
3167.2077	1301.15
3169.5353	1294.65
3171.86151	1306.05
3174.18631	1311.75
3176.5097	1312.45
3178.83169	1313.45
3181.15228	1326.75
3183.47147	1328.35
3185.78926	1329.05
3188.10565	1339.75
3190.42065	1338.35
3192.73424	1340.85
3195.04645	1357.05
3197.35725	1349.35
3199.66667	1359.05
3201.97469	1362.35
3204.28132	1371.55
3206.58656	1372.45
3208.8904	1372.15
3211.19287	1383.85
3213.49394	1389.85
3215.79363	1397.65
3218.09193	1394.95
3220.38884	1391.95
3222.68438	1384.45
3224.97853	1397.85
3227.2713	1397.95
3229.56269	1398.95
3231.8527	1404.95
3234.14133	1410.15
3236.42858	1406.55
3238.71446	1413.25
3240.99896	1407.65
3243.28209	1413.75
3245.56384	1414.75
3247.84423	1436.55
3250.12324	1425.85
3252.40088	1434.65
3254.67715	1437.15
3256.95205	1435.75
3259.22558	1432.95
3261.49775	1435.15
3263.76855	1427.95
3266.03799	1438.75
3268.30606	1423.55
3270.57277	1426.15
3272.83812	1425.05
3275.10211	1421.15
3277.36474	1428.45
3279.62601	1426.75
3281.88593	1423.65
3284.14448	1425.95
3286.40168	1417.95
3288.65753	1409.85
3290.91202	1411.65
3293.16516	1406.55
3295.41695	1398.45
3297.66738	1394.35
3299.91647	1384.75
3302.16421	1379.05
3304.4106	1363.45
3306.65564	1362.45
3308.89933	1359.25
3311.14169	1354.35
3313.38269	1344.75
3315.62236	1341.45
3317.86068	1322.05
3320.09766	1323.25
3322.3333	1309.75
3324.5676	1304.75
3326.80056	1278.55
3329.03219	1272.75
3331.26248	0.25
3333.49143	-0.15
3335.71905	-0.25
