Data from AgNPs_FTO_APTES_UA_5uM_R6G_10uM_NaF_0.1M_Addition_RamanShift__21__12-50-07-273.txt Node

Date: Fri Dec 17 12:50:07 GMT 2021
User: TCL
Spectrometer: QEP01345
Trigger mode: 4
Integration Time (sec): 7.000000E0
Scans to average: 10
Electric dark correction enabled: true
Nonlinearity correction enabled: false
Boxcar width: 0
XAxis mode: Raman Shifts
Number of Pixels in Spectrum: 1044
>>>>>Begin Spectral Data<<<<<
46.04893	0.05
50.45542	-1.55
54.85868	-1.05
59.25871	-0.55
63.6555	121.95
68.04907	123.55
72.43941	129.35
76.82654	141.05
81.21044	139.55
85.59113	144.85
89.96862	149.15
94.34289	158.75
98.71396	163.85
103.08183	163.05
107.4465	173.05
111.80798	175.55
116.16626	186.25
120.52136	188.05
124.87327	200.35
129.222	202.85
133.56755	217.85
137.90993	233.65
142.24913	257.75
146.58517	281.85
150.91804	326.15
155.24774	391.65
159.57429	479.15
163.89768	605.35
168.21792	802.05
172.53501	1089.85
176.84895	1511.15
181.15975	2101.15
185.46741	2953.05
189.77193	4047.15
194.07331	5453.85
198.37157	7015.75
202.6667	8670.75
206.9587	10309.95
211.24758	11873.05
215.53334	13511.15
219.81599	15180.55
224.09553	17096.15
228.37195	19198.85
232.64527	21563.55
236.91549	24021.25
241.18261	26481.75
245.44663	28783.45
249.70755	30760.15
253.96539	32490.65
258.22014	33955.65
262.4718	35233.55
266.72039	36162.95
270.96589	36729.55
275.20832	36853.25
279.44768	36605.35
283.68397	36277.65
287.91719	35893.55
292.14735	35642.15
296.37445	35721.55
300.59849	35890.15
304.81948	36146.95
309.03742	36316.85
313.25231	36042.35
317.46415	35201.55
321.67296	34015.65
325.87872	33061.05
330.08145	32561.55
334.28114	32581.15
338.47781	32911.15
342.67145	33407.55
346.86207	34121.95
351.04966	35061.35
355.23424	36000.55
359.4158	36949.45
363.59435	37519.15
367.76989	37936.75
371.94243	38115.15
376.11196	38268.75
380.27849	38367.75
384.44203	38491.95
388.60257	38626.45
392.76012	38849.65
396.91468	39312.25
401.06626	39924.65
405.21485	40518.85
409.36047	40354.05
413.50311	39562.65
417.64277	38968.05
421.77947	38696.55
425.9132	38754.45
430.04396	38977.65
434.17176	39188.45
438.2966	39496.55
442.41849	40129.65
446.53742	41029.65
450.6534	42030.85
454.76644	42878.85
458.87653	43274.95
462.98368	43229.05
467.08789	42723.25
471.18916	42013.05
475.2875	41198.75
479.38291	40559.95
483.4754	40059.15
487.56496	39571.65
491.6516	39144.55
495.73531	38862.65
499.81612	38819.65
503.89401	39075.55
507.96899	39271.95
512.04106	39334.65
516.11023	39427.35
520.1765	39384.55
524.23987	39201.85
528.30034	38863.35
532.35792	38405.35
536.41261	37939.05
540.46441	37446.95
544.51333	37387.55
548.55936	37697.85
552.60252	38337.75
556.64279	39031.85
560.6802	39354.55
564.71473	39536.25
568.7464	40103.45
572.7752	40845.95
576.80114	41135.85
580.82422	41405.35
584.84444	41721.15
588.86181	41927.15
592.87633	42286.75
596.888	42729.85
600.89682	43520.25
604.9028	45911.35
608.90594	51406.15
612.90624	57147.95
616.90371	54243.05
620.89834	44742.45
624.89015	40440.05
628.87913	39784.25
632.86528	39701.85
636.84862	39522.55
640.82913	38910.45
644.80683	37892.55
648.78172	37145.45
652.75379	37082.55
656.72306	37721.05
660.68952	38544.95
664.65319	38453.05
668.61405	37640.15
672.57211	37330.25
676.52738	37356.55
680.47986	37353.15
684.42955	37185.65
688.37646	37181.65
692.32058	37324.75
696.26192	37694.35
700.20048	38142.25
704.13626	38336.15
708.06928	38184.25
711.99952	37779.85
715.927	37673.85
719.85171	37701.55
723.77365	37562.15
727.69284	37193.45
731.60928	36855.55
735.52295	36826.65
739.43388	36907.75
743.34206	37123.85
747.24749	37331.45
751.15017	37598.15
755.05012	38181.65
758.94733	39308.15
762.8418	41359.65
766.73354	44752.45
770.62254	48120.35
774.50882	49310.25
778.39237	47266.15
782.27321	43411.85
786.15132	40224.45
790.02671	38403.45
793.89938	37557.35
797.76935	37272.95
801.6366	37129.95
805.50115	36948.75
809.36299	36755.65
813.22213	36512.35
817.07857	36376.45
820.93231	36284.45
824.78336	36249.35
828.63172	36303.05
832.47738	36391.25
836.32036	36473.05
840.16066	36575.25
843.99827	36688.75
847.8332	36595.35
851.66546	36434.55
855.49504	36394.75
859.32195	36340.55
863.1462	36224.65
866.96777	36037.65
870.78668	35964.25
874.60293	36026.05
878.41652	35976.95
882.22745	36110.25
886.03573	36226.45
889.84136	36179.15
893.64433	36075.75
897.44466	35871.65
901.24235	35804.65
905.0374	35734.85
908.8298	35635.65
912.61957	35755.75
916.40671	35999.15
920.19121	36401.05
923.97308	36873.45
927.75233	37132.05
931.52895	37079.95
935.30295	36722.75
939.07433	36093.45
942.84309	35606.05
946.60924	35401.25
950.37278	35287.35
954.13371	35015.85
957.89203	34811.25
961.64774	34653.05
965.40086	34550.15
969.15137	34511.65
972.89929	34341.65
976.64461	34379.35
980.38733	34510.15
984.12747	34753.45
987.86502	35060.25
991.59999	35541.35
995.33237	36316.95
999.06217	37499.35
1002.78939	38901.65
1006.51404	39829.25
1010.23611	40365.85
1013.95561	40611.25
1017.67255	40544.45
1021.38692	40085.95
1025.09872	39778.15
1028.80796	40271.65
1032.51465	41471.25
1036.21877	42684.85
1039.92035	42853.95
1043.61937	42175.75
1047.31584	40903.95
1051.00976	39533.55
1054.70114	38711.55
1058.38998	38467.85
1062.07627	38587.35
1065.76003	38769.25
1069.44126	39058.55
1073.11995	39508.85
1076.79611	40022.05
1080.46974	40328.45
1084.14085	40683.85
1087.80943	40986.75
1091.47549	41119.35
1095.13903	40768.45
1098.80005	40130.45
1102.45857	39375.65
1106.11456	38936.55
1109.76805	38910.95
1113.41903	39217.95
1117.06751	39563.55
1120.71348	40035.45
1124.35696	40502.25
1127.99793	40977.05
1131.63641	41180.35
1135.2724	40747.25
1138.90589	40245.05
1142.5369	39908.05
1146.16542	39673.95
1149.79145	39542.95
1153.415	39737.95
1157.03607	40108.95
1160.65467	40810.85
1164.27079	42169.35
1167.88443	44048.55
1171.49561	46615.85
1175.10432	50131.85
1178.71056	54833.65
1182.31434	59251.55
1185.91565	61804.65
1189.51451	62002.65
1193.11091	60045.45
1196.70485	56799.75
1200.29634	53841.35
1203.88538	51572.65
1207.47197	49691.35
1211.05612	48180.15
1214.63782	47259.35
1218.21708	47052.15
1221.79391	47277.25
1225.36829	47499.95
1228.94024	47468.45
1232.50976	47154.65
1236.07685	46880.15
1239.6415	46665.75
1243.20374	46479.65
1246.76355	46628.55
1250.32093	47238.15
1253.8759	48245.05
1257.42845	49610.65
1260.97859	50912.55
1264.52631	52065.55
1268.07163	53405.65
1271.61453	54856.55
1275.15503	56474.95
1278.69312	58048.55
1282.22882	59205.75
1285.76211	60138.75
1289.29301	60962.35
1292.82151	61895.55
1296.34761	63389.75
1299.87133	65828.15
1303.39266	69273.75
1306.9116	74054.65
1310.42815	79161.45
1313.94233	82568.15
1317.45412	83029.75
1320.96354	81356.05
1324.47058	78996.85
1327.97525	76694.45
1331.47754	75044.55
1334.97747	74560.45
1338.47502	75030.55
1341.97022	75651.05
1345.46305	75608.65
1348.95352	75139.95
1352.44163	75067.05
1355.92738	76532.25
1359.41078	80510.65
1362.89183	84646.85
1366.37053	83052.25
1369.84688	75619.25
1373.32088	67291.55
1376.79254	61572.45
1380.26186	58888.95
1383.72883	57870.95
1387.19347	56940.95
1390.65578	55886.95
1394.11575	55395.25
1397.57339	55691.45
1401.0287	56524.05
1404.48168	57702.75
1407.93234	58872.95
1411.38068	59701.05
1414.82669	59446.25
1418.27039	58094.65
1421.71177	56243.95
1425.15083	54569.95
1428.58758	53561.45
1432.02203	53433.35
1435.45416	53880.05
1438.88399	54542.55
1442.31151	55202.75
1445.73673	55628.55
1449.15965	56163.75
1452.58027	56383.25
1455.9986	56319.95
1459.41463	56477.25
1462.82837	57173.55
1466.23982	58214.25
1469.64898	59600.25
1473.05586	60386.65
1476.46045	60797.25
1479.86276	60822.65
1483.26279	60878.65
1486.66054	61158.75
1490.05602	61752.05
1493.44922	62487.65
1496.84016	63215.95
1500.22882	64424.05
1503.61521	66256.85
1506.99934	68996.85
1510.38121	71634.45
1513.76081	72909.75
1517.13816	71336.65
1520.51324	67673.55
1523.88607	63851.75
1527.25665	61154.45
1530.62498	59609.55
1533.99105	58690.55
1537.35488	58142.15
1540.71647	57761.35
1544.07581	57291.45
1547.4329	56746.25
1550.78776	56221.15
1554.14038	55915.15
1557.49077	55883.85
1560.83892	55936.45
1564.18484	55974.55
1567.52853	55939.15
1570.86999	55976.85
1574.20922	56384.35
1577.54624	56684.75
1580.88103	56442.65
1584.2136	56206.05
1587.54395	56999.15
1590.87208	59177.85
1594.19801	62576.85
1597.52172	66257.85
1600.84321	67670.15
1604.16251	65576.55
1607.47959	61264.35
1610.79447	56721.45
1614.10715	52523.25
1617.41763	48950.05
1620.7259	46454.05
1624.03199	45251.95
1627.33587	45333.25
1630.63757	46539.65
1633.93707	48962.05
1637.23439	52507.25
1640.52951	56851.25
1643.82246	61278.85
1647.11321	64465.35
1650.40179	64828.55
1653.68819	61309.45
1656.97241	54741.75
1660.25446	48054.55
1663.53433	43132.35
1666.81203	39962.45
1670.08756	37948.95
1673.36092	36706.75
1676.63211	35826.65
1679.90115	35187.25
1683.16801	34743.15
1686.43272	34401.65
1689.69527	34153.75
1692.95567	33994.45
1696.2139	33811.05
1699.46999	33765.55
1702.72392	33663.65
1705.97571	33654.75
1709.22535	33570.95
1712.47284	33514.45
1715.71819	33490.75
1718.96139	33429.75
1722.20246	33357.55
1725.44139	33225.65
1728.67818	33053.05
1731.91284	32915.05
1735.14537	32744.45
1738.37576	32608.55
1741.60403	32465.45
1744.83017	32370.55
1748.05418	32310.55
1751.27607	32316.15
1754.49584	32200.35
1757.71349	32156.15
1760.92903	32119.45
1764.14244	32113.95
1767.35375	32143.85
1770.56294	32090.75
1773.77002	32061.05
1776.97499	32053.05
1780.17785	31959.45
1783.37861	31961.55
1786.57727	31876.95
1789.77382	31796.75
1792.96828	31788.55
1796.16064	31767.45
1799.3509	31752.25
1802.53907	31680.25
1805.72514	31649.55
1808.90913	31553.75
1812.09102	31523.85
1815.27083	31467.35
1818.44856	31449.95
1821.6242	31404.15
1824.79776	31441.35
1827.96924	31405.15
1831.13864	31367.85
1834.30597	31381.35
1837.47122	31377.95
1840.6344	31404.05
1843.7955	31482.95
1846.95454	31447.25
1850.11151	31444.45
1853.26642	31463.95
1856.41926	31474.25
1859.57004	31519.75
1862.71876	31502.15
1865.86542	31500.75
1869.01003	31490.95
1872.15258	31508.65
1875.29308	31568.75
1878.43152	31565.15
1881.56792	31596.35
1884.70227	31645.25
1887.83457	31639.75
1890.96482	31631.65
1894.09304	31591.45
1897.21921	31657.75
1900.34335	31649.55
1903.46544	31682.95
1906.58551	31629.35
1909.70353	31618.25
1912.81953	31584.05
1915.93349	31546.35
1919.04543	31518.45
1922.15534	31384.45
1925.26322	31325.55
1928.36908	31234.95
1931.47292	31162.95
1934.57473	30987.75
1937.67453	30856.55
1940.77232	30759.15
1943.86808	30603.85
1946.96184	30477.65
1950.05358	30364.65
1953.14331	30234.95
1956.23103	30163.55
1959.31675	30051.65
1962.40046	29985.65
1965.48217	29882.15
1968.56188	29804.75
1971.63959	29743.95
1974.7153	29622.45
1977.78901	29556.75
1980.86073	29434.25
1983.93046	29353.65
1986.99819	29250.85
1990.06394	29227.45
1993.1277	29077.25
1996.18947	28969.75
1999.24925	28936.95
2002.30706	28786.75
2005.36288	28739.55
2008.41672	28648.15
2011.46859	28624.55
2014.51848	28545.15
2017.56639	28443.85
2020.61233	28447.85
2023.6563	28390.35
2026.6983	28332.25
2029.73833	28282.45
2032.7764	28232.15
2035.8125	28178.65
2038.84664	28150.65
2041.87881	28084.55
2044.90903	28082.45
2047.93729	28000.05
2050.96359	28037.45
2053.98794	27921.05
2057.01034	27952.55
2060.03078	27913.95
2063.04927	27876.35
2066.06582	27885.05
2069.08042	27851.05
2072.09307	27848.35
2075.10378	27791.65
2078.11255	27722.85
2081.11938	27726.15
2084.12426	27700.45
2087.12722	27703.75
2090.12824	27695.05
2093.12732	27706.05
2096.12447	27698.85
2099.11969	27649.05
2102.11299	27686.85
2105.10435	27739.45
2108.09379	27722.25
2111.08131	27760.35
2114.0669	27752.65
2117.05057	27811.15
2120.03233	27786.35
2123.01216	27866.75
2125.99008	27811.55
2128.96609	27865.85
2131.94018	27900.45
2134.91236	27874.05
2137.88263	27890.65
2140.851	27917.75
2143.81746	27961.75
2146.78201	27962.05
2149.74466	27977.15
2152.7054	27920.65
2155.66425	27941.85
2158.6212	28001.45
2161.57625	27957.95
2164.52941	27987.85
2167.48067	27940.35
2170.43004	27990.85
2173.37752	27976.15
2176.32311	27969.55
2179.26681	27930.35
2182.20863	27957.65
2185.14856	27989.15
2188.08661	27991.55
2191.02278	28014.95
2193.95707	27989.15
2196.88948	27976.35
2199.82001	28002.25
2202.74867	27977.25
2205.67545	27953.05
2208.60037	27959.95
2211.52341	27924.55
2214.44458	27912.95
2217.36388	27900.55
2220.28132	27824.85
2223.1969	27785.15
2226.11061	27815.05
2229.02246	27728.15
2231.93245	27683.35
2234.84058	27597.55
2237.74686	27546.85
2240.65128	27532.05
2243.55385	27515.75
2246.45456	27456.45
2249.35343	27415.95
2252.25044	27378.75
2255.14561	27322.85
2258.03893	27324.55
2260.93041	27283.25
2263.82004	27244.15
2266.70783	27179.25
2269.59378	27102.15
2272.4779	27044.65
2275.36017	26984.05
2278.24061	26931.85
2281.11922	26885.05
2283.996	26865.45
2286.87094	26826.65
2289.74405	26822.25
2292.61534	26793.25
2295.4848	26785.65
2298.35243	26839.75
2301.21824	26807.55
2304.08223	26819.35
2306.94439	26854.05
2309.80474	26858.15
2312.66327	26923.55
2315.51999	26901.75
2318.37489	26874.35
2321.22797	26896.05
2324.07925	26906.05
2326.92871	26855.45
2329.77637	26801.35
2332.62222	26812.95
2335.46626	26800.55
2338.3085	26799.25
2341.14893	26802.65
2343.98756	26836.65
2346.8244	26887.95
2349.65943	26837.25
2352.49267	26816.65
2355.32411	26786.75
2358.15376	26783.95
2360.98161	26765.15
2363.80768	26719.35
2366.63195	26705.35
2369.45444	26612.95
2372.27514	26580.65
2375.09405	26554.25
2377.91118	26480.55
2380.72652	26425.95
2383.54009	26316.75
2386.35187	26258.05
2389.16188	26238.95
2391.97011	26236.35
2394.77657	26189.65
2397.58125	26144.25
2400.38416	26093.25
2403.18529	26041.55
2405.98466	26015.15
2408.78226	25940.65
2411.57809	25929.35
2414.37216	25877.35
2417.16446	25904.95
2419.955	25836.55
2422.74378	25812.55
2425.5308	25767.65
2428.31606	25785.25
2431.09956	25752.05
2433.88131	25728.15
2436.6613	25707.55
2439.43954	25696.15
2442.21603	25724.45
2444.99077	25664.05
2447.76377	25711.15
2450.53501	25681.45
2453.30451	25670.15
2456.07226	25704.65
2458.83827	25630.65
2461.60254	25630.15
2464.36507	25652.95
2467.12586	25643.35
2469.88492	25649.45
2472.64224	25706.95
2475.39782	25693.05
2478.15167	25672.65
2480.90379	25632.55
2483.65417	25662.05
2486.40283	25711.65
2489.14976	25708.65
2491.89497	25704.75
2494.63845	25746.95
2497.3802	25745.35
2500.12024	25748.25
2502.85855	25727.55
2505.59514	25688.15
2508.33002	25672.55
2511.06318	25675.05
2513.79462	25603.75
2516.52435	25617.95
2519.25237	25630.15
2521.97867	25610.45
2524.70327	25560.65
2527.42616	25543.65
2530.14734	25534.85
2532.86681	25508.25
2535.58458	25501.05
2538.30065	25500.55
2541.01501	25464.85
2543.72768	25441.95
2546.43864	25403.25
2549.14791	25382.75
2551.85548	25372.95
2554.56136	25321.85
2557.26554	25331.55
2559.96803	25284.75
2562.66883	25291.35
2565.36794	25297.15
2568.06536	25297.15
2570.7611	25246.05
2573.45514	25197.05
2576.14751	25247.25
2578.83819	25205.65
2581.52719	25216.55
2584.21451	25222.35
2586.90015	25222.45
2589.58411	25204.25
2592.2664	25184.95
2594.94701	25165.95
2597.62594	25176.55
2600.30321	25047.55
2602.9788	25113.95
2605.65273	25033.75
2608.32498	25062.55
2610.99557	25104.95
2613.66449	25110.55
2616.33175	25082.25
2618.99734	25073.75
2621.66128	25099.95
2624.32355	25111.65
2626.98416	25090.25
2629.64311	25115.05
2632.30041	25118.25
2634.95605	25090.75
2637.61004	25087.95
2640.26238	25022.55
2642.91306	25018.15
2645.56209	24995.55
2648.20948	24994.95
2650.85521	24956.15
2653.4993	24937.55
2656.14175	24917.05
2658.78255	24965.95
2661.42171	24956.55
2664.05923	25011.05
2666.6951	25000.35
2669.32934	25031.15
2671.96194	25050.15
2674.59291	25032.55
2677.22224	25014.15
2679.84993	25043.45
2682.476	24988.25
2685.10043	24994.65
2687.72324	24974.65
2690.34441	24974.75
2692.96396	24949.85
2695.58188	24959.85
2698.19818	24908.15
2700.81285	24901.35
2703.4259	24894.85
2706.03733	24905.15
2708.64714	24919.85
2711.25533	24962.85
2713.86191	24928.95
2716.46687	24956.45
2719.07021	24942.15
2721.67194	24959.75
2724.27206	24894.35
2726.87057	24965.05
2729.46747	24975.85
2732.06276	25009.65
2734.65644	24984.65
2737.24852	24975.25
2739.83899	24937.15
2742.42786	24972.25
2745.01513	24941.85
2747.60079	24929.45
2750.18486	24941.15
2752.76733	24943.75
2755.3482	24919.55
2757.92747	24944.85
2760.50515	24908.55
2763.08123	24877.05
2765.65573	24838.35
2768.22863	24851.25
2770.79994	24834.95
2773.36967	24844.15
2775.9378	24803.35
2778.50435	24796.85
2781.06932	24738.45
2783.6327	24742.95
2786.1945	24774.75
2788.75471	24730.55
2791.31335	24641.55
2793.87041	24650.25
2796.42589	24552.15
2798.97979	24572.55
2801.53212	24530.05
2804.08288	24486.05
2806.63206	24442.45
2809.17967	24447.15
2811.72571	24393.35
2814.27018	24368.05
2816.81308	24395.25
2819.35442	24352.35
2821.89419	24297.35
2824.43239	24307.35
2826.96904	24269.35
2829.50412	24283.85
2832.03763	24239.15
2834.56959	24187.45
2837.1	24179.05
2839.62884	24174.75
2842.15613	24146.45
2844.68186	24177.15
2847.20604	24125.45
2849.72867	24171.95
2852.24974	24123.35
2854.76927	24087.05
2857.28724	24066.25
2859.80367	24027.35
2862.31855	24025.15
2864.83189	24044.15
2867.34368	23971.25
2869.85393	24013.15
2872.36264	23968.65
2874.8698	24001.35
2877.37543	23999.85
2879.87952	23988.45
2882.38207	24026.05
2884.88308	24006.65
2887.38256	24031.85
2889.88051	23993.45
2892.37692	24018.85
2894.8718	24002.95
2897.36515	24046.55
2899.85698	24072.45
2902.34727	24096.75
2904.83604	24090.75
2907.32328	24154.65
2909.809	24099.15
2912.29319	24134.35
2914.77587	24143.75
2917.25702	24151.05
2919.73665	24092.45
2922.21476	24106.65
2924.69136	24041.45
2927.16644	24073.65
2929.64	23989.15
2932.11205	24021.65
2934.58258	23911.25
2937.05161	23963.85
2939.51912	23934.25
2941.98513	23933.15
2944.44962	23894.15
2946.91261	23809.35
2949.37409	23829.95
2951.83407	23855.05
2954.29254	23844.65
2956.74951	23812.45
2959.20498	23783.85
2961.65895	23723.05
2964.11142	23745.45
2966.56239	23663.75
2969.01186	23631.85
2971.45984	23574.45
2973.90632	23552.45
2976.35131	23505.45
2978.7948	23425.35
2981.23681	23393.35
2983.67732	23333.85
2986.11635	23291.15
2988.55388	23258.65
2990.98993	23213.15
2993.4245	23173.35
2995.85758	23130.15
2998.28917	23051.55
3000.71928	23039.75
3003.14791	23005.55
3005.57506	22978.55
3008.00073	22930.15
3010.42493	22942.35
3012.84764	22901.85
3015.26888	22914.65
3017.68865	22829.75
3020.10694	22802.55
3022.52376	22765.15
3024.9391	22743.05
3027.35298	22693.95
3029.76539	22680.35
3032.17632	22586.55
3034.5858	22565.25
3036.9938	22600.35
3039.40034	22508.35
3041.80542	22521.85
3044.20903	22455.65
3046.61118	22425.35
3049.01187	22413.85
3051.4111	22404.35
3053.80888	22330.85
3056.20519	22287.85
3058.60005	22228.05
3060.99345	22212.95
3063.3854	22180.35
3065.7759	22068.25
3068.16494	22045.45
3070.55254	21955.95
3072.93868	21922.65
3075.32338	21862.65
3077.70662	21847.55
3080.08842	21786.05
3082.46878	21796.15
3084.84769	21740.05
3087.22515	21707.45
3089.60118	21668.95
3091.97576	21683.85
3094.3489	21666.75
3096.72061	21635.75
3099.09087	21629.35
3101.4597	21594.95
3103.82709	21624.35
3106.19305	21542.35
3108.55757	21545.55
3110.92066	21449.75
3113.28232	21453.25
3115.64255	21381.25
3118.00134	21363.45
3120.35871	21301.15
3122.71466	21209.55
3125.06917	21195.55
3127.42226	21172.55
3129.77393	21209.45
3132.12417	21163.85
3134.47299	21157.25
3136.82039	21174.65
3139.16636	21157.75
3141.51092	21125.85
3143.85406	21164.95
3146.19579	21144.65
3148.53609	21132.85
3150.87499	21148.75
3153.21246	21115.55
3155.54853	21168.05
3157.88318	21114.75
3160.21642	21133.65
3162.54826	21092.95
3164.87868	21050.15
3167.2077	21044.85
3169.5353	21052.25
3171.86151	21042.55
3174.18631	21010.95
3176.5097	20960.65
3178.83169	20949.85
3181.15228	20979.75
3183.47147	20895.55
3185.78926	20942.55
3188.10565	20921.85
3190.42065	20899.85
3192.73424	20930.95
3195.04645	20938.55
3197.35725	20911.85
3199.66667	20887.45
3201.97469	20903.35
3204.28132	20899.85
3206.58656	20938.25
3208.8904	20920.35
3211.19287	20933.55
3213.49394	20925.85
3215.79363	20858.95
3218.09193	20904.25
3220.38884	20865.25
3222.68438	20881.45
3224.97853	20846.55
3227.2713	20849.95
3229.56269	20777.05
3231.8527	20772.85
3234.14133	20750.65
3236.42858	20682.65
3238.71446	20656.15
3240.99896	20635.85
3243.28209	20662.45
3245.56384	20650.55
3247.84423	20633.75
3250.12324	20622.65
3252.40088	20611.45
3254.67715	20580.15
3256.95205	20511.85
3259.22558	20509.35
3261.49775	20449.85
3263.76855	20467.95
3266.03799	20392.35
3268.30606	20415.95
3270.57277	20369.65
3272.83812	20332.25
3275.10211	20305.85
3277.36474	20319.15
3279.62601	20326.25
3281.88593	20260.25
3284.14448	20299.15
3286.40168	20279.85
3288.65753	20254.15
3290.91202	20211.75
3293.16516	20145.55
3295.41695	20102.55
3297.66738	19957.15
3299.91647	19927.25
3302.16421	19804.65
3304.4106	19750.05
3306.65564	19644.15
3308.89933	19522.85
3311.14169	19379.65
3313.38269	19254.85
3315.62236	19152.05
3317.86068	18994.25
3320.09766	18797.45
3322.3333	18683.95
3324.5676	18652.65
3326.80056	18363.35
3329.03219	18283.05
3331.26248	4.75
3333.49143	1.05
3335.71905	-0.75
