Data from AgNPs_FTO_APTES_UA_50uM_R6G_10uM_NaF_0.1M_Addition_RamanShift__14__14-52-37-413.txt Node

Date: Fri Dec 17 14:52:37 GMT 2021
User: TCL
Spectrometer: QEP01345
Trigger mode: 4
Integration Time (sec): 7.000000E0
Scans to average: 10
Electric dark correction enabled: true
Nonlinearity correction enabled: false
Boxcar width: 0
XAxis mode: Raman Shifts
Number of Pixels in Spectrum: 1044
>>>>>Begin Spectral Data<<<<<
46.04893	0.85
50.45542	-0.65
54.85868	-2.15
59.25871	0.25
63.6555	89.95
68.04907	94.65
72.43941	94.35
76.82654	102.85
81.21044	106.05
85.59113	109.25
89.96862	114.35
94.34289	119.85
98.71396	123.15
103.08183	122.15
107.4465	132.15
111.80798	132.15
116.16626	134.15
120.52136	135.85
124.87327	148.55
129.222	154.85
133.56755	161.45
137.90993	178.45
142.24913	190.25
146.58517	215.85
150.91804	247.15
155.24774	295.75
159.57429	366.95
163.89768	469.85
168.21792	629.25
172.53501	849.45
176.84895	1178.85
181.15975	1650.35
185.46741	2329.05
189.77193	3204.75
194.07331	4315.65
198.37157	5557.75
202.6667	6899.35
206.9587	8226.25
211.24758	9511.95
215.53334	10766.25
219.81599	12137.85
224.09553	13609.55
228.37195	15271.65
232.64527	17068.65
236.91549	18986.45
241.18261	20966.75
245.44663	22770.95
249.70755	24406.35
253.96539	25864.15
258.22014	27074.45
262.4718	27985.55
266.72039	28666.75
270.96589	28993.35
275.20832	29037.35
279.44768	28891.55
283.68397	28596.95
287.91719	28342.45
292.14735	28098.95
296.37445	28052.45
300.59849	28149.95
304.81948	28309.85
309.03742	28380.55
313.25231	28163.75
317.46415	27677.55
321.67296	27018.45
325.87872	26478.65
330.08145	26143.65
334.28114	26152.45
338.47781	26389.95
342.67145	26718.55
346.86207	27083.35
351.04966	27565.65
355.23424	28113.25
359.4158	28585.95
363.59435	28932.85
367.76989	29235.55
371.94243	29326.55
376.11196	29486.35
380.27849	29588.25
384.44203	29726.35
388.60257	29873.35
392.76012	30094.85
396.91468	30439.65
401.06626	30807.05
405.21485	31121.75
409.36047	31061.95
413.50311	30614.95
417.64277	30238.85
421.77947	30068.65
425.9132	30087.85
430.04396	30171.35
434.17176	30285.45
438.2966	30507.05
442.41849	30783.15
446.53742	31212.35
450.6534	31714.05
454.76644	32114.15
458.87653	32347.65
462.98368	32440.65
467.08789	32384.05
471.18916	32153.45
475.2875	31826.65
479.38291	31563.15
483.4754	31279.15
487.56496	30959.85
491.6516	30744.15
495.73531	30590.35
499.81612	30577.55
503.89401	30792.95
507.96899	30952.75
512.04106	31018.15
516.11023	31077.55
520.1765	31032.05
524.23987	30811.15
528.30034	30627.15
532.35792	30410.95
536.41261	30194.15
540.46441	29989.25
544.51333	29964.55
548.55936	30203.95
552.60252	30634.75
556.64279	31117.65
560.6802	31398.05
564.71473	31515.65
568.7464	31752.85
572.7752	32149.05
576.80114	32544.25
580.82422	32984.55
584.84444	33298.45
588.86181	33533.55
592.87633	33496.85
596.888	33459.05
600.89682	33599.65
604.9028	34693.25
608.90594	37484.65
612.90624	40418.05
616.90371	38776.75
620.89834	33594.45
624.89015	31142.95
628.87913	30769.15
632.86528	30945.15
636.84862	31165.85
640.82913	30977.15
644.80683	30470.65
648.78172	30015.35
652.75379	29967.65
656.72306	30238.25
660.68952	30732.05
664.65319	30647.65
668.61405	30265.85
672.57211	30147.25
676.52738	30218.15
680.47986	30191.05
684.42955	30038.75
688.37646	29990.15
692.32058	30044.45
696.26192	30313.45
700.20048	30563.55
704.13626	30735.95
708.06928	30735.65
711.99952	30604.35
715.927	30492.75
719.85171	30485.35
723.77365	30443.45
727.69284	30196.25
731.60928	29949.05
735.52295	29817.15
739.43388	29784.35
743.34206	29839.55
747.24749	29884.85
751.15017	30070.15
755.05012	30385.15
758.94733	30981.35
762.8418	32201.95
766.73354	34233.25
770.62254	36177.35
774.50882	36953.65
778.39237	35861.65
782.27321	33845.15
786.15132	32026.95
790.02671	30868.55
793.89938	30258.35
797.76935	29975.15
801.6366	29803.75
805.50115	29679.55
809.36299	29579.55
813.22213	29375.95
817.07857	29344.55
820.93231	29299.75
824.78336	29216.95
828.63172	29220.55
832.47738	29207.15
836.32036	29221.65
840.16066	29100.75
843.99827	29080.35
847.8332	29089.95
851.66546	29078.55
855.49504	29197.95
859.32195	29169.15
863.1462	29137.85
866.96777	29112.15
870.78668	29106.35
874.60293	29157.35
878.41652	29186.65
882.22745	29208.65
886.03573	29287.55
889.84136	29373.35
893.64433	29274.75
897.44466	29183.75
901.24235	29125.95
905.0374	29067.55
908.8298	28965.15
912.61957	28997.05
916.40671	29129.75
920.19121	29259.85
923.97308	29411.35
927.75233	29385.45
931.52895	29294.15
935.30295	29132.65
939.07433	28787.55
942.84309	28502.25
946.60924	28377.35
950.37278	28275.35
954.13371	28215.95
957.89203	28205.75
961.64774	28160.45
965.40086	28102.05
969.15137	28032.75
972.89929	28034.15
976.64461	28018.85
980.38733	28006.05
984.12747	28030.75
987.86502	28135.05
991.59999	28222.85
995.33237	28397.65
999.06217	28666.75
1002.78939	28948.05
1006.51404	29254.15
1010.23611	29623.05
1013.95561	29815.75
1017.67255	29883.65
1021.38692	29750.45
1025.09872	29479.25
1028.80796	29238.35
1032.51465	29176.75
1036.21877	29154.85
1039.92035	29228.85
1043.61937	29324.05
1047.31584	29372.95
1051.00976	29426.15
1054.70114	29534.35
1058.38998	29688.65
1062.07627	29911.45
1065.76003	30210.55
1069.44126	30577.85
1073.11995	31013.15
1076.79611	31369.75
1080.46974	31522.25
1084.14085	31690.35
1087.80943	31831.45
1091.47549	31953.85
1095.13903	31973.25
1098.80005	31768.15
1102.45857	31362.05
1106.11456	30959.15
1109.76805	30679.95
1113.41903	30635.35
1117.06751	30729.65
1120.71348	30971.25
1124.35696	31256.45
1127.99793	31567.15
1131.63641	31703.05
1135.2724	31533.95
1138.90589	31277.75
1142.5369	31169.55
1146.16542	31106.65
1149.79145	31195.55
1153.415	31181.05
1157.03607	31373.85
1160.65467	31831.65
1164.27079	32573.95
1167.88443	33633.05
1171.49561	34950.85
1175.10432	36659.15
1178.71056	38788.35
1182.31434	40870.35
1185.91565	42274.75
1189.51451	42846.05
1193.11091	42537.35
1196.70485	41542.35
1200.29634	40235.05
1203.88538	38916.45
1207.47197	37733.05
1211.05612	36618.25
1214.63782	35798.35
1218.21708	35184.95
1221.79391	34689.15
1225.36829	34405.55
1228.94024	34215.35
1232.50976	34141.95
1236.07685	34122.35
1239.6415	34111.45
1243.20374	34128.25
1246.76355	34250.05
1250.32093	34575.75
1253.8759	34974.35
1257.42845	35558.85
1260.97859	36289.45
1264.52631	36971.85
1268.07163	37660.95
1271.61453	38305.85
1275.15503	38893.75
1278.69312	39344.25
1282.22882	39746.85
1285.76211	40338.35
1289.29301	40953.85
1292.82151	41750.85
1296.34761	42738.55
1299.87133	44010.45
1303.39266	45476.35
1306.9116	47285.85
1310.42815	49071.95
1313.94233	50147.85
1317.45412	50105.55
1320.96354	49545.95
1324.47058	48965.65
1327.97525	48522.05
1331.47754	48270.05
1334.97747	48408.15
1338.47502	48891.25
1341.97022	49724.45
1345.46305	50594.55
1348.95352	51309.35
1352.44163	51758.95
1355.92738	52070.55
1359.41078	52946.55
1362.89183	53984.75
1366.37053	52878.75
1369.84688	49085.95
1373.32088	44945.65
1376.79254	41952.05
1380.26186	40388.15
1383.72883	39726.25
1387.19347	39269.65
1390.65578	38711.95
1394.11575	38261.55
1397.57339	37962.45
1401.0287	37889.15
1404.48168	37946.85
1407.93234	38059.95
1411.38068	37882.95
1414.82669	37444.55
1418.27039	36827.55
1421.71177	36117.45
1425.15083	35434.15
1428.58758	35097.65
1432.02203	35173.05
1435.45416	35489.55
1438.88399	35948.15
1442.31151	36267.85
1445.73673	36534.55
1449.15965	36777.65
1452.58027	36963.65
1455.9986	37123.45
1459.41463	37353.35
1462.82837	37917.55
1466.23982	38391.75
1469.64898	38850.05
1473.05586	39257.05
1476.46045	39374.65
1479.86276	39424.35
1483.26279	39442.45
1486.66054	39584.65
1490.05602	39975.05
1493.44922	40582.15
1496.84016	41644.85
1500.22882	43320.85
1503.61521	45509.45
1506.99934	47855.65
1510.38121	49431.15
1513.76081	49634.95
1517.13816	48251.55
1520.51324	45910.25
1523.88607	43819.85
1527.25665	42376.65
1530.62498	41708.75
1533.99105	41209.45
1537.35488	40769.65
1540.71647	40270.05
1544.07581	39733.85
1547.4329	39158.85
1550.78776	38623.95
1554.14038	38362.25
1557.49077	38221.45
1560.83892	38201.05
1564.18484	38346.25
1567.52853	38565.45
1570.86999	38822.25
1574.20922	39260.95
1577.54624	39432.45
1580.88103	39140.35
1584.2136	38483.85
1587.54395	38331.05
1590.87208	38709.05
1594.19801	39760.05
1597.52172	41086.25
1600.84321	41756.05
1604.16251	41221.55
1607.47959	39898.35
1610.79447	38277.55
1614.10715	36410.15
1617.41763	34537.85
1620.7259	33033.95
1624.03199	32072.25
1627.33587	31720.25
1630.63757	31957.75
1633.93707	32834.75
1637.23439	34561.35
1640.52951	37020.85
1643.82246	39948.85
1647.11321	42515.25
1650.40179	43694.65
1653.68819	42454.35
1656.97241	39131.45
1660.25446	35298.05
1663.53433	32200.65
1666.81203	30108.65
1670.08756	28749.45
1673.36092	27854.45
1676.63211	27280.95
1679.90115	26872.15
1683.16801	26554.55
1686.43272	26256.35
1689.69527	26081.45
1692.95567	25927.45
1696.2139	25849.95
1699.46999	25796.35
1702.72392	25694.55
1705.97571	25622.15
1709.22535	25566.55
1712.47284	25563.05
1715.71819	25492.75
1718.96139	25436.65
1722.20246	25377.95
1725.44139	25238.05
1728.67818	25135.75
1731.91284	25062.25
1735.14537	24946.35
1738.37576	24830.65
1741.60403	24755.65
1744.83017	24708.25
1748.05418	24604.25
1751.27607	24528.55
1754.49584	24525.05
1757.71349	24488.85
1760.92903	24475.15
1764.14244	24428.85
1767.35375	24433.25
1770.56294	24365.95
1773.77002	24364.75
1776.97499	24297.25
1780.17785	24274.85
1783.37861	24250.85
1786.57727	24180.25
1789.77382	24159.25
1792.96828	24070.75
1796.16064	24026.95
1799.3509	23954.35
1802.53907	23973.75
1805.72514	23880.05
1808.90913	23826.95
1812.09102	23805.35
1815.27083	23723.55
1818.44856	23714.45
1821.6242	23673.35
1824.79776	23635.85
1827.96924	23598.45
1831.13864	23564.25
1834.30597	23579.25
1837.47122	23572.85
1840.6344	23555.25
1843.7955	23575.35
1846.95454	23555.35
1850.11151	23514.15
1853.26642	23512.45
1856.41926	23497.35
1859.57004	23490.75
1862.71876	23450.75
1865.86542	23424.15
1869.01003	23411.05
1872.15258	23356.15
1875.29308	23323.45
1878.43152	23271.85
1881.56792	23257.55
1884.70227	23212.75
1887.83457	23219.25
1890.96482	23140.15
1894.09304	23080.25
1897.21921	23100.75
1900.34335	23064.05
1903.46544	23076.25
1906.58551	23052.25
1909.70353	23001.75
1912.81953	22929.05
1915.93349	22921.65
1919.04543	22827.85
1922.15534	22801.05
1925.26322	22782.25
1928.36908	22728.45
1931.47292	22647.75
1934.57473	22614.95
1937.67453	22532.75
1940.77232	22482.35
1943.86808	22402.25
1946.96184	22382.55
1950.05358	22329.85
1953.14331	22278.75
1956.23103	22199.75
1959.31675	22119.35
1962.40046	22075.35
1965.48217	22043.05
1968.56188	21951.55
1971.63959	21896.75
1974.7153	21821.95
1977.78901	21742.95
1980.86073	21685.65
1983.93046	21632.35
1986.99819	21542.15
1990.06394	21475.55
1993.1277	21426.05
1996.18947	21344.15
1999.24925	21300.55
2002.30706	21188.55
2005.36288	21146.35
2008.41672	21083.75
2011.46859	21042.85
2014.51848	20997.15
2017.56639	20896.75
2020.61233	20888.35
2023.6563	20805.25
2026.6983	20765.15
2029.73833	20687.95
2032.7764	20634.65
2035.8125	20621.25
2038.84664	20586.55
2041.87881	20500.75
2044.90903	20517.35
2047.93729	20457.35
2050.96359	20435.35
2053.98794	20390.25
2057.01034	20374.25
2060.03078	20348.65
2063.04927	20337.65
2066.06582	20275.55
2069.08042	20292.05
2072.09307	20286.85
2075.10378	20284.65
2078.11255	20258.55
2081.11938	20261.35
2084.12426	20239.25
2087.12722	20234.65
2090.12824	20179.65
2093.12732	20222.45
2096.12447	20217.45
2099.11969	20166.85
2102.11299	20195.35
2105.10435	20215.15
2108.09379	20237.25
2111.08131	20290.25
2114.0669	20217.55
2117.05057	20256.85
2120.03233	20303.35
2123.01216	20304.05
2125.99008	20283.85
2128.96609	20295.85
2131.94018	20362.45
2134.91236	20362.75
2137.88263	20363.25
2140.851	20360.05
2143.81746	20400.15
2146.78201	20385.85
2149.74466	20400.35
2152.7054	20386.25
2155.66425	20365.55
2158.6212	20297.65
2161.57625	20357.05
2164.52941	20356.95
2167.48067	20343.25
2170.43004	20350.45
2173.37752	20362.15
2176.32311	20357.05
2179.26681	20294.05
2182.20863	20305.85
2185.14856	20277.15
2188.08661	20282.05
2191.02278	20265.25
2193.95707	20267.45
2196.88948	20281.15
2199.82001	20240.65
2202.74867	20184.35
2205.67545	20178.95
2208.60037	20152.15
2211.52341	20089.65
2214.44458	20059.05
2217.36388	20016.25
2220.28132	20006.75
2223.1969	19971.35
2226.11061	19937.95
2229.02246	19870.85
2231.93245	19844.65
2234.84058	19782.85
2237.74686	19755.15
2240.65128	19754.15
2243.55385	19721.45
2246.45456	19676.65
2249.35343	19655.05
2252.25044	19621.65
2255.14561	19606.25
2258.03893	19579.15
2260.93041	19543.85
2263.82004	19530.55
2266.70783	19479.65
2269.59378	19454.55
2272.4779	19374.45
2275.36017	19340.65
2278.24061	19301.25
2281.11922	19282.35
2283.996	19237.35
2286.87094	19194.45
2289.74405	19148.35
2292.61534	19126.25
2295.4848	19109.05
2298.35243	19079.15
2301.21824	19054.15
2304.08223	19068.25
2306.94439	19037.35
2309.80474	19021.05
2312.66327	18984.45
2315.51999	18957.05
2318.37489	18958.35
2321.22797	18906.85
2324.07925	18899.45
2326.92871	18875.05
2329.77637	18862.45
2332.62222	18826.15
2335.46626	18786.35
2338.3085	18756.25
2341.14893	18758.55
2343.98756	18726.05
2346.8244	18696.55
2349.65943	18666.45
2352.49267	18649.25
2355.32411	18684.55
2358.15376	18673.05
2360.98161	18675.65
2363.80768	18693.45
2366.63195	18651.85
2369.45444	18634.25
2372.27514	18594.55
2375.09405	18565.65
2377.91118	18549.15
2380.72652	18507.55
2383.54009	18478.15
2386.35187	18426.35
2389.16188	18366.45
2391.97011	18368.75
2394.77657	18322.85
2397.58125	18277.45
2400.38416	18263.55
2403.18529	18235.95
2405.98466	18209.45
2408.78226	18168.65
2411.57809	18194.55
2414.37216	18119.35
2417.16446	18134.95
2419.955	18093.35
2422.74378	18098.25
2425.5308	18042.45
2428.31606	18057.25
2431.09956	18031.65
2433.88131	18024.75
2436.6613	18019.45
2439.43954	17994.05
2442.21603	17949.55
2444.99077	17940.05
2447.76377	17937.15
2450.53501	17942.95
2453.30451	17909.35
2456.07226	17895.05
2458.83827	17859.85
2461.60254	17810.35
2464.36507	17850.25
2467.12586	17793.25
2469.88492	17789.25
2472.64224	17789.25
2475.39782	17793.55
2478.15167	17742.65
2480.90379	17760.45
2483.65417	17762.55
2486.40283	17747.85
2489.14976	17727.65
2491.89497	17708.95
2494.63845	17731.65
2497.3802	17702.75
2500.12024	17701.35
2502.85855	17660.85
2505.59514	17686.55
2508.33002	17635.45
2511.06318	17651.45
2513.79462	17588.65
2516.52435	17557.65
2519.25237	17551.45
2521.97867	17526.65
2524.70327	17519.65
2527.42616	17468.55
2530.14734	17464.15
2532.86681	17423.95
2535.58458	17398.75
2538.30065	17408.25
2541.01501	17343.95
2543.72768	17345.65
2546.43864	17303.85
2549.14791	17283.45
2551.85548	17257.05
2554.56136	17256.35
2557.26554	17207.75
2559.96803	17185.75
2562.66883	17196.65
2565.36794	17168.85
2568.06536	17118.45
2570.7611	17085.55
2573.45514	17090.15
2576.14751	17046.55
2578.83819	17026.15
2581.52719	16991.95
2584.21451	16955.15
2586.90015	16961.05
2589.58411	16909.05
2592.2664	16862.35
2594.94701	16849.65
2597.62594	16840.25
2600.30321	16773.95
2602.9788	16754.85
2605.65273	16741.45
2608.32498	16740.65
2610.99557	16704.65
2613.66449	16688.05
2616.33175	16688.65
2618.99734	16648.05
2621.66128	16607.05
2624.32355	16627.75
2626.98416	16572.05
2629.64311	16584.35
2632.30041	16556.45
2634.95605	16527.45
2637.61004	16555.75
2640.26238	16509.45
2642.91306	16492.55
2645.56209	16492.65
2648.20948	16467.65
2650.85521	16470.45
2653.4993	16498.35
2656.14175	16461.25
2658.78255	16463.75
2661.42171	16481.65
2664.05923	16454.45
2666.6951	16445.75
2669.32934	16469.85
2671.96194	16452.55
2674.59291	16474.85
2677.22224	16436.65
2679.84993	16450.35
2682.476	16426.85
2685.10043	16449.65
2687.72324	16452.35
2690.34441	16429.85
2692.96396	16437.85
2695.58188	16468.45
2698.19818	16399.45
2700.81285	16424.35
2703.4259	16432.75
2706.03733	16424.05
2708.64714	16391.95
2711.25533	16425.05
2713.86191	16413.55
2716.46687	16414.95
2719.07021	16427.35
2721.67194	16420.55
2724.27206	16372.75
2726.87057	16398.65
2729.46747	16387.25
2732.06276	16390.55
2734.65644	16372.85
2737.24852	16347.25
2739.83899	16345.05
2742.42786	16337.35
2745.01513	16312.85
2747.60079	16304.05
2750.18486	16306.35
2752.76733	16265.35
2755.3482	16263.05
2757.92747	16254.75
2760.50515	16232.35
2763.08123	16215.85
2765.65573	16189.55
2768.22863	16169.45
2770.79994	16126.45
2773.36967	16153.05
2775.9378	16105.25
2778.50435	16077.15
2781.06932	16049.25
2783.6327	16062.95
2786.1945	16031.35
2788.75471	16002.15
2791.31335	15969.75
2793.87041	15940.25
2796.42589	15886.35
2798.97979	15859.45
2801.53212	15814.25
2804.08288	15828.05
2806.63206	15782.85
2809.17967	15750.45
2811.72571	15739.95
2814.27018	15722.65
2816.81308	15688.75
2819.35442	15668.65
2821.89419	15664.75
2824.43239	15614.55
2826.96904	15609.45
2829.50412	15610.95
2832.03763	15550.65
2834.56959	15557.05
2837.1	15507.15
2839.62884	15529.25
2842.15613	15482.45
2844.68186	15482.35
2847.20604	15457.15
2849.72867	15470.25
2852.24974	15438.65
2854.76927	15421.85
2857.28724	15408.15
2859.80367	15399.75
2862.31855	15352.35
2864.83189	15366.75
2867.34368	15315.75
2869.85393	15352.35
2872.36264	15327.35
2874.8698	15318.25
2877.37543	15283.55
2879.87952	15246.45
2882.38207	15283.35
2884.88308	15269.55
2887.38256	15267.25
2889.88051	15266.25
2892.37692	15244.65
2894.8718	15244.75
2897.36515	15269.15
2899.85698	15221.55
2902.34727	15303.65
2904.83604	15236.05
2907.32328	15267.25
2909.809	15253.55
2912.29319	15258.75
2914.77587	15277.65
2917.25702	15272.75
2919.73665	15234.85
2922.21476	15219.05
2924.69136	15217.95
2927.16644	15203.15
2929.64	15176.85
2932.11205	15163.45
2934.58258	15139.85
2937.05161	15156.35
2939.51912	15145.05
2941.98513	15116.55
2944.44962	15100.85
2946.91261	15077.55
2949.37409	15062.85
2951.83407	15039.65
2954.29254	15025.45
2956.74951	15028.25
2959.20498	14994.75
2961.65895	14969.85
2964.11142	14988.75
2966.56239	14953.25
2969.01186	14945.85
2971.45984	14911.75
2973.90632	14885.25
2976.35131	14810.35
2978.7948	14793.85
2981.23681	14762.15
2983.67732	14767.95
2986.11635	14726.15
2988.55388	14681.45
2990.98993	14675.65
2993.4245	14646.75
2995.85758	14638.95
2998.28917	14585.05
3000.71928	14553.35
3003.14791	14497.85
3005.57506	14479.65
3008.00073	14473.45
3010.42493	14469.75
3012.84764	14437.75
3015.26888	14411.95
3017.68865	14388.55
3020.10694	14396.75
3022.52376	14342.25
3024.9391	14301.85
3027.35298	14272.15
3029.76539	14244.45
3032.17632	14234.15
3034.5858	14228.15
3036.9938	14215.55
3039.40034	14203.95
3041.80542	14167.05
3044.20903	14138.95
3046.61118	14148.95
3049.01187	14086.05
3051.4111	14081.35
3053.80888	14034.45
3056.20519	14008.95
3058.60005	13975.75
3060.99345	13967.15
3063.3854	13982.35
3065.7759	13929.15
3068.16494	13896.55
3070.55254	13831.15
3072.93868	13831.75
3075.32338	13804.65
3077.70662	13798.75
3080.08842	13783.05
3082.46878	13749.85
3084.84769	13709.15
3087.22515	13720.45
3089.60118	13713.55
3091.97576	13671.25
3094.3489	13681.05
3096.72061	13671.05
3099.09087	13659.95
3101.4597	13616.05
3103.82709	13611.85
3106.19305	13561.25
3108.55757	13576.85
3110.92066	13559.35
3113.28232	13519.35
3115.64255	13455.65
3118.00134	13445.25
3120.35871	13423.25
3122.71466	13399.35
3125.06917	13397.25
3127.42226	13330.45
3129.77393	13342.05
3132.12417	13344.25
3134.47299	13327.95
3136.82039	13324.05
3139.16636	13361.85
3141.51092	13321.55
3143.85406	13329.65
3146.19579	13303.15
3148.53609	13289.25
3150.87499	13311.15
3153.21246	13302.25
3155.54853	13351.75
3157.88318	13294.25
3160.21642	13288.55
3162.54826	13322.25
3164.87868	13296.45
3167.2077	13292.05
3169.5353	13287.05
3171.86151	13275.45
3174.18631	13224.75
3176.5097	13217.35
3178.83169	13185.95
3181.15228	13182.45
3183.47147	13133.25
3185.78926	13151.05
3188.10565	13099.75
3190.42065	13083.75
3192.73424	13099.65
3195.04645	13063.15
3197.35725	13087.65
3199.66667	13047.05
3201.97469	13090.35
3204.28132	13070.45
3206.58656	13076.95
3208.8904	13096.75
3211.19287	13099.45
3213.49394	13089.75
3215.79363	13092.35
3218.09193	13090.55
3220.38884	13046.35
3222.68438	13053.65
3224.97853	13045.75
3227.2713	13012.95
3229.56269	12995.15
3231.8527	12998.35
3234.14133	12949.15
3236.42858	12910.85
3238.71446	12891.45
3240.99896	12878.95
3243.28209	12896.05
3245.56384	12861.75
3247.84423	12865.55
3250.12324	12830.05
3252.40088	12870.15
3254.67715	12851.35
3256.95205	12804.55
3259.22558	12781.95
3261.49775	12782.05
3263.76855	12756.05
3266.03799	12737.75
3268.30606	12708.95
3270.57277	12691.65
3272.83812	12653.55
3275.10211	12655.25
3277.36474	12608.35
3279.62601	12620.75
3281.88593	12591.45
3284.14448	12577.75
3286.40168	12592.45
3288.65753	12576.15
3290.91202	12539.45
3293.16516	12490.35
3295.41695	12468.15
3297.66738	12400.05
3299.91647	12340.45
3302.16421	12248.75
3304.4106	12213.85
3306.65564	12176.65
3308.89933	12074.15
3311.14169	12000.25
3313.38269	11902.15
3315.62236	11822.85
3317.86068	11735.35
3320.09766	11617.05
3322.3333	11528.65
3324.5676	11526.05
3326.80056	11336.05
3329.03219	11261.65
3331.26248	2.65
3333.49143	-0.35
3335.71905	0.55
