Data from AgNPs_FTO_APTES_UA_200uM_R6G_10uM_NaF_0.1M_Addition_RamanShift__17__16-20-07-512.txt Node

Date: Fri Dec 17 16:20:07 GMT 2021
User: TCL
Spectrometer: QEP01345
Trigger mode: 4
Integration Time (sec): 7.000000E0
Scans to average: 10
Electric dark correction enabled: true
Nonlinearity correction enabled: false
Boxcar width: 0
XAxis mode: Raman Shifts
Number of Pixels in Spectrum: 1044
>>>>>Begin Spectral Data<<<<<
46.04893	0.25
50.45542	0.05
54.85868	-1.65
59.25871	0.95
63.6555	45.85
68.04907	47.15
72.43941	48.85
76.82654	54.45
81.21044	56.05
85.59113	56.05
89.96862	62.55
94.34289	62.55
98.71396	64.05
103.08183	65.15
107.4465	69.45
111.80798	67.55
116.16626	70.15
120.52136	70.35
124.87327	74.05
129.222	77.45
133.56755	81.25
137.90993	84.55
142.24913	92.25
146.58517	99.25
150.91804	113.75
155.24774	129.15
159.57429	164.75
163.89768	204.15
168.21792	266.05
172.53501	354.45
176.84895	502.55
181.15975	683.35
185.46741	965.45
189.77193	1336.55
194.07331	1783.05
198.37157	2308.25
202.6667	2864.45
206.9587	3412.65
211.24758	3934.55
215.53334	4476.65
219.81599	5043.95
224.09553	5700.45
228.37195	6376.85
232.64527	7157.85
236.91549	7984.75
241.18261	8843.85
245.44663	9610.55
249.70755	10309.45
253.96539	10850.35
258.22014	11347.75
262.4718	11710.15
266.72039	11950.75
270.96589	12116.95
275.20832	12119.25
279.44768	11954.65
283.68397	11767.55
287.91719	11544.45
292.14735	11444.05
296.37445	11452.65
300.59849	11499.95
304.81948	11591.75
309.03742	11567.85
313.25231	11440.25
317.46415	11117.15
321.67296	10810.95
325.87872	10548.05
330.08145	10405.55
334.28114	10456.55
338.47781	10563.65
342.67145	10723.05
346.86207	10922.65
351.04966	11172.85
355.23424	11454.55
359.4158	11735.05
363.59435	11898.55
367.76989	12083.15
371.94243	12220.25
376.11196	12315.95
380.27849	12442.55
384.44203	12518.85
388.60257	12556.95
392.76012	12627.75
396.91468	12704.25
401.06626	12826.35
405.21485	12955.45
409.36047	12837.25
413.50311	12560.05
417.64277	12242.55
421.77947	12046.55
425.9132	11956.45
430.04396	11915.05
434.17176	11928.45
438.2966	12014.65
442.41849	12127.85
446.53742	12280.05
450.6534	12429.05
454.76644	12570.15
458.87653	12682.55
462.98368	12681.05
467.08789	12696.05
471.18916	12667.05
475.2875	12607.15
479.38291	12495.65
483.4754	12444.45
487.56496	12386.15
491.6516	12365.55
495.73531	12339.05
499.81612	12357.35
503.89401	12460.75
507.96899	12496.95
512.04106	12579.55
516.11023	12652.85
520.1765	12746.25
524.23987	12731.15
528.30034	12713.85
532.35792	12689.75
536.41261	12666.95
540.46441	12574.05
544.51333	12517.85
548.55936	12491.65
552.60252	12497.25
556.64279	12519.35
560.6802	12512.05
564.71473	12494.15
568.7464	12519.35
572.7752	12580.75
576.80114	12519.85
580.82422	12463.65
584.84444	12463.35
588.86181	12525.05
592.87633	12529.35
596.888	12578.65
600.89682	12836.35
604.9028	13530.35
608.90594	15231.35
612.90624	17278.55
616.90371	16785.25
620.89834	14089.85
624.89015	12768.85
628.87913	12569.35
632.86528	12779.35
636.84862	13026.25
640.82913	13043.15
644.80683	12693.55
648.78172	12345.85
652.75379	12180.35
656.72306	12310.25
660.68952	12514.35
664.65319	12500.45
668.61405	12321.75
672.57211	12316.15
676.52738	12375.25
680.47986	12382.95
684.42955	12262.55
688.37646	12118.05
692.32058	12050.75
696.26192	12034.85
700.20048	12110.25
704.13626	12130.25
708.06928	12097.55
711.99952	12048.95
715.927	12049.15
719.85171	12031.35
723.77365	12066.55
727.69284	12059.05
731.60928	12061.95
735.52295	12055.65
739.43388	12051.25
743.34206	12092.45
747.24749	12079.25
751.15017	11994.35
755.05012	11963.95
758.94733	12098.25
762.8418	12589.25
766.73354	13595.35
770.62254	14826.25
774.50882	15737.55
778.39237	15458.75
782.27321	14180.25
786.15132	12953.55
790.02671	12218.25
793.89938	11824.35
797.76935	11676.05
801.6366	11628.55
805.50115	11604.35
809.36299	11573.85
813.22213	11556.25
817.07857	11521.25
820.93231	11460.55
824.78336	11403.15
828.63172	11365.95
832.47738	11363.95
836.32036	11315.35
840.16066	11268.75
843.99827	11233.55
847.8332	11224.05
851.66546	11206.25
855.49504	11218.85
859.32195	11261.45
863.1462	11284.35
866.96777	11294.35
870.78668	11314.35
874.60293	11337.25
878.41652	11325.35
882.22745	11378.85
886.03573	11402.85
889.84136	11430.95
893.64433	11409.95
897.44466	11345.95
901.24235	11208.45
905.0374	11110.95
908.8298	11047.75
912.61957	10976.35
916.40671	10998.15
920.19121	11028.75
923.97308	11044.85
927.75233	11068.25
931.52895	11112.45
935.30295	11073.05
939.07433	10926.85
942.84309	10799.25
946.60924	10728.85
950.37278	10731.75
954.13371	10669.25
957.89203	10628.25
961.64774	10597.35
965.40086	10533.85
969.15137	10451.35
972.89929	10405.65
976.64461	10382.15
980.38733	10359.65
984.12747	10328.85
987.86502	10354.85
991.59999	10380.15
995.33237	10423.55
999.06217	10502.05
1002.78939	10625.55
1006.51404	10714.65
1010.23611	10846.45
1013.95561	10946.15
1017.67255	10996.35
1021.38692	10961.45
1025.09872	10864.55
1028.80796	10725.35
1032.51465	10704.15
1036.21877	10709.65
1039.92035	10766.65
1043.61937	10797.85
1047.31584	10830.65
1051.00976	10868.25
1054.70114	10868.95
1058.38998	10862.55
1062.07627	10904.15
1065.76003	10992.45
1069.44126	11082.05
1073.11995	11200.05
1076.79611	11328.05
1080.46974	11335.15
1084.14085	11270.75
1087.80943	11276.05
1091.47549	11312.05
1095.13903	11293.95
1098.80005	11219.25
1102.45857	11069.65
1106.11456	10992.95
1109.76805	10988.15
1113.41903	11060.55
1117.06751	11205.45
1120.71348	11443.55
1124.35696	11648.35
1127.99793	11967.75
1131.63641	12226.15
1135.2724	12173.05
1138.90589	11963.75
1142.5369	11733.85
1146.16542	11464.25
1149.79145	11217.55
1153.415	11047.25
1157.03607	10977.95
1160.65467	11050.75
1164.27079	11237.55
1167.88443	11566.35
1171.49561	12014.55
1175.10432	12700.55
1178.71056	13618.25
1182.31434	14460.05
1185.91565	14783.75
1189.51451	14741.75
1193.11091	14327.05
1196.70485	13714.75
1200.29634	13185.25
1203.88538	12766.85
1207.47197	12286.35
1211.05612	11842.15
1214.63782	11489.15
1218.21708	11308.15
1221.79391	11239.85
1225.36829	11180.85
1228.94024	11198.25
1232.50976	11201.45
1236.07685	11242.25
1239.6415	11245.25
1243.20374	11282.65
1246.76355	11324.45
1250.32093	11397.35
1253.8759	11523.95
1257.42845	11708.05
1260.97859	11932.35
1264.52631	12140.85
1268.07163	12396.05
1271.61453	12649.15
1275.15503	12833.25
1278.69312	13019.15
1282.22882	13137.05
1285.76211	13296.65
1289.29301	13565.75
1292.82151	13934.25
1296.34761	14287.45
1299.87133	14773.55
1303.39266	15330.25
1306.9116	16081.35
1310.42815	16835.85
1313.94233	17198.05
1317.45412	17030.85
1320.96354	16347.65
1324.47058	15680.45
1327.97525	15025.95
1331.47754	14527.55
1334.97747	14226.05
1338.47502	14174.25
1341.97022	14353.15
1345.46305	14714.25
1348.95352	15400.95
1352.44163	16354.35
1355.92738	17537.35
1359.41078	18924.35
1362.89183	20247.15
1366.37053	20071.65
1369.84688	18016.65
1373.32088	15650.45
1376.79254	14046.35
1380.26186	13231.45
1383.72883	12775.35
1387.19347	12471.35
1390.65578	12119.25
1394.11575	11857.45
1397.57339	11644.85
1401.0287	11522.85
1404.48168	11480.45
1407.93234	11399.95
1411.38068	11359.35
1414.82669	11263.55
1418.27039	11192.45
1421.71177	11106.75
1425.15083	10979.65
1428.58758	10901.15
1432.02203	10881.45
1435.45416	10913.35
1438.88399	11012.65
1442.31151	11073.85
1445.73673	11145.65
1449.15965	11247.85
1452.58027	11364.65
1455.9986	11422.15
1459.41463	11566.65
1462.82837	11704.45
1466.23982	11818.15
1469.64898	11959.45
1473.05586	12027.35
1476.46045	12066.55
1479.86276	12127.45
1483.26279	12175.95
1486.66054	12318.55
1490.05602	12436.25
1493.44922	12741.25
1496.84016	13265.75
1500.22882	14125.55
1503.61521	15310.25
1506.99934	16631.55
1510.38121	17821.65
1513.76081	18246.85
1517.13816	17517.25
1520.51324	16090.85
1523.88607	14612.55
1527.25665	13624.75
1530.62498	13036.15
1533.99105	12678.85
1537.35488	12431.15
1540.71647	12274.65
1544.07581	12130.15
1547.4329	12058.95
1550.78776	12034.65
1554.14038	12058.15
1557.49077	12173.45
1560.83892	12347.75
1564.18484	12538.55
1567.52853	12722.45
1570.86999	12914.35
1574.20922	13064.15
1577.54624	13107.05
1580.88103	12854.55
1584.2136	12324.75
1587.54395	11925.15
1590.87208	11779.35
1594.19801	11887.35
1597.52172	12243.75
1600.84321	12453.25
1604.16251	12313.35
1607.47959	11976.85
1610.79447	11601.65
1614.10715	11231.85
1617.41763	10822.65
1620.7259	10467.15
1624.03199	10274.75
1627.33587	10209.45
1630.63757	10260.25
1633.93707	10437.95
1637.23439	10807.15
1640.52951	11375.65
1643.82246	12194.25
1647.11321	13185.45
1650.40179	13986.45
1653.68819	14035.65
1656.97241	13094.25
1660.25446	11845.95
1663.53433	10851.95
1666.81203	10191.55
1670.08756	9788.35
1673.36092	9502.25
1676.63211	9304.35
1679.90115	9190.05
1683.16801	9073.85
1686.43272	8978.75
1689.69527	8921.05
1692.95567	8857.65
1696.2139	8834.25
1699.46999	8812.05
1702.72392	8744.75
1705.97571	8697.55
1709.22535	8639.25
1712.47284	8589.55
1715.71819	8541.65
1718.96139	8504.65
1722.20246	8464.85
1725.44139	8409.25
1728.67818	8338.05
1731.91284	8292.85
1735.14537	8241.35
1738.37576	8243.65
1741.60403	8196.65
1744.83017	8153.35
1748.05418	8136.55
1751.27607	8126.85
1754.49584	8124.65
1757.71349	8104.95
1760.92903	8099.25
1764.14244	8067.65
1767.35375	8090.85
1770.56294	8067.35
1773.77002	8059.75
1776.97499	7995.85
1780.17785	7986.55
1783.37861	7969.25
1786.57727	7927.25
1789.77382	7909.35
1792.96828	7883.55
1796.16064	7879.65
1799.3509	7835.85
1802.53907	7834.45
1805.72514	7809.95
1808.90913	7812.25
1812.09102	7771.45
1815.27083	7745.75
1818.44856	7718.85
1821.6242	7715.85
1824.79776	7714.35
1827.96924	7701.95
1831.13864	7685.85
1834.30597	7678.25
1837.47122	7678.15
1840.6344	7644.65
1843.7955	7653.65
1846.95454	7642.25
1850.11151	7615.55
1853.26642	7607.55
1856.41926	7621.75
1859.57004	7611.05
1862.71876	7592.75
1865.86542	7588.95
1869.01003	7570.95
1872.15258	7561.45
1875.29308	7567.95
1878.43152	7546.85
1881.56792	7553.75
1884.70227	7536.85
1887.83457	7500.25
1890.96482	7495.05
1894.09304	7507.75
1897.21921	7483.85
1900.34335	7478.85
1903.46544	7475.85
1906.58551	7454.05
1909.70353	7443.95
1912.81953	7434.45
1915.93349	7424.45
1919.04543	7396.25
1922.15534	7389.45
1925.26322	7381.75
1928.36908	7354.35
1931.47292	7310.95
1934.57473	7319.05
1937.67453	7305.05
1940.77232	7265.45
1943.86808	7245.65
1946.96184	7255.95
1950.05358	7221.75
1953.14331	7236.45
1956.23103	7178.25
1959.31675	7185.15
1962.40046	7139.85
1965.48217	7129.45
1968.56188	7124.65
1971.63959	7097.95
1974.7153	7046.25
1977.78901	7034.45
1980.86073	7008.15
1983.93046	6990.05
1986.99819	6976.55
1990.06394	6947.35
1993.1277	6929.05
1996.18947	6902.05
1999.24925	6899.45
2002.30706	6843.45
2005.36288	6830.25
2008.41672	6822.45
2011.46859	6779.75
2014.51848	6786.35
2017.56639	6747.35
2020.61233	6729.05
2023.6563	6709.45
2026.6983	6700.05
2029.73833	6684.15
2032.7764	6670.55
2035.8125	6626.95
2038.84664	6625.15
2041.87881	6638.85
2044.90903	6611.45
2047.93729	6591.75
2050.96359	6593.55
2053.98794	6576.05
2057.01034	6566.75
2060.03078	6562.35
2063.04927	6546.05
2066.06582	6550.85
2069.08042	6536.25
2072.09307	6540.25
2075.10378	6528.15
2078.11255	6522.45
2081.11938	6526.85
2084.12426	6495.65
2087.12722	6504.65
2090.12824	6500.05
2093.12732	6509.45
2096.12447	6527.15
2099.11969	6507.35
2102.11299	6513.75
2105.10435	6512.35
2108.09379	6502.55
2111.08131	6518.45
2114.0669	6509.85
2117.05057	6526.15
2120.03233	6534.35
2123.01216	6526.05
2125.99008	6551.15
2128.96609	6558.95
2131.94018	6573.95
2134.91236	6558.45
2137.88263	6568.65
2140.851	6556.75
2143.81746	6563.35
2146.78201	6552.95
2149.74466	6578.25
2152.7054	6537.45
2155.66425	6561.15
2158.6212	6549.35
2161.57625	6546.15
2164.52941	6542.65
2167.48067	6554.25
2170.43004	6534.45
2173.37752	6527.95
2176.32311	6531.35
2179.26681	6507.85
2182.20863	6507.55
2185.14856	6506.35
2188.08661	6500.75
2191.02278	6501.85
2193.95707	6496.75
2196.88948	6495.35
2199.82001	6488.95
2202.74867	6484.95
2205.67545	6476.45
2208.60037	6451.95
2211.52341	6433.85
2214.44458	6438.55
2217.36388	6422.95
2220.28132	6427.55
2223.1969	6390.15
2226.11061	6394.65
2229.02246	6379.25
2231.93245	6363.45
2234.84058	6348.25
2237.74686	6327.95
2240.65128	6341.85
2243.55385	6324.75
2246.45456	6316.15
2249.35343	6323.85
2252.25044	6291.25
2255.14561	6275.45
2258.03893	6289.25
2260.93041	6272.25
2263.82004	6258.15
2266.70783	6241.95
2269.59378	6226.05
2272.4779	6219.45
2275.36017	6209.75
2278.24061	6207.75
2281.11922	6179.05
2283.996	6158.65
2286.87094	6161.45
2289.74405	6150.15
2292.61534	6129.05
2295.4848	6133.15
2298.35243	6124.45
2301.21824	6100.35
2304.08223	6107.65
2306.94439	6080.65
2309.80474	6096.15
2312.66327	6081.45
2315.51999	6087.35
2318.37489	6080.85
2321.22797	6069.25
2324.07925	6063.65
2326.92871	6051.55
2329.77637	6039.25
2332.62222	6024.55
2335.46626	6013.75
2338.3085	6009.85
2341.14893	6004.75
2343.98756	6015.05
2346.8244	5978.15
2349.65943	5989.15
2352.49267	5970.35
2355.32411	5980.55
2358.15376	5986.45
2360.98161	5981.75
2363.80768	5990.85
2366.63195	5965.95
2369.45444	5971.85
2372.27514	5964.15
2375.09405	5949.65
2377.91118	5941.45
2380.72652	5944.75
2383.54009	5915.05
2386.35187	5886.25
2389.16188	5878.05
2391.97011	5851.45
2394.77657	5840.75
2397.58125	5848.75
2400.38416	5839.35
2403.18529	5820.95
2405.98466	5814.25
2408.78226	5818.55
2411.57809	5798.95
2414.37216	5777.95
2417.16446	5792.15
2419.955	5770.25
2422.74378	5779.55
2425.5308	5768.85
2428.31606	5766.95
2431.09956	5755.45
2433.88131	5743.45
2436.6613	5745.25
2439.43954	5734.25
2442.21603	5727.55
2444.99077	5744.15
2447.76377	5732.65
2450.53501	5723.45
2453.30451	5723.95
2456.07226	5720.45
2458.83827	5702.15
2461.60254	5687.15
2464.36507	5704.05
2467.12586	5693.05
2469.88492	5689.95
2472.64224	5683.45
2475.39782	5690.35
2478.15167	5677.15
2480.90379	5652.45
2483.65417	5691.95
2486.40283	5665.75
2489.14976	5659.15
2491.89497	5674.45
2494.63845	5675.75
2497.3802	5672.65
2500.12024	5654.15
2502.85855	5646.75
2505.59514	5642.05
2508.33002	5625.95
2511.06318	5610.95
2513.79462	5621.05
2516.52435	5602.55
2519.25237	5567.25
2521.97867	5570.25
2524.70327	5565.75
2527.42616	5546.15
2530.14734	5541.55
2532.86681	5541.95
2535.58458	5519.35
2538.30065	5511.35
2541.01501	5506.05
2543.72768	5506.95
2546.43864	5503.25
2549.14791	5484.15
2551.85548	5476.55
2554.56136	5474.35
2557.26554	5463.85
2559.96803	5462.55
2562.66883	5445.05
2565.36794	5443.95
2568.06536	5439.65
2570.7611	5443.15
2573.45514	5419.55
2576.14751	5417.95
2578.83819	5413.25
2581.52719	5402.25
2584.21451	5390.15
2586.90015	5385.35
2589.58411	5364.65
2592.2664	5361.95
2594.94701	5340.75
2597.62594	5336.05
2600.30321	5328.85
2602.9788	5321.85
2605.65273	5312.65
2608.32498	5297.95
2610.99557	5294.45
2613.66449	5292.25
2616.33175	5282.75
2618.99734	5268.75
2621.66128	5261.95
2624.32355	5270.95
2626.98416	5244.55
2629.64311	5251.25
2632.30041	5250.75
2634.95605	5251.05
2637.61004	5233.85
2640.26238	5216.85
2642.91306	5233.05
2645.56209	5217.85
2648.20948	5220.95
2650.85521	5221.75
2653.4993	5196.05
2656.14175	5213.75
2658.78255	5213.05
2661.42171	5214.05
2664.05923	5203.15
2666.6951	5211.35
2669.32934	5196.35
2671.96194	5186.85
2674.59291	5197.25
2677.22224	5190.75
2679.84993	5198.15
2682.476	5186.95
2685.10043	5186.55
2687.72324	5184.75
2690.34441	5187.25
2692.96396	5183.35
2695.58188	5189.35
2698.19818	5171.75
2700.81285	5169.95
2703.4259	5178.75
2706.03733	5230.55
2708.64714	5214.95
2711.25533	5211.45
2713.86191	5189.55
2716.46687	5204.35
2719.07021	5194.25
2721.67194	5183.25
2724.27206	5182.75
2726.87057	5189.75
2729.46747	5161.65
2732.06276	5175.45
2734.65644	5152.55
2737.24852	5162.65
2739.83899	5136.95
2742.42786	5154.55
2745.01513	5139.95
2747.60079	5135.85
2750.18486	5127.75
2752.76733	5139.65
2755.3482	5112.95
2757.92747	5130.05
2760.50515	5119.65
2763.08123	5117.75
2765.65573	5103.85
2768.22863	5107.35
2770.79994	5086.75
2773.36967	5092.25
2775.9378	5084.05
2778.50435	5073.55
2781.06932	5054.05
2783.6327	5058.75
2786.1945	5044.65
2788.75471	5033.25
2791.31335	5018.45
2793.87041	5028.25
2796.42589	4998.75
2798.97979	5001.15
2801.53212	4985.05
2804.08288	4998.65
2806.63206	4964.95
2809.17967	4958.95
2811.72571	4947.85
2814.27018	4959.25
2816.81308	4947.75
2819.35442	4945.15
2821.89419	4936.65
2824.43239	4928.95
2826.96904	4923.15
2829.50412	4941.25
2832.03763	4918.65
2834.56959	4916.55
2837.1	4915.25
2839.62884	4911.25
2842.15613	4906.55
2844.68186	4917.45
2847.20604	4912.65
2849.72867	4917.85
2852.24974	4936.75
2854.76927	4904.65
2857.28724	4904.85
2859.80367	4897.45
2862.31855	4898.05
2864.83189	4887.65
2867.34368	4870.15
2869.85393	4883.85
2872.36264	4896.95
2874.8698	4911.45
2877.37543	4903.65
2879.87952	4895.45
2882.38207	4884.75
2884.88308	4899.55
2887.38256	4882.05
2889.88051	4879.85
2892.37692	4877.05
2894.8718	4866.75
2897.36515	4879.35
2899.85698	4872.65
2902.34727	4896.05
2904.83604	4865.95
2907.32328	4885.35
2909.809	4884.55
2912.29319	4891.15
2914.77587	4896.65
2917.25702	4899.25
2919.73665	4885.05
2922.21476	4889.25
2924.69136	4881.25
2927.16644	4881.35
2929.64	4865.75
2932.11205	4866.15
2934.58258	4849.45
2937.05161	4848.05
2939.51912	4856.55
2941.98513	4849.65
2944.44962	4832.75
2946.91261	4809.35
2949.37409	4815.35
2951.83407	4836.35
2954.29254	4808.35
2956.74951	4823.15
2959.20498	4801.45
2961.65895	4796.45
2964.11142	4797.35
2966.56239	4781.85
2969.01186	4783.55
2971.45984	4781.75
2973.90632	4766.65
2976.35131	4759.15
2978.7948	4750.35
2981.23681	4724.05
2983.67732	4735.55
2986.11635	4723.65
2988.55388	4710.95
2990.98993	4710.15
2993.4245	4721.95
2995.85758	4698.05
2998.28917	4693.15
3000.71928	4688.15
3003.14791	4675.45
3005.57506	4670.95
3008.00073	4656.25
3010.42493	4663.15
3012.84764	4669.75
3015.26888	4689.75
3017.68865	4653.25
3020.10694	4659.55
3022.52376	4632.25
3024.9391	4628.35
3027.35298	4627.25
3029.76539	4624.15
3032.17632	4605.95
3034.5858	4615.05
3036.9938	4599.05
3039.40034	4604.45
3041.80542	4591.55
3044.20903	4599.55
3046.61118	4597.95
3049.01187	4577.05
3051.4111	4568.75
3053.80888	4570.85
3056.20519	4568.15
3058.60005	4557.85
3060.99345	4559.75
3063.3854	4548.95
3065.7759	4554.15
3068.16494	4536.95
3070.55254	4531.25
3072.93868	4534.35
3075.32338	4529.25
3077.70662	4529.45
3080.08842	4516.15
3082.46878	4524.75
3084.84769	4519.55
3087.22515	4511.15
3089.60118	4524.25
3091.97576	4538.75
3094.3489	4526.75
3096.72061	4538.05
3099.09087	4537.95
3101.4597	4545.65
3103.82709	4546.05
3106.19305	4541.45
3108.55757	4531.45
3110.92066	4525.15
3113.28232	4521.35
3115.64255	4512.05
3118.00134	4515.75
3120.35871	4508.85
3122.71466	4502.05
3125.06917	4505.85
3127.42226	4500.15
3129.77393	4503.15
3132.12417	4518.55
3134.47299	4515.85
3136.82039	4522.15
3139.16636	4515.45
3141.51092	4516.45
3143.85406	4534.85
3146.19579	4557.75
3148.53609	4546.35
3150.87499	4553.65
3153.21246	4553.75
3155.54853	4575.35
3157.88318	4570.75
3160.21642	4579.15
3162.54826	4568.35
3164.87868	4592.45
3167.2077	4602.55
3169.5353	4597.25
3171.86151	4590.55
3174.18631	4573.15
3176.5097	4592.35
3178.83169	4600.75
3181.15228	4596.95
3183.47147	4579.85
3185.78926	4606.55
3188.10565	4597.85
3190.42065	4599.75
3192.73424	4591.55
3195.04645	4600.65
3197.35725	4605.65
3199.66667	4590.35
3201.97469	4616.95
3204.28132	4607.65
3206.58656	4631.85
3208.8904	4626.65
3211.19287	4641.65
3213.49394	4632.25
3215.79363	4646.95
3218.09193	4655.45
3220.38884	4638.35
3222.68438	4650.35
3224.97853	4635.45
3227.2713	4644.25
3229.56269	4628.25
3231.8527	4641.95
3234.14133	4636.55
3236.42858	4604.05
3238.71446	4620.45
3240.99896	4607.75
3243.28209	4620.85
3245.56384	4614.15
3247.84423	4604.05
3250.12324	4611.75
3252.40088	4611.15
3254.67715	4611.55
3256.95205	4602.95
3259.22558	4598.45
3261.49775	4592.15
3263.76855	4582.65
3266.03799	4584.85
3268.30606	4571.75
3270.57277	4578.75
3272.83812	4563.65
3275.10211	4566.75
3277.36474	4541.85
3279.62601	4566.85
3281.88593	4532.55
3284.14448	4571.85
3286.40168	4551.45
3288.65753	4544.75
3290.91202	4529.35
3293.16516	4521.45
3295.41695	4495.95
3297.66738	4483.05
3299.91647	4467.95
3302.16421	4443.25
3304.4106	4430.25
3306.65564	4405.35
3308.89933	4391.35
3311.14169	4377.05
3313.38269	4339.75
3315.62236	4332.55
3317.86068	4285.05
3320.09766	4253.85
3322.3333	4207.05
3324.5676	4207.55
3326.80056	4146.25
3329.03219	4119.05
3331.26248	0.75
3333.49143	1.45
3335.71905	0.05
