Data from AgNPs_FTO_APTES_UA_200uM_R6G_10uM_NaF_0.1M_Addition_RamanShift__11__16-13-07-504.txt Node

Date: Fri Dec 17 16:13:07 GMT 2021
User: TCL
Spectrometer: QEP01345
Trigger mode: 4
Integration Time (sec): 7.000000E0
Scans to average: 10
Electric dark correction enabled: true
Nonlinearity correction enabled: false
Boxcar width: 0
XAxis mode: Raman Shifts
Number of Pixels in Spectrum: 1044
>>>>>Begin Spectral Data<<<<<
46.04893	0.475
50.45542	-0.725
54.85868	-1.725
59.25871	1.575
63.6555	51.675
68.04907	53.575
72.43941	54.475
76.82654	61.975
81.21044	62.975
85.59113	63.275
89.96862	70.675
94.34289	72.075
98.71396	73.075
103.08183	74.575
107.4465	80.075
111.80798	78.875
116.16626	79.775
120.52136	80.175
124.87327	83.075
129.222	81.775
133.56755	87.175
137.90993	94.475
142.24913	101.775
146.58517	107.975
150.91804	123.675
155.24774	141.275
159.57429	174.575
163.89768	219.975
168.21792	280.075
172.53501	374.975
176.84895	512.375
181.15975	721.375
185.46741	1012.975
189.77193	1396.175
194.07331	1864.775
198.37157	2414.775
202.6667	2999.475
206.9587	3566.275
211.24758	4135.775
215.53334	4684.875
219.81599	5251.975
224.09553	5897.675
228.37195	6622.575
232.64527	7408.775
236.91549	8291.675
241.18261	9129.975
245.44663	9981.275
249.70755	10721.675
253.96539	11361.275
258.22014	11873.075
262.4718	12269.275
266.72039	12517.875
270.96589	12641.275
275.20832	12603.775
279.44768	12451.875
283.68397	12231.375
287.91719	12006.975
292.14735	11836.775
296.37445	11763.075
300.59849	11772.175
304.81948	11782.375
309.03742	11794.375
313.25231	11678.075
317.46415	11494.975
321.67296	11242.875
325.87872	11075.775
330.08145	11006.775
334.28114	11029.075
338.47781	11149.175
342.67145	11299.475
346.86207	11460.875
351.04966	11696.575
355.23424	11937.075
359.4158	12170.175
363.59435	12364.675
367.76989	12513.375
371.94243	12638.575
376.11196	12725.775
380.27849	12839.575
384.44203	12925.975
388.60257	12962.975
392.76012	13046.675
396.91468	13164.975
401.06626	13341.475
405.21485	13448.775
409.36047	13388.975
413.50311	13229.675
417.64277	13057.575
421.77947	12893.175
425.9132	12849.375
430.04396	12788.575
434.17176	12845.775
438.2966	12894.875
442.41849	12971.775
446.53742	13100.275
450.6534	13238.175
454.76644	13333.375
458.87653	13426.475
462.98368	13434.075
467.08789	13441.575
471.18916	13409.675
475.2875	13360.675
479.38291	13323.175
483.4754	13244.975
487.56496	13230.575
491.6516	13224.775
495.73531	13190.275
499.81612	13222.575
503.89401	13267.975
507.96899	13305.275
512.04106	13362.875
516.11023	13438.775
520.1765	13480.975
524.23987	13434.575
528.30034	13380.175
532.35792	13276.375
536.41261	13232.375
540.46441	13152.775
544.51333	13100.875
548.55936	13138.375
552.60252	13216.075
556.64279	13325.775
560.6802	13381.675
564.71473	13412.375
568.7464	13440.775
572.7752	13502.975
576.80114	13402.075
580.82422	13434.275
584.84444	13458.575
588.86181	13543.375
592.87633	13530.875
596.888	13528.875
600.89682	13698.975
604.9028	14190.975
608.90594	15424.475
612.90624	16998.375
616.90371	16681.475
620.89834	14677.575
624.89015	13681.975
628.87913	13515.675
632.86528	13566.675
636.84862	13715.675
640.82913	13726.475
644.80683	13554.575
648.78172	13343.075
652.75379	13323.075
656.72306	13437.775
660.68952	13600.175
664.65319	13631.075
668.61405	13474.375
672.57211	13428.575
676.52738	13434.975
680.47986	13385.575
684.42955	13366.975
688.37646	13283.275
692.32058	13306.675
696.26192	13344.575
700.20048	13378.275
704.13626	13449.075
708.06928	13395.575
711.99952	13381.875
715.927	13330.975
719.85171	13293.975
723.77365	13281.175
727.69284	13251.875
731.60928	13216.275
735.52295	13189.275
739.43388	13198.475
743.34206	13234.475
747.24749	13250.875
751.15017	13298.975
755.05012	13325.275
758.94733	13470.275
762.8418	13826.975
766.73354	14506.975
770.62254	15299.175
774.50882	15816.975
778.39237	15584.775
782.27321	14720.775
786.15132	13970.375
790.02671	13463.375
793.89938	13258.375
797.76935	13173.475
801.6366	13123.175
805.50115	13100.575
809.36299	13081.875
813.22213	13049.375
817.07857	13044.575
820.93231	13012.175
824.78336	13022.475
828.63172	12998.475
832.47738	12928.075
836.32036	12932.575
840.16066	12903.375
843.99827	12899.775
847.8332	12891.075
851.66546	12879.575
855.49504	12901.375
859.32195	12888.675
863.1462	12892.075
866.96777	12890.075
870.78668	12890.575
874.60293	12882.575
878.41652	12871.375
882.22745	12889.175
886.03573	12947.275
889.84136	12962.475
893.64433	12962.875
897.44466	12931.775
901.24235	12878.775
905.0374	12869.775
908.8298	12804.475
912.61957	12780.975
916.40671	12796.375
920.19121	12793.375
923.97308	12799.775
927.75233	12812.775
931.52895	12828.875
935.30295	12806.375
939.07433	12691.875
942.84309	12565.675
946.60924	12510.075
950.37278	12466.375
954.13371	12437.575
957.89203	12375.875
961.64774	12375.175
965.40086	12337.975
969.15137	12343.175
972.89929	12305.075
976.64461	12287.175
980.38733	12291.575
984.12747	12271.675
987.86502	12311.075
991.59999	12297.975
995.33237	12318.675
999.06217	12389.175
1002.78939	12402.975
1006.51404	12470.975
1010.23611	12570.975
1013.95561	12623.675
1017.67255	12642.975
1021.38692	12614.775
1025.09872	12571.775
1028.80796	12520.475
1032.51465	12472.975
1036.21877	12462.075
1039.92035	12466.975
1043.61937	12493.575
1047.31584	12544.475
1051.00976	12548.875
1054.70114	12569.575
1058.38998	12588.875
1062.07627	12598.575
1065.76003	12686.075
1069.44126	12751.675
1073.11995	12852.075
1076.79611	12947.175
1080.46974	13005.675
1084.14085	12999.075
1087.80943	13026.975
1091.47549	13051.775
1095.13903	13049.575
1098.80005	13022.975
1102.45857	12898.675
1106.11456	12804.875
1109.76805	12779.775
1113.41903	12798.575
1117.06751	12875.575
1120.71348	13000.075
1124.35696	13116.875
1127.99793	13248.975
1131.63641	13332.475
1135.2724	13214.075
1138.90589	13063.375
1142.5369	12903.775
1146.16542	12794.175
1149.79145	12659.575
1153.415	12619.675
1157.03607	12577.775
1160.65467	12613.575
1164.27079	12726.375
1167.88443	12922.375
1171.49561	13224.175
1175.10432	13748.775
1178.71056	14411.575
1182.31434	15037.075
1185.91565	15310.675
1189.51451	15252.875
1193.11091	14959.075
1196.70485	14581.075
1200.29634	14258.775
1203.88538	13961.375
1207.47197	13623.475
1211.05612	13295.175
1214.63782	13090.275
1218.21708	12962.575
1221.79391	12851.575
1225.36829	12801.375
1228.94024	12758.375
1232.50976	12795.075
1236.07685	12827.675
1239.6415	12847.275
1243.20374	12872.675
1246.76355	12925.775
1250.32093	12957.775
1253.8759	13001.275
1257.42845	13163.875
1260.97859	13299.275
1264.52631	13402.575
1268.07163	13575.575
1271.61453	13657.975
1275.15503	13759.075
1278.69312	13808.975
1282.22882	13815.575
1285.76211	13861.775
1289.29301	13942.475
1292.82151	14126.875
1296.34761	14308.675
1299.87133	14586.775
1303.39266	15000.275
1306.9116	15581.275
1310.42815	16249.775
1313.94233	16620.575
1317.45412	16470.975
1320.96354	16080.175
1324.47058	15639.675
1327.97525	15221.975
1331.47754	14851.275
1334.97747	14646.175
1338.47502	14611.375
1341.97022	14780.875
1345.46305	15073.475
1348.95352	15513.875
1352.44163	16065.475
1355.92738	16715.275
1359.41078	17647.675
1362.89183	18671.275
1366.37053	18668.775
1369.84688	17309.375
1373.32088	15702.175
1376.79254	14553.575
1380.26186	13911.775
1383.72883	13532.775
1387.19347	13218.375
1390.65578	12975.175
1394.11575	12748.975
1397.57339	12543.275
1401.0287	12385.675
1404.48168	12297.075
1407.93234	12284.375
1411.38068	12209.975
1414.82669	12234.675
1418.27039	12234.875
1421.71177	12167.275
1425.15083	12080.475
1428.58758	11999.675
1432.02203	11932.075
1435.45416	11914.275
1438.88399	11923.175
1442.31151	11913.175
1445.73673	11904.375
1449.15965	11938.875
1452.58027	11939.075
1455.9986	11933.375
1459.41463	11984.175
1462.82837	12050.575
1466.23982	12171.175
1469.64898	12307.375
1473.05586	12446.675
1476.46045	12545.775
1479.86276	12636.375
1483.26279	12762.775
1486.66054	12919.475
1490.05602	13080.575
1493.44922	13365.675
1496.84016	13878.675
1500.22882	14682.575
1503.61521	15726.075
1506.99934	16875.975
1510.38121	17717.375
1513.76081	17801.375
1517.13816	17165.875
1520.51324	16003.375
1523.88607	14829.175
1527.25665	14075.375
1530.62498	13584.575
1533.99105	13297.375
1537.35488	13141.175
1540.71647	13030.875
1544.07581	12973.075
1547.4329	12928.875
1550.78776	12910.575
1554.14038	12924.275
1557.49077	12999.775
1560.83892	13059.575
1564.18484	13185.575
1567.52853	13359.475
1570.86999	13556.175
1574.20922	13685.375
1577.54624	13705.875
1580.88103	13444.875
1584.2136	13070.675
1587.54395	12751.675
1590.87208	12610.275
1594.19801	12673.175
1597.52172	12927.875
1600.84321	13060.875
1604.16251	13011.375
1607.47959	12813.975
1610.79447	12556.275
1614.10715	12268.175
1617.41763	11961.775
1620.7259	11732.075
1624.03199	11552.975
1627.33587	11472.675
1630.63757	11463.475
1633.93707	11544.675
1637.23439	11746.575
1640.52951	12084.075
1643.82246	12663.875
1647.11321	13396.375
1650.40179	14033.275
1653.68819	14104.175
1656.97241	13501.975
1660.25446	12609.175
1663.53433	11883.475
1666.81203	11433.075
1670.08756	11128.675
1673.36092	10903.575
1676.63211	10771.175
1679.90115	10675.075
1683.16801	10578.275
1686.43272	10511.675
1689.69527	10449.175
1692.95567	10400.775
1696.2139	10381.175
1699.46999	10359.375
1702.72392	10299.675
1705.97571	10258.975
1709.22535	10204.275
1712.47284	10167.975
1715.71819	10153.275
1718.96139	10117.375
1722.20246	10077.375
1725.44139	10044.975
1728.67818	9968.575
1731.91284	9948.575
1735.14537	9890.575
1738.37576	9845.275
1741.60403	9809.275
1744.83017	9756.975
1748.05418	9758.075
1751.27607	9716.175
1754.49584	9726.075
1757.71349	9700.175
1760.92903	9667.675
1764.14244	9660.575
1767.35375	9672.475
1770.56294	9630.975
1773.77002	9619.075
1776.97499	9613.675
1780.17785	9568.375
1783.37861	9554.075
1786.57727	9502.375
1789.77382	9498.875
1792.96828	9475.575
1796.16064	9442.575
1799.3509	9410.375
1802.53907	9402.175
1805.72514	9340.875
1808.90913	9343.975
1812.09102	9337.175
1815.27083	9304.075
1818.44856	9263.875
1821.6242	9236.475
1824.79776	9225.775
1827.96924	9221.975
1831.13864	9201.675
1834.30597	9185.075
1837.47122	9180.875
1840.6344	9155.375
1843.7955	9147.975
1846.95454	9136.975
1850.11151	9127.775
1853.26642	9114.575
1856.41926	9123.675
1859.57004	9093.175
1862.71876	9071.275
1865.86542	9048.375
1869.01003	9052.975
1872.15258	9015.575
1875.29308	8998.275
1878.43152	9000.775
1881.56792	8981.275
1884.70227	8962.375
1887.83457	8967.775
1890.96482	8916.175
1894.09304	8909.575
1897.21921	8880.575
1900.34335	8890.075
1903.46544	8871.275
1906.58551	8862.575
1909.70353	8850.475
1912.81953	8834.875
1915.93349	8812.275
1919.04543	8798.275
1922.15534	8764.875
1925.26322	8762.975
1928.36908	8732.875
1931.47292	8715.175
1934.57473	8674.575
1937.67453	8660.075
1940.77232	8651.575
1943.86808	8618.475
1946.96184	8590.875
1950.05358	8581.975
1953.14331	8566.275
1956.23103	8524.475
1959.31675	8494.675
1962.40046	8455.975
1965.48217	8435.075
1968.56188	8428.075
1971.63959	8380.875
1974.7153	8343.575
1977.78901	8327.175
1980.86073	8287.075
1983.93046	8251.175
1986.99819	8221.475
1990.06394	8199.075
1993.1277	8169.375
1996.18947	8146.675
1999.24925	8130.175
2002.30706	8101.075
2005.36288	8065.675
2008.41672	8042.675
2011.46859	8009.375
2014.51848	7991.475
2017.56639	7951.975
2020.61233	7937.275
2023.6563	7897.875
2026.6983	7875.275
2029.73833	7874.175
2032.7764	7846.275
2035.8125	7826.375
2038.84664	7792.675
2041.87881	7788.975
2044.90903	7768.075
2047.93729	7746.475
2050.96359	7731.275
2053.98794	7697.875
2057.01034	7692.975
2060.03078	7679.875
2063.04927	7665.975
2066.06582	7664.375
2069.08042	7653.775
2072.09307	7646.075
2075.10378	7612.875
2078.11255	7628.475
2081.11938	7623.075
2084.12426	7618.075
2087.12722	7612.475
2090.12824	7581.275
2093.12732	7596.475
2096.12447	7592.775
2099.11969	7600.775
2102.11299	7598.675
2105.10435	7572.575
2108.09379	7592.675
2111.08131	7588.075
2114.0669	7596.475
2117.05057	7587.675
2120.03233	7598.975
2123.01216	7598.075
2125.99008	7597.775
2128.96609	7613.075
2131.94018	7622.075
2134.91236	7608.975
2137.88263	7600.575
2140.851	7588.375
2143.81746	7595.475
2146.78201	7604.975
2149.74466	7602.675
2152.7054	7590.775
2155.66425	7574.575
2158.6212	7587.175
2161.57625	7564.275
2164.52941	7587.175
2167.48067	7564.275
2170.43004	7566.175
2173.37752	7547.875
2176.32311	7546.075
2179.26681	7539.675
2182.20863	7536.275
2185.14856	7519.875
2188.08661	7517.075
2191.02278	7505.675
2193.95707	7474.975
2196.88948	7499.775
2199.82001	7480.675
2202.74867	7458.675
2205.67545	7475.675
2208.60037	7436.875
2211.52341	7436.475
2214.44458	7418.675
2217.36388	7380.475
2220.28132	7361.475
2223.1969	7352.675
2226.11061	7321.675
2229.02246	7298.475
2231.93245	7292.075
2234.84058	7284.275
2237.74686	7276.075
2240.65128	7251.475
2243.55385	7249.775
2246.45456	7238.075
2249.35343	7238.475
2252.25044	7211.575
2255.14561	7191.475
2258.03893	7163.375
2260.93041	7168.575
2263.82004	7164.275
2266.70783	7130.575
2269.59378	7111.475
2272.4779	7100.175
2275.36017	7061.675
2278.24061	7075.775
2281.11922	7049.275
2283.996	7028.275
2286.87094	7014.375
2289.74405	6984.675
2292.61534	6967.675
2295.4848	6964.675
2298.35243	6974.375
2301.21824	6936.775
2304.08223	6960.875
2306.94439	6913.875
2309.80474	6929.275
2312.66327	6924.475
2315.51999	6905.575
2318.37489	6900.375
2321.22797	6883.975
2324.07925	6856.475
2326.92871	6852.975
2329.77637	6839.675
2332.62222	6808.375
2335.46626	6815.175
2338.3085	6772.775
2341.14893	6773.875
2343.98756	6761.675
2346.8244	6744.475
2349.65943	6721.675
2352.49267	6730.275
2355.32411	6718.675
2358.15376	6709.675
2360.98161	6702.475
2363.80768	6722.775
2366.63195	6701.175
2369.45444	6696.175
2372.27514	6699.275
2375.09405	6683.375
2377.91118	6667.175
2380.72652	6643.275
2383.54009	6636.675
2386.35187	6615.975
2389.16188	6589.375
2391.97011	6576.175
2394.77657	6548.475
2397.58125	6551.875
2400.38416	6510.575
2403.18529	6509.275
2405.98466	6505.975
2408.78226	6472.475
2411.57809	6466.275
2414.37216	6465.275
2417.16446	6440.075
2419.955	6434.575
2422.74378	6443.075
2425.5308	6426.075
2428.31606	6400.175
2431.09956	6409.575
2433.88131	6400.775
2436.6613	6405.075
2439.43954	6369.375
2442.21603	6373.975
2444.99077	6357.675
2447.76377	6344.775
2450.53501	6362.675
2453.30451	6344.375
2456.07226	6308.975
2458.83827	6317.875
2461.60254	6303.375
2464.36507	6303.575
2467.12586	6274.775
2469.88492	6278.275
2472.64224	6257.875
2475.39782	6256.075
2478.15167	6237.375
2480.90379	6261.775
2483.65417	6249.675
2486.40283	6226.375
2489.14976	6235.975
2491.89497	6215.275
2494.63845	6219.475
2497.3802	6211.775
2500.12024	6208.875
2502.85855	6196.375
2505.59514	6154.975
2508.33002	6152.175
2511.06318	6131.075
2513.79462	6122.875
2516.52435	6115.875
2519.25237	6109.675
2521.97867	6096.075
2524.70327	6069.775
2527.42616	6069.175
2530.14734	6043.175
2532.86681	6033.075
2535.58458	6031.475
2538.30065	6011.175
2541.01501	5995.075
2543.72768	5991.175
2546.43864	5971.175
2549.14791	5953.575
2551.85548	5945.675
2554.56136	5932.375
2557.26554	5931.975
2559.96803	5915.175
2562.66883	5893.375
2565.36794	5911.275
2568.06536	5897.075
2570.7611	5878.475
2573.45514	5861.175
2576.14751	5844.175
2578.83819	5823.075
2581.52719	5808.775
2584.21451	5787.775
2586.90015	5787.275
2589.58411	5771.675
2592.2664	5753.575
2594.94701	5742.275
2597.62594	5743.675
2600.30321	5727.775
2602.9788	5704.575
2605.65273	5686.175
2608.32498	5665.475
2610.99557	5656.575
2613.66449	5646.275
2616.33175	5638.375
2618.99734	5624.975
2621.66128	5616.375
2624.32355	5615.775
2626.98416	5601.175
2629.64311	5595.175
2632.30041	5580.675
2634.95605	5591.275
2637.61004	5559.775
2640.26238	5557.075
2642.91306	5555.175
2645.56209	5537.075
2648.20948	5537.075
2650.85521	5528.675
2653.4993	5506.775
2656.14175	5511.375
2658.78255	5515.975
2661.42171	5511.075
2664.05923	5503.975
2666.6951	5496.175
2669.32934	5476.375
2671.96194	5488.475
2674.59291	5490.975
2677.22224	5465.875
2679.84993	5484.575
2682.476	5481.975
2685.10043	5480.075
2687.72324	5464.075
2690.34441	5474.775
2692.96396	5462.575
2695.58188	5461.175
2698.19818	5442.075
2700.81285	5460.075
2703.4259	5448.475
2706.03733	5469.675
2708.64714	5442.275
2711.25533	5453.975
2713.86191	5435.375
2716.46687	5439.475
2719.07021	5433.275
2721.67194	5433.375
2724.27206	5408.275
2726.87057	5414.975
2729.46747	5397.875
2732.06276	5399.275
2734.65644	5403.275
2737.24852	5398.675
2739.83899	5372.775
2742.42786	5366.775
2745.01513	5346.575
2747.60079	5361.775
2750.18486	5334.475
2752.76733	5352.475
2755.3482	5329.175
2757.92747	5338.875
2760.50515	5318.475
2763.08123	5302.875
2765.65573	5289.175
2768.22863	5278.075
2770.79994	5272.475
2773.36967	5253.175
2775.9378	5243.175
2778.50435	5241.875
2781.06932	5228.175
2783.6327	5223.975
2786.1945	5222.275
2788.75471	5215.775
2791.31335	5168.575
2793.87041	5157.475
2796.42589	5157.175
2798.97979	5143.875
2801.53212	5124.575
2804.08288	5131.275
2806.63206	5106.975
2809.17967	5101.575
2811.72571	5080.175
2814.27018	5079.675
2816.81308	5067.475
2819.35442	5039.875
2821.89419	5048.675
2824.43239	5050.275
2826.96904	5045.075
2829.50412	5041.775
2832.03763	5028.875
2834.56959	5023.175
2837.1	4998.775
2839.62884	5002.075
2842.15613	5006.875
2844.68186	5000.575
2847.20604	5013.875
2849.72867	4999.775
2852.24974	5001.375
2854.76927	4996.475
2857.28724	4986.775
2859.80367	4975.075
2862.31855	4969.575
2864.83189	4968.275
2867.34368	4965.475
2869.85393	4963.975
2872.36264	4945.775
2874.8698	4937.175
2877.37543	4956.175
2879.87952	4935.475
2882.38207	4944.275
2884.88308	4927.675
2887.38256	4930.775
2889.88051	4931.975
2892.37692	4933.775
2894.8718	4910.875
2897.36515	4926.975
2899.85698	4906.675
2902.34727	4918.475
2904.83604	4898.775
2907.32328	4915.675
2909.809	4896.075
2912.29319	4912.275
2914.77587	4896.775
2917.25702	4900.875
2919.73665	4877.775
2922.21476	4900.775
2924.69136	4881.275
2927.16644	4884.275
2929.64	4866.475
2932.11205	4886.875
2934.58258	4858.175
2937.05161	4859.375
2939.51912	4855.875
2941.98513	4856.675
2944.44962	4850.175
2946.91261	4826.275
2949.37409	4820.075
2951.83407	4825.375
2954.29254	4813.975
2956.74951	4809.875
2959.20498	4813.675
2961.65895	4800.075
2964.11142	4785.575
2966.56239	4785.675
2969.01186	4786.775
2971.45984	4785.475
2973.90632	4768.875
2976.35131	4743.275
2978.7948	4734.875
2981.23681	4735.775
2983.67732	4711.475
2986.11635	4714.975
2988.55388	4691.375
2990.98993	4714.275
2993.4245	4676.875
2995.85758	4673.775
2998.28917	4680.975
3000.71928	4662.975
3003.14791	4638.975
3005.57506	4659.275
3008.00073	4645.175
3010.42493	4634.275
3012.84764	4638.675
3015.26888	4631.475
3017.68865	4615.875
3020.10694	4613.575
3022.52376	4590.875
3024.9391	4608.375
3027.35298	4589.075
3029.76539	4570.075
3032.17632	4562.175
3034.5858	4560.875
3036.9938	4548.175
3039.40034	4533.975
3041.80542	4525.575
3044.20903	4554.175
3046.61118	4544.675
3049.01187	4508.575
3051.4111	4516.275
3053.80888	4504.075
3056.20519	4503.975
3058.60005	4504.675
3060.99345	4487.675
3063.3854	4481.075
3065.7759	4484.075
3068.16494	4464.375
3070.55254	4450.775
3072.93868	4469.975
3075.32338	4457.175
3077.70662	4443.875
3080.08842	4442.975
3082.46878	4446.475
3084.84769	4455.675
3087.22515	4439.175
3089.60118	4450.375
3091.97576	4458.675
3094.3489	4437.675
3096.72061	4450.875
3099.09087	4447.475
3101.4597	4447.175
3103.82709	4459.175
3106.19305	4451.975
3108.55757	4432.775
3110.92066	4415.175
3113.28232	4424.775
3115.64255	4416.475
3118.00134	4424.075
3120.35871	4398.875
3122.71466	4416.575
3125.06917	4403.675
3127.42226	4413.175
3129.77393	4400.575
3132.12417	4397.175
3134.47299	4412.475
3136.82039	4422.375
3139.16636	4418.775
3141.51092	4428.875
3143.85406	4414.675
3146.19579	4437.175
3148.53609	4423.775
3150.87499	4444.775
3153.21246	4450.875
3155.54853	4446.875
3157.88318	4456.675
3160.21642	4455.775
3162.54826	4454.775
3164.87868	4473.075
3167.2077	4458.875
3169.5353	4472.875
3171.86151	4466.075
3174.18631	4440.675
3176.5097	4460.875
3178.83169	4455.775
3181.15228	4458.975
3183.47147	4443.175
3185.78926	4453.575
3188.10565	4448.075
3190.42065	4445.175
3192.73424	4444.775
3195.04645	4451.475
3197.35725	4444.075
3199.66667	4435.775
3201.97469	4460.075
3204.28132	4456.075
3206.58656	4474.375
3208.8904	4467.275
3211.19287	4481.075
3213.49394	4474.775
3215.79363	4468.475
3218.09193	4486.975
3220.38884	4474.975
3222.68438	4478.175
3224.97853	4459.875
3227.2713	4461.675
3229.56269	4459.275
3231.8527	4467.675
3234.14133	4459.175
3236.42858	4431.475
3238.71446	4444.475
3240.99896	4422.475
3243.28209	4439.275
3245.56384	4427.275
3247.84423	4428.775
3250.12324	4419.575
3252.40088	4415.375
3254.67715	4402.475
3256.95205	4391.575
3259.22558	4409.475
3261.49775	4406.875
3263.76855	4389.175
3266.03799	4391.675
3268.30606	4386.975
3270.57277	4387.875
3272.83812	4368.275
3275.10211	4359.075
3277.36474	4368.675
3279.62601	4359.475
3281.88593	4347.475
3284.14448	4360.775
3286.40168	4350.175
3288.65753	4341.675
3290.91202	4320.575
3293.16516	4315.875
3295.41695	4302.175
3297.66738	4273.375
3299.91647	4241.675
3302.16421	4229.975
3304.4106	4215.175
3306.65564	4199.675
3308.89933	4178.775
3311.14169	4144.975
3313.38269	4120.275
3315.62236	4107.875
3317.86068	4054.675
3320.09766	4013.575
3322.3333	3996.075
3324.5676	3993.675
3326.80056	3921.575
3329.03219	3901.075
3331.26248	0.575
3333.49143	0.675
3335.71905	0.275
