Data from AgNPs_FTO_APTES_UA_1uM_R6G_10uM_NaF_0.1M_Addition_RamanShift__6__11-10-57-159.txt Node

Date: Fri Dec 17 11:10:57 GMT 2021
User: TCL
Spectrometer: QEP01345
Trigger mode: 4
Integration Time (sec): 7.000000E0
Scans to average: 10
Electric dark correction enabled: true
Nonlinearity correction enabled: false
Boxcar width: 0
XAxis mode: Raman Shifts
Number of Pixels in Spectrum: 1044
>>>>>Begin Spectral Data<<<<<
46.04893	-1.25
50.45542	-0.95
54.85868	-0.45
59.25871	-1.05
63.6555	101.75
68.04907	107.65
72.43941	112.25
76.82654	117.85
81.21044	121.45
85.59113	122.25
89.96862	132.15
94.34289	136.35
98.71396	143.75
103.08183	141.35
107.4465	148.95
111.80798	146.35
116.16626	154.65
120.52136	150.05
124.87327	164.95
129.222	169.75
133.56755	177.75
137.90993	192.55
142.24913	206.85
146.58517	225.05
150.91804	259.15
155.24774	304.75
159.57429	375.65
163.89768	474.05
168.21792	615.65
172.53501	820.35
176.84895	1130.75
181.15975	1569.05
185.46741	2205.25
189.77193	3031.55
194.07331	4049.15
198.37157	5221.05
202.6667	6454.75
206.9587	7674.45
211.24758	8892.65
215.53334	10121.35
219.81599	11410.85
224.09553	12826.05
228.37195	14423.95
232.64527	16139.65
236.91549	17974.25
241.18261	19868.95
245.44663	21553.55
249.70755	23134.45
253.96539	24397.95
258.22014	25508.95
262.4718	26419.85
266.72039	26960.55
270.96589	27214.15
275.20832	27185.05
279.44768	26929.85
283.68397	26557.95
287.91719	26227.45
292.14735	25931.05
296.37445	25821.05
300.59849	25850.55
304.81948	25918.25
309.03742	25926.35
313.25231	25822.85
317.46415	25474.75
321.67296	25038.75
325.87872	24698.05
330.08145	24552.25
334.28114	24561.75
338.47781	24682.55
342.67145	24994.85
346.86207	25381.95
351.04966	25842.95
355.23424	26286.55
359.4158	26782.35
363.59435	27188.95
367.76989	27466.85
371.94243	27619.65
376.11196	27696.55
380.27849	27734.55
384.44203	27861.85
388.60257	28084.55
392.76012	28348.25
396.91468	28649.05
401.06626	29085.45
405.21485	29380.55
409.36047	29296.55
413.50311	29093.05
417.64277	28896.65
421.77947	28975.15
425.9132	29074.15
430.04396	29201.35
434.17176	29314.55
438.2966	29431.35
442.41849	29781.95
446.53742	30373.15
450.6534	31031.25
454.76644	31505.65
458.87653	31701.05
462.98368	31660.85
467.08789	31337.15
471.18916	30947.35
475.2875	30514.45
479.38291	30190.45
483.4754	30021.05
487.56496	29888.25
491.6516	29764.85
495.73531	29617.75
499.81612	29582.15
503.89401	29772.15
507.96899	29859.65
512.04106	29856.85
516.11023	29753.65
520.1765	29554.05
524.23987	29417.35
528.30034	29312.45
532.35792	29048.45
536.41261	28775.05
540.46441	28470.75
544.51333	28417.95
548.55936	28515.05
552.60252	28904.95
556.64279	29347.95
560.6802	29667.15
564.71473	29877.75
568.7464	30133.75
572.7752	30627.75
576.80114	31071.45
580.82422	31773.15
584.84444	32670.05
588.86181	33647.75
592.87633	34391.85
596.888	34320.25
600.89682	33827.75
604.9028	34378.25
608.90594	36873.65
612.90624	39407.65
616.90371	37510.95
620.89834	32552.65
624.89015	30242.05
628.87913	29831.65
632.86528	29795.75
636.84862	29711.25
640.82913	29277.85
644.80683	28749.65
648.78172	28438.95
652.75379	28430.55
656.72306	28725.15
660.68952	29231.95
664.65319	29133.15
668.61405	28747.45
672.57211	28759.65
676.52738	28931.45
680.47986	28943.05
684.42955	28630.95
688.37646	28589.15
692.32058	28807.85
696.26192	29241.35
700.20048	29721.05
704.13626	29858.75
708.06928	29736.55
711.99952	29527.45
715.927	29482.15
719.85171	29644.25
723.77365	29633.45
727.69284	29282.35
731.60928	28861.25
735.52295	28682.85
739.43388	28726.65
743.34206	28832.45
747.24749	28949.35
751.15017	29115.65
755.05012	29478.05
758.94733	30080.65
762.8418	31108.55
766.73354	32698.45
770.62254	34283.95
774.50882	34709.15
778.39237	33713.25
782.27321	32108.45
786.15132	30751.35
790.02671	29830.15
793.89938	29382.25
797.76935	29163.25
801.6366	29158.95
805.50115	29069.15
809.36299	28935.95
813.22213	28735.25
817.07857	28597.25
820.93231	28494.35
824.78336	28409.75
828.63172	28358.05
832.47738	28354.05
836.32036	28402.05
840.16066	28505.15
843.99827	28556.85
847.8332	28520.95
851.66546	28467.85
855.49504	28470.15
859.32195	28480.95
863.1462	28455.65
866.96777	28441.35
870.78668	28433.55
874.60293	28479.95
878.41652	28529.05
882.22745	28684.15
886.03573	28819.55
889.84136	28908.95
893.64433	28834.05
897.44466	28723.35
901.24235	28673.65
905.0374	28648.75
908.8298	28650.95
912.61957	28654.15
916.40671	28806.35
920.19121	29100.45
923.97308	29458.25
927.75233	29676.75
931.52895	29636.45
935.30295	29334.75
939.07433	28877.65
942.84309	28510.85
946.60924	28354.05
950.37278	28343.25
954.13371	28236.05
957.89203	28087.15
961.64774	28052.05
965.40086	28013.15
969.15137	28015.05
972.89929	27991.75
976.64461	28048.95
980.38733	28102.85
984.12747	28185.05
987.86502	28369.75
991.59999	28543.15
995.33237	28863.45
999.06217	29473.95
1002.78939	30197.55
1006.51404	30757.45
1010.23611	31225.25
1013.95561	31409.75
1017.67255	31373.95
1021.38692	31017.65
1025.09872	30723.45
1028.80796	30773.95
1032.51465	31296.65
1036.21877	31840.25
1039.92035	32074.65
1043.61937	31828.85
1047.31584	31375.95
1051.00976	30848.75
1054.70114	30561.75
1058.38998	30563.25
1062.07627	30702.25
1065.76003	30912.15
1069.44126	31245.25
1073.11995	31681.05
1076.79611	32175.75
1080.46974	32415.95
1084.14085	32559.05
1087.80943	32777.65
1091.47549	32860.35
1095.13903	32768.45
1098.80005	32359.75
1102.45857	31755.85
1106.11456	31267.95
1109.76805	31009.95
1113.41903	30930.35
1117.06751	30887.95
1120.71348	31052.25
1124.35696	31220.05
1127.99793	31443.75
1131.63641	31649.25
1135.2724	31496.15
1138.90589	31373.05
1142.5369	31366.85
1146.16542	31349.15
1149.79145	31401.35
1153.415	31550.95
1157.03607	31736.95
1160.65467	32353.25
1164.27079	33431.75
1167.88443	34734.45
1171.49561	36253.45
1175.10432	38141.55
1178.71056	40675.45
1182.31434	43165.25
1185.91565	44728.65
1189.51451	45018.65
1193.11091	44245.15
1196.70485	42856.35
1200.29634	41263.45
1203.88538	40118.35
1207.47197	39313.25
1211.05612	38652.55
1214.63782	37994.05
1218.21708	37306.95
1221.79391	36749.55
1225.36829	36356.65
1228.94024	35981.55
1232.50976	35640.15
1236.07685	35293.25
1239.6415	35059.25
1243.20374	35097.65
1246.76355	35341.85
1250.32093	35840.75
1253.8759	36495.05
1257.42845	37415.75
1260.97859	38465.25
1264.52631	39581.15
1268.07163	40769.25
1271.61453	41918.05
1275.15503	42909.55
1278.69312	43846.75
1282.22882	44388.95
1285.76211	44945.25
1289.29301	45769.55
1292.82151	46894.75
1296.34761	48438.65
1299.87133	50455.55
1303.39266	52873.55
1306.9116	55415.25
1310.42815	57564.25
1313.94233	58523.55
1317.45412	58316.15
1320.96354	57259.45
1324.47058	56435.75
1327.97525	55853.45
1331.47754	55606.95
1334.97747	55455.25
1338.47502	55065.75
1341.97022	54448.95
1345.46305	53599.85
1348.95352	52950.85
1352.44163	52904.95
1355.92738	53849.95
1359.41078	55799.45
1362.89183	57599.35
1366.37053	57103.65
1369.84688	53529.25
1373.32088	48843.45
1376.79254	45297.95
1380.26186	43624.85
1383.72883	43365.35
1387.19347	43280.25
1390.65578	42768.85
1394.11575	42356.45
1397.57339	42365.15
1401.0287	42637.35
1404.48168	43044.65
1407.93234	43352.05
1411.38068	43207.55
1414.82669	42565.55
1418.27039	41539.15
1421.71177	40418.35
1425.15083	39671.65
1428.58758	39387.95
1432.02203	39780.65
1435.45416	40661.05
1438.88399	41635.85
1442.31151	42220.05
1445.73673	42477.25
1449.15965	42457.95
1452.58027	42293.05
1455.9986	42079.45
1459.41463	42100.15
1462.82837	42637.35
1466.23982	43330.65
1469.64898	44024.05
1473.05586	44372.65
1476.46045	44476.05
1479.86276	44418.05
1483.26279	44223.45
1486.66054	44122.55
1490.05602	44423.55
1493.44922	44769.55
1496.84016	45025.45
1500.22882	45451.15
1503.61521	46182.45
1506.99934	47181.05
1510.38121	48024.25
1513.76081	48034.35
1517.13816	47123.15
1520.51324	45610.25
1523.88607	44181.85
1527.25665	43492.35
1530.62498	43230.95
1533.99105	43004.75
1537.35488	42735.65
1540.71647	42158.55
1544.07581	41479.15
1547.4329	40830.15
1550.78776	40342.95
1554.14038	40082.65
1557.49077	39868.75
1560.83892	39778.45
1564.18484	39754.75
1567.52853	39748.25
1570.86999	39998.35
1574.20922	40504.35
1577.54624	41038.35
1580.88103	41362.05
1584.2136	41766.25
1587.54395	42891.05
1590.87208	44753.45
1594.19801	47013.25
1597.52172	49088.65
1600.84321	49531.75
1604.16251	47462.05
1607.47959	44322.05
1610.79447	41074.65
1614.10715	38161.55
1617.41763	35733.65
1620.7259	34247.45
1624.03199	33550.55
1627.33587	33703.25
1630.63757	34578.85
1633.93707	36318.35
1637.23439	39117.15
1640.52951	43039.55
1643.82246	47452.95
1647.11321	50579.65
1650.40179	50507.95
1653.68819	47046.85
1656.97241	41628.55
1660.25446	36712.35
1663.53433	33218.75
1666.81203	31105.35
1670.08756	29731.65
1673.36092	28895.75
1676.63211	28328.45
1679.90115	27929.55
1683.16801	27627.15
1686.43272	27452.75
1689.69527	27228.35
1692.95567	27128.05
1696.2139	27043.05
1699.46999	26984.15
1702.72392	26933.55
1705.97571	26933.65
1709.22535	26831.85
1712.47284	26881.35
1715.71819	26865.45
1718.96139	26846.55
1722.20246	26742.35
1725.44139	26642.25
1728.67818	26557.15
1731.91284	26437.25
1735.14537	26314.45
1738.37576	26211.05
1741.60403	26153.75
1744.83017	26079.75
1748.05418	26023.45
1751.27607	26001.15
1754.49584	25938.55
1757.71349	25926.05
1760.92903	25927.05
1764.14244	25878.25
1767.35375	25895.35
1770.56294	25853.25
1773.77002	25833.75
1776.97499	25772.15
1780.17785	25760.85
1783.37861	25801.75
1786.57727	25751.15
1789.77382	25713.15
1792.96828	25708.35
1796.16064	25643.95
1799.3509	25640.55
1802.53907	25572.75
1805.72514	25521.65
1808.90913	25455.55
1812.09102	25410.85
1815.27083	25413.55
1818.44856	25368.45
1821.6242	25340.25
1824.79776	25326.35
1827.96924	25360.75
1831.13864	25369.55
1834.30597	25384.25
1837.47122	25396.85
1840.6344	25409.35
1843.7955	25438.85
1846.95454	25431.45
1850.11151	25418.55
1853.26642	25382.95
1856.41926	25385.25
1859.57004	25385.35
1862.71876	25338.65
1865.86542	25333.25
1869.01003	25326.95
1872.15258	25335.45
1875.29308	25304.15
1878.43152	25232.15
1881.56792	25262.15
1884.70227	25219.05
1887.83457	25248.75
1890.96482	25161.95
1894.09304	25130.55
1897.21921	25092.75
1900.34335	25051.25
1903.46544	25025.15
1906.58551	25007.45
1909.70353	24957.75
1912.81953	24948.95
1915.93349	24849.85
1919.04543	24807.05
1922.15534	24779.15
1925.26322	24731.55
1928.36908	24650.25
1931.47292	24622.95
1934.57473	24584.25
1937.67453	24527.05
1940.77232	24473.65
1943.86808	24389.85
1946.96184	24364.45
1950.05358	24302.15
1953.14331	24200.65
1956.23103	24209.05
1959.31675	24144.25
1962.40046	24073.65
1965.48217	24001.35
1968.56188	23973.45
1971.63959	23909.85
1974.7153	23805.55
1977.78901	23744.25
1980.86073	23650.45
1983.93046	23610.65
1986.99819	23526.85
1990.06394	23474.85
1993.1277	23427.25
1996.18947	23363.25
1999.24925	23316.15
2002.30706	23309.85
2005.36288	23168.95
2008.41672	23120.65
2011.46859	23092.75
2014.51848	23020.75
2017.56639	22974.65
2020.61233	22943.25
2023.6563	22900.45
2026.6983	22871.55
2029.73833	22813.05
2032.7764	22797.05
2035.8125	22729.45
2038.84664	22720.55
2041.87881	22725.35
2044.90903	22695.95
2047.93729	22631.45
2050.96359	22636.35
2053.98794	22550.75
2057.01034	22565.25
2060.03078	22551.35
2063.04927	22504.45
2066.06582	22518.95
2069.08042	22508.95
2072.09307	22513.85
2075.10378	22493.95
2078.11255	22439.55
2081.11938	22510.15
2084.12426	22473.85
2087.12722	22467.25
2090.12824	22440.95
2093.12732	22478.05
2096.12447	22481.05
2099.11969	22491.65
2102.11299	22479.15
2105.10435	22524.35
2108.09379	22499.85
2111.08131	22548.35
2114.0669	22534.75
2117.05057	22566.75
2120.03233	22574.95
2123.01216	22635.65
2125.99008	22643.65
2128.96609	22663.25
2131.94018	22710.95
2134.91236	22689.95
2137.88263	22699.35
2140.851	22722.45
2143.81746	22788.45
2146.78201	22783.95
2149.74466	22826.95
2152.7054	22794.85
2155.66425	22783.75
2158.6212	22806.85
2161.57625	22805.05
2164.52941	22777.55
2167.48067	22815.15
2170.43004	22838.75
2173.37752	22801.35
2176.32311	22804.15
2179.26681	22761.25
2182.20863	22803.05
2185.14856	22860.95
2188.08661	22786.05
2191.02278	22815.25
2193.95707	22780.55
2196.88948	22795.75
2199.82001	22754.95
2202.74867	22782.65
2205.67545	22773.15
2208.60037	22767.05
2211.52341	22748.15
2214.44458	22684.25
2217.36388	22645.05
2220.28132	22646.95
2223.1969	22583.35
2226.11061	22573.75
2229.02246	22551.55
2231.93245	22478.55
2234.84058	22470.85
2237.74686	22457.75
2240.65128	22423.95
2243.55385	22414.45
2246.45456	22399.15
2249.35343	22376.25
2252.25044	22338.45
2255.14561	22322.65
2258.03893	22281.65
2260.93041	22205.95
2263.82004	22157.35
2266.70783	22137.65
2269.59378	22113.95
2272.4779	22089.45
2275.36017	22029.35
2278.24061	22002.05
2281.11922	21972.85
2283.996	21949.65
2286.87094	21911.55
2289.74405	21871.75
2292.61534	21888.45
2295.4848	21863.25
2298.35243	21849.15
2301.21824	21855.95
2304.08223	21874.95
2306.94439	21874.25
2309.80474	21909.85
2312.66327	21880.25
2315.51999	21870.05
2318.37489	21861.15
2321.22797	21871.65
2324.07925	21851.85
2326.92871	21809.45
2329.77637	21811.35
2332.62222	21774.55
2335.46626	21758.85
2338.3085	21762.85
2341.14893	21726.35
2343.98756	21717.15
2346.8244	21738.15
2349.65943	21724.75
2352.49267	21678.75
2355.32411	21681.75
2358.15376	21678.25
2360.98161	21626.35
2363.80768	21619.25
2366.63195	21568.55
2369.45444	21563.35
2372.27514	21502.25
2375.09405	21532.55
2377.91118	21509.25
2380.72652	21485.35
2383.54009	21398.65
2386.35187	21407.25
2389.16188	21367.35
2391.97011	21344.45
2394.77657	21328.25
2397.58125	21292.15
2400.38416	21253.65
2403.18529	21215.25
2405.98466	21225.05
2408.78226	21178.75
2411.57809	21158.55
2414.37216	21112.85
2417.16446	21109.65
2419.955	21078.15
2422.74378	21069.85
2425.5308	21053.35
2428.31606	21033.65
2431.09956	21054.05
2433.88131	21028.55
2436.6613	21012.45
2439.43954	21045.35
2442.21603	21001.55
2444.99077	20998.25
2447.76377	20978.95
2450.53501	20989.75
2453.30451	20976.15
2456.07226	20940.55
2458.83827	20958.75
2461.60254	20955.15
2464.36507	20948.95
2467.12586	20928.35
2469.88492	20947.35
2472.64224	20925.15
2475.39782	20890.75
2478.15167	20902.25
2480.90379	20899.85
2483.65417	20886.25
2486.40283	20916.45
2489.14976	20901.55
2491.89497	20869.25
2494.63845	20887.15
2497.3802	20889.65
2500.12024	20890.65
2502.85855	20915.25
2505.59514	20871.95
2508.33002	20839.95
2511.06318	20826.85
2513.79462	20798.45
2516.52435	20825.05
2519.25237	20808.85
2521.97867	20779.25
2524.70327	20782.35
2527.42616	20744.05
2530.14734	20768.35
2532.86681	20701.55
2535.58458	20747.45
2538.30065	20713.35
2541.01501	20720.15
2543.72768	20691.95
2546.43864	20640.45
2549.14791	20603.35
2551.85548	20636.65
2554.56136	20618.05
2557.26554	20585.75
2559.96803	20569.25
2562.66883	20571.65
2565.36794	20554.95
2568.06536	20543.15
2570.7611	20535.75
2573.45514	20512.45
2576.14751	20485.85
2578.83819	20441.35
2581.52719	20445.75
2584.21451	20433.95
2586.90015	20427.25
2589.58411	20386.75
2592.2664	20354.05
2594.94701	20341.25
2597.62594	20328.25
2600.30321	20307.95
2602.9788	20304.65
2605.65273	20237.75
2608.32498	20222.65
2610.99557	20253.45
2613.66449	20235.05
2616.33175	20205.15
2618.99734	20179.05
2621.66128	20181.05
2624.32355	20144.85
2626.98416	20150.05
2629.64311	20114.05
2632.30041	20131.65
2634.95605	20108.55
2637.61004	20112.25
2640.26238	20087.15
2642.91306	20053.05
2645.56209	20029.95
2648.20948	20003.25
2650.85521	20000.45
2653.4993	20031.85
2656.14175	20027.85
2658.78255	20065.55
2661.42171	20019.85
2664.05923	20054.15
2666.6951	20038.55
2669.32934	20079.55
2671.96194	20112.95
2674.59291	20093.65
2677.22224	20075.65
2679.84993	20096.35
2682.476	20055.95
2685.10043	20064.35
2687.72324	20056.65
2690.34441	20050.05
2692.96396	20056.95
2695.58188	20066.75
2698.19818	20043.75
2700.81285	20054.15
2703.4259	20049.05
2706.03733	20001.55
2708.64714	20023.65
2711.25533	20085.55
2713.86191	20055.25
2716.46687	20094.55
2719.07021	20097.75
2721.67194	20150.95
2724.27206	20110.45
2726.87057	20106.25
2729.46747	20105.05
2732.06276	20138.45
2734.65644	20106.95
2737.24852	20092.35
2739.83899	20097.95
2742.42786	20118.05
2745.01513	20087.45
2747.60079	20102.65
2750.18486	20077.15
2752.76733	20092.35
2755.3482	20062.15
2757.92747	20083.45
2760.50515	20049.05
2763.08123	20077.05
2765.65573	20051.85
2768.22863	20072.95
2770.79994	20014.15
2773.36967	20027.85
2775.9378	20028.35
2778.50435	19985.45
2781.06932	19981.65
2783.6327	19967.85
2786.1945	19951.95
2788.75471	19916.25
2791.31335	19921.55
2793.87041	19872.95
2796.42589	19787.65
2798.97979	19802.85
2801.53212	19761.55
2804.08288	19755.85
2806.63206	19698.05
2809.17967	19693.35
2811.72571	19651.35
2814.27018	19597.85
2816.81308	19611.85
2819.35442	19591.65
2821.89419	19552.55
2824.43239	19567.95
2826.96904	19488.75
2829.50412	19482.85
2832.03763	19436.25
2834.56959	19447.95
2837.1	19404.05
2839.62884	19411.45
2842.15613	19456.45
2844.68186	19490.85
2847.20604	19443.95
2849.72867	19434.45
2852.24974	19422.95
2854.76927	19416.85
2857.28724	19430.15
2859.80367	19454.95
2862.31855	19425.05
2864.83189	19414.75
2867.34368	19386.85
2869.85393	19399.95
2872.36264	19442.75
2874.8698	19466.55
2877.37543	19431.55
2879.87952	19480.65
2882.38207	19507.75
2884.88308	19490.55
2887.38256	19533.55
2889.88051	19494.95
2892.37692	19576.15
2894.8718	19538.75
2897.36515	19627.45
2899.85698	19558.75
2902.34727	19599.85
2904.83604	19632.45
2907.32328	19618.85
2909.809	19620.55
2912.29319	19611.25
2914.77587	19612.95
2917.25702	19580.95
2919.73665	19596.65
2922.21476	19586.05
2924.69136	19600.55
2927.16644	19626.65
2929.64	19556.75
2932.11205	19541.65
2934.58258	19507.55
2937.05161	19553.45
2939.51912	19486.55
2941.98513	19485.35
2944.44962	19423.05
2946.91261	19350.75
2949.37409	19366.65
2951.83407	19319.15
2954.29254	19308.75
2956.74951	19286.15
2959.20498	19264.25
2961.65895	19210.95
2964.11142	19194.65
2966.56239	19138.85
2969.01186	19146.15
2971.45984	19083.15
2973.90632	19034.45
2976.35131	19013.85
2978.7948	19001.35
2981.23681	18945.05
2983.67732	18899.65
2986.11635	18875.65
2988.55388	18796.55
2990.98993	18750.65
2993.4245	18759.25
2995.85758	18703.65
2998.28917	18664.15
3000.71928	18646.55
3003.14791	18592.45
3005.57506	18562.25
3008.00073	18533.85
3010.42493	18497.05
3012.84764	18483.35
3015.26888	18497.25
3017.68865	18433.35
3020.10694	18430.85
3022.52376	18398.85
3024.9391	18336.45
3027.35298	18325.45
3029.76539	18287.15
3032.17632	18265.35
3034.5858	18270.05
3036.9938	18266.95
3039.40034	18227.65
3041.80542	18214.15
3044.20903	18162.35
3046.61118	18167.45
3049.01187	18121.35
3051.4111	18101.05
3053.80888	18027.65
3056.20519	18044.55
3058.60005	18002.05
3060.99345	17982.15
3063.3854	17924.45
3065.7759	17884.65
3068.16494	17866.55
3070.55254	17830.75
3072.93868	17835.85
3075.32338	17792.95
3077.70662	17775.25
3080.08842	17738.55
3082.46878	17721.25
3084.84769	17689.85
3087.22515	17700.05
3089.60118	17677.75
3091.97576	17646.75
3094.3489	17619.05
3096.72061	17628.05
3099.09087	17636.15
3101.4597	17611.85
3103.82709	17612.75
3106.19305	17568.55
3108.55757	17612.35
3110.92066	17536.35
3113.28232	17503.25
3115.64255	17489.15
3118.00134	17441.25
3120.35871	17420.35
3122.71466	17397.95
3125.06917	17359.45
3127.42226	17327.05
3129.77393	17378.15
3132.12417	17329.35
3134.47299	17345.65
3136.82039	17345.25
3139.16636	17355.85
3141.51092	17329.95
3143.85406	17351.45
3146.19579	17343.75
3148.53609	17331.75
3150.87499	17356.15
3153.21246	17351.85
3155.54853	17390.55
3157.88318	17331.45
3160.21642	17360.15
3162.54826	17328.35
3164.87868	17319.65
3167.2077	17295.95
3169.5353	17267.45
3171.86151	17283.45
3174.18631	17289.35
3176.5097	17248.05
3178.83169	17222.45
3181.15228	17239.35
3183.47147	17203.55
3185.78926	17191.35
3188.10565	17171.05
3190.42065	17185.75
3192.73424	17199.05
3195.04645	17186.45
3197.35725	17172.55
3199.66667	17170.95
3201.97469	17202.95
3204.28132	17176.85
3206.58656	17183.95
3208.8904	17159.35
3211.19287	17157.55
3213.49394	17146.05
3215.79363	17150.55
3218.09193	17129.75
3220.38884	17108.85
3222.68438	17172.15
3224.97853	17115.25
3227.2713	17071.95
3229.56269	17099.15
3231.8527	17102.25
3234.14133	17061.35
3236.42858	17035.45
3238.71446	17031.05
3240.99896	17017.85
3243.28209	17015.65
3245.56384	17005.75
3247.84423	17054.75
3250.12324	16960.15
3252.40088	16967.15
3254.67715	16952.95
3256.95205	16935.65
3259.22558	16917.05
3261.49775	16919.35
3263.76855	16895.05
3266.03799	16837.95
3268.30606	16822.15
3270.57277	16794.85
3272.83812	16780.35
3275.10211	16794.95
3277.36474	16755.95
3279.62601	16780.05
3281.88593	16753.65
3284.14448	16747.15
3286.40168	16714.45
3288.65753	16701.05
3290.91202	16653.25
3293.16516	16623.85
3295.41695	16575.95
3297.66738	16499.25
3299.91647	16394.55
3302.16421	16306.55
3304.4106	16250.65
3306.65564	16190.85
3308.89933	16075.75
3311.14169	15989.65
3313.38269	15881.75
3315.62236	15778.75
3317.86068	15655.05
3320.09766	15501.65
3322.3333	15386.85
3324.5676	15347.95
3326.80056	15096.75
3329.03219	15045.75
3331.26248	4.15
3333.49143	1.15
3335.71905	-0.05
