Data from AgNPs_FTO_APTES_UA_50uM_R6G_10uM_NaF_0.1M_Addition_RamanShift__20__14-59-37-416.txt Node

Date: Fri Dec 17 14:59:37 GMT 2021
User: TCL
Spectrometer: QEP01345
Trigger mode: 4
Integration Time (sec): 7.000000E0
Scans to average: 10
Electric dark correction enabled: true
Nonlinearity correction enabled: false
Boxcar width: 0
XAxis mode: Raman Shifts
Number of Pixels in Spectrum: 1044
>>>>>Begin Spectral Data<<<<<
46.04893	-0.95
50.45542	-0.95
54.85868	-2.85
59.25871	1.35
63.6555	91.75
68.04907	95.45
72.43941	100.25
76.82654	103.15
81.21044	105.05
85.59113	112.05
89.96862	114.25
94.34289	119.75
98.71396	126.05
103.08183	125.95
107.4465	131.55
111.80798	133.15
116.16626	138.05
120.52136	144.15
124.87327	150.45
129.222	158.15
133.56755	166.85
137.90993	177.95
142.24913	196.75
146.58517	223.55
150.91804	252.45
155.24774	300.95
159.57429	372.75
163.89768	471.55
168.21792	625.55
172.53501	854.65
176.84895	1187.05
181.15975	1653.95
185.46741	2318.95
189.77193	3196.25
194.07331	4267.05
198.37157	5491.15
202.6667	6779.35
206.9587	8040.75
211.24758	9287.15
215.53334	10509.75
219.81599	11857.25
224.09553	13308.55
228.37195	14913.45
232.64527	16732.25
236.91549	18632.95
241.18261	20587.55
245.44663	22405.95
249.70755	24046.45
253.96539	25438.65
258.22014	26655.25
262.4718	27601.25
266.72039	28323.35
270.96589	28722.05
275.20832	28841.55
279.44768	28726.35
283.68397	28499.85
287.91719	28303.05
292.14735	28223.85
296.37445	28210.65
300.59849	28278.75
304.81948	28380.75
309.03742	28298.55
313.25231	27992.05
317.46415	27278.45
321.67296	26487.15
325.87872	25841.75
330.08145	25515.25
334.28114	25462.15
338.47781	25722.35
342.67145	26021.05
346.86207	26463.95
351.04966	27030.75
355.23424	27636.45
359.4158	28163.35
363.59435	28512.45
367.76989	28793.25
371.94243	28972.05
376.11196	29126.65
380.27849	29251.85
384.44203	29422.65
388.60257	29613.45
392.76012	29861.25
396.91468	30213.35
401.06626	30694.35
405.21485	31075.25
409.36047	30976.85
413.50311	30512.75
417.64277	30121.15
421.77947	29989.75
425.9132	30081.35
430.04396	30219.25
434.17176	30384.05
438.2966	30620.75
442.41849	31000.25
446.53742	31661.95
450.6534	32440.35
454.76644	33049.55
458.87653	33332.65
462.98368	33349.45
467.08789	33046.65
471.18916	32662.05
475.2875	32213.75
479.38291	31828.25
483.4754	31448.15
487.56496	31025.05
491.6516	30650.65
495.73531	30388.65
499.81612	30319.95
503.89401	30473.25
507.96899	30600.05
512.04106	30612.05
516.11023	30603.75
520.1765	30497.85
524.23987	30310.75
528.30034	30063.15
532.35792	29820.95
536.41261	29548.85
540.46441	29267.75
544.51333	29222.95
548.55936	29508.15
552.60252	30009.25
556.64279	30570.85
560.6802	30916.25
564.71473	31134.95
568.7464	31488.45
572.7752	31987.95
576.80114	32329.55
580.82422	32620.45
584.84444	32900.35
588.86181	33044.75
592.87633	33260.15
596.888	33604.35
600.89682	33997.55
604.9028	35412.15
608.90594	38741.05
612.90624	42007.65
616.90371	39750.95
620.89834	33592.15
624.89015	30798.15
628.87913	30394.25
632.86528	30496.65
636.84862	30555.65
640.82913	30243.45
644.80683	29544.25
648.78172	28924.45
652.75379	28754.65
656.72306	29141.05
660.68952	29615.15
664.65319	29503.25
668.61405	29038.55
672.57211	28923.85
676.52738	28991.15
680.47986	28977.25
684.42955	28864.55
688.37646	28765.55
692.32058	28847.35
696.26192	29067.05
700.20048	29366.55
704.13626	29519.55
708.06928	29491.45
711.99952	29287.95
715.927	29147.45
719.85171	29108.35
723.77365	29028.95
727.69284	28826.05
731.60928	28564.15
735.52295	28465.85
739.43388	28526.45
743.34206	28601.05
747.24749	28733.85
751.15017	28951.15
755.05012	29369.45
758.94733	30171.95
762.8418	31682.05
766.73354	34016.55
770.62254	36405.35
774.50882	37196.05
778.39237	35749.55
782.27321	32955.45
786.15132	30797.85
790.02671	29468.55
793.89938	28747.75
797.76935	28518.75
801.6366	28376.75
805.50115	28314.45
809.36299	28186.15
813.22213	28006.95
817.07857	27936.55
820.93231	27813.15
824.78336	27723.65
828.63172	27731.35
832.47738	27726.45
836.32036	27715.25
840.16066	27748.35
843.99827	27767.35
847.8332	27730.35
851.66546	27651.05
855.49504	27681.95
859.32195	27643.05
863.1462	27588.05
866.96777	27476.95
870.78668	27428.85
874.60293	27457.95
878.41652	27474.85
882.22745	27549.05
886.03573	27665.65
889.84136	27661.15
893.64433	27541.75
897.44466	27466.45
901.24235	27339.65
905.0374	27252.75
908.8298	27149.65
912.61957	27210.05
916.40671	27367.95
920.19121	27670.95
923.97308	27902.65
927.75233	27982.95
931.52895	27856.15
935.30295	27591.25
939.07433	27196.45
942.84309	26875.25
946.60924	26731.35
950.37278	26606.65
954.13371	26515.35
957.89203	26406.35
961.64774	26326.45
965.40086	26279.25
969.15137	26161.05
972.89929	26109.05
976.64461	26100.45
980.38733	26101.95
984.12747	26206.35
987.86502	26405.45
991.59999	26729.95
995.33237	27116.55
999.06217	27766.15
1002.78939	28524.05
1006.51404	29167.35
1010.23611	29550.05
1013.95561	29836.75
1017.67255	29876.15
1021.38692	29678.95
1025.09872	29443.25
1028.80796	29379.25
1032.51465	29873.55
1036.21877	30266.65
1039.92035	30361.15
1043.61937	30132.85
1047.31584	29605.05
1051.00976	28989.85
1054.70114	28769.85
1058.38998	28807.35
1062.07627	28947.95
1065.76003	29219.55
1069.44126	29513.25
1073.11995	29915.95
1076.79611	30237.15
1080.46974	30381.15
1084.14085	30472.15
1087.80943	30703.55
1091.47549	30938.15
1095.13903	30765.55
1098.80005	30457.15
1102.45857	29929.55
1106.11456	29535.75
1109.76805	29425.15
1113.41903	29514.65
1117.06751	29760.85
1120.71348	30119.35
1124.35696	30485.55
1127.99793	30877.85
1131.63641	31075.05
1135.2724	30953.15
1138.90589	30658.75
1142.5369	30432.35
1146.16542	30343.85
1149.79145	30327.25
1153.415	30481.35
1157.03607	30792.55
1160.65467	31452.65
1164.27079	32513.65
1167.88443	33933.65
1171.49561	35834.65
1175.10432	38360.45
1178.71056	41373.75
1182.31434	44379.65
1185.91565	46353.05
1189.51451	46848.15
1193.11091	45822.85
1196.70485	44044.75
1200.29634	42004.75
1203.88538	40282.65
1207.47197	38738.05
1211.05612	37460.25
1214.63782	36653.45
1218.21708	36275.35
1221.79391	36193.85
1225.36829	36199.55
1228.94024	36037.85
1232.50976	35787.95
1236.07685	35582.45
1239.6415	35514.15
1243.20374	35426.85
1246.76355	35570.55
1250.32093	36005.65
1253.8759	36737.55
1257.42845	37686.35
1260.97859	38594.45
1264.52631	39526.35
1268.07163	40373.95
1271.61453	41380.45
1275.15503	42432.65
1278.69312	43465.35
1282.22882	44234.95
1285.76211	44955.25
1289.29301	45763.75
1292.82151	46847.85
1296.34761	48199.45
1299.87133	50154.55
1303.39266	52636.15
1306.9116	55519.75
1310.42815	58539.95
1313.94233	60684.45
1317.45412	60977.05
1320.96354	60292.95
1324.47058	59261.15
1327.97525	58201.65
1331.47754	57605.65
1334.97747	57656.25
1338.47502	58171.35
1341.97022	58847.35
1345.46305	58962.35
1348.95352	58562.85
1352.44163	58056.25
1355.92738	58309.45
1359.41078	59965.25
1362.89183	61810.95
1366.37053	60586.05
1369.84688	55887.95
1373.32088	50554.55
1376.79254	46742.95
1380.26186	44926.75
1383.72883	44294.75
1387.19347	43903.75
1390.65578	43395.85
1394.11575	43155.45
1397.57339	43485.35
1401.0287	44050.45
1404.48168	44905.15
1407.93234	45613.35
1411.38068	45754.65
1414.82669	45215.95
1418.27039	43984.65
1421.71177	42522.05
1425.15083	41169.55
1428.58758	40356.95
1432.02203	40256.45
1435.45416	40594.25
1438.88399	41277.25
1442.31151	41832.85
1445.73673	42357.85
1449.15965	42908.75
1452.58027	43279.55
1455.9986	43591.95
1459.41463	43969.95
1462.82837	44660.55
1466.23982	45469.65
1469.64898	46201.35
1473.05586	46692.25
1476.46045	46802.25
1479.86276	46776.55
1483.26279	46641.65
1486.66054	46592.65
1490.05602	46799.05
1493.44922	47211.35
1496.84016	47754.35
1500.22882	48753.95
1503.61521	50242.55
1506.99934	52045.55
1510.38121	53667.55
1513.76081	54154.25
1517.13816	52850.85
1520.51324	50547.55
1523.88607	48281.45
1527.25665	46716.85
1530.62498	45899.55
1533.99105	45579.75
1537.35488	45299.05
1540.71647	45003.75
1544.07581	44553.55
1547.4329	44064.75
1550.78776	43649.65
1554.14038	43337.75
1557.49077	43212.05
1560.83892	43181.65
1564.18484	43102.65
1567.52853	43040.65
1570.86999	43085.55
1574.20922	43390.75
1577.54624	43614.55
1580.88103	43446.85
1584.2136	43192.45
1587.54395	43654.35
1590.87208	45079.95
1594.19801	47317.35
1597.52172	49796.55
1600.84321	50868.95
1604.16251	49651.45
1607.47959	47006.25
1610.79447	43854.45
1614.10715	40742.85
1617.41763	37962.85
1620.7259	35887.15
1624.03199	34704.05
1627.33587	34518.85
1630.63757	35096.65
1633.93707	36872.85
1637.23439	39482.45
1640.52951	43004.65
1643.82246	46679.55
1647.11321	49423.75
1650.40179	49778.85
1653.68819	47112.95
1656.97241	42275.05
1660.25446	37247.65
1663.53433	33420.75
1666.81203	30942.55
1670.08756	29298.65
1673.36092	28264.95
1676.63211	27495.65
1679.90115	27036.45
1683.16801	26579.65
1686.43272	26290.85
1689.69527	26031.45
1692.95567	25868.35
1696.2139	25742.25
1699.46999	25660.95
1702.72392	25547.25
1705.97571	25483.35
1709.22535	25429.75
1712.47284	25333.85
1715.71819	25303.15
1718.96139	25242.55
1722.20246	25144.95
1725.44139	25004.15
1728.67818	24907.65
1731.91284	24750.05
1735.14537	24663.75
1738.37576	24557.45
1741.60403	24493.55
1744.83017	24375.75
1748.05418	24375.35
1751.27607	24307.65
1754.49584	24246.85
1757.71349	24264.05
1760.92903	24269.95
1764.14244	24182.95
1767.35375	24209.65
1770.56294	24204.95
1773.77002	24198.25
1776.97499	24090.65
1780.17785	24081.55
1783.37861	24028.95
1786.57727	24024.75
1789.77382	23982.35
1792.96828	23930.65
1796.16064	23893.45
1799.3509	23840.75
1802.53907	23860.05
1805.72514	23762.75
1808.90913	23719.55
1812.09102	23682.05
1815.27083	23632.15
1818.44856	23612.65
1821.6242	23570.85
1824.79776	23543.25
1827.96924	23512.55
1831.13864	23530.95
1834.30597	23510.55
1837.47122	23539.05
1840.6344	23553.75
1843.7955	23566.45
1846.95454	23531.45
1850.11151	23565.35
1853.26642	23560.75
1856.41926	23568.95
1859.57004	23552.95
1862.71876	23552.05
1865.86542	23548.05
1869.01003	23575.05
1872.15258	23535.35
1875.29308	23516.35
1878.43152	23474.65
1881.56792	23465.05
1884.70227	23472.75
1887.83457	23503.35
1890.96482	23487.35
1894.09304	23474.55
1897.21921	23464.25
1900.34335	23476.95
1903.46544	23489.85
1906.58551	23448.45
1909.70353	23424.85
1912.81953	23373.55
1915.93349	23363.95
1919.04543	23283.95
1922.15534	23208.55
1925.26322	23170.95
1928.36908	23114.45
1931.47292	23076.85
1934.57473	23021.35
1937.67453	22911.15
1940.77232	22880.75
1943.86808	22758.75
1946.96184	22701.25
1950.05358	22674.25
1953.14331	22607.15
1956.23103	22553.45
1959.31675	22466.35
1962.40046	22426.85
1965.48217	22355.05
1968.56188	22287.15
1971.63959	22233.65
1974.7153	22166.85
1977.78901	22106.45
1980.86073	22057.55
1983.93046	21986.55
1986.99819	21970.95
1990.06394	21834.25
1993.1277	21752.85
1996.18947	21708.55
1999.24925	21699.15
2002.30706	21610.75
2005.36288	21515.35
2008.41672	21474.45
2011.46859	21438.85
2014.51848	21406.05
2017.56639	21330.85
2020.61233	21297.35
2023.6563	21265.75
2026.6983	21227.05
2029.73833	21127.65
2032.7764	21121.45
2035.8125	21071.65
2038.84664	21057.05
2041.87881	21017.05
2044.90903	21001.95
2047.93729	20971.65
2050.96359	20949.35
2053.98794	20936.15
2057.01034	20898.95
2060.03078	20899.25
2063.04927	20869.45
2066.06582	20901.45
2069.08042	20804.65
2072.09307	20817.65
2075.10378	20831.85
2078.11255	20811.75
2081.11938	20804.35
2084.12426	20763.55
2087.12722	20765.35
2090.12824	20721.95
2093.12732	20760.95
2096.12447	20756.15
2099.11969	20769.25
2102.11299	20770.55
2105.10435	20788.55
2108.09379	20770.15
2111.08131	20814.15
2114.0669	20835.45
2117.05057	20818.95
2120.03233	20867.65
2123.01216	20895.35
2125.99008	20876.25
2128.96609	20899.45
2131.94018	20919.55
2134.91236	20958.95
2137.88263	20958.25
2140.851	20967.55
2143.81746	20976.45
2146.78201	20979.15
2149.74466	21008.55
2152.7054	21007.95
2155.66425	21036.15
2158.6212	20977.15
2161.57625	20987.25
2164.52941	20978.45
2167.48067	20979.55
2170.43004	20962.55
2173.37752	20995.25
2176.32311	20985.25
2179.26681	20991.85
2182.20863	20959.85
2185.14856	20969.85
2188.08661	20988.35
2191.02278	20963.85
2193.95707	20978.25
2196.88948	20981.25
2199.82001	20955.55
2202.74867	20963.65
2205.67545	20949.55
2208.60037	20918.85
2211.52341	20904.55
2214.44458	20888.45
2217.36388	20842.45
2220.28132	20829.85
2223.1969	20786.95
2226.11061	20763.45
2229.02246	20733.05
2231.93245	20630.55
2234.84058	20619.95
2237.74686	20600.75
2240.65128	20565.05
2243.55385	20572.15
2246.45456	20527.35
2249.35343	20495.15
2252.25044	20494.45
2255.14561	20474.75
2258.03893	20482.85
2260.93041	20441.85
2263.82004	20388.05
2266.70783	20308.75
2269.59378	20271.75
2272.4779	20247.05
2275.36017	20195.05
2278.24061	20168.05
2281.11922	20156.55
2283.996	20100.05
2286.87094	20067.85
2289.74405	20026.55
2292.61534	20022.85
2295.4848	19993.05
2298.35243	19992.55
2301.21824	19984.65
2304.08223	20011.75
2306.94439	20031.15
2309.80474	20028.95
2312.66327	20047.55
2315.51999	20019.65
2318.37489	20031.85
2321.22797	20021.25
2324.07925	19982.95
2326.92871	19998.05
2329.77637	20015.65
2332.62222	19939.75
2335.46626	19960.65
2338.3085	19892.45
2341.14893	19933.25
2343.98756	19901.45
2346.8244	19911.15
2349.65943	19906.35
2352.49267	19932.25
2355.32411	19907.55
2358.15376	19906.55
2360.98161	19902.75
2363.80768	19909.45
2366.63195	19876.95
2369.45444	19830.15
2372.27514	19814.95
2375.09405	19750.05
2377.91118	19748.95
2380.72652	19680.75
2383.54009	19676.45
2386.35187	19656.15
2389.16188	19609.35
2391.97011	19594.65
2394.77657	19551.75
2397.58125	19504.45
2400.38416	19493.45
2403.18529	19485.45
2405.98466	19487.25
2408.78226	19438.85
2411.57809	19377.85
2414.37216	19368.85
2417.16446	19361.85
2419.955	19316.35
2422.74378	19302.25
2425.5308	19303.75
2428.31606	19353.35
2431.09956	19277.55
2433.88131	19264.25
2436.6613	19248.95
2439.43954	19263.15
2442.21603	19237.05
2444.99077	19221.65
2447.76377	19262.35
2450.53501	19209.95
2453.30451	19224.95
2456.07226	19186.55
2458.83827	19172.05
2461.60254	19169.65
2464.36507	19141.85
2467.12586	19166.45
2469.88492	19176.15
2472.64224	19156.95
2475.39782	19166.35
2478.15167	19172.35
2480.90379	19194.05
2483.65417	19185.15
2486.40283	19201.25
2489.14976	19199.15
2491.89497	19196.85
2494.63845	19232.75
2497.3802	19222.45
2500.12024	19208.95
2502.85855	19190.05
2505.59514	19196.45
2508.33002	19217.95
2511.06318	19184.45
2513.79462	19171.35
2516.52435	19132.05
2519.25237	19115.55
2521.97867	19100.85
2524.70327	19136.45
2527.42616	19055.25
2530.14734	19067.45
2532.86681	19056.65
2535.58458	19053.65
2538.30065	19033.75
2541.01501	19041.65
2543.72768	18993.75
2546.43864	18999.75
2549.14791	18934.55
2551.85548	18946.25
2554.56136	18940.65
2557.26554	18926.85
2559.96803	18901.85
2562.66883	18854.25
2565.36794	18870.05
2568.06536	18875.15
2570.7611	18839.95
2573.45514	18858.35
2576.14751	18874.75
2578.83819	18809.55
2581.52719	18788.65
2584.21451	18798.25
2586.90015	18777.55
2589.58411	18768.25
2592.2664	18759.25
2594.94701	18722.25
2597.62594	18738.85
2600.30321	18719.65
2602.9788	18712.05
2605.65273	18705.25
2608.32498	18711.15
2610.99557	18702.45
2613.66449	18697.75
2616.33175	18696.75
2618.99734	18698.45
2621.66128	18693.85
2624.32355	18682.55
2626.98416	18698.05
2629.64311	18679.15
2632.30041	18716.15
2634.95605	18663.85
2637.61004	18665.05
2640.26238	18631.85
2642.91306	18634.55
2645.56209	18635.35
2648.20948	18623.75
2650.85521	18618.75
2653.4993	18615.35
2656.14175	18619.25
2658.78255	18635.85
2661.42171	18621.55
2664.05923	18626.45
2666.6951	18640.95
2669.32934	18660.25
2671.96194	18660.85
2674.59291	18686.65
2677.22224	18666.65
2679.84993	18685.15
2682.476	18675.25
2685.10043	18705.65
2687.72324	18651.15
2690.34441	18665.35
2692.96396	18682.45
2695.58188	18667.15
2698.19818	18639.45
2700.81285	18718.05
2703.4259	18680.35
2706.03733	18666.45
2708.64714	18656.35
2711.25533	18681.45
2713.86191	18678.85
2716.46687	18701.35
2719.07021	18704.05
2721.67194	18703.15
2724.27206	18681.35
2726.87057	18716.95
2729.46747	18685.55
2732.06276	18705.55
2734.65644	18699.25
2737.24852	18691.15
2739.83899	18731.55
2742.42786	18723.35
2745.01513	18682.75
2747.60079	18681.65
2750.18486	18714.05
2752.76733	18725.65
2755.3482	18676.35
2757.92747	18707.15
2760.50515	18666.85
2763.08123	18672.55
2765.65573	18614.35
2768.22863	18630.25
2770.79994	18608.05
2773.36967	18639.55
2775.9378	18634.55
2778.50435	18610.05
2781.06932	18586.95
2783.6327	18637.95
2786.1945	18629.35
2788.75471	18552.15
2791.31335	18513.85
2793.87041	18500.35
2796.42589	18438.95
2798.97979	18476.25
2801.53212	18426.85
2804.08288	18414.65
2806.63206	18357.75
2809.17967	18319.05
2811.72571	18311.05
2814.27018	18299.05
2816.81308	18307.55
2819.35442	18302.85
2821.89419	18280.25
2824.43239	18242.45
2826.96904	18248.85
2829.50412	18237.95
2832.03763	18204.95
2834.56959	18190.15
2837.1	18140.75
2839.62884	18158.35
2842.15613	18139.55
2844.68186	18120.25
2847.20604	18135.75
2849.72867	18137.25
2852.24974	18118.25
2854.76927	18111.95
2857.28724	18077.05
2859.80367	18046.75
2862.31855	18027.75
2864.83189	18025.75
2867.34368	18008.35
2869.85393	18023.85
2872.36264	18038.65
2874.8698	18012.25
2877.37543	17993.55
2879.87952	18022.75
2882.38207	17993.55
2884.88308	17980.95
2887.38256	18003.85
2889.88051	18009.65
2892.37692	18027.05
2894.8718	17993.25
2897.36515	18040.55
2899.85698	18029.95
2902.34727	18096.85
2904.83604	18098.15
2907.32328	18091.45
2909.809	18071.75
2912.29319	18145.25
2914.77587	18122.65
2917.25702	18102.35
2919.73665	18109.85
2922.21476	18099.55
2924.69136	18042.25
2927.16644	18091.25
2929.64	18064.85
2932.11205	18045.05
2934.58258	17966.75
2937.05161	18014.95
2939.51912	18033.45
2941.98513	17977.95
2944.44962	17973.05
2946.91261	17921.85
2949.37409	17968.05
2951.83407	17945.65
2954.29254	17936.65
2956.74951	17916.95
2959.20498	17922.45
2961.65895	17886.85
2964.11142	17869.05
2966.56239	17845.85
2969.01186	17818.35
2971.45984	17786.15
2973.90632	17712.25
2976.35131	17684.15
2978.7948	17673.05
2981.23681	17648.05
2983.67732	17600.75
2986.11635	17546.25
2988.55388	17530.85
2990.98993	17508.25
2993.4245	17456.45
2995.85758	17463.65
2998.28917	17408.15
3000.71928	17374.75
3003.14791	17368.85
3005.57506	17336.45
3008.00073	17290.45
3010.42493	17290.15
3012.84764	17247.35
3015.26888	17220.15
3017.68865	17213.45
3020.10694	17191.65
3022.52376	17171.85
3024.9391	17130.25
3027.35298	17081.45
3029.76539	17058.55
3032.17632	17050.85
3034.5858	17035.25
3036.9938	17013.85
3039.40034	17000.15
3041.80542	17029.45
3044.20903	17004.25
3046.61118	16970.65
3049.01187	16925.05
3051.4111	16926.75
3053.80888	16873.95
3056.20519	16847.75
3058.60005	16805.25
3060.99345	16757.45
3063.3854	16776.05
3065.7759	16723.35
3068.16494	16697.05
3070.55254	16649.65
3072.93868	16592.75
3075.32338	16548.65
3077.70662	16568.15
3080.08842	16512.35
3082.46878	16517.55
3084.84769	16446.95
3087.22515	16465.05
3089.60118	16435.15
3091.97576	16411.15
3094.3489	16433.45
3096.72061	16386.15
3099.09087	16404.75
3101.4597	16366.05
3103.82709	16393.65
3106.19305	16319.15
3108.55757	16295.85
3110.92066	16270.45
3113.28232	16256.85
3115.64255	16213.55
3118.00134	16163.15
3120.35871	16143.65
3122.71466	16132.65
3125.06917	16079.45
3127.42226	16088.35
3129.77393	16087.25
3132.12417	16071.35
3134.47299	16085.65
3136.82039	16064.05
3139.16636	16081.75
3141.51092	16053.95
3143.85406	16075.55
3146.19579	16049.65
3148.53609	16037.05
3150.87499	16054.05
3153.21246	16044.55
3155.54853	16072.05
3157.88318	16071.05
3160.21642	16070.25
3162.54826	16028.55
3164.87868	16041.45
3167.2077	16043.95
3169.5353	16024.05
3171.86151	16022.05
3174.18631	16011.25
3176.5097	15959.45
3178.83169	15966.95
3181.15228	15953.05
3183.47147	15898.95
3185.78926	15889.25
3188.10565	15862.15
3190.42065	15902.35
3192.73424	15887.05
3195.04645	15860.65
3197.35725	15869.85
3199.66667	15848.55
3201.97469	15891.45
3204.28132	15874.35
3206.58656	15914.25
3208.8904	15892.65
3211.19287	15896.65
3213.49394	15895.35
3215.79363	15886.05
3218.09193	15892.05
3220.38884	15888.25
3222.68438	15880.95
3224.97853	15866.35
3227.2713	15864.65
3229.56269	15845.35
3231.8527	15852.85
3234.14133	15789.55
3236.42858	15775.95
3238.71446	15745.15
3240.99896	15720.35
3243.28209	15727.85
3245.56384	15697.15
3247.84423	15721.45
3250.12324	15712.95
3252.40088	15691.65
3254.67715	15683.75
3256.95205	15625.55
3259.22558	15623.05
3261.49775	15616.85
3263.76855	15602.15
3266.03799	15550.35
3268.30606	15549.25
3270.57277	15531.05
3272.83812	15512.25
3275.10211	15463.85
3277.36474	15470.75
3279.62601	15444.85
3281.88593	15454.15
3284.14448	15457.95
3286.40168	15433.45
3288.65753	15402.55
3290.91202	15381.15
3293.16516	15346.55
3295.41695	15304.05
3297.66738	15234.55
3299.91647	15160.85
3302.16421	15047.85
3304.4106	15017.15
3306.65564	14941.05
3308.89933	14830.85
3311.14169	14734.65
3313.38269	14640.75
3315.62236	14568.95
3317.86068	14456.75
3320.09766	14321.15
3322.3333	14186.35
3324.5676	14175.45
3326.80056	13945.15
3329.03219	13892.85
3331.26248	4.05
3333.49143	0.45
3335.71905	0.45
