Data from AgNPs_FTO_APTES_UA_10uM_R6G_10uM_NaF_0.1M_Addition_RamanShift__25__13-39-07-329.txt Node

Date: Fri Dec 17 13:39:07 GMT 2021
User: TCL
Spectrometer: QEP01345
Trigger mode: 4
Integration Time (sec): 7.000000E0
Scans to average: 10
Electric dark correction enabled: true
Nonlinearity correction enabled: false
Boxcar width: 0
XAxis mode: Raman Shifts
Number of Pixels in Spectrum: 1044
>>>>>Begin Spectral Data<<<<<
46.04893	0.15
50.45542	-1.45
54.85868	-1.95
59.25871	0.85
63.6555	82.05
68.04907	85.25
72.43941	91.45
76.82654	92.85
81.21044	93.45
85.59113	98.25
89.96862	102.25
94.34289	107.55
98.71396	110.55
103.08183	109.45
107.4465	113.55
111.80798	117.65
116.16626	118.35
120.52136	122.55
124.87327	129.55
129.222	132.85
133.56755	141.85
137.90993	151.05
142.24913	165.55
146.58517	183.55
150.91804	206.05
155.24774	244.55
159.57429	303.45
163.89768	378.85
168.21792	495.35
172.53501	672.35
176.84895	930.45
181.15975	1294.45
185.46741	1815.15
189.77193	2506.95
194.07331	3340.75
198.37157	4314.75
202.6667	5341.75
206.9587	6352.75
211.24758	7339.95
215.53334	8327.65
219.81599	9427.15
224.09553	10633.15
228.37195	11969.55
232.64527	13443.35
236.91549	15007.35
241.18261	16550.85
245.44663	17977.65
249.70755	19215.75
253.96539	20249.05
258.22014	21212.95
262.4718	21989.25
266.72039	22612.85
270.96589	22950.25
275.20832	23002.65
279.44768	22808.55
283.68397	22586.85
287.91719	22308.45
292.14735	22221.95
296.37445	22272.15
300.59849	22487.75
304.81948	22874.65
309.03742	23048.95
313.25231	22896.55
317.46415	22306.75
321.67296	21445.25
325.87872	20767.05
330.08145	20491.95
334.28114	20552.15
338.47781	20827.95
342.67145	21218.75
346.86207	21771.75
351.04966	22523.25
355.23424	23319.25
359.4158	24044.75
363.59435	24522.85
367.76989	24800.05
371.94243	24997.05
376.11196	25080.05
380.27849	25162.75
384.44203	25244.05
388.60257	25278.55
392.76012	25336.05
396.91468	25618.15
401.06626	26080.05
405.21485	26519.75
409.36047	26357.95
413.50311	25812.25
417.64277	25308.55
421.77947	25031.25
425.9132	25030.55
430.04396	25102.35
434.17176	25284.25
438.2966	25547.65
442.41849	26006.25
446.53742	26627.05
450.6534	27312.85
454.76644	27796.65
458.87653	28110.85
462.98368	28015.25
467.08789	27672.55
471.18916	27228.85
475.2875	26714.75
479.38291	26318.65
483.4754	26088.15
487.56496	25886.05
491.6516	25712.05
495.73531	25575.05
499.81612	25555.15
503.89401	25720.15
507.96899	25848.15
512.04106	26043.25
516.11023	26273.95
520.1765	26374.35
524.23987	26389.65
528.30034	26187.35
532.35792	25895.85
536.41261	25580.05
540.46441	25378.65
544.51333	25252.55
548.55936	25368.65
552.60252	25681.35
556.64279	26028.35
560.6802	26204.35
564.71473	26353.85
568.7464	26752.35
572.7752	27115.55
576.80114	27080.15
580.82422	26934.35
584.84444	27041.35
588.86181	27134.45
592.87633	27348.95
596.888	27638.75
600.89682	28181.25
604.9028	29963.25
608.90594	34125.45
612.90624	39097.75
616.90371	37825.45
620.89834	30979.05
624.89015	27794.05
628.87913	27179.55
632.86528	27189.85
636.84862	27217.75
640.82913	27005.55
644.80683	26335.45
648.78172	25911.55
652.75379	25878.55
656.72306	26360.85
660.68952	27052.95
664.65319	27004.15
668.61405	26408.95
672.57211	26165.75
676.52738	26206.35
680.47986	26230.45
684.42955	26157.15
688.37646	26151.65
692.32058	26237.55
696.26192	26379.75
700.20048	26625.25
704.13626	26798.95
708.06928	26720.65
711.99952	26505.95
715.927	26388.25
719.85171	26460.75
723.77365	26403.55
727.69284	26319.75
731.60928	26179.05
735.52295	26184.05
739.43388	26293.15
743.34206	26406.25
747.24749	26556.65
751.15017	26717.25
755.05012	27102.15
758.94733	27756.35
762.8418	29077.75
766.73354	31303.65
770.62254	33715.15
774.50882	34975.45
778.39237	33957.45
782.27321	31355.55
786.15132	28958.15
790.02671	27532.45
793.89938	26960.15
797.76935	26667.85
801.6366	26592.75
805.50115	26543.25
809.36299	26493.15
813.22213	26423.45
817.07857	26411.75
820.93231	26402.55
824.78336	26425.85
828.63172	26515.85
832.47738	26553.45
836.32036	26603.65
840.16066	26671.75
843.99827	26685.95
847.8332	26682.25
851.66546	26638.65
855.49504	26560.65
859.32195	26552.95
863.1462	26523.15
866.96777	26490.25
870.78668	26461.55
874.60293	26489.25
878.41652	26559.25
882.22745	26657.25
886.03573	26738.25
889.84136	26710.75
893.64433	26631.85
897.44466	26485.85
901.24235	26487.35
905.0374	26451.95
908.8298	26421.25
912.61957	26413.95
916.40671	26550.45
920.19121	26771.75
923.97308	26987.25
927.75233	27176.75
931.52895	27291.35
935.30295	27097.95
939.07433	26730.95
942.84309	26426.05
946.60924	26306.75
950.37278	26196.95
954.13371	26073.35
957.89203	25901.95
961.64774	25850.15
965.40086	25738.15
969.15137	25641.15
972.89929	25600.85
976.64461	25606.85
980.38733	25670.85
984.12747	25780.05
987.86502	26001.45
991.59999	26230.05
995.33237	26617.65
999.06217	27251.75
1002.78939	28031.15
1006.51404	28633.75
1010.23611	29091.95
1013.95561	29454.95
1017.67255	29600.05
1021.38692	29457.45
1025.09872	29377.65
1028.80796	29521.85
1032.51465	30054.95
1036.21877	30517.15
1039.92035	30516.45
1043.61937	30077.35
1047.31584	29435.75
1051.00976	28703.75
1054.70114	28322.05
1058.38998	28209.05
1062.07627	28281.35
1065.76003	28417.45
1069.44126	28603.45
1073.11995	28799.15
1076.79611	28962.05
1080.46974	29109.85
1084.14085	29319.25
1087.80943	29553.95
1091.47549	29622.15
1095.13903	29356.85
1098.80005	28869.25
1102.45857	28439.85
1106.11456	28210.55
1109.76805	28315.75
1113.41903	28567.45
1117.06751	28946.15
1120.71348	29399.95
1124.35696	29868.45
1127.99793	30345.35
1131.63641	30469.25
1135.2724	30063.05
1138.90589	29522.35
1142.5369	29129.05
1146.16542	28851.75
1149.79145	28594.55
1153.415	28636.35
1157.03607	28840.85
1160.65467	29190.85
1164.27079	29816.05
1167.88443	30712.75
1171.49561	32099.55
1175.10432	34159.55
1178.71056	36894.55
1182.31434	39565.05
1185.91565	40925.15
1189.51451	41008.65
1193.11091	39659.25
1196.70485	37720.55
1200.29634	36048.25
1203.88538	34737.75
1207.47197	33579.15
1211.05612	32690.45
1214.63782	32205.05
1218.21708	32088.25
1221.79391	32244.45
1225.36829	32463.75
1228.94024	32617.75
1232.50976	32728.05
1236.07685	32736.75
1239.6415	32704.25
1243.20374	32625.35
1246.76355	32690.75
1250.32093	32970.85
1253.8759	33495.95
1257.42845	34315.05
1260.97859	34986.25
1264.52631	35555.75
1268.07163	36184.45
1271.61453	36914.05
1275.15503	37697.55
1278.69312	38493.75
1282.22882	39133.85
1285.76211	39748.55
1289.29301	40391.75
1292.82151	41054.35
1296.34761	41784.25
1299.87133	43003.25
1303.39266	45000.45
1306.9116	47837.25
1310.42815	51034.35
1313.94233	53223.75
1317.45412	53228.95
1320.96354	51688.85
1324.47058	49733.55
1327.97525	47963.75
1331.47754	46721.55
1334.97747	46486.55
1338.47502	46923.85
1341.97022	47616.75
1345.46305	48142.75
1348.95352	48431.05
1352.44163	49061.05
1355.92738	50645.95
1359.41078	53680.25
1362.89183	56938.25
1366.37053	56180.55
1369.84688	50945.55
1373.32088	45400.45
1376.79254	41694.95
1380.26186	39852.85
1383.72883	38864.65
1387.19347	38121.05
1390.65578	37338.95
1394.11575	36962.25
1397.57339	36976.75
1401.0287	37368.05
1404.48168	38009.65
1407.93234	38816.65
1411.38068	39496.25
1414.82669	39703.45
1418.27039	39164.95
1421.71177	38370.35
1425.15083	37663.85
1428.58758	37270.15
1432.02203	37168.75
1435.45416	37252.55
1438.88399	37337.85
1442.31151	37415.75
1445.73673	37570.25
1449.15965	37776.95
1452.58027	37792.35
1455.9986	37664.55
1459.41463	37630.05
1462.82837	37855.35
1466.23982	38407.15
1469.64898	39118.45
1473.05586	39532.85
1476.46045	39806.15
1479.86276	40194.25
1483.26279	40616.75
1486.66054	41143.95
1490.05602	41800.35
1493.44922	42610.85
1496.84016	43623.25
1500.22882	44869.65
1503.61521	46676.25
1506.99934	48852.25
1510.38121	51010.95
1513.76081	51767.65
1517.13816	50323.05
1520.51324	47240.45
1523.88607	44083.15
1527.25665	41812.45
1530.62498	40484.75
1533.99105	39705.65
1537.35488	39217.45
1540.71647	38990.35
1544.07581	38880.05
1547.4329	38795.75
1550.78776	38854.75
1554.14038	38836.55
1557.49077	38997.65
1560.83892	39226.35
1564.18484	39329.05
1567.52853	39415.25
1570.86999	39460.05
1574.20922	39552.05
1577.54624	39541.65
1580.88103	39113.65
1584.2136	38578.45
1587.54395	38639.55
1590.87208	39729.05
1594.19801	41627.95
1597.52172	43788.65
1600.84321	44878.65
1604.16251	44015.05
1607.47959	41832.85
1610.79447	39327.35
1614.10715	36920.35
1617.41763	34959.75
1620.7259	33717.75
1624.03199	33144.55
1627.33587	33242.25
1630.63757	33968.25
1633.93707	35336.25
1637.23439	37149.85
1640.52951	39224.65
1643.82246	41401.95
1647.11321	42946.95
1650.40179	43515.85
1653.68819	41896.85
1656.97241	38413.95
1660.25446	34648.35
1663.53433	31991.75
1666.81203	30347.25
1670.08756	29264.25
1673.36092	28570.05
1676.63211	28172.35
1679.90115	27836.35
1683.16801	27538.65
1686.43272	27414.25
1689.69527	27259.25
1692.95567	27173.85
1696.2139	27139.75
1699.46999	27096.55
1702.72392	27078.65
1705.97571	27043.55
1709.22535	26977.35
1712.47284	27006.65
1715.71819	26987.15
1718.96139	26986.55
1722.20246	26939.15
1725.44139	26862.45
1728.67818	26786.95
1731.91284	26698.95
1735.14537	26608.65
1738.37576	26482.15
1741.60403	26428.15
1744.83017	26389.35
1748.05418	26363.95
1751.27607	26337.55
1754.49584	26280.65
1757.71349	26301.85
1760.92903	26292.85
1764.14244	26311.45
1767.35375	26285.45
1770.56294	26286.75
1773.77002	26260.45
1776.97499	26282.95
1780.17785	26208.65
1783.37861	26194.35
1786.57727	26193.75
1789.77382	26176.15
1792.96828	26143.15
1796.16064	26133.45
1799.3509	26144.55
1802.53907	26089.05
1805.72514	26041.05
1808.90913	26055.05
1812.09102	26010.05
1815.27083	25972.65
1818.44856	25906.85
1821.6242	25935.25
1824.79776	25908.85
1827.96924	25890.35
1831.13864	25845.15
1834.30597	25871.05
1837.47122	25903.95
1840.6344	25937.05
1843.7955	25891.45
1846.95454	25897.65
1850.11151	25931.95
1853.26642	25935.15
1856.41926	25967.65
1859.57004	25989.25
1862.71876	25962.95
1865.86542	26026.75
1869.01003	25982.65
1872.15258	25989.65
1875.29308	26003.15
1878.43152	26025.85
1881.56792	26037.25
1884.70227	26080.15
1887.83457	26085.65
1890.96482	26064.35
1894.09304	26060.45
1897.21921	26084.45
1900.34335	26133.75
1903.46544	26151.85
1906.58551	26129.35
1909.70353	26157.35
1912.81953	26093.85
1915.93349	26087.65
1919.04543	26049.25
1922.15534	26037.75
1925.26322	25985.95
1928.36908	25956.75
1931.47292	25880.75
1934.57473	25811.45
1937.67453	25712.35
1940.77232	25602.45
1943.86808	25533.85
1946.96184	25465.05
1950.05358	25372.95
1953.14331	25307.45
1956.23103	25212.05
1959.31675	25134.05
1962.40046	25094.15
1965.48217	25008.25
1968.56188	24980.95
1971.63959	24894.15
1974.7153	24819.95
1977.78901	24739.35
1980.86073	24687.55
1983.93046	24592.75
1986.99819	24559.35
1990.06394	24467.55
1993.1277	24398.05
1996.18947	24313.15
1999.24925	24269.05
2002.30706	24207.65
2005.36288	24157.65
2008.41672	24100.25
2011.46859	24088.05
2014.51848	23993.85
2017.56639	23964.75
2020.61233	23914.25
2023.6563	23883.55
2026.6983	23823.45
2029.73833	23752.45
2032.7764	23748.05
2035.8125	23701.15
2038.84664	23644.35
2041.87881	23668.45
2044.90903	23622.25
2047.93729	23573.15
2050.96359	23556.85
2053.98794	23498.05
2057.01034	23499.25
2060.03078	23491.75
2063.04927	23466.15
2066.06582	23445.85
2069.08042	23473.65
2072.09307	23454.05
2075.10378	23405.25
2078.11255	23391.15
2081.11938	23411.15
2084.12426	23358.25
2087.12722	23394.95
2090.12824	23370.75
2093.12732	23417.45
2096.12447	23423.55
2099.11969	23415.65
2102.11299	23416.85
2105.10435	23426.55
2108.09379	23478.95
2111.08131	23453.15
2114.0669	23471.65
2117.05057	23522.75
2120.03233	23518.05
2123.01216	23526.75
2125.99008	23557.05
2128.96609	23586.65
2131.94018	23626.95
2134.91236	23630.15
2137.88263	23682.35
2140.851	23665.15
2143.81746	23714.75
2146.78201	23747.95
2149.74466	23733.25
2152.7054	23730.65
2155.66425	23737.75
2158.6212	23790.35
2161.57625	23752.65
2164.52941	23749.75
2167.48067	23732.75
2170.43004	23730.95
2173.37752	23741.15
2176.32311	23728.25
2179.26681	23736.55
2182.20863	23751.65
2185.14856	23755.65
2188.08661	23772.65
2191.02278	23783.15
2193.95707	23719.95
2196.88948	23719.65
2199.82001	23812.25
2202.74867	23743.05
2205.67545	23742.55
2208.60037	23779.75
2211.52341	23717.15
2214.44458	23722.85
2217.36388	23648.45
2220.28132	23663.95
2223.1969	23618.95
2226.11061	23572.35
2229.02246	23544.05
2231.93245	23540.45
2234.84058	23482.85
2237.74686	23416.25
2240.65128	23403.85
2243.55385	23413.75
2246.45456	23336.25
2249.35343	23337.25
2252.25044	23325.45
2255.14561	23293.15
2258.03893	23306.75
2260.93041	23266.05
2263.82004	23223.35
2266.70783	23164.15
2269.59378	23129.65
2272.4779	23056.15
2275.36017	23008.35
2278.24061	22994.65
2281.11922	22930.65
2283.996	22890.75
2286.87094	22892.95
2289.74405	22858.75
2292.61534	22844.15
2295.4848	22852.15
2298.35243	22841.85
2301.21824	22794.95
2304.08223	22829.15
2306.94439	22848.85
2309.80474	22865.95
2312.66327	22869.05
2315.51999	22844.85
2318.37489	22877.55
2321.22797	22837.45
2324.07925	22813.35
2326.92871	22833.95
2329.77637	22770.35
2332.62222	22754.55
2335.46626	22722.45
2338.3085	22738.05
2341.14893	22750.65
2343.98756	22769.65
2346.8244	22742.95
2349.65943	22780.35
2352.49267	22730.65
2355.32411	22772.35
2358.15376	22725.45
2360.98161	22683.45
2363.80768	22650.95
2366.63195	22641.65
2369.45444	22603.15
2372.27514	22597.75
2375.09405	22555.75
2377.91118	22504.75
2380.72652	22446.95
2383.54009	22404.85
2386.35187	22388.35
2389.16188	22333.25
2391.97011	22301.35
2394.77657	22309.95
2397.58125	22218.45
2400.38416	22183.85
2403.18529	22155.75
2405.98466	22122.95
2408.78226	22102.95
2411.57809	22091.35
2414.37216	22041.45
2417.16446	22013.35
2419.955	21995.45
2422.74378	21979.05
2425.5308	21961.55
2428.31606	21912.55
2431.09956	21954.15
2433.88131	21898.15
2436.6613	21877.65
2439.43954	21891.65
2442.21603	21857.85
2444.99077	21859.45
2447.76377	21830.65
2450.53501	21837.15
2453.30451	21821.85
2456.07226	21817.85
2458.83827	21789.15
2461.60254	21793.75
2464.36507	21779.75
2467.12586	21778.75
2469.88492	21766.55
2472.64224	21732.85
2475.39782	21778.35
2478.15167	21807.65
2480.90379	21781.55
2483.65417	21806.55
2486.40283	21774.55
2489.14976	21851.35
2491.89497	21778.95
2494.63845	21824.15
2497.3802	21810.45
2500.12024	21803.05
2502.85855	21771.85
2505.59514	21797.35
2508.33002	21815.65
2511.06318	21742.15
2513.79462	21730.45
2516.52435	21692.75
2519.25237	21692.15
2521.97867	21650.05
2524.70327	21645.85
2527.42616	21589.45
2530.14734	21594.05
2532.86681	21562.85
2535.58458	21558.35
2538.30065	21549.85
2541.01501	21535.95
2543.72768	21495.35
2546.43864	21507.25
2549.14791	21426.45
2551.85548	21426.65
2554.56136	21381.05
2557.26554	21362.75
2559.96803	21377.05
2562.66883	21353.65
2565.36794	21322.75
2568.06536	21304.25
2570.7611	21288.65
2573.45514	21278.95
2576.14751	21261.65
2578.83819	21218.15
2581.52719	21235.65
2584.21451	21210.65
2586.90015	21202.85
2589.58411	21187.75
2592.2664	21201.95
2594.94701	21152.75
2597.62594	21174.75
2600.30321	21101.45
2602.9788	21099.65
2605.65273	21066.25
2608.32498	21089.85
2610.99557	21074.55
2613.66449	21085.85
2616.33175	21064.75
2618.99734	21081.95
2621.66128	21059.55
2624.32355	21032.65
2626.98416	21082.25
2629.64311	21072.85
2632.30041	21040.15
2634.95605	21059.35
2637.61004	21017.65
2640.26238	20979.75
2642.91306	20976.95
2645.56209	20965.25
2648.20948	20939.25
2650.85521	20935.55
2653.4993	20890.55
2656.14175	20865.55
2658.78255	20890.55
2661.42171	20906.85
2664.05923	20939.95
2666.6951	20955.85
2669.32934	20937.15
2671.96194	20959.05
2674.59291	20937.95
2677.22224	20945.65
2679.84993	21007.35
2682.476	20977.25
2685.10043	20996.15
2687.72324	20957.55
2690.34441	20989.75
2692.96396	20959.55
2695.58188	20987.45
2698.19818	20945.95
2700.81285	20954.95
2703.4259	20957.65
2706.03733	20975.15
2708.64714	21006.85
2711.25533	20993.55
2713.86191	20976.85
2716.46687	21005.65
2719.07021	20985.75
2721.67194	20996.25
2724.27206	20948.05
2726.87057	20998.35
2729.46747	21019.05
2732.06276	21003.85
2734.65644	21012.65
2737.24852	21012.25
2739.83899	20987.05
2742.42786	20986.25
2745.01513	20922.45
2747.60079	20949.75
2750.18486	20964.75
2752.76733	20946.55
2755.3482	20924.45
2757.92747	20954.55
2760.50515	20918.65
2763.08123	20922.65
2765.65573	20901.95
2768.22863	20895.35
2770.79994	20853.45
2773.36967	20802.35
2775.9378	20824.95
2778.50435	20819.85
2781.06932	20792.25
2783.6327	20768.65
2786.1945	20786.95
2788.75471	20760.35
2791.31335	20694.25
2793.87041	20639.35
2796.42589	20624.25
2798.97979	20582.05
2801.53212	20564.75
2804.08288	20547.05
2806.63206	20473.15
2809.17967	20478.95
2811.72571	20473.85
2814.27018	20469.85
2816.81308	20438.15
2819.35442	20398.15
2821.89419	20380.45
2824.43239	20387.75
2826.96904	20362.45
2829.50412	20390.15
2832.03763	20328.95
2834.56959	20311.55
2837.1	20259.05
2839.62884	20300.05
2842.15613	20275.55
2844.68186	20309.15
2847.20604	20301.15
2849.72867	20336.75
2852.24974	20325.05
2854.76927	20301.05
2857.28724	20259.25
2859.80367	20244.85
2862.31855	20215.55
2864.83189	20204.25
2867.34368	20171.45
2869.85393	20162.35
2872.36264	20159.95
2874.8698	20151.95
2877.37543	20139.65
2879.87952	20161.55
2882.38207	20202.55
2884.88308	20194.45
2887.38256	20190.05
2889.88051	20196.55
2892.37692	20196.45
2894.8718	20175.25
2897.36515	20205.85
2899.85698	20204.55
2902.34727	20262.75
2904.83604	20243.65
2907.32328	20282.15
2909.809	20253.95
2912.29319	20279.75
2914.77587	20252.65
2917.25702	20267.95
2919.73665	20224.75
2922.21476	20209.65
2924.69136	20192.65
2927.16644	20226.45
2929.64	20204.25
2932.11205	20157.05
2934.58258	20087.95
2937.05161	20131.15
2939.51912	20135.95
2941.98513	20105.55
2944.44962	20089.15
2946.91261	20016.15
2949.37409	20093.05
2951.83407	20052.15
2954.29254	20023.65
2956.74951	19997.35
2959.20498	19966.05
2961.65895	19945.35
2964.11142	19929.95
2966.56239	19887.75
2969.01186	19912.95
2971.45984	19830.75
2973.90632	19812.25
2976.35131	19770.75
2978.7948	19732.55
2981.23681	19683.35
2983.67732	19645.05
2986.11635	19624.45
2988.55388	19575.45
2990.98993	19537.05
2993.4245	19514.55
2995.85758	19522.35
2998.28917	19431.85
3000.71928	19458.35
3003.14791	19412.05
3005.57506	19396.55
3008.00073	19339.05
3010.42493	19308.45
3012.84764	19283.35
3015.26888	19280.85
3017.68865	19264.25
3020.10694	19267.25
3022.52376	19189.25
3024.9391	19180.55
3027.35298	19138.95
3029.76539	19059.05
3032.17632	19070.95
3034.5858	19033.65
3036.9938	19019.55
3039.40034	18990.25
3041.80542	19006.95
3044.20903	18936.55
3046.61118	18974.55
3049.01187	18903.35
3051.4111	18915.25
3053.80888	18831.05
3056.20519	18813.85
3058.60005	18716.15
3060.99345	18779.75
3063.3854	18728.15
3065.7759	18651.35
3068.16494	18619.55
3070.55254	18509.65
3072.93868	18541.15
3075.32338	18462.65
3077.70662	18462.75
3080.08842	18409.95
3082.46878	18395.45
3084.84769	18403.05
3087.22515	18355.85
3089.60118	18345.55
3091.97576	18349.45
3094.3489	18368.35
3096.72061	18315.85
3099.09087	18319.65
3101.4597	18316.15
3103.82709	18305.15
3106.19305	18286.35
3108.55757	18217.35
3110.92066	18181.85
3113.28232	18187.65
3115.64255	18134.75
3118.00134	18086.65
3120.35871	18034.45
3122.71466	18026.05
3125.06917	18029.05
3127.42226	17946.05
3129.77393	17987.85
3132.12417	17958.15
3134.47299	17964.85
3136.82039	17942.25
3139.16636	17988.75
3141.51092	17965.05
3143.85406	17962.95
3146.19579	17953.45
3148.53609	17971.15
3150.87499	18016.85
3153.21246	17978.95
3155.54853	17995.95
3157.88318	17933.05
3160.21642	18002.65
3162.54826	17969.45
3164.87868	17918.25
3167.2077	17912.75
3169.5353	17941.65
3171.86151	17933.15
3174.18631	17900.05
3176.5097	17885.65
3178.83169	17826.95
3181.15228	17846.05
3183.47147	17789.15
3185.78926	17804.85
3188.10565	17772.05
3190.42065	17787.65
3192.73424	17821.15
3195.04645	17764.75
3197.35725	17778.65
3199.66667	17790.45
3201.97469	17821.05
3204.28132	17805.55
3206.58656	17821.65
3208.8904	17820.45
3211.19287	17832.55
3213.49394	17851.85
3215.79363	17812.25
3218.09193	17847.55
3220.38884	17815.75
3222.68438	17818.25
3224.97853	17792.95
3227.2713	17763.85
3229.56269	17732.15
3231.8527	17720.55
3234.14133	17729.15
3236.42858	17641.05
3238.71446	17642.65
3240.99896	17624.65
3243.28209	17652.75
3245.56384	17626.95
3247.84423	17639.15
3250.12324	17610.95
3252.40088	17577.95
3254.67715	17614.85
3256.95205	17563.35
3259.22558	17542.65
3261.49775	17527.35
3263.76855	17498.25
3266.03799	17477.75
3268.30606	17485.95
3270.57277	17454.55
3272.83812	17398.95
3275.10211	17372.85
3277.36474	17327.75
3279.62601	17340.45
3281.88593	17336.85
3284.14448	17342.55
3286.40168	17328.15
3288.65753	17291.65
3290.91202	17282.45
3293.16516	17228.75
3295.41695	17175.45
3297.66738	17079.55
3299.91647	16991.45
3302.16421	16904.85
3304.4106	16831.85
3306.65564	16762.85
3308.89933	16653.95
3311.14169	16571.65
3313.38269	16485.95
3315.62236	16430.95
3317.86068	16226.95
3320.09766	16086.45
3322.3333	15983.55
3324.5676	15956.35
3326.80056	15706.95
3329.03219	15632.75
3331.26248	3.75
3333.49143	0.15
3335.71905	0.05
