Data from AgNPs_FTO_APTES_UA_50uM_CRN_5uM_R6G_10uM_NaF_0.1M_Addition_RamanShift__14__12-48-54-825.txt Node

Date: Mon Feb 21 12:48:54 GMT 2022
User: TCL
Spectrometer: QEP01345
Trigger mode: 4
Integration Time (sec): 7.000000E0
Scans to average: 10
Electric dark correction enabled: true
Nonlinearity correction enabled: false
Boxcar width: 0
XAxis mode: Raman Shifts
Number of Pixels in Spectrum: 1044
>>>>>Begin Spectral Data<<<<<
46.04893	0.05
50.45542	-0.85
54.85868	-0.85
59.25871	-0.35
63.6555	42.35
68.04907	48.15
72.43941	50.15
76.82654	54.85
81.21044	56.95
85.59113	60.65
89.96862	61.05
94.34289	64.15
98.71396	61.85
103.08183	69.85
107.4465	68.75
111.80798	68.25
116.16626	67.05
120.52136	68.75
124.87327	76.45
129.222	75.65
133.56755	71.95
137.90993	83.75
142.24913	88.75
146.58517	100.35
150.91804	108.45
155.24774	124.75
159.57429	154.55
163.89768	193.45
168.21792	251.35
172.53501	334.25
176.84895	464.95
181.15975	642.65
185.46741	909.35
189.77193	1256.45
194.07331	1682.85
198.37157	2173.15
202.6667	2693.05
206.9587	3212.05
211.24758	3701.25
215.53334	4221.85
219.81599	4763.15
224.09553	5334.65
228.37195	5994.15
232.64527	6726.95
236.91549	7499.75
241.18261	8261.05
245.44663	9003.95
249.70755	9655.55
253.96539	10175.05
258.22014	10607.45
262.4718	10938.75
266.72039	11091.85
270.96589	11137.45
275.20832	11050.35
279.44768	10881.95
283.68397	10663.85
287.91719	10475.85
292.14735	10319.55
296.37445	10196.55
300.59849	10159.85
304.81948	10143.65
309.03742	10097.65
313.25231	9995.05
317.46415	9824.25
321.67296	9570.85
325.87872	9367.85
330.08145	9256.75
334.28114	9266.95
338.47781	9300.55
342.67145	9399.85
346.86207	9527.35
351.04966	9708.95
355.23424	9890.75
359.4158	10078.25
363.59435	10168.45
367.76989	10264.35
371.94243	10285.35
376.11196	10291.05
380.27849	10316.55
384.44203	10358.35
388.60257	10395.65
392.76012	10471.15
396.91468	10575.65
401.06626	10727.35
405.21485	10821.35
409.36047	10765.15
413.50311	10594.75
417.64277	10465.75
421.77947	10392.45
425.9132	10432.75
430.04396	10457.65
434.17176	10523.65
438.2966	10606.85
442.41849	10753.55
446.53742	10966.25
450.6534	11124.15
454.76644	11311.65
458.87653	11363.05
462.98368	11391.75
467.08789	11347.95
471.18916	11294.85
475.2875	11138.95
479.38291	11085.35
483.4754	11037.55
487.56496	10967.65
491.6516	10887.75
495.73531	10816.35
499.81612	10773.45
503.89401	10800.15
507.96899	10841.75
512.04106	10869.15
516.11023	10853.95
520.1765	10789.95
524.23987	10750.95
528.30034	10680.25
532.35792	10590.25
536.41261	10502.95
540.46441	10394.45
544.51333	10419.25
548.55936	10475.05
552.60252	10622.75
556.64279	10814.75
560.6802	10928.55
564.71473	11027.95
568.7464	11203.05
572.7752	11484.35
576.80114	11785.05
580.82422	12013.15
584.84444	12206.55
588.86181	12434.75
592.87633	12694.45
596.888	12751.05
600.89682	12618.05
604.9028	12676.55
608.90594	13525.35
612.90624	14490.55
616.90371	13719.85
620.89834	11792.35
624.89015	10900.35
628.87913	10775.75
632.86528	10899.45
636.84862	10978.45
640.82913	10839.95
644.80683	10589.95
648.78172	10408.35
652.75379	10370.15
656.72306	10466.95
660.68952	10653.45
664.65319	10674.25
668.61405	10529.85
672.57211	10500.35
676.52738	10555.05
680.47986	10609.45
684.42955	10638.95
688.37646	10649.35
692.32058	10695.05
696.26192	10733.05
700.20048	10771.55
704.13626	10790.35
708.06928	10757.55
711.99952	10680.85
715.927	10648.75
719.85171	10634.35
723.77365	10570.85
727.69284	10452.05
731.60928	10306.25
735.52295	10281.35
739.43388	10278.95
743.34206	10315.15
747.24749	10371.85
751.15017	10478.85
755.05012	10611.25
758.94733	10874.35
762.8418	11333.15
766.73354	12145.25
770.62254	12947.55
774.50882	13183.45
778.39237	12704.65
782.27321	11915.75
786.15132	11230.75
790.02671	10790.35
793.89938	10559.75
797.76935	10409.55
801.6366	10294.65
805.50115	10256.15
809.36299	10218.15
813.22213	10150.35
817.07857	10140.15
820.93231	10137.65
824.78336	10081.75
828.63172	10056.95
832.47738	10069.05
836.32036	10039.95
840.16066	10040.05
843.99827	10005.85
847.8332	10021.15
851.66546	10017.85
855.49504	10042.65
859.32195	10055.05
863.1462	10033.65
866.96777	10021.05
870.78668	10034.35
874.60293	10020.15
878.41652	10028.65
882.22745	10088.85
886.03573	10119.15
889.84136	10121.85
893.64433	10152.95
897.44466	10135.95
901.24235	10184.65
905.0374	10139.25
908.8298	10106.15
912.61957	10092.75
916.40671	10156.75
920.19121	10221.85
923.97308	10328.45
927.75233	10366.15
931.52895	10305.35
935.30295	10153.75
939.07433	9985.75
942.84309	9851.45
946.60924	9769.15
950.37278	9712.15
954.13371	9713.35
957.89203	9679.75
961.64774	9663.65
965.40086	9687.95
969.15137	9650.45
972.89929	9604.35
976.64461	9581.85
980.38733	9548.25
984.12747	9556.55
987.86502	9594.05
991.59999	9629.75
995.33237	9682.05
999.06217	9760.35
1002.78939	9889.85
1006.51404	10063.85
1010.23611	10213.55
1013.95561	10314.05
1017.67255	10361.85
1021.38692	10301.45
1025.09872	10162.65
1028.80796	10049.55
1032.51465	9962.65
1036.21877	9957.85
1039.92035	10005.15
1043.61937	10057.45
1047.31584	10099.85
1051.00976	10152.15
1054.70114	10183.35
1058.38998	10223.45
1062.07627	10286.55
1065.76003	10375.65
1069.44126	10491.95
1073.11995	10659.15
1076.79611	10790.05
1080.46974	10900.05
1084.14085	10924.15
1087.80943	11013.85
1091.47549	11117.85
1095.13903	11157.45
1098.80005	11068.65
1102.45857	10822.75
1106.11456	10631.05
1109.76805	10514.55
1113.41903	10521.55
1117.06751	10580.35
1120.71348	10687.45
1124.35696	10831.85
1127.99793	10980.15
1131.63641	11034.05
1135.2724	11021.95
1138.90589	10972.95
1142.5369	10916.85
1146.16542	10930.65
1149.79145	11006.95
1153.415	11059.25
1157.03607	11165.35
1160.65467	11335.35
1164.27079	11620.95
1167.88443	12047.95
1171.49561	12621.45
1175.10432	13398.75
1178.71056	14369.85
1182.31434	15224.75
1185.91565	15715.95
1189.51451	15773.35
1193.11091	15600.95
1196.70485	15116.05
1200.29634	14548.75
1203.88538	13962.75
1207.47197	13550.95
1211.05612	13205.15
1214.63782	12910.15
1218.21708	12694.25
1221.79391	12489.85
1225.36829	12400.95
1228.94024	12344.65
1232.50976	12272.25
1236.07685	12184.15
1239.6415	12076.75
1243.20374	12047.65
1246.76355	12059.15
1250.32093	12093.15
1253.8759	12254.05
1257.42845	12544.45
1260.97859	12882.55
1264.52631	13254.55
1268.07163	13610.15
1271.61453	13947.05
1275.15503	14258.55
1278.69312	14552.85
1282.22882	14891.95
1285.76211	15270.05
1289.29301	15748.65
1292.82151	16224.45
1296.34761	16803.05
1299.87133	17490.85
1303.39266	18187.75
1306.9116	18982.45
1310.42815	19644.95
1313.94233	19979.05
1317.45412	19858.15
1320.96354	19542.55
1324.47058	19222.65
1327.97525	18882.75
1331.47754	18710.95
1334.97747	18594.15
1338.47502	18576.45
1341.97022	18586.15
1345.46305	18720.35
1348.95352	18881.35
1352.44163	19021.75
1355.92738	19327.05
1359.41078	19952.85
1362.89183	20603.75
1366.37053	20496.35
1369.84688	19138.65
1373.32088	17422.55
1376.79254	16102.75
1380.26186	15411.35
1383.72883	15048.15
1387.19347	14804.35
1390.65578	14579.25
1394.11575	14416.65
1397.57339	14359.75
1401.0287	14352.85
1404.48168	14286.25
1407.93234	14207.65
1411.38068	13999.25
1414.82669	13726.25
1418.27039	13399.95
1421.71177	13099.85
1425.15083	12764.45
1428.58758	12605.15
1432.02203	12624.15
1435.45416	12775.85
1438.88399	12937.55
1442.31151	13063.95
1445.73673	13202.05
1449.15965	13349.85
1452.58027	13513.75
1455.9986	13585.55
1459.41463	13736.05
1462.82837	13932.45
1466.23982	14163.15
1469.64898	14327.45
1473.05586	14484.05
1476.46045	14521.95
1479.86276	14525.15
1483.26279	14614.05
1486.66054	14709.85
1490.05602	14967.95
1493.44922	15329.15
1496.84016	15837.65
1500.22882	16503.85
1503.61521	17271.55
1506.99934	18006.75
1510.38121	18522.65
1513.76081	18529.75
1517.13816	17999.95
1520.51324	17235.85
1523.88607	16567.15
1527.25665	16127.95
1530.62498	15794.75
1533.99105	15567.05
1537.35488	15242.25
1540.71647	14875.45
1544.07581	14480.85
1547.4329	14178.75
1550.78776	13964.55
1554.14038	13855.15
1557.49077	13861.45
1560.83892	13963.25
1564.18484	14093.45
1567.52853	14195.25
1570.86999	14385.15
1574.20922	14540.95
1577.54624	14653.55
1580.88103	14494.65
1584.2136	14357.45
1587.54395	14372.45
1590.87208	14654.75
1594.19801	15094.45
1597.52172	15600.65
1600.84321	15619.35
1604.16251	15131.45
1607.47959	14327.25
1610.79447	13505.65
1614.10715	12707.25
1617.41763	12020.05
1620.7259	11509.95
1624.03199	11226.25
1627.33587	11186.45
1630.63757	11411.95
1633.93707	11967.05
1637.23439	12838.55
1640.52951	14119.45
1643.82246	15694.25
1647.11321	17023.65
1650.40179	17470.45
1653.68819	16649.35
1656.97241	14869.85
1660.25446	13025.75
1663.53433	11601.55
1666.81203	10678.65
1670.08756	10102.25
1673.36092	9745.95
1676.63211	9547.25
1679.90115	9362.95
1683.16801	9231.25
1686.43272	9135.55
1689.69527	9003.25
1692.95567	8923.55
1696.2139	8778.75
1699.46999	8657.05
1702.72392	8619.05
1705.97571	8652.55
1709.22535	8714.65
1712.47284	8784.25
1715.71819	8795.65
1718.96139	8758.65
1722.20246	8733.85
1725.44139	8695.45
1728.67818	8645.35
1731.91284	8631.45
1735.14537	8543.55
1738.37576	8504.65
1741.60403	8478.35
1744.83017	8415.35
1748.05418	8362.45
1751.27607	8326.55
1754.49584	8277.25
1757.71349	8208.55
1760.92903	8147.05
1764.14244	8139.65
1767.35375	8151.75
1770.56294	8109.25
1773.77002	8118.75
1776.97499	8130.35
1780.17785	8189.85
1783.37861	8180.05
1786.57727	8216.05
1789.77382	8182.25
1792.96828	8179.65
1796.16064	8165.45
1799.3509	8146.15
1802.53907	8131.05
1805.72514	8115.65
1808.90913	8110.85
1812.09102	8077.65
1815.27083	8070.35
1818.44856	8058.85
1821.6242	8029.05
1824.79776	8061.75
1827.96924	8048.45
1831.13864	8039.75
1834.30597	8031.85
1837.47122	8039.35
1840.6344	8024.85
1843.7955	8038.55
1846.95454	8017.85
1850.11151	8039.85
1853.26642	8035.75
1856.41926	8034.45
1859.57004	8038.05
1862.71876	8025.05
1865.86542	7991.05
1869.01003	7966.05
1872.15258	7957.05
1875.29308	7952.55
1878.43152	7929.75
1881.56792	7923.15
1884.70227	7915.15
1887.83457	7912.65
1890.96482	7886.95
1894.09304	7863.65
1897.21921	7850.25
1900.34335	7841.05
1903.46544	7851.45
1906.58551	7853.95
1909.70353	7805.75
1912.81953	7817.55
1915.93349	7780.25
1919.04543	7768.75
1922.15534	7732.15
1925.26322	7730.15
1928.36908	7709.65
1931.47292	7685.85
1934.57473	7651.15
1937.67453	7627.75
1940.77232	7632.35
1943.86808	7589.25
1946.96184	7588.35
1950.05358	7564.25
1953.14331	7528.15
1956.23103	7497.55
1959.31675	7489.15
1962.40046	7480.15
1965.48217	7437.05
1968.56188	7426.55
1971.63959	7384.35
1974.7153	7356.85
1977.78901	7333.35
1980.86073	7322.45
1983.93046	7287.25
1986.99819	7266.95
1990.06394	7236.45
1993.1277	7232.45
1996.18947	7199.85
1999.24925	7169.45
2002.30706	7143.65
2005.36288	7136.65
2008.41672	7127.85
2011.46859	7093.15
2014.51848	7080.85
2017.56639	7053.85
2020.61233	7046.75
2023.6563	7024.55
2026.6983	6981.55
2029.73833	6975.35
2032.7764	6986.35
2035.8125	6963.25
2038.84664	6926.55
2041.87881	6918.85
2044.90903	6887.55
2047.93729	6887.05
2050.96359	6887.55
2053.98794	6856.05
2057.01034	6880.55
2060.03078	6889.35
2063.04927	6867.65
2066.06582	6867.85
2069.08042	6857.05
2072.09307	6886.35
2075.10378	6871.65
2078.11255	6851.15
2081.11938	6867.55
2084.12426	6852.05
2087.12722	6874.95
2090.12824	6880.35
2093.12732	6875.05
2096.12447	6884.55
2099.11969	6877.05
2102.11299	6911.95
2105.10435	6902.55
2108.09379	6894.75
2111.08131	6931.25
2114.0669	6907.35
2117.05057	6924.85
2120.03233	6914.85
2123.01216	6926.15
2125.99008	6920.85
2128.96609	6938.75
2131.94018	6945.35
2134.91236	6935.05
2137.88263	6946.05
2140.851	6941.35
2143.81746	6907.55
2146.78201	6914.75
2149.74466	6924.85
2152.7054	6899.55
2155.66425	6901.15
2158.6212	6923.35
2161.57625	6897.45
2164.52941	6872.25
2167.48067	6860.15
2170.43004	6869.55
2173.37752	6839.55
2176.32311	6847.35
2179.26681	6859.45
2182.20863	6858.85
2185.14856	6847.15
2188.08661	6841.65
2191.02278	6830.55
2193.95707	6822.55
2196.88948	6810.35
2199.82001	6802.65
2202.74867	6799.75
2205.67545	6787.85
2208.60037	6776.15
2211.52341	6748.95
2214.44458	6749.05
2217.36388	6731.15
2220.28132	6725.65
2223.1969	6717.55
2226.11061	6695.85
2229.02246	6698.35
2231.93245	6678.25
2234.84058	6665.25
2237.74686	6641.75
2240.65128	6647.95
2243.55385	6642.45
2246.45456	6671.05
2249.35343	6617.85
2252.25044	6621.25
2255.14561	6611.05
2258.03893	6599.65
2260.93041	6580.95
2263.82004	6556.55
2266.70783	6551.55
2269.59378	6541.35
2272.4779	6519.65
2275.36017	6519.25
2278.24061	6507.75
2281.11922	6481.45
2283.996	6475.45
2286.87094	6456.35
2289.74405	6434.15
2292.61534	6437.25
2295.4848	6427.55
2298.35243	6439.45
2301.21824	6420.25
2304.08223	6419.25
2306.94439	6397.35
2309.80474	6381.55
2312.66327	6385.65
2315.51999	6366.45
2318.37489	6366.35
2321.22797	6372.85
2324.07925	6356.35
2326.92871	6333.95
2329.77637	6315.65
2332.62222	6305.75
2335.46626	6307.95
2338.3085	6287.05
2341.14893	6279.55
2343.98756	6296.05
2346.8244	6305.05
2349.65943	6291.75
2352.49267	6299.55
2355.32411	6289.65
2358.15376	6301.05
2360.98161	6260.35
2363.80768	6266.35
2366.63195	6272.25
2369.45444	6266.05
2372.27514	6284.75
2375.09405	6277.65
2377.91118	6245.95
2380.72652	6240.55
2383.54009	6228.45
2386.35187	6237.25
2389.16188	6191.25
2391.97011	6195.25
2394.77657	6171.25
2397.58125	6165.25
2400.38416	6150.25
2403.18529	6117.65
2405.98466	6139.25
2408.78226	6121.95
2411.57809	6123.35
2414.37216	6130.65
2417.16446	6103.15
2419.955	6097.85
2422.74378	6086.35
2425.5308	6087.45
2428.31606	6098.15
2431.09956	6083.65
2433.88131	6078.35
2436.6613	6057.05
2439.43954	6070.65
2442.21603	6057.05
2444.99077	6063.05
2447.76377	6060.25
2450.53501	6058.85
2453.30451	6046.75
2456.07226	6052.65
2458.83827	6034.45
2461.60254	6044.45
2464.36507	6038.15
2467.12586	6041.95
2469.88492	6013.65
2472.64224	6014.95
2475.39782	5991.65
2478.15167	5983.05
2480.90379	5982.75
2483.65417	5991.75
2486.40283	6007.05
2489.14976	6004.65
2491.89497	6002.95
2494.63845	6001.35
2497.3802	5983.15
2500.12024	5971.65
2502.85855	5969.85
2505.59514	5965.35
2508.33002	5961.95
2511.06318	5949.25
2513.79462	5959.05
2516.52435	5952.75
2519.25237	5934.05
2521.97867	5932.45
2524.70327	5913.45
2527.42616	5911.35
2530.14734	5921.95
2532.86681	5898.15
2535.58458	5889.15
2538.30065	5888.05
2541.01501	5878.45
2543.72768	5858.45
2546.43864	5871.95
2549.14791	5840.55
2551.85548	5849.85
2554.56136	5847.95
2557.26554	5837.75
2559.96803	5824.05
2562.66883	5824.85
2565.36794	5828.35
2568.06536	5814.85
2570.7611	5802.05
2573.45514	5798.95
2576.14751	5791.65
2578.83819	5772.75
2581.52719	5769.65
2584.21451	5752.65
2586.90015	5751.35
2589.58411	5722.85
2592.2664	5734.05
2594.94701	5721.35
2597.62594	5719.75
2600.30321	5719.85
2602.9788	5706.75
2605.65273	5699.95
2608.32498	5704.25
2610.99557	5702.65
2613.66449	5711.45
2616.33175	5685.35
2618.99734	5676.05
2621.66128	5661.75
2624.32355	5665.75
2626.98416	5665.25
2629.64311	5643.85
2632.30041	5624.65
2634.95605	5639.35
2637.61004	5625.35
2640.26238	5628.15
2642.91306	5600.95
2645.56209	5609.05
2648.20948	5602.85
2650.85521	5601.55
2653.4993	5628.15
2656.14175	5608.65
2658.78255	5624.05
2661.42171	5635.55
2664.05923	5630.35
2666.6951	5646.85
2669.32934	5638.85
2671.96194	5617.05
2674.59291	5631.85
2677.22224	5622.65
2679.84993	5635.55
2682.476	5635.55
2685.10043	5623.15
2687.72324	5629.15
2690.34441	5628.35
2692.96396	5614.55
2695.58188	5610.65
2698.19818	5618.55
2700.81285	5615.25
2703.4259	5573.35
2706.03733	5501.85
2708.64714	5556.15
2711.25533	5582.65
2713.86191	5572.75
2716.46687	5594.95
2719.07021	5607.65
2721.67194	5624.05
2724.27206	5602.45
2726.87057	5606.35
2729.46747	5625.35
2732.06276	5634.75
2734.65644	5624.85
2737.24852	5609.75
2739.83899	5610.05
2742.42786	5601.95
2745.01513	5614.85
2747.60079	5616.65
2750.18486	5571.05
2752.76733	5561.25
2755.3482	5576.15
2757.92747	5571.35
2760.50515	5559.95
2763.08123	5566.35
2765.65573	5551.95
2768.22863	5558.45
2770.79994	5543.05
2773.36967	5540.75
2775.9378	5541.75
2778.50435	5522.05
2781.06932	5511.25
2783.6327	5501.15
2786.1945	5487.95
2788.75471	5513.55
2791.31335	5504.85
2793.87041	5500.25
2796.42589	5476.45
2798.97979	5471.65
2801.53212	5435.95
2804.08288	5457.55
2806.63206	5432.25
2809.17967	5429.75
2811.72571	5397.55
2814.27018	5408.95
2816.81308	5398.35
2819.35442	5377.75
2821.89419	5383.85
2824.43239	5382.35
2826.96904	5376.25
2829.50412	5382.45
2832.03763	5366.05
2834.56959	5349.15
2837.1	5349.15
2839.62884	5360.65
2842.15613	5329.25
2844.68186	5351.75
2847.20604	5373.25
2849.72867	5359.75
2852.24974	5347.65
2854.76927	5333.95
2857.28724	5321.75
2859.80367	5342.85
2862.31855	5313.45
2864.83189	5340.05
2867.34368	5357.35
2869.85393	5346.05
2872.36264	5344.95
2874.8698	5344.55
2877.37543	5348.05
2879.87952	5327.35
2882.38207	5325.85
2884.88308	5330.95
2887.38256	5352.65
2889.88051	5351.75
2892.37692	5363.65
2894.8718	5346.55
2897.36515	5367.85
2899.85698	5336.75
2902.34727	5374.25
2904.83604	5376.35
2907.32328	5383.95
2909.809	5382.45
2912.29319	5376.35
2914.77587	5386.65
2917.25702	5382.55
2919.73665	5376.05
2922.21476	5367.45
2924.69136	5387.85
2927.16644	5377.45
2929.64	5342.65
2932.11205	5362.25
2934.58258	5327.15
2937.05161	5320.75
2939.51912	5324.35
2941.98513	5319.05
2944.44962	5296.65
2946.91261	5282.75
2949.37409	5305.75
2951.83407	5292.65
2954.29254	5291.15
2956.74951	5278.85
2959.20498	5281.05
2961.65895	5276.45
2964.11142	5254.35
2966.56239	5252.95
2969.01186	5263.25
2971.45984	5243.35
2973.90632	5222.05
2976.35131	5204.05
2978.7948	5216.55
2981.23681	5200.35
2983.67732	5192.35
2986.11635	5168.35
2988.55388	5171.45
2990.98993	5160.95
2993.4245	5149.55
2995.85758	5129.45
2998.28917	5112.15
3000.71928	5117.85
3003.14791	5091.65
3005.57506	5090.15
3008.00073	5079.85
3010.42493	5083.65
3012.84764	5081.05
3015.26888	5061.85
3017.68865	5066.25
3020.10694	5053.65
3022.52376	5044.25
3024.9391	5035.65
3027.35298	5035.15
3029.76539	5038.25
3032.17632	5034.15
3034.5858	5029.75
3036.9938	5011.65
3039.40034	4999.05
3041.80542	5001.55
3044.20903	4981.85
3046.61118	4992.35
3049.01187	4994.75
3051.4111	4984.05
3053.80888	4981.55
3056.20519	4972.85
3058.60005	4982.15
3060.99345	4960.05
3063.3854	4940.45
3065.7759	4934.75
3068.16494	4916.15
3070.55254	4923.35
3072.93868	4896.85
3075.32338	4889.65
3077.70662	4896.85
3080.08842	4889.05
3082.46878	4879.95
3084.84769	4850.85
3087.22515	4880.65
3089.60118	4875.45
3091.97576	4882.15
3094.3489	4883.05
3096.72061	4889.95
3099.09087	4886.35
3101.4597	4886.05
3103.82709	4892.15
3106.19305	4873.35
3108.55757	4875.55
3110.92066	4877.05
3113.28232	4870.25
3115.64255	4857.25
3118.00134	4839.25
3120.35871	4844.75
3122.71466	4836.15
3125.06917	4849.25
3127.42226	4832.75
3129.77393	4841.05
3132.12417	4838.25
3134.47299	4823.85
3136.82039	4843.25
3139.16636	4843.65
3141.51092	4855.45
3143.85406	4828.75
3146.19579	4848.05
3148.53609	4860.65
3150.87499	4853.05
3153.21246	4866.25
3155.54853	4877.75
3157.88318	4876.45
3160.21642	4871.85
3162.54826	4889.55
3164.87868	4904.85
3167.2077	4880.65
3169.5353	4886.55
3171.86151	4911.95
3174.18631	4901.25
3176.5097	4903.35
3178.83169	4900.45
3181.15228	4891.75
3183.47147	4859.85
3185.78926	4895.65
3188.10565	4867.25
3190.42065	4863.55
3192.73424	4879.75
3195.04645	4878.05
3197.35725	4888.05
3199.66667	4884.65
3201.97469	4889.85
3204.28132	4906.05
3206.58656	4907.75
3208.8904	4904.25
3211.19287	4911.25
3213.49394	4913.35
3215.79363	4915.35
3218.09193	4915.75
3220.38884	4923.35
3222.68438	4896.15
3224.97853	4897.65
3227.2713	4911.75
3229.56269	4902.35
3231.8527	4906.05
3234.14133	4918.55
3236.42858	4899.45
3238.71446	4884.35
3240.99896	4879.05
3243.28209	4878.65
3245.56384	4860.35
3247.84423	4849.45
3250.12324	4863.05
3252.40088	4852.55
3254.67715	4862.15
3256.95205	4858.25
3259.22558	4865.25
3261.49775	4859.45
3263.76855	4850.35
3266.03799	4843.95
3268.30606	4844.95
3270.57277	4827.45
3272.83812	4824.95
3275.10211	4805.75
3277.36474	4795.45
3279.62601	4817.15
3281.88593	4792.35
3284.14448	4805.55
3286.40168	4795.95
3288.65753	4795.15
3290.91202	4797.35
3293.16516	4775.95
3295.41695	4782.65
3297.66738	4756.35
3299.91647	4718.25
3302.16421	4713.35
3304.4106	4664.55
3306.65564	4640.05
3308.89933	4610.55
3311.14169	4596.75
3313.38269	4539.35
3315.62236	4502.35
3317.86068	4481.65
3320.09766	4447.55
3322.3333	4413.85
3324.5676	4384.55
3326.80056	4295.65
3329.03219	4278.15
3331.26248	1.45
3333.49143	0.05
3335.71905	-0.05
