Data from AgNPs_FTO_APTES_UA_50uM_CRN_0uM_R6G_10uM_NaF_0.1M_Addition_RamanShift__43__11-00-24-682.txt Node

Date: Mon Feb 21 11:00:24 GMT 2022
User: TCL
Spectrometer: QEP01345
Trigger mode: 4
Integration Time (sec): 7.000000E0
Scans to average: 10
Electric dark correction enabled: true
Nonlinearity correction enabled: false
Boxcar width: 0
XAxis mode: Raman Shifts
Number of Pixels in Spectrum: 1044
>>>>>Begin Spectral Data<<<<<
46.04893	0.25
50.45542	-0.25
54.85868	-1.55
59.25871	-2.05
63.6555	51.05
68.04907	56.45
72.43941	58.65
76.82654	61.15
81.21044	63.95
85.59113	66.45
89.96862	66.35
94.34289	69.95
98.71396	74.65
103.08183	75.75
107.4465	76.25
111.80798	76.25
116.16626	79.55
120.52136	79.75
124.87327	86.45
129.222	84.45
133.56755	86.65
137.90993	97.75
142.24913	100.75
146.58517	111.15
150.91804	133.25
155.24774	150.05
159.57429	186.55
163.89768	233.65
168.21792	314.55
172.53501	423.25
176.84895	593.65
181.15975	822.45
185.46741	1148.95
189.77193	1590.35
194.07331	2109.65
198.37157	2727.15
202.6667	3352.65
206.9587	4011.95
211.24758	4625.15
215.53334	5287.35
219.81599	5991.05
224.09553	6796.15
228.37195	7654.65
232.64527	8643.65
236.91549	9615.25
241.18261	10524.35
245.44663	11357.05
249.70755	12039.35
253.96539	12657.15
258.22014	13169.65
262.4718	13617.65
266.72039	13925.75
270.96589	14051.25
275.20832	14031.65
279.44768	13904.45
283.68397	13729.75
287.91719	13579.05
292.14735	13569.85
296.37445	13658.45
300.59849	13910.05
304.81948	14232.55
309.03742	14491.35
313.25231	14451.45
317.46415	14023.85
321.67296	13344.25
325.87872	12738.05
330.08145	12414.75
334.28114	12390.35
338.47781	12527.45
342.67145	12778.15
346.86207	13129.85
351.04966	13645.75
355.23424	14248.75
359.4158	14709.45
363.59435	14962.95
367.76989	15070.15
371.94243	15094.75
376.11196	15084.85
380.27849	15074.25
384.44203	15041.95
388.60257	15006.75
392.76012	15016.35
396.91468	15180.15
401.06626	15487.75
405.21485	15714.65
409.36047	15594.05
413.50311	15143.35
417.64277	14723.25
421.77947	14516.55
425.9132	14434.55
430.04396	14497.45
434.17176	14577.65
438.2966	14745.65
442.41849	15084.45
446.53742	15613.25
450.6534	16144.25
454.76644	16546.65
458.87653	16635.65
462.98368	16449.35
467.08789	16168.35
471.18916	15804.65
475.2875	15454.75
479.38291	15221.55
483.4754	15056.05
487.56496	14894.45
491.6516	14666.15
495.73531	14520.25
499.81612	14420.85
503.89401	14535.25
507.96899	14627.55
512.04106	14658.15
516.11023	14661.85
520.1765	14688.15
524.23987	14665.55
528.30034	14521.15
532.35792	14349.45
536.41261	14124.05
540.46441	13836.95
544.51333	13733.45
548.55936	13825.55
552.60252	14152.35
556.64279	14529.35
560.6802	14779.65
564.71473	15035.25
568.7464	15550.75
572.7752	15978.95
576.80114	16013.15
580.82422	15921.75
584.84444	15974.05
588.86181	16215.85
592.87633	16631.95
596.888	16871.75
600.89682	16828.75
604.9028	17668.35
608.90594	20573.05
612.90624	24307.05
616.90371	23244.95
620.89834	17851.45
624.89015	15262.35
628.87913	14864.05
632.86528	14895.95
636.84862	14824.75
640.82913	14574.75
644.80683	13943.25
648.78172	13555.85
652.75379	13466.15
656.72306	13822.45
660.68952	14311.35
664.65319	14274.75
668.61405	13829.45
672.57211	13618.35
676.52738	13638.05
680.47986	13685.35
684.42955	13551.95
688.37646	13542.25
692.32058	13595.15
696.26192	13738.95
700.20048	13904.55
704.13626	13964.65
708.06928	13920.55
711.99952	13802.05
715.927	13743.05
719.85171	13799.55
723.77365	13784.45
727.69284	13591.75
731.60928	13440.65
735.52295	13414.35
739.43388	13455.95
743.34206	13525.35
747.24749	13623.85
751.15017	13711.55
755.05012	13976.35
758.94733	14484.95
762.8418	15638.85
766.73354	17601.55
770.62254	19591.85
774.50882	20397.85
778.39237	19500.65
782.27321	17503.55
786.15132	15564.95
790.02671	14419.15
793.89938	13851.15
797.76935	13643.15
801.6366	13585.15
805.50115	13509.85
809.36299	13457.75
813.22213	13339.15
817.07857	13283.65
820.93231	13284.05
824.78336	13231.75
828.63172	13251.45
832.47738	13276.45
836.32036	13283.75
840.16066	13332.95
843.99827	13359.25
847.8332	13318.75
851.66546	13240.55
855.49504	13216.55
859.32195	13188.85
863.1462	13133.85
866.96777	13060.45
870.78668	13010.95
874.60293	13011.85
878.41652	13065.95
882.22745	13147.55
886.03573	13222.15
889.84136	13241.25
893.64433	13147.45
897.44466	13100.45
901.24235	13018.35
905.0374	12963.25
908.8298	12912.15
912.61957	12849.75
916.40671	12942.45
920.19121	13106.35
923.97308	13324.05
927.75233	13506.55
931.52895	13537.75
935.30295	13409.55
939.07433	13062.85
942.84309	12766.95
946.60924	12629.05
950.37278	12581.85
954.13371	12495.35
957.89203	12403.05
961.64774	12324.95
965.40086	12307.05
969.15137	12267.15
972.89929	12225.75
976.64461	12189.05
980.38733	12194.05
984.12747	12273.25
987.86502	12388.85
991.59999	12598.95
995.33237	12916.25
999.06217	13472.35
1002.78939	14093.95
1006.51404	14491.15
1010.23611	14689.75
1013.95561	14835.15
1017.67255	14835.15
1021.38692	14641.05
1025.09872	14464.95
1028.80796	14592.25
1032.51465	15084.85
1036.21877	15508.85
1039.92035	15612.15
1043.61937	15341.95
1047.31584	14901.85
1051.00976	14343.45
1054.70114	14008.55
1058.38998	13890.45
1062.07627	13882.15
1065.76003	13934.55
1069.44126	13982.45
1073.11995	14220.15
1076.79611	14400.65
1080.46974	14606.75
1084.14085	14861.85
1087.80943	15167.15
1091.47549	15284.15
1095.13903	15137.85
1098.80005	14746.85
1102.45857	14333.55
1106.11456	14155.55
1109.76805	14128.25
1113.41903	14361.45
1117.06751	14623.45
1120.71348	15005.45
1124.35696	15402.15
1127.99793	15797.55
1131.63641	15859.55
1135.2724	15500.55
1138.90589	15088.35
1142.5369	14820.65
1146.16542	14649.95
1149.79145	14623.35
1153.415	14642.15
1157.03607	14779.75
1160.65467	15067.55
1164.27079	15689.45
1167.88443	16607.75
1171.49561	17900.75
1175.10432	19899.55
1178.71056	22452.65
1182.31434	24769.65
1185.91565	25765.65
1189.51451	25521.45
1193.11091	24275.35
1196.70485	22743.05
1200.29634	21379.55
1203.88538	20267.35
1207.47197	19211.15
1211.05612	18373.05
1214.63782	17933.95
1218.21708	17875.15
1221.79391	18005.95
1225.36829	18135.75
1228.94024	17993.75
1232.50976	17557.25
1236.07685	17206.15
1239.6415	16995.85
1243.20374	16925.75
1246.76355	17024.55
1250.32093	17217.75
1253.8759	17672.85
1257.42845	18299.85
1260.97859	18944.75
1264.52631	19591.15
1268.07163	20262.75
1271.61453	20932.35
1275.15503	21671.55
1278.69312	22361.85
1282.22882	22946.75
1285.76211	23539.15
1289.29301	24192.55
1292.82151	24973.75
1296.34761	26040.95
1299.87133	27577.85
1303.39266	29683.75
1306.9116	32516.95
1310.42815	35617.75
1313.94233	37478.75
1317.45412	37261.25
1320.96354	35522.45
1324.47058	33450.15
1327.97525	31638.35
1331.47754	30471.15
1334.97747	29962.65
1338.47502	29911.05
1341.97022	30007.45
1345.46305	30047.95
1348.95352	30214.55
1352.44163	30813.15
1355.92738	32439.75
1359.41078	35426.75
1362.89183	38493.35
1366.37053	37930.65
1369.84688	33508.95
1373.32088	28555.65
1376.79254	25297.15
1380.26186	23755.05
1383.72883	23053.85
1387.19347	22664.35
1390.65578	22190.05
1394.11575	22015.15
1397.57339	22279.65
1401.0287	22740.45
1404.48168	23172.45
1407.93234	23482.65
1411.38068	23519.75
1414.82669	23183.25
1418.27039	22493.75
1421.71177	21547.15
1425.15083	20762.65
1428.58758	20373.95
1432.02203	20415.25
1435.45416	20752.55
1438.88399	21138.75
1442.31151	21378.65
1445.73673	21584.35
1449.15965	21872.05
1452.58027	22038.65
1455.9986	21990.75
1459.41463	22090.15
1462.82837	22348.65
1466.23982	22760.55
1469.64898	23211.45
1473.05586	23475.95
1476.46045	23534.65
1479.86276	23631.85
1483.26279	23740.95
1486.66054	23927.55
1490.05602	24384.05
1493.44922	24867.35
1496.84016	25524.65
1500.22882	26679.95
1503.61521	28410.95
1506.99934	30525.55
1510.38121	32417.25
1513.76081	33033.05
1517.13816	31706.85
1520.51324	28994.15
1523.88607	26412.15
1527.25665	24695.05
1530.62498	23802.35
1533.99105	23295.35
1537.35488	22995.25
1540.71647	22689.65
1544.07581	22369.55
1547.4329	22046.15
1550.78776	21716.85
1554.14038	21536.75
1557.49077	21450.15
1560.83892	21470.45
1564.18484	21710.55
1567.52853	21986.15
1570.86999	22238.25
1574.20922	22467.25
1577.54624	22586.45
1580.88103	22194.75
1584.2136	21684.75
1587.54395	21894.15
1590.87208	22943.65
1594.19801	24848.85
1597.52172	26885.65
1600.84321	27767.25
1604.16251	26724.65
1607.47959	24481.55
1610.79447	21942.05
1614.10715	19711.25
1617.41763	18023.15
1620.7259	16912.25
1624.03199	16394.15
1627.33587	16460.75
1630.63757	17022.65
1633.93707	18152.45
1637.23439	19899.85
1640.52951	22309.75
1643.82246	25204.55
1647.11321	27789.65
1650.40179	28818.75
1653.68819	27145.65
1656.97241	23327.85
1660.25446	19442.25
1663.53433	16634.05
1666.81203	14940.75
1670.08756	13924.85
1673.36092	13358.75
1676.63211	12956.55
1679.90115	12655.45
1683.16801	12438.85
1686.43272	12302.85
1689.69527	12158.75
1692.95567	12013.35
1696.2139	11845.35
1699.46999	11732.85
1702.72392	11645.65
1705.97571	11716.35
1709.22535	11792.05
1712.47284	11832.35
1715.71819	11862.55
1718.96139	11844.45
1722.20246	11794.15
1725.44139	11733.15
1728.67818	11640.45
1731.91284	11581.85
1735.14537	11509.65
1738.37576	11445.25
1741.60403	11407.95
1744.83017	11356.35
1748.05418	11302.45
1751.27607	11254.05
1754.49584	11175.05
1757.71349	11130.25
1760.92903	11070.35
1764.14244	11052.35
1767.35375	11047.55
1770.56294	11000.95
1773.77002	11055.95
1776.97499	11049.05
1780.17785	11101.25
1783.37861	11116.05
1786.57727	11138.25
1789.77382	11124.75
1792.96828	11139.05
1796.16064	11100.65
1799.3509	11076.25
1802.53907	11056.25
1805.72514	11057.35
1808.90913	11002.85
1812.09102	10985.55
1815.27083	10978.05
1818.44856	10950.35
1821.6242	10929.05
1824.79776	10931.65
1827.96924	10937.95
1831.13864	10928.75
1834.30597	10900.85
1837.47122	10920.35
1840.6344	10914.05
1843.7955	10926.95
1846.95454	10913.95
1850.11151	10917.25
1853.26642	10878.55
1856.41926	10890.05
1859.57004	10905.75
1862.71876	10887.25
1865.86542	10904.55
1869.01003	10892.35
1872.15258	10894.15
1875.29308	10903.15
1878.43152	10915.85
1881.56792	10941.05
1884.70227	10911.05
1887.83457	10897.75
1890.96482	10896.35
1894.09304	10912.55
1897.21921	10903.85
1900.34335	10906.35
1903.46544	10908.95
1906.58551	10919.55
1909.70353	10888.25
1912.81953	10910.45
1915.93349	10896.15
1919.04543	10850.15
1922.15534	10830.75
1925.26322	10775.55
1928.36908	10737.95
1931.47292	10719.55
1934.57473	10657.05
1937.67453	10668.15
1940.77232	10599.55
1943.86808	10579.55
1946.96184	10561.75
1950.05358	10532.45
1953.14331	10455.95
1956.23103	10422.65
1959.31675	10397.65
1962.40046	10369.55
1965.48217	10356.45
1968.56188	10340.95
1971.63959	10309.25
1974.7153	10290.65
1977.78901	10258.95
1980.86073	10203.05
1983.93046	10191.05
1986.99819	10141.15
1990.06394	10099.75
1993.1277	10108.85
1996.18947	10065.35
1999.24925	10024.75
2002.30706	9981.55
2005.36288	9976.55
2008.41672	9961.45
2011.46859	9927.75
2014.51848	9900.85
2017.56639	9835.75
2020.61233	9840.75
2023.6563	9842.85
2026.6983	9797.55
2029.73833	9775.85
2032.7764	9771.35
2035.8125	9747.35
2038.84664	9749.55
2041.87881	9736.35
2044.90903	9715.65
2047.93729	9689.45
2050.96359	9670.25
2053.98794	9683.65
2057.01034	9686.45
2060.03078	9653.15
2063.04927	9651.35
2066.06582	9625.95
2069.08042	9619.75
2072.09307	9611.45
2075.10378	9613.15
2078.11255	9600.65
2081.11938	9602.75
2084.12426	9595.85
2087.12722	9593.25
2090.12824	9592.75
2093.12732	9601.65
2096.12447	9597.75
2099.11969	9609.25
2102.11299	9597.25
2105.10435	9590.05
2108.09379	9598.65
2111.08131	9599.25
2114.0669	9597.15
2117.05057	9610.15
2120.03233	9628.85
2123.01216	9621.85
2125.99008	9646.05
2128.96609	9655.25
2131.94018	9665.15
2134.91236	9648.25
2137.88263	9665.15
2140.851	9660.05
2143.81746	9673.75
2146.78201	9660.05
2149.74466	9690.15
2152.7054	9673.15
2155.66425	9656.75
2158.6212	9698.25
2161.57625	9680.15
2164.52941	9654.45
2167.48067	9664.95
2170.43004	9648.35
2173.37752	9651.75
2176.32311	9635.65
2179.26681	9651.35
2182.20863	9658.25
2185.14856	9664.35
2188.08661	9677.35
2191.02278	9688.05
2193.95707	9696.05
2196.88948	9687.05
2199.82001	9666.25
2202.74867	9678.95
2205.67545	9651.75
2208.60037	9656.85
2211.52341	9691.45
2214.44458	9662.25
2217.36388	9653.15
2220.28132	9641.05
2223.1969	9620.15
2226.11061	9601.55
2229.02246	9577.65
2231.93245	9580.25
2234.84058	9544.45
2237.74686	9504.35
2240.65128	9524.95
2243.55385	9495.65
2246.45456	9484.45
2249.35343	9459.15
2252.25044	9484.25
2255.14561	9462.05
2258.03893	9462.55
2260.93041	9415.05
2263.82004	9412.35
2266.70783	9404.65
2269.59378	9388.15
2272.4779	9354.05
2275.36017	9360.05
2278.24061	9334.85
2281.11922	9319.55
2283.996	9301.65
2286.87094	9293.15
2289.74405	9280.75
2292.61534	9266.25
2295.4848	9272.65
2298.35243	9282.75
2301.21824	9253.65
2304.08223	9277.75
2306.94439	9289.65
2309.80474	9299.85
2312.66327	9297.65
2315.51999	9309.65
2318.37489	9339.15
2321.22797	9334.15
2324.07925	9321.75
2326.92871	9281.35
2329.77637	9303.75
2332.62222	9287.85
2335.46626	9279.75
2338.3085	9289.45
2341.14893	9289.35
2343.98756	9306.85
2346.8244	9334.75
2349.65943	9335.35
2352.49267	9334.35
2355.32411	9343.05
2358.15376	9356.85
2360.98161	9337.95
2363.80768	9307.85
2366.63195	9322.35
2369.45444	9292.15
2372.27514	9258.85
2375.09405	9255.45
2377.91118	9223.75
2380.72652	9200.35
2383.54009	9178.85
2386.35187	9157.45
2389.16188	9152.25
2391.97011	9112.95
2394.77657	9118.65
2397.58125	9095.65
2400.38416	9083.75
2403.18529	9069.65
2405.98466	9063.55
2408.78226	9049.25
2411.57809	9008.75
2414.37216	9004.15
2417.16446	8981.45
2419.955	8977.15
2422.74378	8953.45
2425.5308	8947.75
2428.31606	8948.85
2431.09956	8958.25
2433.88131	8957.95
2436.6613	8974.45
2439.43954	8955.05
2442.21603	8949.85
2444.99077	8949.25
2447.76377	8972.65
2450.53501	8940.35
2453.30451	8939.35
2456.07226	8948.35
2458.83827	8943.75
2461.60254	8936.25
2464.36507	8914.15
2467.12586	8925.05
2469.88492	8916.55
2472.64224	8941.05
2475.39782	8943.95
2478.15167	8964.35
2480.90379	8979.75
2483.65417	9014.05
2486.40283	9021.65
2489.14976	9023.65
2491.89497	9042.55
2494.63845	9043.65
2497.3802	9010.95
2500.12024	9053.75
2502.85855	9040.05
2505.59514	9011.95
2508.33002	9004.75
2511.06318	8986.55
2513.79462	8960.85
2516.52435	8954.25
2519.25237	8913.75
2521.97867	8905.65
2524.70327	8891.95
2527.42616	8889.65
2530.14734	8886.75
2532.86681	8916.85
2535.58458	8907.75
2538.30065	8904.15
2541.01501	8900.85
2543.72768	8888.95
2546.43864	8909.15
2549.14791	8896.25
2551.85548	8909.25
2554.56136	8900.85
2557.26554	8880.25
2559.96803	8855.35
2562.66883	8847.35
2565.36794	8836.85
2568.06536	8817.75
2570.7611	8825.25
2573.45514	8844.15
2576.14751	8846.15
2578.83819	8819.15
2581.52719	8837.35
2584.21451	8825.15
2586.90015	8813.45
2589.58411	8826.25
2592.2664	8817.15
2594.94701	8834.35
2597.62594	8846.55
2600.30321	8832.15
2602.9788	8857.25
2605.65273	8824.15
2608.32498	8855.05
2610.99557	8852.05
2613.66449	8838.45
2616.33175	8849.25
2618.99734	8856.15
2621.66128	8852.05
2624.32355	8834.15
2626.98416	8861.35
2629.64311	8862.15
2632.30041	8868.65
2634.95605	8852.05
2637.61004	8827.05
2640.26238	8821.75
2642.91306	8812.75
2645.56209	8790.15
2648.20948	8753.55
2650.85521	8746.65
2653.4993	8765.95
2656.14175	8756.85
2658.78255	8800.65
2661.42171	8782.75
2664.05923	8818.45
2666.6951	8811.95
2669.32934	8834.85
2671.96194	8833.45
2674.59291	8828.05
2677.22224	8825.55
2679.84993	8838.55
2682.476	8827.25
2685.10043	8850.35
2687.72324	8808.95
2690.34441	8809.85
2692.96396	8796.05
2695.58188	8782.95
2698.19818	8759.75
2700.81285	8755.25
2703.4259	8729.75
2706.03733	8658.95
2708.64714	8696.25
2711.25533	8744.85
2713.86191	8776.75
2716.46687	8809.15
2719.07021	8798.15
2721.67194	8837.55
2724.27206	8835.65
2726.87057	8808.15
2729.46747	8816.25
2732.06276	8831.65
2734.65644	8840.85
2737.24852	8815.45
2739.83899	8809.85
2742.42786	8825.75
2745.01513	8812.05
2747.60079	8816.55
2750.18486	8803.15
2752.76733	8796.25
2755.3482	8778.65
2757.92747	8786.95
2760.50515	8785.55
2763.08123	8751.95
2765.65573	8746.05
2768.22863	8764.95
2770.79994	8751.25
2773.36967	8778.25
2775.9378	8767.45
2778.50435	8778.55
2781.06932	8780.75
2783.6327	8787.05
2786.1945	8802.75
2788.75471	8765.05
2791.31335	8750.65
2793.87041	8743.35
2796.42589	8728.15
2798.97979	8729.55
2801.53212	8695.85
2804.08288	8709.75
2806.63206	8681.45
2809.17967	8699.05
2811.72571	8654.75
2814.27018	8645.15
2816.81308	8658.65
2819.35442	8665.35
2821.89419	8653.75
2824.43239	8642.45
2826.96904	8633.75
2829.50412	8649.45
2832.03763	8632.45
2834.56959	8645.35
2837.1	8615.25
2839.62884	8645.95
2842.15613	8622.45
2844.68186	8652.35
2847.20604	8644.35
2849.72867	8640.35
2852.24974	8636.85
2854.76927	8642.35
2857.28724	8581.05
2859.80367	8594.35
2862.31855	8605.75
2864.83189	8592.65
2867.34368	8597.85
2869.85393	8637.05
2872.36264	8618.55
2874.8698	8629.45
2877.37543	8637.95
2879.87952	8642.35
2882.38207	8623.05
2884.88308	8628.65
2887.38256	8640.55
2889.88051	8631.75
2892.37692	8631.15
2894.8718	8624.05
2897.36515	8660.85
2899.85698	8666.25
2902.34727	8641.35
2904.83604	8658.95
2907.32328	8705.25
2909.809	8674.95
2912.29319	8705.35
2914.77587	8722.65
2917.25702	8697.85
2919.73665	8694.25
2922.21476	8671.55
2924.69136	8658.85
2927.16644	8689.55
2929.64	8623.25
2932.11205	8621.05
2934.58258	8600.75
2937.05161	8611.85
2939.51912	8617.95
2941.98513	8610.25
2944.44962	8572.75
2946.91261	8552.15
2949.37409	8551.95
2951.83407	8570.55
2954.29254	8570.35
2956.74951	8537.35
2959.20498	8529.05
2961.65895	8545.25
2964.11142	8522.55
2966.56239	8504.15
2969.01186	8493.75
2971.45984	8468.35
2973.90632	8464.75
2976.35131	8444.35
2978.7948	8422.45
2981.23681	8408.55
2983.67732	8380.95
2986.11635	8386.15
2988.55388	8316.65
2990.98993	8324.75
2993.4245	8327.15
2995.85758	8312.15
2998.28917	8278.45
3000.71928	8276.55
3003.14791	8249.55
3005.57506	8247.95
3008.00073	8222.15
3010.42493	8200.95
3012.84764	8189.45
3015.26888	8186.35
3017.68865	8174.85
3020.10694	8166.55
3022.52376	8139.75
3024.9391	8121.25
3027.35298	8104.45
3029.76539	8099.95
3032.17632	8118.05
3034.5858	8099.75
3036.9938	8120.65
3039.40034	8088.35
3041.80542	8066.55
3044.20903	8056.85
3046.61118	8062.05
3049.01187	8058.25
3051.4111	8043.15
3053.80888	8017.15
3056.20519	8024.45
3058.60005	7999.85
3060.99345	7991.25
3063.3854	7958.55
3065.7759	7925.35
3068.16494	7939.35
3070.55254	7899.05
3072.93868	7885.95
3075.32338	7860.35
3077.70662	7849.15
3080.08842	7808.15
3082.46878	7824.15
3084.84769	7786.45
3087.22515	7804.65
3089.60118	7816.35
3091.97576	7800.85
3094.3489	7811.35
3096.72061	7804.65
3099.09087	7813.25
3101.4597	7807.25
3103.82709	7802.95
3106.19305	7776.45
3108.55757	7767.85
3110.92066	7760.75
3113.28232	7757.05
3115.64255	7760.95
3118.00134	7720.25
3120.35871	7729.75
3122.71466	7698.85
3125.06917	7677.55
3127.42226	7678.35
3129.77393	7673.45
3132.12417	7671.95
3134.47299	7681.15
3136.82039	7654.85
3139.16636	7678.95
3141.51092	7669.55
3143.85406	7678.15
3146.19579	7701.35
3148.53609	7683.55
3150.87499	7699.15
3153.21246	7673.15
3155.54853	7695.05
3157.88318	7681.25
3160.21642	7701.05
3162.54826	7713.95
3164.87868	7704.05
3167.2077	7708.15
3169.5353	7690.45
3171.86151	7677.95
3174.18631	7690.05
3176.5097	7672.15
3178.83169	7657.85
3181.15228	7659.65
3183.47147	7649.45
3185.78926	7672.35
3188.10565	7651.95
3190.42065	7662.45
3192.73424	7649.35
3195.04645	7641.35
3197.35725	7667.95
3199.66667	7671.25
3201.97469	7667.25
3204.28132	7681.15
3206.58656	7695.15
3208.8904	7699.75
3211.19287	7707.05
3213.49394	7715.25
3215.79363	7688.95
3218.09193	7710.45
3220.38884	7700.95
3222.68438	7670.65
3224.97853	7686.05
3227.2713	7702.25
3229.56269	7708.35
3231.8527	7714.05
3234.14133	7713.85
3236.42858	7701.25
3238.71446	7689.95
3240.99896	7663.95
3243.28209	7656.45
3245.56384	7645.05
3247.84423	7663.75
3250.12324	7640.65
3252.40088	7638.05
3254.67715	7630.65
3256.95205	7618.75
3259.22558	7615.85
3261.49775	7611.75
3263.76855	7617.65
3266.03799	7598.15
3268.30606	7590.15
3270.57277	7582.45
3272.83812	7583.05
3275.10211	7558.35
3277.36474	7545.65
3279.62601	7570.75
3281.88593	7560.35
3284.14448	7568.45
3286.40168	7552.95
3288.65753	7558.75
3290.91202	7559.05
3293.16516	7533.25
3295.41695	7511.25
3297.66738	7476.35
3299.91647	7437.55
3302.16421	7408.85
3304.4106	7387.85
3306.65564	7347.55
3308.89933	7293.35
3311.14169	7241.45
3313.38269	7180.75
3315.62236	7134.95
3317.86068	7083.65
3320.09766	7046.15
3322.3333	6984.85
3324.5676	6952.85
3326.80056	6815.75
3329.03219	6774.45
3331.26248	3.05
3333.49143	-0.15
3335.71905	0.25
