Data from AgNPs_FTO_APTES_UA_50uM_CRN_200uM_R6G_10uM_NaF_0.1M_Addition_RamanShift__2__15-56-45-063.txt Node

Date: Mon Feb 21 15:56:45 GMT 2022
User: TCL
Spectrometer: QEP01345
Trigger mode: 4
Integration Time (sec): 7.000000E0
Scans to average: 10
Electric dark correction enabled: true
Nonlinearity correction enabled: false
Boxcar width: 0
XAxis mode: Raman Shifts
Number of Pixels in Spectrum: 1044
>>>>>Begin Spectral Data<<<<<
46.04893	1.15
50.45542	-0.85
54.85868	-0.25
59.25871	-2.35
63.6555	53.15
68.04907	56.25
72.43941	57.15
76.82654	61.35
81.21044	65.55
85.59113	69.55
89.96862	69.05
94.34289	73.65
98.71396	76.15
103.08183	78.05
107.4465	78.55
111.80798	76.95
116.16626	76.95
120.52136	79.95
124.87327	87.85
129.222	85.65
133.56755	92.15
137.90993	98.55
142.24913	105.95
146.58517	114.55
150.91804	131.65
155.24774	154.15
159.57429	192.15
163.89768	239.35
168.21792	316.65
172.53501	432.05
176.84895	606.15
181.15975	848.55
185.46741	1179.55
189.77193	1637.45
194.07331	2182.35
198.37157	2825.65
202.6667	3474.15
206.9587	4140.75
211.24758	4775.55
215.53334	5439.55
219.81599	6154.25
224.09553	6919.75
228.37195	7766.05
232.64527	8716.65
236.91549	9712.25
241.18261	10666.55
245.44663	11573.85
249.70755	12298.15
253.96539	12929.95
258.22014	13458.55
262.4718	13900.85
266.72039	14223.35
270.96589	14382.35
275.20832	14351.25
279.44768	14205.75
283.68397	14000.45
287.91719	13793.35
292.14735	13720.05
296.37445	13742.05
300.59849	13881.15
304.81948	14046.85
309.03742	14209.35
313.25231	14152.05
317.46415	13904.85
321.67296	13521.25
325.87872	13184.95
330.08145	13048.55
334.28114	13067.05
338.47781	13135.75
342.67145	13330.05
346.86207	13617.85
351.04966	13980.55
355.23424	14345.65
359.4158	14666.45
363.59435	14881.55
367.76989	14992.95
371.94243	15099.65
376.11196	15110.05
380.27849	15160.45
384.44203	15266.55
388.60257	15337.55
392.76012	15408.65
396.91468	15533.75
401.06626	15748.95
405.21485	15910.65
409.36047	15774.65
413.50311	15446.95
417.64277	15120.75
421.77947	15001.95
425.9132	14950.35
430.04396	14963.35
434.17176	15027.95
438.2966	15182.75
442.41849	15466.55
446.53742	15939.25
450.6534	16366.65
454.76644	16597.55
458.87653	16636.95
462.98368	16531.85
467.08789	16286.75
471.18916	16066.45
475.2875	15784.65
479.38291	15555.35
483.4754	15362.75
487.56496	15215.15
491.6516	15112.15
495.73531	15067.55
499.81612	15088.15
503.89401	15209.75
507.96899	15307.05
512.04106	15315.25
516.11023	15359.55
520.1765	15364.65
524.23987	15367.45
528.30034	15302.95
532.35792	15275.55
536.41261	15095.85
540.46441	14917.35
544.51333	14805.05
548.55936	14883.75
552.60252	15128.35
556.64279	15462.75
560.6802	15577.45
564.71473	15637.25
568.7464	15774.45
572.7752	15961.35
576.80114	16037.95
580.82422	16135.25
584.84444	16461.35
588.86181	16987.15
592.87633	17642.55
596.888	17948.95
600.89682	17695.05
604.9028	18031.65
608.90594	19966.85
612.90624	22363.05
616.90371	21329.45
620.89834	17594.55
624.89015	15852.95
628.87913	15609.05
632.86528	15681.25
636.84862	15758.25
640.82913	15561.05
644.80683	15164.65
648.78172	14943.95
652.75379	14879.75
656.72306	15111.65
660.68952	15441.65
664.65319	15350.95
668.61405	15001.15
672.57211	14934.95
676.52738	15003.05
680.47986	15062.45
684.42955	14939.75
688.37646	14827.15
692.32058	14861.75
696.26192	15014.25
700.20048	15165.05
704.13626	15232.85
708.06928	15142.35
711.99952	15069.95
715.927	15065.55
719.85171	15150.55
723.77365	15131.25
727.69284	15038.35
731.60928	14905.95
735.52295	14902.25
739.43388	14928.65
743.34206	14935.35
747.24749	14994.05
751.15017	15091.75
755.05012	15222.05
758.94733	15556.55
762.8418	16346.55
766.73354	17659.85
770.62254	19047.05
774.50882	19705.65
778.39237	19099.15
782.27321	17696.05
786.15132	16396.95
790.02671	15584.55
793.89938	15198.95
797.76935	15025.25
801.6366	14972.35
805.50115	14908.75
809.36299	14815.55
813.22213	14729.05
817.07857	14676.75
820.93231	14633.65
824.78336	14603.05
828.63172	14646.65
832.47738	14642.65
836.32036	14699.55
840.16066	14737.15
843.99827	14759.75
847.8332	14719.95
851.66546	14659.05
855.49504	14640.55
859.32195	14673.25
863.1462	14672.25
866.96777	14654.05
870.78668	14618.95
874.60293	14661.95
878.41652	14674.45
882.22745	14763.75
886.03573	14823.65
889.84136	14801.55
893.64433	14743.15
897.44466	14686.95
901.24235	14605.55
905.0374	14553.45
908.8298	14518.15
912.61957	14491.15
916.40671	14558.15
920.19121	14688.55
923.97308	14833.35
927.75233	14936.05
931.52895	14978.65
935.30295	14859.55
939.07433	14649.65
942.84309	14447.95
946.60924	14343.15
950.37278	14267.75
954.13371	14239.85
957.89203	14133.25
961.64774	14104.35
965.40086	14095.45
969.15137	14085.15
972.89929	14056.75
976.64461	14081.25
980.38733	14105.15
984.12747	14168.65
987.86502	14278.75
991.59999	14436.65
995.33237	14658.35
999.06217	15022.05
1002.78939	15360.05
1006.51404	15618.45
1010.23611	15741.05
1013.95561	15887.65
1017.67255	15915.65
1021.38692	15781.85
1025.09872	15677.35
1028.80796	15714.55
1032.51465	15984.25
1036.21877	16372.95
1039.92035	16483.95
1043.61937	16386.95
1047.31584	16065.05
1051.00976	15704.95
1054.70114	15474.05
1058.38998	15409.45
1062.07627	15378.25
1065.76003	15430.45
1069.44126	15523.05
1073.11995	15672.55
1076.79611	15849.75
1080.46974	16023.45
1084.14085	16219.15
1087.80943	16417.75
1091.47549	16509.55
1095.13903	16408.75
1098.80005	16169.75
1102.45857	15899.05
1106.11456	15784.55
1109.76805	15776.55
1113.41903	15880.05
1117.06751	16068.95
1120.71348	16264.85
1124.35696	16534.95
1127.99793	16813.55
1131.63641	16856.95
1135.2724	16692.35
1138.90589	16419.65
1142.5369	16239.25
1146.16542	16163.45
1149.79145	16090.15
1153.415	16085.35
1157.03607	16190.15
1160.65467	16464.45
1164.27079	16972.85
1167.88443	17682.35
1171.49561	18621.05
1175.10432	19927.65
1178.71056	21660.05
1182.31434	23264.15
1185.91565	23976.75
1189.51451	23793.75
1193.11091	22871.95
1196.70485	21817.95
1200.29634	20910.45
1203.88538	20144.35
1207.47197	19477.95
1211.05612	18855.65
1214.63782	18413.85
1218.21708	18198.15
1221.79391	18167.75
1225.36829	18199.65
1228.94024	18129.85
1232.50976	17888.05
1236.07685	17644.35
1239.6415	17502.35
1243.20374	17512.05
1246.76355	17632.65
1250.32093	17828.15
1253.8759	18134.55
1257.42845	18541.35
1260.97859	18963.75
1264.52631	19446.45
1268.07163	20013.65
1271.61453	20578.75
1275.15503	21045.55
1278.69312	21469.55
1282.22882	21765.65
1285.76211	22149.75
1289.29301	22659.85
1292.82151	23394.85
1296.34761	24326.95
1299.87133	25586.35
1303.39266	27231.05
1306.9116	29082.75
1310.42815	30889.75
1313.94233	31809.75
1317.45412	31247.75
1320.96354	29825.35
1324.47058	28300.35
1327.97525	26969.55
1331.47754	26052.35
1334.97747	25548.15
1338.47502	25320.35
1341.97022	25349.25
1345.46305	25582.35
1348.95352	26203.35
1352.44163	27246.55
1355.92738	28922.95
1359.41078	31169.05
1362.89183	33035.95
1366.37053	32504.65
1369.84688	29207.05
1373.32088	25497.55
1376.79254	23044.95
1380.26186	21962.55
1383.72883	21534.15
1387.19347	21173.55
1390.65578	20684.05
1394.11575	20406.25
1397.57339	20376.05
1401.0287	20455.25
1404.48168	20488.85
1407.93234	20473.85
1411.38068	20369.15
1414.82669	20184.05
1418.27039	19916.15
1421.71177	19556.95
1425.15083	19192.95
1428.58758	19018.65
1432.02203	19174.05
1435.45416	19476.45
1438.88399	19801.35
1442.31151	19906.35
1445.73673	19980.05
1449.15965	20001.85
1452.58027	19968.05
1455.9986	19850.55
1459.41463	19860.25
1462.82837	20054.45
1466.23982	20419.75
1469.64898	20787.95
1473.05586	21128.65
1476.46045	21370.75
1479.86276	21509.95
1483.26279	21548.65
1486.66054	21665.95
1490.05602	21960.65
1493.44922	22493.95
1496.84016	23161.95
1500.22882	24084.35
1503.61521	25432.55
1506.99934	26994.15
1510.38121	28225.75
1513.76081	28472.65
1517.13816	27296.45
1520.51324	25414.85
1523.88607	23675.65
1527.25665	22611.65
1530.62498	22154.45
1533.99105	21848.55
1537.35488	21497.45
1540.71647	21160.55
1544.07581	20813.95
1547.4329	20477.65
1550.78776	20245.85
1554.14038	20111.75
1557.49077	20092.75
1560.83892	20143.25
1564.18484	20292.55
1567.52853	20537.35
1570.86999	20868.65
1574.20922	21135.45
1577.54624	21224.25
1580.88103	20905.45
1584.2136	20478.65
1587.54395	20554.65
1590.87208	21133.15
1594.19801	22242.15
1597.52172	23449.45
1600.84321	24018.55
1604.16251	23421.65
1607.47959	22050.45
1610.79447	20532.15
1614.10715	19068.85
1617.41763	17980.85
1620.7259	17219.05
1624.03199	16858.35
1627.33587	16872.15
1630.63757	17231.45
1633.93707	18010.85
1637.23439	19241.25
1640.52951	21103.85
1643.82246	23419.65
1647.11321	25600.55
1650.40179	26282.45
1653.68819	24856.45
1656.97241	21951.25
1660.25446	19128.95
1663.53433	17125.65
1666.81203	15925.65
1670.08756	15227.95
1673.36092	14833.65
1676.63211	14520.75
1679.90115	14353.45
1683.16801	14189.45
1686.43272	14047.25
1689.69527	13916.45
1692.95567	13780.65
1696.2139	13644.15
1699.46999	13542.75
1702.72392	13481.45
1705.97571	13538.05
1709.22535	13608.95
1712.47284	13649.15
1715.71819	13648.35
1718.96139	13667.15
1722.20246	13634.05
1725.44139	13620.45
1728.67818	13566.55
1731.91284	13495.55
1735.14537	13417.65
1738.37576	13400.25
1741.60403	13326.75
1744.83017	13291.85
1748.05418	13251.95
1751.27607	13203.85
1754.49584	13135.05
1757.71349	13115.05
1760.92903	13075.05
1764.14244	13073.35
1767.35375	13091.25
1770.56294	12999.35
1773.77002	12984.85
1776.97499	13037.35
1780.17785	13068.05
1783.37861	13062.65
1786.57727	13105.85
1789.77382	13071.05
1792.96828	13041.85
1796.16064	13022.35
1799.3509	12998.55
1802.53907	12999.15
1805.72514	12943.95
1808.90913	12962.85
1812.09102	12934.55
1815.27083	12912.05
1818.44856	12911.75
1821.6242	12913.75
1824.79776	12886.65
1827.96924	12873.55
1831.13864	12854.55
1834.30597	12840.45
1837.47122	12839.75
1840.6344	12836.85
1843.7955	12819.55
1846.95454	12861.65
1850.11151	12838.25
1853.26642	12818.95
1856.41926	12830.65
1859.57004	12812.95
1862.71876	12783.35
1865.86542	12773.25
1869.01003	12747.95
1872.15258	12737.35
1875.29308	12743.65
1878.43152	12715.05
1881.56792	12731.75
1884.70227	12681.85
1887.83457	12681.85
1890.96482	12689.35
1894.09304	12679.75
1897.21921	12682.85
1900.34335	12660.75
1903.46544	12620.65
1906.58551	12634.55
1909.70353	12623.25
1912.81953	12626.15
1915.93349	12606.65
1919.04543	12605.35
1922.15534	12565.65
1925.26322	12524.55
1928.36908	12525.35
1931.47292	12509.65
1934.57473	12474.35
1937.67453	12462.75
1940.77232	12458.15
1943.86808	12420.35
1946.96184	12387.25
1950.05358	12318.35
1953.14331	12293.65
1956.23103	12275.85
1959.31675	12236.65
1962.40046	12221.55
1965.48217	12174.25
1968.56188	12147.95
1971.63959	12128.75
1974.7153	12084.25
1977.78901	12054.35
1980.86073	12051.25
1983.93046	12009.95
1986.99819	11963.65
1990.06394	11946.35
1993.1277	11917.15
1996.18947	11872.65
1999.24925	11858.75
2002.30706	11792.55
2005.36288	11762.95
2008.41672	11779.25
2011.46859	11703.95
2014.51848	11680.25
2017.56639	11654.45
2020.61233	11663.35
2023.6563	11619.25
2026.6983	11582.75
2029.73833	11601.35
2032.7764	11526.45
2035.8125	11496.25
2038.84664	11492.45
2041.87881	11510.75
2044.90903	11499.95
2047.93729	11465.55
2050.96359	11466.65
2053.98794	11469.75
2057.01034	11421.25
2060.03078	11457.45
2063.04927	11409.45
2066.06582	11427.55
2069.08042	11381.25
2072.09307	11391.95
2075.10378	11379.65
2078.11255	11415.15
2081.11938	11381.65
2084.12426	11397.75
2087.12722	11386.75
2090.12824	11388.75
2093.12732	11401.55
2096.12447	11399.25
2099.11969	11389.25
2102.11299	11392.45
2105.10435	11392.35
2108.09379	11409.85
2111.08131	11433.95
2114.0669	11417.45
2117.05057	11432.45
2120.03233	11454.95
2123.01216	11478.15
2125.99008	11487.35
2128.96609	11496.85
2131.94018	11512.35
2134.91236	11499.35
2137.88263	11533.75
2140.851	11536.35
2143.81746	11553.35
2146.78201	11523.45
2149.74466	11521.45
2152.7054	11535.55
2155.66425	11545.45
2158.6212	11549.05
2161.57625	11541.45
2164.52941	11560.25
2167.48067	11542.05
2170.43004	11539.15
2173.37752	11547.45
2176.32311	11545.15
2179.26681	11543.75
2182.20863	11541.55
2185.14856	11576.15
2188.08661	11585.15
2191.02278	11579.45
2193.95707	11567.25
2196.88948	11587.25
2199.82001	11562.75
2202.74867	11565.25
2205.67545	11543.25
2208.60037	11540.65
2211.52341	11515.45
2214.44458	11527.65
2217.36388	11492.25
2220.28132	11457.45
2223.1969	11456.05
2226.11061	11466.65
2229.02246	11452.55
2231.93245	11440.15
2234.84058	11409.65
2237.74686	11414.15
2240.65128	11388.15
2243.55385	11404.45
2246.45456	11369.15
2249.35343	11371.65
2252.25044	11343.25
2255.14561	11363.15
2258.03893	11346.95
2260.93041	11313.05
2263.82004	11309.95
2266.70783	11264.25
2269.59378	11253.85
2272.4779	11219.85
2275.36017	11213.85
2278.24061	11196.65
2281.11922	11172.45
2283.996	11155.95
2286.87094	11134.15
2289.74405	11126.75
2292.61534	11123.45
2295.4848	11141.85
2298.35243	11122.85
2301.21824	11131.95
2304.08223	11126.85
2306.94439	11131.15
2309.80474	11116.05
2312.66327	11158.75
2315.51999	11139.55
2318.37489	11136.65
2321.22797	11087.65
2324.07925	11082.65
2326.92871	11101.15
2329.77637	11099.35
2332.62222	11078.95
2335.46626	11063.55
2338.3085	11074.55
2341.14893	11059.25
2343.98756	11068.65
2346.8244	11073.95
2349.65943	11060.05
2352.49267	11028.85
2355.32411	11030.25
2358.15376	11041.55
2360.98161	11041.75
2363.80768	11019.25
2366.63195	11025.95
2369.45444	11014.95
2372.27514	10999.35
2375.09405	11015.45
2377.91118	11001.55
2380.72652	10965.05
2383.54009	10930.85
2386.35187	10907.45
2389.16188	10903.25
2391.97011	10885.75
2394.77657	10863.65
2397.58125	10850.05
2400.38416	10853.35
2403.18529	10837.35
2405.98466	10841.35
2408.78226	10789.05
2411.57809	10776.35
2414.37216	10750.25
2417.16446	10758.85
2419.955	10755.35
2422.74378	10759.45
2425.5308	10725.05
2428.31606	10709.25
2431.09956	10743.15
2433.88131	10721.75
2436.6613	10734.65
2439.43954	10739.95
2442.21603	10720.85
2444.99077	10711.95
2447.76377	10718.15
2450.53501	10737.65
2453.30451	10735.05
2456.07226	10691.05
2458.83827	10696.35
2461.60254	10690.15
2464.36507	10705.45
2467.12586	10704.85
2469.88492	10695.65
2472.64224	10719.55
2475.39782	10684.45
2478.15167	10705.45
2480.90379	10692.45
2483.65417	10715.75
2486.40283	10731.95
2489.14976	10736.15
2491.89497	10742.05
2494.63845	10749.45
2497.3802	10734.55
2500.12024	10731.95
2502.85855	10753.25
2505.59514	10736.35
2508.33002	10697.45
2511.06318	10703.45
2513.79462	10677.15
2516.52435	10659.95
2519.25237	10650.85
2521.97867	10637.65
2524.70327	10622.05
2527.42616	10604.65
2530.14734	10610.45
2532.86681	10600.15
2535.58458	10638.75
2538.30065	10617.35
2541.01501	10627.05
2543.72768	10579.25
2546.43864	10569.85
2549.14791	10562.25
2551.85548	10550.45
2554.56136	10534.15
2557.26554	10524.55
2559.96803	10567.95
2562.66883	10531.05
2565.36794	10516.95
2568.06536	10533.15
2570.7611	10497.45
2573.45514	10474.85
2576.14751	10471.85
2578.83819	10464.55
2581.52719	10448.65
2584.21451	10465.85
2586.90015	10464.55
2589.58411	10429.95
2592.2664	10444.35
2594.94701	10415.85
2597.62594	10423.65
2600.30321	10409.35
2602.9788	10427.95
2605.65273	10421.05
2608.32498	10426.95
2610.99557	10403.25
2613.66449	10390.35
2616.33175	10382.35
2618.99734	10423.95
2621.66128	10370.75
2624.32355	10358.65
2626.98416	10367.15
2629.64311	10380.65
2632.30041	10344.35
2634.95605	10318.65
2637.61004	10325.55
2640.26238	10320.05
2642.91306	10300.45
2645.56209	10307.65
2648.20948	10280.65
2650.85521	10294.35
2653.4993	10272.35
2656.14175	10253.75
2658.78255	10300.65
2661.42171	10300.25
2664.05923	10319.65
2666.6951	10340.95
2669.32934	10358.85
2671.96194	10348.95
2674.59291	10330.05
2677.22224	10351.65
2679.84993	10351.05
2682.476	10307.05
2685.10043	10302.75
2687.72324	10303.15
2690.34441	10306.55
2692.96396	10276.55
2695.58188	10287.35
2698.19818	10302.65
2700.81285	10286.55
2703.4259	10290.35
2706.03733	10227.75
2708.64714	10263.25
2711.25533	10304.45
2713.86191	10299.45
2716.46687	10327.15
2719.07021	10338.05
2721.67194	10366.45
2724.27206	10343.55
2726.87057	10346.05
2729.46747	10373.95
2732.06276	10382.15
2734.65644	10375.55
2737.24852	10366.05
2739.83899	10357.35
2742.42786	10367.45
2745.01513	10363.15
2747.60079	10326.75
2750.18486	10322.45
2752.76733	10344.05
2755.3482	10313.55
2757.92747	10292.95
2760.50515	10306.25
2763.08123	10287.45
2765.65573	10284.75
2768.22863	10239.55
2770.79994	10249.75
2773.36967	10237.75
2775.9378	10223.65
2778.50435	10234.35
2781.06932	10250.15
2783.6327	10258.55
2786.1945	10291.55
2788.75471	10238.65
2791.31335	10236.55
2793.87041	10205.05
2796.42589	10169.75
2798.97979	10174.65
2801.53212	10172.15
2804.08288	10144.25
2806.63206	10140.55
2809.17967	10109.65
2811.72571	10099.35
2814.27018	10072.35
2816.81308	10067.25
2819.35442	10082.85
2821.89419	10093.05
2824.43239	10062.65
2826.96904	10039.95
2829.50412	10084.15
2832.03763	10066.35
2834.56959	10079.35
2837.1	10077.25
2839.62884	10062.35
2842.15613	10073.65
2844.68186	10073.35
2847.20604	10078.85
2849.72867	10074.85
2852.24974	10060.05
2854.76927	10065.55
2857.28724	10043.95
2859.80367	10050.45
2862.31855	10063.35
2864.83189	10041.65
2867.34368	10029.05
2869.85393	10038.35
2872.36264	10020.25
2874.8698	10052.95
2877.37543	10041.35
2879.87952	10012.15
2882.38207	10041.85
2884.88308	10055.25
2887.38256	10066.55
2889.88051	10058.35
2892.37692	10064.65
2894.8718	10052.75
2897.36515	10093.15
2899.85698	10113.45
2902.34727	10098.85
2904.83604	10134.55
2907.32328	10153.55
2909.809	10144.35
2912.29319	10133.05
2914.77587	10132.35
2917.25702	10154.15
2919.73665	10140.05
2922.21476	10143.05
2924.69136	10124.95
2927.16644	10149.65
2929.64	10138.55
2932.11205	10088.65
2934.58258	10084.35
2937.05161	10092.05
2939.51912	10089.95
2941.98513	10097.25
2944.44962	10078.65
2946.91261	10043.45
2949.37409	10061.95
2951.83407	10038.05
2954.29254	10037.35
2956.74951	10027.75
2959.20498	9990.65
2961.65895	9980.15
2964.11142	9988.75
2966.56239	9974.55
2969.01186	9974.35
2971.45984	9967.25
2973.90632	9951.85
2976.35131	9929.65
2978.7948	9894.35
2981.23681	9907.85
2983.67732	9894.15
2986.11635	9876.25
2988.55388	9854.95
2990.98993	9862.35
2993.4245	9805.15
2995.85758	9799.25
2998.28917	9794.75
3000.71928	9773.95
3003.14791	9760.35
3005.57506	9738.25
3008.00073	9701.25
3010.42493	9732.55
3012.84764	9705.85
3015.26888	9708.95
3017.68865	9695.65
3020.10694	9703.95
3022.52376	9675.95
3024.9391	9662.75
3027.35298	9675.75
3029.76539	9645.55
3032.17632	9637.85
3034.5858	9634.95
3036.9938	9637.35
3039.40034	9620.45
3041.80542	9625.25
3044.20903	9604.55
3046.61118	9589.65
3049.01187	9575.05
3051.4111	9597.65
3053.80888	9573.35
3056.20519	9578.95
3058.60005	9547.65
3060.99345	9565.45
3063.3854	9503.95
3065.7759	9505.25
3068.16494	9493.35
3070.55254	9465.75
3072.93868	9446.75
3075.32338	9420.65
3077.70662	9438.25
3080.08842	9396.15
3082.46878	9394.25
3084.84769	9370.65
3087.22515	9364.75
3089.60118	9388.85
3091.97576	9394.35
3094.3489	9389.65
3096.72061	9386.15
3099.09087	9398.85
3101.4597	9386.25
3103.82709	9396.65
3106.19305	9382.15
3108.55757	9399.55
3110.92066	9375.55
3113.28232	9380.95
3115.64255	9332.25
3118.00134	9335.25
3120.35871	9317.75
3122.71466	9308.25
3125.06917	9322.45
3127.42226	9294.35
3129.77393	9298.65
3132.12417	9306.65
3134.47299	9279.05
3136.82039	9275.85
3139.16636	9276.85
3141.51092	9256.15
3143.85406	9267.25
3146.19579	9288.45
3148.53609	9283.85
3150.87499	9288.65
3153.21246	9330.35
3155.54853	9367.75
3157.88318	9357.75
3160.21642	9357.25
3162.54826	9351.05
3164.87868	9332.65
3167.2077	9333.75
3169.5353	9328.15
3171.86151	9333.45
3174.18631	9348.55
3176.5097	9329.85
3178.83169	9333.05
3181.15228	9310.95
3183.47147	9300.55
3185.78926	9305.65
3188.10565	9316.45
3190.42065	9306.85
3192.73424	9315.05
3195.04645	9301.35
3197.35725	9288.85
3199.66667	9301.75
3201.97469	9323.75
3204.28132	9301.35
3206.58656	9295.95
3208.8904	9295.25
3211.19287	9311.65
3213.49394	9341.75
3215.79363	9338.25
3218.09193	9349.55
3220.38884	9349.45
3222.68438	9326.55
3224.97853	9323.15
3227.2713	9330.35
3229.56269	9333.15
3231.8527	9329.85
3234.14133	9293.45
3236.42858	9294.95
3238.71446	9277.35
3240.99896	9274.75
3243.28209	9269.25
3245.56384	9239.75
3247.84423	9264.65
3250.12324	9253.05
3252.40088	9245.55
3254.67715	9261.35
3256.95205	9234.15
3259.22558	9243.65
3261.49775	9225.85
3263.76855	9260.55
3266.03799	9233.55
3268.30606	9225.55
3270.57277	9198.55
3272.83812	9195.05
3275.10211	9172.55
3277.36474	9144.55
3279.62601	9163.95
3281.88593	9121.65
3284.14448	9143.85
3286.40168	9137.25
3288.65753	9142.25
3290.91202	9138.45
3293.16516	9116.65
3295.41695	9099.45
3297.66738	9066.45
3299.91647	9029.65
3302.16421	8993.05
3304.4106	8952.75
3306.65564	8904.05
3308.89933	8836.75
3311.14169	8790.25
3313.38269	8696.75
3315.62236	8641.05
3317.86068	8580.95
3320.09766	8538.15
3322.3333	8480.25
3324.5676	8469.65
3326.80056	8296.85
3329.03219	8265.65
3331.26248	3.15
3333.49143	-1.65
3335.71905	0.55
