Data from AgNPs_FTO_APTES_UA_50uM_CRN_5uM_R6G_10uM_NaF_0.1M_Addition_RamanShift__13__12-47-44-824.txt Node

Date: Mon Feb 21 12:47:44 GMT 2022
User: TCL
Spectrometer: QEP01345
Trigger mode: 4
Integration Time (sec): 7.000000E0
Scans to average: 10
Electric dark correction enabled: true
Nonlinearity correction enabled: false
Boxcar width: 0
XAxis mode: Raman Shifts
Number of Pixels in Spectrum: 1044
>>>>>Begin Spectral Data<<<<<
46.04893	-0.25
50.45542	-0.65
54.85868	0.05
59.25871	-1.25
63.6555	44.85
68.04907	46.75
72.43941	48.95
76.82654	53.55
81.21044	56.65
85.59113	56.65
89.96862	60.15
94.34289	66.35
98.71396	64.15
103.08183	68.85
107.4465	70.05
111.80798	72.35
116.16626	69.55
120.52136	68.95
124.87327	76.65
129.222	71.45
133.56755	75.85
137.90993	82.45
142.24913	89.95
146.58517	95.85
150.91804	105.05
155.24774	126.05
159.57429	154.45
163.89768	189.65
168.21792	243.85
172.53501	331.85
176.84895	463.55
181.15975	643.05
185.46741	902.05
189.77193	1250.85
194.07331	1671.95
198.37157	2147.65
202.6667	2674.35
206.9587	3177.85
211.24758	3662.05
215.53334	4170.45
219.81599	4691.95
224.09553	5287.05
228.37195	5903.75
232.64527	6621.25
236.91549	7394.35
241.18261	8172.45
245.44663	8871.45
249.70755	9526.05
253.96539	10055.85
258.22014	10472.25
262.4718	10791.25
266.72039	10936.25
270.96589	10991.95
275.20832	10932.95
279.44768	10767.85
283.68397	10555.25
287.91719	10336.45
292.14735	10187.15
296.37445	10100.35
300.59849	10032.45
304.81948	10023.05
309.03742	9982.95
313.25231	9896.25
317.46415	9740.45
321.67296	9515.65
325.87872	9314.45
330.08145	9239.15
334.28114	9197.65
338.47781	9260.75
342.67145	9366.25
346.86207	9489.25
351.04966	9664.95
355.23424	9844.05
359.4158	9992.95
363.59435	10090.65
367.76989	10171.45
371.94243	10182.65
376.11196	10227.05
380.27849	10215.85
384.44203	10260.95
388.60257	10322.85
392.76012	10399.05
396.91468	10487.25
401.06626	10676.95
405.21485	10738.85
409.36047	10720.55
413.50311	10517.25
417.64277	10419.15
421.77947	10372.95
425.9132	10390.15
430.04396	10433.45
434.17176	10481.65
438.2966	10582.15
442.41849	10729.55
446.53742	10949.15
450.6534	11153.75
454.76644	11292.45
458.87653	11335.65
462.98368	11369.85
467.08789	11312.05
471.18916	11240.85
475.2875	11147.55
479.38291	11041.55
483.4754	10981.85
487.56496	10932.15
491.6516	10861.45
495.73531	10752.85
499.81612	10725.75
503.89401	10793.75
507.96899	10798.55
512.04106	10817.35
516.11023	10796.65
520.1765	10748.05
524.23987	10683.35
528.30034	10625.85
532.35792	10538.25
536.41261	10459.15
540.46441	10356.65
544.51333	10339.05
548.55936	10435.45
552.60252	10577.95
556.64279	10758.65
560.6802	10888.65
564.71473	10940.85
568.7464	11124.45
572.7752	11437.55
576.80114	11742.95
580.82422	11987.25
584.84444	12249.05
588.86181	12576.25
592.87633	12893.15
596.888	13007.15
600.89682	12781.75
604.9028	12761.85
608.90594	13490.75
612.90624	14375.65
616.90371	13574.75
620.89834	11702.75
624.89015	10872.05
628.87913	10773.45
632.86528	10889.95
636.84862	10946.85
640.82913	10797.65
644.80683	10553.35
648.78172	10373.75
652.75379	10339.85
656.72306	10438.25
660.68952	10628.75
664.65319	10611.65
668.61405	10507.15
672.57211	10483.85
676.52738	10541.25
680.47986	10598.95
684.42955	10591.55
688.37646	10593.35
692.32058	10658.55
696.26192	10687.45
700.20048	10737.15
704.13626	10728.15
708.06928	10750.45
711.99952	10664.05
715.927	10655.65
719.85171	10606.25
723.77365	10551.65
727.69284	10399.05
731.60928	10281.95
735.52295	10254.35
739.43388	10277.35
743.34206	10303.05
747.24749	10329.65
751.15017	10458.05
755.05012	10592.15
758.94733	10854.05
762.8418	11323.15
766.73354	12111.55
770.62254	12856.85
774.50882	13103.45
778.39237	12606.45
782.27321	11838.35
786.15132	11198.75
790.02671	10749.15
793.89938	10520.25
797.76935	10363.15
801.6366	10314.25
805.50115	10242.55
809.36299	10189.45
813.22213	10143.15
817.07857	10127.35
820.93231	10132.15
824.78336	10084.15
828.63172	10036.45
832.47738	10039.65
836.32036	10021.05
840.16066	9997.95
843.99827	9991.05
847.8332	10005.65
851.66546	10017.15
855.49504	10025.75
859.32195	10051.25
863.1462	10017.85
866.96777	10016.05
870.78668	9995.15
874.60293	10007.85
878.41652	10033.25
882.22745	10077.95
886.03573	10103.25
889.84136	10111.15
893.64433	10115.95
897.44466	10115.15
901.24235	10133.85
905.0374	10110.75
908.8298	10099.65
912.61957	10097.65
916.40671	10149.45
920.19121	10244.25
923.97308	10320.95
927.75233	10346.05
931.52895	10289.05
935.30295	10157.15
939.07433	9959.05
942.84309	9841.75
946.60924	9755.85
950.37278	9695.85
954.13371	9709.55
957.89203	9688.15
961.64774	9679.75
965.40086	9647.25
969.15137	9661.35
972.89929	9626.45
976.64461	9589.15
980.38733	9568.75
984.12747	9557.45
987.86502	9587.95
991.59999	9633.65
995.33237	9666.65
999.06217	9805.85
1002.78939	9938.65
1006.51404	10083.55
1010.23611	10275.25
1013.95561	10366.15
1017.67255	10363.35
1021.38692	10313.75
1025.09872	10180.35
1028.80796	10037.25
1032.51465	10003.05
1036.21877	9987.85
1039.92035	10022.95
1043.61937	10086.95
1047.31584	10118.25
1051.00976	10161.55
1054.70114	10173.65
1058.38998	10245.15
1062.07627	10318.15
1065.76003	10400.75
1069.44126	10524.25
1073.11995	10693.95
1076.79611	10845.95
1080.46974	10918.85
1084.14085	10975.75
1087.80943	11092.25
1091.47549	11171.85
1095.13903	11197.95
1098.80005	11099.65
1102.45857	10848.25
1106.11456	10674.45
1109.76805	10546.55
1113.41903	10521.85
1117.06751	10597.65
1120.71348	10710.45
1124.35696	10827.15
1127.99793	10986.55
1131.63641	11082.65
1135.2724	11048.35
1138.90589	11017.65
1142.5369	10961.05
1146.16542	10988.85
1149.79145	11039.35
1153.415	11136.95
1157.03607	11226.75
1160.65467	11406.05
1164.27079	11678.15
1167.88443	12105.75
1171.49561	12688.65
1175.10432	13462.35
1178.71056	14373.65
1182.31434	15258.35
1185.91565	15760.45
1189.51451	15848.75
1193.11091	15647.75
1196.70485	15146.85
1200.29634	14555.05
1203.88538	14020.35
1207.47197	13598.85
1211.05612	13294.55
1214.63782	13029.05
1218.21708	12808.95
1221.79391	12616.05
1225.36829	12543.25
1228.94024	12449.35
1232.50976	12368.95
1236.07685	12257.35
1239.6415	12166.85
1243.20374	12123.05
1246.76355	12115.65
1250.32093	12195.95
1253.8759	12341.95
1257.42845	12618.45
1260.97859	12986.65
1264.52631	13332.35
1268.07163	13694.85
1271.61453	14054.55
1275.15503	14379.85
1278.69312	14717.05
1282.22882	15087.85
1285.76211	15506.95
1289.29301	15959.45
1292.82151	16496.15
1296.34761	17115.95
1299.87133	17772.95
1303.39266	18522.35
1306.9116	19245.35
1310.42815	19849.35
1313.94233	20167.05
1317.45412	20037.05
1320.96354	19718.85
1324.47058	19398.35
1327.97525	19083.95
1331.47754	18876.45
1334.97747	18778.25
1338.47502	18723.05
1341.97022	18741.55
1345.46305	18868.85
1348.95352	18968.55
1352.44163	19141.75
1355.92738	19468.65
1359.41078	20031.95
1362.89183	20691.15
1366.37053	20594.15
1369.84688	19307.55
1373.32088	17573.75
1376.79254	16275.45
1380.26186	15558.15
1383.72883	15232.25
1387.19347	14943.35
1390.65578	14716.45
1394.11575	14592.95
1397.57339	14528.95
1401.0287	14523.55
1404.48168	14493.65
1407.93234	14374.05
1411.38068	14186.05
1414.82669	13882.95
1418.27039	13552.15
1421.71177	13224.05
1425.15083	12921.55
1428.58758	12784.55
1432.02203	12789.55
1435.45416	12921.25
1438.88399	13059.95
1442.31151	13242.25
1445.73673	13374.25
1449.15965	13512.35
1452.58027	13657.85
1455.9986	13766.55
1459.41463	13899.05
1462.82837	14082.05
1466.23982	14325.25
1469.64898	14560.85
1473.05586	14677.15
1476.46045	14714.75
1479.86276	14778.65
1483.26279	14818.25
1486.66054	14946.35
1490.05602	15190.65
1493.44922	15534.55
1496.84016	16045.15
1500.22882	16650.25
1503.61521	17310.65
1506.99934	18007.75
1510.38121	18416.65
1513.76081	18421.95
1517.13816	17904.95
1520.51324	17225.05
1523.88607	16670.25
1527.25665	16242.65
1530.62498	16017.55
1533.99105	15735.05
1537.35488	15459.55
1540.71647	15056.85
1544.07581	14685.55
1547.4329	14330.35
1550.78776	14112.65
1554.14038	13995.75
1557.49077	13959.15
1560.83892	14022.75
1564.18484	14170.25
1567.52853	14302.15
1570.86999	14443.95
1574.20922	14625.65
1577.54624	14709.05
1580.88103	14619.45
1584.2136	14456.05
1587.54395	14505.75
1590.87208	14869.25
1594.19801	15354.75
1597.52172	15851.75
1600.84321	15929.75
1604.16251	15396.65
1607.47959	14525.35
1610.79447	13644.65
1614.10715	12846.45
1617.41763	12105.95
1620.7259	11623.05
1624.03199	11351.45
1627.33587	11320.15
1630.63757	11535.85
1633.93707	12082.05
1637.23439	13028.25
1640.52951	14418.05
1643.82246	16032.35
1647.11321	17378.05
1650.40179	17794.85
1653.68819	16881.55
1656.97241	15046.05
1660.25446	13156.55
1663.53433	11705.25
1666.81203	10778.05
1670.08756	10195.85
1673.36092	9844.45
1676.63211	9636.25
1679.90115	9474.75
1683.16801	9354.95
1686.43272	9218.75
1689.69527	9118.35
1692.95567	9005.45
1696.2139	8866.75
1699.46999	8744.45
1702.72392	8691.25
1705.97571	8766.85
1709.22535	8808.65
1712.47284	8850.05
1715.71819	8860.45
1718.96139	8860.05
1722.20246	8859.95
1725.44139	8788.25
1728.67818	8738.15
1731.91284	8699.25
1735.14537	8635.25
1738.37576	8594.55
1741.60403	8549.45
1744.83017	8522.85
1748.05418	8482.05
1751.27607	8413.05
1754.49584	8374.15
1757.71349	8315.35
1760.92903	8265.15
1764.14244	8232.65
1767.35375	8242.45
1770.56294	8204.65
1773.77002	8197.15
1776.97499	8237.15
1780.17785	8289.45
1783.37861	8288.65
1786.57727	8290.25
1789.77382	8314.45
1792.96828	8273.45
1796.16064	8256.45
1799.3509	8253.45
1802.53907	8227.25
1805.72514	8221.05
1808.90913	8202.05
1812.09102	8187.15
1815.27083	8171.15
1818.44856	8142.85
1821.6242	8150.15
1824.79776	8128.05
1827.96924	8128.95
1831.13864	8137.45
1834.30597	8134.85
1837.47122	8131.25
1840.6344	8131.85
1843.7955	8112.25
1846.95454	8128.15
1850.11151	8145.45
1853.26642	8123.15
1856.41926	8142.15
1859.57004	8130.25
1862.71876	8112.25
1865.86542	8083.95
1869.01003	8070.55
1872.15258	8070.05
1875.29308	8072.55
1878.43152	8036.45
1881.56792	8024.15
1884.70227	8009.75
1887.83457	8023.85
1890.96482	7978.95
1894.09304	7970.25
1897.21921	7943.35
1900.34335	7942.95
1903.46544	7935.65
1906.58551	7919.85
1909.70353	7913.95
1912.81953	7912.85
1915.93349	7891.45
1919.04543	7887.45
1922.15534	7880.35
1925.26322	7848.15
1928.36908	7792.05
1931.47292	7786.15
1934.57473	7749.65
1937.67453	7731.95
1940.77232	7720.85
1943.86808	7686.35
1946.96184	7706.05
1950.05358	7669.55
1953.14331	7634.15
1956.23103	7614.35
1959.31675	7595.25
1962.40046	7557.15
1965.48217	7545.75
1968.56188	7533.95
1971.63959	7503.55
1974.7153	7470.05
1977.78901	7457.55
1980.86073	7422.75
1983.93046	7400.55
1986.99819	7358.05
1990.06394	7349.35
1993.1277	7327.95
1996.18947	7305.85
1999.24925	7278.15
2002.30706	7264.05
2005.36288	7260.15
2008.41672	7208.45
2011.46859	7184.15
2014.51848	7187.45
2017.56639	7159.85
2020.61233	7150.85
2023.6563	7130.15
2026.6983	7084.65
2029.73833	7086.25
2032.7764	7076.55
2035.8125	7037.15
2038.84664	7027.45
2041.87881	7016.55
2044.90903	7011.55
2047.93729	7007.15
2050.96359	7008.05
2053.98794	6973.55
2057.01034	6974.35
2060.03078	6994.85
2063.04927	6994.05
2066.06582	6984.45
2069.08042	6966.55
2072.09307	6968.45
2075.10378	6976.25
2078.11255	6978.95
2081.11938	6945.95
2084.12426	6960.55
2087.12722	6986.15
2090.12824	6978.85
2093.12732	6978.85
2096.12447	6986.25
2099.11969	6972.25
2102.11299	6993.25
2105.10435	7011.35
2108.09379	7004.85
2111.08131	7022.35
2114.0669	7014.15
2117.05057	7041.35
2120.03233	7030.75
2123.01216	7034.55
2125.99008	7040.25
2128.96609	7038.35
2131.94018	7051.35
2134.91236	7055.25
2137.88263	7066.05
2140.851	7058.45
2143.81746	7031.45
2146.78201	7014.65
2149.74466	7033.15
2152.7054	7023.45
2155.66425	7040.85
2158.6212	7012.25
2161.57625	7027.85
2164.52941	7011.35
2167.48067	6982.85
2170.43004	6971.75
2173.37752	6972.85
2176.32311	6957.15
2179.26681	6982.15
2182.20863	6967.55
2185.14856	6966.35
2188.08661	6949.15
2191.02278	6961.55
2193.95707	6908.85
2196.88948	6931.05
2199.82001	6921.35
2202.74867	6905.75
2205.67545	6894.45
2208.60037	6899.05
2211.52341	6866.05
2214.44458	6866.95
2217.36388	6863.25
2220.28132	6834.85
2223.1969	6815.95
2226.11061	6844.95
2229.02246	6821.65
2231.93245	6808.15
2234.84058	6778.85
2237.74686	6768.75
2240.65128	6798.25
2243.55385	6771.45
2246.45456	6779.55
2249.35343	6763.55
2252.25044	6736.25
2255.14561	6725.95
2258.03893	6727.35
2260.93041	6685.55
2263.82004	6694.25
2266.70783	6671.15
2269.59378	6653.15
2272.4779	6653.35
2275.36017	6616.15
2278.24061	6623.25
2281.11922	6584.15
2283.996	6589.75
2286.87094	6564.05
2289.74405	6547.95
2292.61534	6557.05
2295.4848	6551.75
2298.35243	6540.45
2301.21824	6545.15
2304.08223	6532.65
2306.94439	6521.35
2309.80474	6497.65
2312.66327	6494.95
2315.51999	6500.15
2318.37489	6490.35
2321.22797	6485.85
2324.07925	6479.95
2326.92871	6455.25
2329.77637	6444.75
2332.62222	6432.35
2335.46626	6409.95
2338.3085	6395.95
2341.14893	6416.15
2343.98756	6418.45
2346.8244	6398.85
2349.65943	6417.65
2352.49267	6395.05
2355.32411	6398.05
2358.15376	6401.75
2360.98161	6409.85
2363.80768	6392.25
2366.63195	6396.45
2369.45444	6404.35
2372.27514	6394.55
2375.09405	6389.85
2377.91118	6401.45
2380.72652	6359.45
2383.54009	6356.35
2386.35187	6338.95
2389.16188	6296.35
2391.97011	6311.25
2394.77657	6305.55
2397.58125	6255.55
2400.38416	6270.05
2403.18529	6266.45
2405.98466	6264.05
2408.78226	6260.35
2411.57809	6253.05
2414.37216	6239.75
2417.16446	6226.55
2419.955	6219.55
2422.74378	6216.75
2425.5308	6220.05
2428.31606	6192.55
2431.09956	6232.95
2433.88131	6211.35
2436.6613	6213.05
2439.43954	6185.45
2442.21603	6185.85
2444.99077	6197.85
2447.76377	6181.25
2450.53501	6198.45
2453.30451	6170.55
2456.07226	6170.55
2458.83827	6175.15
2461.60254	6177.25
2464.36507	6172.85
2467.12586	6156.55
2469.88492	6144.65
2472.64224	6148.75
2475.39782	6124.35
2478.15167	6104.15
2480.90379	6113.05
2483.65417	6142.65
2486.40283	6133.65
2489.14976	6137.25
2491.89497	6136.05
2494.63845	6118.95
2497.3802	6117.15
2500.12024	6109.35
2502.85855	6100.75
2505.59514	6112.55
2508.33002	6101.95
2511.06318	6090.75
2513.79462	6090.65
2516.52435	6071.65
2519.25237	6076.65
2521.97867	6061.55
2524.70327	6052.95
2527.42616	6038.85
2530.14734	6046.15
2532.86681	6041.65
2535.58458	6047.45
2538.30065	6010.15
2541.01501	6018.75
2543.72768	6015.25
2546.43864	6011.15
2549.14791	5983.25
2551.85548	5989.45
2554.56136	5968.05
2557.26554	5961.25
2559.96803	5963.55
2562.66883	5980.25
2565.36794	5952.15
2568.06536	5953.95
2570.7611	5948.45
2573.45514	5919.25
2576.14751	5948.35
2578.83819	5899.15
2581.52719	5891.25
2584.21451	5900.45
2586.90015	5889.25
2589.58411	5874.05
2592.2664	5872.95
2594.94701	5862.55
2597.62594	5860.75
2600.30321	5859.25
2602.9788	5842.55
2605.65273	5839.35
2608.32498	5845.05
2610.99557	5834.05
2613.66449	5831.35
2616.33175	5833.95
2618.99734	5822.25
2621.66128	5804.95
2624.32355	5791.45
2626.98416	5781.45
2629.64311	5775.65
2632.30041	5771.55
2634.95605	5762.15
2637.61004	5770.25
2640.26238	5754.35
2642.91306	5747.65
2645.56209	5736.45
2648.20948	5728.05
2650.85521	5739.75
2653.4993	5753.15
2656.14175	5766.05
2658.78255	5763.95
2661.42171	5759.15
2664.05923	5780.05
2666.6951	5782.45
2669.32934	5773.15
2671.96194	5770.05
2674.59291	5774.25
2677.22224	5781.65
2679.84993	5770.35
2682.476	5764.55
2685.10043	5760.85
2687.72324	5766.15
2690.34441	5760.55
2692.96396	5745.65
2695.58188	5769.75
2698.19818	5760.85
2700.81285	5746.85
2703.4259	5714.75
2706.03733	5648.55
2708.64714	5681.95
2711.25533	5736.15
2713.86191	5730.85
2716.46687	5739.15
2719.07021	5745.15
2721.67194	5767.25
2724.27206	5753.05
2726.87057	5779.25
2729.46747	5780.25
2732.06276	5758.45
2734.65644	5774.25
2737.24852	5756.05
2739.83899	5761.95
2742.42786	5748.25
2745.01513	5764.55
2747.60079	5735.15
2750.18486	5740.65
2752.76733	5716.05
2755.3482	5718.05
2757.92747	5722.35
2760.50515	5715.75
2763.08123	5729.45
2765.65573	5690.55
2768.22863	5701.05
2770.79994	5699.05
2773.36967	5706.55
2775.9378	5683.45
2778.50435	5688.45
2781.06932	5650.55
2783.6327	5667.95
2786.1945	5657.85
2788.75471	5648.45
2791.31335	5654.45
2793.87041	5650.95
2796.42589	5610.85
2798.97979	5628.55
2801.53212	5603.55
2804.08288	5605.65
2806.63206	5595.95
2809.17967	5577.25
2811.72571	5567.15
2814.27018	5559.55
2816.81308	5537.55
2819.35442	5540.75
2821.89419	5522.65
2824.43239	5521.55
2826.96904	5541.05
2829.50412	5524.35
2832.03763	5505.45
2834.56959	5523.75
2837.1	5499.35
2839.62884	5503.35
2842.15613	5487.65
2844.68186	5508.05
2847.20604	5508.15
2849.72867	5521.15
2852.24974	5509.65
2854.76927	5487.85
2857.28724	5452.95
2859.80367	5486.45
2862.31855	5483.25
2864.83189	5489.15
2867.34368	5476.25
2869.85393	5496.95
2872.36264	5484.75
2874.8698	5499.05
2877.37543	5482.65
2879.87952	5492.65
2882.38207	5479.85
2884.88308	5479.65
2887.38256	5494.85
2889.88051	5502.35
2892.37692	5499.15
2894.8718	5509.65
2897.36515	5508.45
2899.85698	5502.25
2902.34727	5498.15
2904.83604	5519.95
2907.32328	5517.95
2909.809	5522.25
2912.29319	5519.45
2914.77587	5531.95
2917.25702	5528.55
2919.73665	5531.05
2922.21476	5525.75
2924.69136	5537.25
2927.16644	5527.05
2929.64	5494.15
2932.11205	5508.05
2934.58258	5472.15
2937.05161	5486.75
2939.51912	5491.85
2941.98513	5485.15
2944.44962	5464.45
2946.91261	5438.75
2949.37409	5449.15
2951.83407	5454.05
2954.29254	5443.25
2956.74951	5435.95
2959.20498	5424.55
2961.65895	5424.35
2964.11142	5406.85
2966.56239	5388.75
2969.01186	5397.25
2971.45984	5372.25
2973.90632	5379.75
2976.35131	5366.45
2978.7948	5359.95
2981.23681	5365.45
2983.67732	5367.85
2986.11635	5321.65
2988.55388	5297.05
2990.98993	5315.15
2993.4245	5282.75
2995.85758	5285.25
2998.28917	5280.55
3000.71928	5258.75
3003.14791	5240.85
3005.57506	5229.85
3008.00073	5214.25
3010.42493	5235.05
3012.84764	5233.65
3015.26888	5212.35
3017.68865	5219.85
3020.10694	5202.55
3022.52376	5192.15
3024.9391	5188.45
3027.35298	5186.55
3029.76539	5181.55
3032.17632	5180.25
3034.5858	5161.05
3036.9938	5169.35
3039.40034	5160.95
3041.80542	5145.05
3044.20903	5143.45
3046.61118	5137.05
3049.01187	5137.55
3051.4111	5128.35
3053.80888	5139.45
3056.20519	5121.85
3058.60005	5101.85
3060.99345	5114.75
3063.3854	5103.45
3065.7759	5088.75
3068.16494	5081.15
3070.55254	5072.45
3072.93868	5054.55
3075.32338	5051.05
3077.70662	5025.95
3080.08842	5015.45
3082.46878	5032.55
3084.84769	5043.55
3087.22515	5024.85
3089.60118	5013.75
3091.97576	5019.75
3094.3489	5003.95
3096.72061	5035.75
3099.09087	5014.45
3101.4597	5024.65
3103.82709	5029.85
3106.19305	5028.65
3108.55757	5027.85
3110.92066	5015.05
3113.28232	5023.85
3115.64255	5007.05
3118.00134	4995.65
3120.35871	4994.45
3122.71466	4981.05
3125.06917	4975.35
3127.42226	4974.75
3129.77393	4993.85
3132.12417	4992.05
3134.47299	5004.75
3136.82039	4983.65
3139.16636	5004.45
3141.51092	4972.95
3143.85406	4991.05
3146.19579	4997.45
3148.53609	5000.95
3150.87499	5022.55
3153.21246	5024.05
3155.54853	5025.35
3157.88318	5014.75
3160.21642	5021.25
3162.54826	5039.75
3164.87868	5036.55
3167.2077	5035.15
3169.5353	5042.65
3171.86151	5029.45
3174.18631	5049.85
3176.5097	5036.85
3178.83169	5028.15
3181.15228	5032.15
3183.47147	5040.55
3185.78926	5005.15
3188.10565	5005.05
3190.42065	5030.35
3192.73424	5026.45
3195.04645	5023.15
3197.35725	5034.45
3199.66667	5036.85
3201.97469	5043.45
3204.28132	5033.05
3206.58656	5040.85
3208.8904	5049.45
3211.19287	5056.45
3213.49394	5050.05
3215.79363	5036.75
3218.09193	5047.35
3220.38884	5038.05
3222.68438	5032.85
3224.97853	5057.55
3227.2713	5051.55
3229.56269	5047.25
3231.8527	5036.85
3234.14133	5038.85
3236.42858	5030.95
3238.71446	5032.95
3240.99896	5023.35
3243.28209	5033.25
3245.56384	5000.25
3247.84423	4996.85
3250.12324	5000.35
3252.40088	5010.05
3254.67715	5011.65
3256.95205	4994.95
3259.22558	4996.55
3261.49775	4988.25
3263.76855	5001.35
3266.03799	4985.85
3268.30606	4980.55
3270.57277	4972.35
3272.83812	4959.45
3275.10211	4947.25
3277.36474	4941.15
3279.62601	4935.85
3281.88593	4938.65
3284.14448	4935.85
3286.40168	4934.25
3288.65753	4923.65
3290.91202	4944.15
3293.16516	4923.45
3295.41695	4925.55
3297.66738	4873.45
3299.91647	4868.25
3302.16421	4820.35
3304.4106	4805.75
3306.65564	4769.35
3308.89933	4732.35
3311.14169	4711.85
3313.38269	4662.65
3315.62236	4650.55
3317.86068	4609.85
3320.09766	4580.15
3322.3333	4542.15
3324.5676	4512.75
3326.80056	4419.45
3329.03219	4401.35
3331.26248	1.95
3333.49143	-0.85
3335.71905	-0.15
