Data from AgNPs_FTO_APTES_UA_50uM_CRN_0uM_R6G_10uM_NaF_0.1M_Addition_RamanShift__39__10-55-44-675.txt Node

Date: Mon Feb 21 10:55:44 GMT 2022
User: TCL
Spectrometer: QEP01345
Trigger mode: 4
Integration Time (sec): 7.000000E0
Scans to average: 10
Electric dark correction enabled: true
Nonlinearity correction enabled: false
Boxcar width: 0
XAxis mode: Raman Shifts
Number of Pixels in Spectrum: 1044
>>>>>Begin Spectral Data<<<<<
46.04893	0.65
50.45542	-1.05
54.85868	-0.95
59.25871	-0.95
63.6555	49.15
68.04907	54.95
72.43941	51.25
76.82654	57.95
81.21044	59.85
85.59113	64.35
89.96862	63.25
94.34289	68.65
98.71396	68.45
103.08183	73.75
107.4465	73.45
111.80798	75.45
116.16626	72.65
120.52136	76.05
124.87327	83.45
129.222	80.75
133.56755	86.45
137.90993	92.95
142.24913	99.25
146.58517	112.35
150.91804	125.85
155.24774	146.65
159.57429	180.45
163.89768	227.65
168.21792	304.15
172.53501	416.45
176.84895	575.55
181.15975	799.45
185.46741	1127.15
189.77193	1540.65
194.07331	2064.35
198.37157	2654.85
202.6667	3275.05
206.9587	3892.55
211.24758	4489.95
215.53334	5121.15
219.81599	5801.95
224.09553	6559.25
228.37195	7393.75
232.64527	8314.45
236.91549	9262.65
241.18261	10151.45
245.44663	10952.75
249.70755	11660.25
253.96539	12197.45
258.22014	12710.75
262.4718	13124.25
266.72039	13414.85
270.96589	13564.15
275.20832	13541.35
279.44768	13430.85
283.68397	13262.65
287.91719	13130.75
292.14735	13109.45
296.37445	13176.65
300.59849	13361.65
304.81948	13567.55
309.03742	13738.75
313.25231	13663.25
317.46415	13332.05
321.67296	12799.25
325.87872	12337.45
330.08145	12074.05
334.28114	12008.25
338.47781	12113.35
342.67145	12304.95
346.86207	12572.65
351.04966	12962.05
355.23424	13378.25
359.4158	13733.45
363.59435	13964.25
367.76989	14061.45
371.94243	14049.25
376.11196	14098.15
380.27849	14115.15
384.44203	14121.55
388.60257	14127.05
392.76012	14206.45
396.91468	14383.55
401.06626	14657.95
405.21485	14833.85
409.36047	14725.85
413.50311	14364.75
417.64277	14024.35
421.77947	13930.85
425.9132	13903.75
430.04396	13940.95
434.17176	13984.35
438.2966	14132.95
442.41849	14411.65
446.53742	14873.95
450.6534	15405.95
454.76644	15753.95
458.87653	15814.95
462.98368	15699.25
467.08789	15444.15
471.18916	15161.85
475.2875	14830.95
479.38291	14647.65
483.4754	14529.85
487.56496	14403.05
491.6516	14185.35
495.73531	14034.15
499.81612	13931.85
503.89401	14014.75
507.96899	14068.95
512.04106	14080.05
516.11023	14046.15
520.1765	13958.35
524.23987	13868.95
528.30034	13735.15
532.35792	13600.65
536.41261	13402.85
540.46441	13154.95
544.51333	13058.15
548.55936	13169.55
552.60252	13487.75
556.64279	13900.45
560.6802	14242.95
564.71473	14462.95
568.7464	14890.05
572.7752	15362.05
576.80114	15546.25
580.82422	15631.35
584.84444	15814.35
588.86181	16145.55
592.87633	16549.55
596.888	16636.75
600.89682	16344.95
604.9028	16807.35
608.90594	18995.75
612.90624	21802.15
616.90371	20672.55
620.89834	16222.45
624.89015	14043.75
628.87913	13749.55
632.86528	13793.15
636.84862	13795.15
640.82913	13555.55
644.80683	13090.95
648.78172	12756.65
652.75379	12684.95
656.72306	12932.85
660.68952	13328.65
664.65319	13271.05
668.61405	12916.85
672.57211	12758.65
676.52738	12842.65
680.47986	12857.75
684.42955	12752.55
688.37646	12741.35
692.32058	12794.25
696.26192	12950.95
700.20048	13085.55
704.13626	13180.15
708.06928	13153.85
711.99952	13029.35
715.927	13011.85
719.85171	13089.65
723.77365	13039.15
727.69284	12855.95
731.60928	12669.95
735.52295	12599.25
739.43388	12622.15
743.34206	12697.35
747.24749	12742.25
751.15017	12871.15
755.05012	13096.85
758.94733	13585.85
762.8418	14571.45
766.73354	16172.35
770.62254	17824.55
774.50882	18413.05
778.39237	17528.55
782.27321	15889.75
786.15132	14412.75
790.02671	13468.95
793.89938	12985.05
797.76935	12788.75
801.6366	12748.95
805.50115	12673.15
809.36299	12609.35
813.22213	12478.45
817.07857	12409.05
820.93231	12331.65
824.78336	12285.65
828.63172	12263.55
832.47738	12276.75
836.32036	12240.65
840.16066	12276.95
843.99827	12309.05
847.8332	12264.35
851.66546	12257.75
855.49504	12198.95
859.32195	12211.35
863.1462	12143.95
866.96777	12106.45
870.78668	12092.75
874.60293	12101.25
878.41652	12122.25
882.22745	12203.45
886.03573	12288.65
889.84136	12268.65
893.64433	12221.45
897.44466	12187.85
901.24235	12112.55
905.0374	12050.85
908.8298	11938.35
912.61957	11917.65
916.40671	12006.55
920.19121	12122.65
923.97308	12317.75
927.75233	12452.35
931.52895	12451.65
935.30295	12275.95
939.07433	11986.85
942.84309	11708.85
946.60924	11601.95
950.37278	11545.75
954.13371	11505.75
957.89203	11423.55
961.64774	11419.15
965.40086	11402.55
969.15137	11352.15
972.89929	11306.25
976.64461	11289.55
980.38733	11278.55
984.12747	11295.95
987.86502	11403.25
991.59999	11559.15
995.33237	11804.45
999.06217	12216.45
1002.78939	12679.55
1006.51404	12980.35
1010.23611	13236.05
1013.95561	13383.75
1017.67255	13384.55
1021.38692	13180.95
1025.09872	12931.55
1028.80796	12902.85
1032.51465	13162.85
1036.21877	13408.05
1039.92035	13445.05
1043.61937	13355.65
1047.31584	13090.85
1051.00976	12768.15
1054.70114	12640.55
1058.38998	12606.35
1062.07627	12666.45
1065.76003	12766.05
1069.44126	12847.75
1073.11995	13081.45
1076.79611	13322.25
1080.46974	13507.45
1084.14085	13739.45
1087.80943	13964.75
1091.47549	14141.55
1095.13903	14072.75
1098.80005	13797.75
1102.45857	13402.25
1106.11456	13117.35
1109.76805	13048.85
1113.41903	13140.25
1117.06751	13302.25
1120.71348	13587.35
1124.35696	13844.05
1127.99793	14187.35
1131.63641	14266.15
1135.2724	14080.35
1138.90589	13831.35
1142.5369	13702.15
1146.16542	13634.25
1149.79145	13629.85
1153.415	13682.65
1157.03607	13823.75
1160.65467	14192.75
1164.27079	14818.75
1167.88443	15694.85
1171.49561	16960.35
1175.10432	18717.05
1178.71056	20957.55
1182.31434	22999.75
1185.91565	23941.65
1189.51451	23732.95
1193.11091	22784.25
1196.70485	21478.05
1200.29634	20265.35
1203.88538	19269.85
1207.47197	18428.85
1211.05612	17765.85
1214.63782	17335.45
1218.21708	17121.35
1221.79391	17115.85
1225.36829	17151.25
1228.94024	16959.95
1232.50976	16510.55
1236.07685	16095.35
1239.6415	15865.65
1243.20374	15780.45
1246.76355	15819.65
1250.32093	16013.95
1253.8759	16436.15
1257.42845	16984.05
1260.97859	17656.05
1264.52631	18291.55
1268.07163	19002.95
1271.61453	19676.55
1275.15503	20333.55
1278.69312	20968.35
1282.22882	21534.45
1285.76211	22135.05
1289.29301	22836.85
1292.82151	23747.45
1296.34761	24863.75
1299.87133	26434.45
1303.39266	28367.35
1306.9116	30671.75
1310.42815	33131.05
1313.94233	34796.35
1317.45412	34773.55
1320.96354	33597.05
1324.47058	32170.85
1327.97525	30940.55
1331.47754	30008.85
1334.97747	29468.25
1338.47502	29198.55
1341.97022	28950.85
1345.46305	28637.85
1348.95352	28469.95
1352.44163	28746.25
1355.92738	29866.05
1359.41078	32108.75
1362.89183	34383.25
1366.37053	34249.95
1369.84688	30774.75
1373.32088	26564.85
1376.79254	23678.05
1380.26186	22334.35
1383.72883	21925.45
1387.19347	21613.05
1390.65578	21277.95
1394.11575	21137.65
1397.57339	21352.95
1401.0287	21812.35
1404.48168	22236.55
1407.93234	22347.55
1411.38068	22153.95
1414.82669	21594.85
1418.27039	20742.95
1421.71177	19863.65
1425.15083	19133.25
1428.58758	18703.65
1432.02203	18840.15
1435.45416	19276.55
1438.88399	19802.05
1442.31151	20171.05
1445.73673	20421.25
1449.15965	20705.15
1452.58027	20888.75
1455.9986	20914.35
1459.41463	21053.65
1462.82837	21358.45
1466.23982	21816.25
1469.64898	22214.05
1473.05586	22419.95
1476.46045	22397.25
1479.86276	22298.25
1483.26279	22188.85
1486.66054	22177.15
1490.05602	22399.25
1493.44922	22756.65
1496.84016	23240.75
1500.22882	24108.55
1503.61521	25468.35
1506.99934	27120.25
1510.38121	28579.55
1513.76081	28991.65
1517.13816	27926.35
1520.51324	25883.75
1523.88607	23930.45
1527.25665	22709.55
1530.62498	22164.85
1533.99105	21844.55
1537.35488	21609.15
1540.71647	21253.75
1544.07581	20844.25
1547.4329	20374.05
1550.78776	19954.85
1554.14038	19676.15
1557.49077	19547.55
1560.83892	19539.75
1564.18484	19730.75
1567.52853	19968.25
1570.86999	20284.75
1574.20922	20578.85
1577.54624	20787.65
1580.88103	20589.25
1584.2136	20317.95
1587.54395	20651.05
1590.87208	21740.45
1594.19801	23466.55
1597.52172	25235.75
1600.84321	25862.15
1604.16251	24694.25
1607.47959	22536.65
1610.79447	20157.55
1614.10715	18066.15
1617.41763	16436.85
1620.7259	15347.95
1624.03199	14850.85
1627.33587	14852.35
1630.63757	15375.85
1633.93707	16466.25
1637.23439	18263.35
1640.52951	20918.85
1643.82246	24073.75
1647.11321	26774.65
1650.40179	27594.75
1653.68819	25713.05
1656.97241	21955.75
1660.25446	18086.05
1663.53433	15301.15
1666.81203	13593.95
1670.08756	12556.65
1673.36092	11951.85
1676.63211	11572.35
1679.90115	11313.75
1683.16801	11120.15
1686.43272	10947.75
1689.69527	10797.35
1692.95567	10649.05
1696.2139	10509.45
1699.46999	10365.65
1702.72392	10315.05
1705.97571	10360.65
1709.22535	10412.35
1712.47284	10459.95
1715.71819	10487.45
1718.96139	10467.95
1722.20246	10413.45
1725.44139	10381.85
1728.67818	10284.05
1731.91284	10222.65
1735.14537	10162.55
1738.37576	10087.15
1741.60403	10048.55
1744.83017	10002.75
1748.05418	9930.15
1751.27607	9866.55
1754.49584	9814.35
1757.71349	9745.95
1760.92903	9681.25
1764.14244	9678.25
1767.35375	9677.15
1770.56294	9663.35
1773.77002	9662.35
1776.97499	9692.55
1780.17785	9728.25
1783.37861	9729.15
1786.57727	9739.25
1789.77382	9732.85
1792.96828	9729.85
1796.16064	9717.95
1799.3509	9687.55
1802.53907	9671.25
1805.72514	9631.65
1808.90913	9606.15
1812.09102	9592.25
1815.27083	9588.25
1818.44856	9571.15
1821.6242	9553.85
1824.79776	9545.45
1827.96924	9534.05
1831.13864	9543.55
1834.30597	9522.45
1837.47122	9534.85
1840.6344	9537.95
1843.7955	9544.45
1846.95454	9516.15
1850.11151	9504.55
1853.26642	9491.65
1856.41926	9513.85
1859.57004	9521.15
1862.71876	9489.25
1865.86542	9502.75
1869.01003	9499.45
1872.15258	9482.75
1875.29308	9517.25
1878.43152	9480.65
1881.56792	9504.35
1884.70227	9465.45
1887.83457	9476.45
1890.96482	9485.45
1894.09304	9444.85
1897.21921	9451.45
1900.34335	9424.55
1903.46544	9432.65
1906.58551	9435.05
1909.70353	9418.95
1912.81953	9408.35
1915.93349	9371.85
1919.04543	9347.85
1922.15534	9330.95
1925.26322	9267.85
1928.36908	9247.65
1931.47292	9221.05
1934.57473	9215.55
1937.67453	9186.15
1940.77232	9141.85
1943.86808	9132.55
1946.96184	9088.25
1950.05358	9059.45
1953.14331	9024.85
1956.23103	9004.55
1959.31675	8962.95
1962.40046	8935.95
1965.48217	8943.35
1968.56188	8925.45
1971.63959	8893.25
1974.7153	8873.15
1977.78901	8862.65
1980.86073	8812.55
1983.93046	8780.35
1986.99819	8722.95
1990.06394	8713.65
1993.1277	8697.25
1996.18947	8667.95
1999.24925	8640.15
2002.30706	8604.85
2005.36288	8605.45
2008.41672	8576.85
2011.46859	8555.25
2014.51848	8551.95
2017.56639	8493.45
2020.61233	8483.85
2023.6563	8466.05
2026.6983	8447.55
2029.73833	8449.05
2032.7764	8404.55
2035.8125	8384.75
2038.84664	8386.25
2041.87881	8375.65
2044.90903	8347.65
2047.93729	8339.15
2050.96359	8333.65
2053.98794	8329.25
2057.01034	8309.85
2060.03078	8296.55
2063.04927	8310.65
2066.06582	8304.05
2069.08042	8272.85
2072.09307	8278.75
2075.10378	8280.75
2078.11255	8276.05
2081.11938	8280.95
2084.12426	8270.85
2087.12722	8263.45
2090.12824	8276.35
2093.12732	8239.65
2096.12447	8268.85
2099.11969	8261.95
2102.11299	8261.15
2105.10435	8275.15
2108.09379	8260.75
2111.08131	8290.95
2114.0669	8267.25
2117.05057	8285.65
2120.03233	8296.25
2123.01216	8323.75
2125.99008	8311.35
2128.96609	8315.55
2131.94018	8312.25
2134.91236	8303.65
2137.88263	8300.45
2140.851	8321.05
2143.81746	8324.75
2146.78201	8316.65
2149.74466	8308.25
2152.7054	8311.25
2155.66425	8345.35
2158.6212	8334.45
2161.57625	8295.95
2164.52941	8304.55
2167.48067	8340.95
2170.43004	8296.35
2173.37752	8287.05
2176.32311	8294.75
2179.26681	8299.65
2182.20863	8301.25
2185.14856	8314.15
2188.08661	8303.15
2191.02278	8295.65
2193.95707	8314.45
2196.88948	8312.95
2199.82001	8277.85
2202.74867	8288.65
2205.67545	8281.05
2208.60037	8281.15
2211.52341	8266.15
2214.44458	8267.75
2217.36388	8265.25
2220.28132	8253.55
2223.1969	8228.05
2226.11061	8231.25
2229.02246	8192.35
2231.93245	8171.25
2234.84058	8173.75
2237.74686	8163.45
2240.65128	8123.65
2243.55385	8132.25
2246.45456	8117.35
2249.35343	8107.25
2252.25044	8103.35
2255.14561	8085.35
2258.03893	8064.35
2260.93041	8042.25
2263.82004	8025.05
2266.70783	8026.25
2269.59378	8014.95
2272.4779	8003.15
2275.36017	7974.25
2278.24061	7979.55
2281.11922	7952.55
2283.996	7924.65
2286.87094	7943.55
2289.74405	7922.25
2292.61534	7940.55
2295.4848	7928.95
2298.35243	7904.75
2301.21824	7896.95
2304.08223	7916.95
2306.94439	7898.65
2309.80474	7934.35
2312.66327	7925.95
2315.51999	7909.95
2318.37489	7940.05
2321.22797	7931.95
2324.07925	7889.65
2326.92871	7921.05
2329.77637	7903.45
2332.62222	7882.75
2335.46626	7864.65
2338.3085	7894.95
2341.14893	7899.85
2343.98756	7906.95
2346.8244	7905.05
2349.65943	7908.15
2352.49267	7915.45
2355.32411	7934.75
2358.15376	7899.75
2360.98161	7908.35
2363.80768	7897.35
2366.63195	7908.75
2369.45444	7888.25
2372.27514	7884.45
2375.09405	7847.45
2377.91118	7851.15
2380.72652	7813.25
2383.54009	7792.25
2386.35187	7788.15
2389.16188	7770.65
2391.97011	7764.25
2394.77657	7766.85
2397.58125	7744.35
2400.38416	7713.55
2403.18529	7711.25
2405.98466	7692.75
2408.78226	7687.15
2411.57809	7654.05
2414.37216	7637.35
2417.16446	7648.95
2419.955	7662.65
2422.74378	7639.25
2425.5308	7600.65
2428.31606	7608.15
2431.09956	7637.45
2433.88131	7603.45
2436.6613	7631.05
2439.43954	7622.85
2442.21603	7634.45
2444.99077	7620.15
2447.76377	7637.55
2450.53501	7637.05
2453.30451	7626.45
2456.07226	7629.45
2458.83827	7638.35
2461.60254	7606.45
2464.36507	7593.75
2467.12586	7604.15
2469.88492	7619.05
2472.64224	7629.95
2475.39782	7615.05
2478.15167	7620.75
2480.90379	7631.15
2483.65417	7668.55
2486.40283	7669.05
2489.14976	7658.75
2491.89497	7651.95
2494.63845	7671.65
2497.3802	7654.85
2500.12024	7678.25
2502.85855	7655.85
2505.59514	7719.85
2508.33002	7675.15
2511.06318	7617.75
2513.79462	7605.35
2516.52435	7586.65
2519.25237	7599.35
2521.97867	7575.45
2524.70327	7569.95
2527.42616	7550.85
2530.14734	7574.65
2532.86681	7583.55
2535.58458	7581.75
2538.30065	7566.35
2541.01501	7563.05
2543.72768	7555.15
2546.43864	7571.15
2549.14791	7545.05
2551.85548	7564.45
2554.56136	7537.75
2557.26554	7529.15
2559.96803	7508.25
2562.66883	7517.15
2565.36794	7530.95
2568.06536	7506.05
2570.7611	7528.35
2573.45514	7485.65
2576.14751	7509.15
2578.83819	7494.15
2581.52719	7481.45
2584.21451	7469.95
2586.90015	7478.45
2589.58411	7474.45
2592.2664	7490.55
2594.94701	7468.65
2597.62594	7464.75
2600.30321	7454.15
2602.9788	7475.95
2605.65273	7478.55
2608.32498	7496.95
2610.99557	7489.95
2613.66449	7467.25
2616.33175	7492.85
2618.99734	7485.35
2621.66128	7467.35
2624.32355	7465.45
2626.98416	7476.15
2629.64311	7487.85
2632.30041	7490.35
2634.95605	7468.75
2637.61004	7439.95
2640.26238	7446.85
2642.91306	7450.55
2645.56209	7441.55
2648.20948	7410.55
2650.85521	7423.45
2653.4993	7408.35
2656.14175	7419.85
2658.78255	7433.95
2661.42171	7452.15
2664.05923	7448.95
2666.6951	7472.25
2669.32934	7475.15
2671.96194	7474.15
2674.59291	7473.05
2677.22224	7476.75
2679.84993	7463.15
2682.476	7461.35
2685.10043	7477.45
2687.72324	7455.65
2690.34441	7444.65
2692.96396	7420.95
2695.58188	7427.95
2698.19818	7414.75
2700.81285	7426.15
2703.4259	7389.65
2706.03733	7325.15
2708.64714	7345.65
2711.25533	7406.15
2713.86191	7417.85
2716.46687	7456.85
2719.07021	7450.65
2721.67194	7505.85
2724.27206	7458.95
2726.87057	7479.15
2729.46747	7504.35
2732.06276	7482.85
2734.65644	7467.95
2737.24852	7466.15
2739.83899	7476.15
2742.42786	7501.05
2745.01513	7478.05
2747.60079	7463.55
2750.18486	7463.65
2752.76733	7455.25
2755.3482	7440.35
2757.92747	7443.45
2760.50515	7411.55
2763.08123	7420.45
2765.65573	7422.15
2768.22863	7432.05
2770.79994	7446.45
2773.36967	7424.35
2775.9378	7445.15
2778.50435	7452.35
2781.06932	7437.75
2783.6327	7434.95
2786.1945	7426.85
2788.75471	7432.05
2791.31335	7413.05
2793.87041	7394.35
2796.42589	7375.65
2798.97979	7390.05
2801.53212	7366.55
2804.08288	7377.25
2806.63206	7359.45
2809.17967	7336.45
2811.72571	7327.15
2814.27018	7330.95
2816.81308	7312.75
2819.35442	7309.05
2821.89419	7294.45
2824.43239	7319.65
2826.96904	7290.05
2829.50412	7287.15
2832.03763	7282.05
2834.56959	7277.15
2837.1	7263.95
2839.62884	7285.25
2842.15613	7267.65
2844.68186	7291.95
2847.20604	7289.85
2849.72867	7289.15
2852.24974	7289.65
2854.76927	7281.65
2857.28724	7259.85
2859.80367	7263.65
2862.31855	7267.45
2864.83189	7247.75
2867.34368	7270.75
2869.85393	7271.45
2872.36264	7293.75
2874.8698	7292.15
2877.37543	7295.45
2879.87952	7278.85
2882.38207	7284.95
2884.88308	7287.85
2887.38256	7312.55
2889.88051	7286.45
2892.37692	7282.25
2894.8718	7299.75
2897.36515	7300.25
2899.85698	7316.25
2902.34727	7318.15
2904.83604	7322.35
2907.32328	7361.55
2909.809	7351.85
2912.29319	7380.85
2914.77587	7376.55
2917.25702	7351.65
2919.73665	7360.65
2922.21476	7356.15
2924.69136	7361.35
2927.16644	7345.75
2929.64	7317.15
2932.11205	7313.95
2934.58258	7268.95
2937.05161	7289.75
2939.51912	7282.75
2941.98513	7275.85
2944.44962	7231.85
2946.91261	7218.85
2949.37409	7247.65
2951.83407	7230.95
2954.29254	7225.05
2956.74951	7210.35
2959.20498	7217.25
2961.65895	7212.95
2964.11142	7204.45
2966.56239	7182.35
2969.01186	7191.55
2971.45984	7156.25
2973.90632	7148.55
2976.35131	7120.85
2978.7948	7107.35
2981.23681	7109.35
2983.67732	7108.35
2986.11635	7057.65
2988.55388	7049.25
2990.98993	7035.95
2993.4245	7023.65
2995.85758	7023.25
2998.28917	6995.15
3000.71928	6979.75
3003.14791	6953.35
3005.57506	6941.55
3008.00073	6938.45
3010.42493	6938.45
3012.84764	6908.85
3015.26888	6901.55
3017.68865	6909.35
3020.10694	6892.65
3022.52376	6878.45
3024.9391	6855.05
3027.35298	6860.35
3029.76539	6836.95
3032.17632	6861.05
3034.5858	6853.25
3036.9938	6848.05
3039.40034	6820.35
3041.80542	6807.25
3044.20903	6801.65
3046.61118	6820.45
3049.01187	6801.35
3051.4111	6800.65
3053.80888	6786.75
3056.20519	6781.85
3058.60005	6766.75
3060.99345	6763.45
3063.3854	6760.25
3065.7759	6730.15
3068.16494	6708.75
3070.55254	6699.85
3072.93868	6672.15
3075.32338	6650.35
3077.70662	6636.95
3080.08842	6632.05
3082.46878	6638.65
3084.84769	6604.65
3087.22515	6627.45
3089.60118	6614.15
3091.97576	6625.05
3094.3489	6612.95
3096.72061	6626.15
3099.09087	6634.65
3101.4597	6618.15
3103.82709	6617.15
3106.19305	6587.85
3108.55757	6580.25
3110.92066	6576.35
3113.28232	6588.95
3115.64255	6568.15
3118.00134	6545.25
3120.35871	6543.85
3122.71466	6530.05
3125.06917	6518.65
3127.42226	6515.55
3129.77393	6510.05
3132.12417	6508.75
3134.47299	6509.85
3136.82039	6483.65
3139.16636	6514.75
3141.51092	6503.55
3143.85406	6513.95
3146.19579	6518.15
3148.53609	6507.75
3150.87499	6517.25
3153.21246	6513.35
3155.54853	6545.45
3157.88318	6529.65
3160.21642	6543.65
3162.54826	6534.25
3164.87868	6537.35
3167.2077	6540.55
3169.5353	6528.55
3171.86151	6520.55
3174.18631	6529.45
3176.5097	6533.85
3178.83169	6518.05
3181.15228	6512.35
3183.47147	6512.35
3185.78926	6519.75
3188.10565	6520.75
3190.42065	6501.35
3192.73424	6508.45
3195.04645	6495.75
3197.35725	6509.35
3199.66667	6514.45
3201.97469	6520.45
3204.28132	6524.05
3206.58656	6533.05
3208.8904	6540.75
3211.19287	6555.55
3213.49394	6549.45
3215.79363	6544.95
3218.09193	6530.95
3220.38884	6529.65
3222.68438	6517.55
3224.97853	6536.55
3227.2713	6529.65
3229.56269	6539.65
3231.8527	6558.25
3234.14133	6544.05
3236.42858	6524.55
3238.71446	6521.95
3240.99896	6494.75
3243.28209	6504.65
3245.56384	6486.45
3247.84423	6504.85
3250.12324	6478.85
3252.40088	6487.35
3254.67715	6477.45
3256.95205	6478.95
3259.22558	6471.85
3261.49775	6465.85
3263.76855	6438.95
3266.03799	6452.05
3268.30606	6424.75
3270.57277	6449.25
3272.83812	6429.15
3275.10211	6401.95
3277.36474	6400.15
3279.62601	6411.25
3281.88593	6385.65
3284.14448	6401.15
3286.40168	6406.55
3288.65753	6414.15
3290.91202	6392.45
3293.16516	6397.45
3295.41695	6364.85
3297.66738	6349.95
3299.91647	6295.55
3302.16421	6276.15
3304.4106	6264.05
3306.65564	6197.85
3308.89933	6151.15
3311.14169	6134.85
3313.38269	6063.95
3315.62236	6031.85
3317.86068	5983.15
3320.09766	5973.35
3322.3333	5911.45
3324.5676	5886.25
3326.80056	5772.45
3329.03219	5732.35
3331.26248	1.75
3333.49143	-0.05
3335.71905	0.05
