Data from AgNPs_FTO_APTES_UA_50uM_CRN_0uM_R6G_10uM_NaF_0.1M_Addition_RamanShift__48__11-06-14-690.txt Node

Date: Mon Feb 21 11:06:14 GMT 2022
User: TCL
Spectrometer: QEP01345
Trigger mode: 4
Integration Time (sec): 7.000000E0
Scans to average: 10
Electric dark correction enabled: true
Nonlinearity correction enabled: false
Boxcar width: 0
XAxis mode: Raman Shifts
Number of Pixels in Spectrum: 1044
>>>>>Begin Spectral Data<<<<<
46.04893	-0.55
50.45542	-1.25
54.85868	0.15
59.25871	-1.45
63.6555	52.25
68.04907	57.45
72.43941	56.35
76.82654	59.75
81.21044	65.95
85.59113	64.95
89.96862	68.65
94.34289	74.25
98.71396	69.15
103.08183	78.25
107.4465	72.85
111.80798	78.95
116.16626	77.85
120.52136	77.45
124.87327	87.65
129.222	86.75
133.56755	87.65
137.90993	96.45
142.24913	100.75
146.58517	109.35
150.91804	124.75
155.24774	146.75
159.57429	176.55
163.89768	222.45
168.21792	292.35
172.53501	396.05
176.84895	546.15
181.15975	761.85
185.46741	1072.55
189.77193	1466.55
194.07331	1970.95
198.37157	2532.35
202.6667	3130.95
206.9587	3732.65
211.24758	4329.35
215.53334	4928.15
219.81599	5579.15
224.09553	6329.45
228.37195	7126.35
232.64527	8033.65
236.91549	8945.75
241.18261	9789.15
245.44663	10599.15
249.70755	11317.05
253.96539	11924.95
258.22014	12454.05
262.4718	12842.85
266.72039	13089.75
270.96589	13225.15
275.20832	13199.15
279.44768	13067.75
283.68397	12883.65
287.91719	12760.15
292.14735	12703.65
296.37445	12758.55
300.59849	12980.35
304.81948	13276.25
309.03742	13534.05
313.25231	13509.45
317.46415	13130.55
321.67296	12494.55
325.87872	11977.15
330.08145	11723.05
334.28114	11712.75
338.47781	11879.15
342.67145	12116.55
346.86207	12490.35
351.04966	12994.95
355.23424	13647.25
359.4158	14112.65
363.59435	14386.65
367.76989	14504.65
371.94243	14480.95
376.11196	14436.95
380.27849	14413.55
384.44203	14391.45
388.60257	14288.65
392.76012	14277.85
396.91468	14427.05
401.06626	14753.45
405.21485	15008.85
409.36047	14933.15
413.50311	14504.35
417.64277	14110.95
421.77947	13876.85
425.9132	13813.35
430.04396	13834.25
434.17176	13934.75
438.2966	14155.85
442.41849	14508.75
446.53742	14974.95
450.6534	15476.15
454.76644	15782.35
458.87653	15892.75
462.98368	15695.65
467.08789	15394.65
471.18916	15045.45
475.2875	14721.15
479.38291	14477.75
483.4754	14330.55
487.56496	14158.15
491.6516	14004.35
495.73531	13895.65
499.81612	13855.05
503.89401	13960.95
507.96899	14012.25
512.04106	14089.95
516.11023	14180.75
520.1765	14284.75
524.23987	14247.85
528.30034	14117.15
532.35792	13992.55
536.41261	13803.45
540.46441	13538.55
544.51333	13438.15
548.55936	13524.55
552.60252	13734.45
556.64279	14026.75
560.6802	14196.65
564.71473	14370.15
568.7464	14790.85
572.7752	15166.45
576.80114	15046.55
580.82422	14864.15
584.84444	14849.95
588.86181	15033.35
592.87633	15364.15
596.888	15596.65
600.89682	15759.25
604.9028	16691.35
608.90594	19556.35
612.90624	23272.85
616.90371	22523.05
620.89834	17539.25
624.89015	15112.65
628.87913	14763.45
632.86528	14728.65
636.84862	14645.75
640.82913	14321.55
644.80683	13824.65
648.78172	13471.85
652.75379	13441.05
656.72306	13784.55
660.68952	14253.15
664.65319	14205.55
668.61405	13817.55
672.57211	13585.55
676.52738	13570.75
680.47986	13533.05
684.42955	13457.35
688.37646	13434.15
692.32058	13522.25
696.26192	13608.15
700.20048	13784.55
704.13626	13852.75
708.06928	13809.75
711.99952	13710.85
715.927	13676.75
719.85171	13691.15
723.77365	13692.75
727.69284	13546.25
731.60928	13431.45
735.52295	13429.55
739.43388	13494.55
743.34206	13593.25
747.24749	13655.05
751.15017	13772.95
755.05012	13980.35
758.94733	14477.05
762.8418	15490.45
766.73354	17211.85
770.62254	18916.15
774.50882	19661.95
778.39237	19034.65
782.27321	17260.45
786.15132	15461.15
790.02671	14321.55
793.89938	13869.25
797.76935	13658.05
801.6366	13589.75
805.50115	13571.55
809.36299	13565.85
813.22213	13555.85
817.07857	13514.65
820.93231	13448.45
824.78336	13456.75
828.63172	13456.55
832.47738	13477.15
836.32036	13492.95
840.16066	13521.65
843.99827	13584.35
847.8332	13574.05
851.66546	13509.35
855.49504	13406.25
859.32195	13366.85
863.1462	13318.15
866.96777	13273.35
870.78668	13245.45
874.60293	13257.15
878.41652	13282.75
882.22745	13369.15
886.03573	13457.85
889.84136	13421.65
893.64433	13328.85
897.44466	13289.65
901.24235	13199.55
905.0374	13166.05
908.8298	13122.25
912.61957	13088.95
916.40671	13136.05
920.19121	13263.75
923.97308	13406.05
927.75233	13597.45
931.52895	13673.05
935.30295	13501.45
939.07433	13220.05
942.84309	12962.15
946.60924	12837.95
950.37278	12774.85
954.13371	12699.45
957.89203	12617.95
961.64774	12571.65
965.40086	12552.85
969.15137	12494.45
972.89929	12456.35
976.64461	12460.05
980.38733	12439.95
984.12747	12492.55
987.86502	12585.15
991.59999	12740.65
995.33237	12988.55
999.06217	13433.35
1002.78939	13996.85
1006.51404	14338.35
1010.23611	14558.75
1013.95561	14694.15
1017.67255	14766.65
1021.38692	14598.65
1025.09872	14424.25
1028.80796	14522.35
1032.51465	14899.35
1036.21877	15244.45
1039.92035	15304.15
1043.61937	15047.95
1047.31584	14691.25
1051.00976	14258.85
1054.70114	14040.05
1058.38998	13944.05
1062.07627	13945.45
1065.76003	14019.15
1069.44126	14054.35
1073.11995	14203.15
1076.79611	14365.75
1080.46974	14449.55
1084.14085	14692.95
1087.80943	14954.25
1091.47549	15015.75
1095.13903	14826.45
1098.80005	14466.65
1102.45857	14076.25
1106.11456	13945.05
1109.76805	14000.25
1113.41903	14183.55
1117.06751	14485.75
1120.71348	14891.35
1124.35696	15345.85
1127.99793	15745.35
1131.63641	15720.25
1135.2724	15330.45
1138.90589	14901.65
1142.5369	14577.25
1146.16542	14364.05
1149.79145	14271.45
1153.415	14299.65
1157.03607	14385.45
1160.65467	14628.85
1164.27079	15060.65
1167.88443	15765.95
1171.49561	16841.55
1175.10432	18451.15
1178.71056	20589.35
1182.31434	22394.65
1185.91565	23135.15
1189.51451	22997.65
1193.11091	22002.75
1196.70485	20730.55
1200.29634	19644.85
1203.88538	18679.85
1207.47197	17691.95
1211.05612	16998.65
1214.63782	16630.45
1218.21708	16603.95
1221.79391	16717.85
1225.36829	16890.05
1228.94024	16861.25
1232.50976	16658.65
1236.07685	16465.95
1239.6415	16359.95
1243.20374	16318.65
1246.76355	16360.95
1250.32093	16544.65
1253.8759	16906.25
1257.42845	17457.85
1260.97859	17951.45
1264.52631	18427.95
1268.07163	18875.05
1271.61453	19310.85
1275.15503	19804.65
1278.69312	20289.45
1282.22882	20801.75
1285.76211	21314.15
1289.29301	21870.55
1292.82151	22455.75
1296.34761	23201.55
1299.87133	24318.85
1303.39266	25958.45
1306.9116	28394.45
1310.42815	31055.15
1313.94233	32538.05
1317.45412	32146.05
1320.96354	30433.75
1324.47058	28462.85
1327.97525	26872.35
1331.47754	25930.95
1334.97747	25735.85
1338.47502	25985.35
1341.97022	26450.45
1345.46305	26843.85
1348.95352	27298.65
1352.44163	28013.65
1355.92738	29541.55
1359.41078	32301.45
1362.89183	34735.75
1366.37053	33872.35
1369.84688	30043.05
1373.32088	25990.85
1376.79254	23332.65
1380.26186	21862.65
1383.72883	21119.25
1387.19347	20585.35
1390.65578	20100.65
1394.11575	19855.05
1397.57339	19901.15
1401.0287	20250.85
1404.48168	20709.05
1407.93234	21082.75
1411.38068	21322.25
1414.82669	21277.15
1418.27039	20769.25
1421.71177	20075.95
1425.15083	19476.35
1428.58758	19220.05
1432.02203	19333.75
1435.45416	19517.75
1438.88399	19637.55
1442.31151	19662.15
1445.73673	19739.35
1449.15965	19896.65
1452.58027	19937.75
1455.9986	19810.55
1459.41463	19790.15
1462.82837	19951.25
1466.23982	20291.35
1469.64898	20707.15
1473.05586	20948.75
1476.46045	21135.45
1479.86276	21369.75
1483.26279	21677.25
1486.66054	22040.75
1490.05602	22546.75
1493.44922	23172.25
1496.84016	24001.05
1500.22882	25205.65
1503.61521	26916.55
1506.99934	28822.15
1510.38121	30406.65
1513.76081	30781.15
1517.13816	29373.25
1520.51324	26793.05
1523.88607	24418.05
1527.25665	22868.45
1530.62498	22014.35
1533.99105	21535.15
1537.35488	21292.45
1540.71647	21132.05
1544.07581	21013.65
1547.4329	20889.15
1550.78776	20647.35
1554.14038	20417.75
1557.49077	20307.15
1560.83892	20367.75
1564.18484	20542.55
1567.52853	20783.75
1570.86999	20997.15
1574.20922	21181.95
1577.54624	21124.85
1580.88103	20613.45
1584.2136	20029.55
1587.54395	19987.35
1590.87208	20806.75
1594.19801	22369.05
1597.52172	24196.35
1600.84321	25209.25
1604.16251	24589.45
1607.47959	22815.15
1610.79447	20738.15
1614.10715	18797.35
1617.41763	17370.25
1620.7259	16533.05
1624.03199	16175.25
1627.33587	16243.25
1630.63757	16711.05
1633.93707	17644.85
1637.23439	18999.05
1640.52951	20710.15
1643.82246	22776.25
1647.11321	24669.95
1650.40179	25388.05
1653.68819	24088.85
1656.97241	21135.55
1660.25446	18124.05
1663.53433	15987.65
1666.81203	14714.35
1670.08756	13909.95
1673.36092	13478.05
1676.63211	13212.25
1679.90115	12989.45
1683.16801	12831.05
1686.43272	12707.15
1689.69527	12590.85
1692.95567	12459.35
1696.2139	12314.95
1699.46999	12205.55
1702.72392	12161.25
1705.97571	12253.15
1709.22535	12317.25
1712.47284	12369.65
1715.71819	12408.85
1718.96139	12376.05
1722.20246	12381.15
1725.44139	12348.75
1728.67818	12283.65
1731.91284	12200.75
1735.14537	12126.95
1738.37576	12075.25
1741.60403	12054.75
1744.83017	12006.25
1748.05418	11977.35
1751.27607	11889.35
1754.49584	11846.85
1757.71349	11754.65
1760.92903	11720.55
1764.14244	11703.05
1767.35375	11723.15
1770.56294	11699.45
1773.77002	11703.05
1776.97499	11729.35
1780.17785	11780.95
1783.37861	11800.15
1786.57727	11800.05
1789.77382	11803.75
1792.96828	11810.45
1796.16064	11811.55
1799.3509	11783.05
1802.53907	11769.25
1805.72514	11755.25
1808.90913	11728.15
1812.09102	11695.15
1815.27083	11685.55
1818.44856	11690.25
1821.6242	11674.75
1824.79776	11641.55
1827.96924	11625.85
1831.13864	11629.85
1834.30597	11618.65
1837.47122	11616.95
1840.6344	11590.65
1843.7955	11599.55
1846.95454	11589.85
1850.11151	11605.35
1853.26642	11558.55
1856.41926	11591.55
1859.57004	11577.45
1862.71876	11616.65
1865.86542	11577.25
1869.01003	11617.45
1872.15258	11620.15
1875.29308	11592.05
1878.43152	11607.95
1881.56792	11613.35
1884.70227	11603.15
1887.83457	11610.75
1890.96482	11611.95
1894.09304	11609.05
1897.21921	11567.55
1900.34335	11588.75
1903.46544	11629.75
1906.58551	11615.15
1909.70353	11605.85
1912.81953	11615.95
1915.93349	11614.85
1919.04543	11601.65
1922.15534	11590.25
1925.26322	11536.35
1928.36908	11538.45
1931.47292	11471.45
1934.57473	11439.85
1937.67453	11437.55
1940.77232	11419.95
1943.86808	11353.55
1946.96184	11324.65
1950.05358	11300.35
1953.14331	11225.75
1956.23103	11162.95
1959.31675	11150.25
1962.40046	11102.05
1965.48217	11106.15
1968.56188	11095.15
1971.63959	11066.65
1974.7153	11025.05
1977.78901	10993.75
1980.86073	10938.15
1983.93046	10894.15
1986.99819	10882.25
1990.06394	10849.05
1993.1277	10818.75
1996.18947	10785.95
1999.24925	10727.95
2002.30706	10711.35
2005.36288	10670.45
2008.41672	10661.75
2011.46859	10646.25
2014.51848	10612.65
2017.56639	10563.85
2020.61233	10553.25
2023.6563	10522.65
2026.6983	10498.65
2029.73833	10471.15
2032.7764	10473.05
2035.8125	10425.95
2038.84664	10424.85
2041.87881	10438.85
2044.90903	10391.05
2047.93729	10390.35
2050.96359	10384.65
2053.98794	10365.65
2057.01034	10338.85
2060.03078	10350.75
2063.04927	10318.85
2066.06582	10316.45
2069.08042	10315.65
2072.09307	10294.75
2075.10378	10272.85
2078.11255	10293.05
2081.11938	10282.75
2084.12426	10286.85
2087.12722	10311.95
2090.12824	10273.85
2093.12732	10268.05
2096.12447	10270.75
2099.11969	10252.95
2102.11299	10244.15
2105.10435	10269.75
2108.09379	10291.25
2111.08131	10293.75
2114.0669	10292.85
2117.05057	10274.45
2120.03233	10288.65
2123.01216	10296.05
2125.99008	10311.25
2128.96609	10340.05
2131.94018	10330.35
2134.91236	10327.35
2137.88263	10344.95
2140.851	10340.15
2143.81746	10353.95
2146.78201	10356.85
2149.74466	10372.65
2152.7054	10346.35
2155.66425	10353.05
2158.6212	10360.75
2161.57625	10348.15
2164.52941	10338.85
2167.48067	10351.85
2170.43004	10309.15
2173.37752	10324.95
2176.32311	10314.55
2179.26681	10313.15
2182.20863	10304.45
2185.14856	10358.15
2188.08661	10344.85
2191.02278	10367.45
2193.95707	10333.55
2196.88948	10340.15
2199.82001	10348.75
2202.74867	10325.55
2205.67545	10315.45
2208.60037	10314.35
2211.52341	10318.75
2214.44458	10314.45
2217.36388	10312.05
2220.28132	10270.15
2223.1969	10265.15
2226.11061	10247.15
2229.02246	10227.85
2231.93245	10219.05
2234.84058	10187.65
2237.74686	10161.65
2240.65128	10156.25
2243.55385	10144.25
2246.45456	10128.25
2249.35343	10113.75
2252.25044	10102.05
2255.14561	10100.75
2258.03893	10088.15
2260.93041	10056.55
2263.82004	10043.85
2266.70783	10041.75
2269.59378	10002.35
2272.4779	9979.45
2275.36017	9974.65
2278.24061	9934.55
2281.11922	9922.65
2283.996	9930.75
2286.87094	9899.55
2289.74405	9874.15
2292.61534	9898.15
2295.4848	9864.45
2298.35243	9861.85
2301.21824	9863.95
2304.08223	9863.75
2306.94439	9885.85
2309.80474	9899.75
2312.66327	9903.05
2315.51999	9875.45
2318.37489	9880.75
2321.22797	9879.15
2324.07925	9867.95
2326.92871	9844.05
2329.77637	9855.05
2332.62222	9854.35
2335.46626	9830.95
2338.3085	9821.35
2341.14893	9842.15
2343.98756	9872.95
2346.8244	9855.35
2349.65943	9861.05
2352.49267	9889.85
2355.32411	9885.65
2358.15376	9897.55
2360.98161	9849.15
2363.80768	9862.25
2366.63195	9864.85
2369.45444	9834.15
2372.27514	9785.15
2375.09405	9785.75
2377.91118	9776.65
2380.72652	9735.25
2383.54009	9703.15
2386.35187	9699.45
2389.16188	9671.85
2391.97011	9657.75
2394.77657	9647.65
2397.58125	9625.85
2400.38416	9622.95
2403.18529	9602.45
2405.98466	9581.95
2408.78226	9549.05
2411.57809	9544.05
2414.37216	9523.35
2417.16446	9498.15
2419.955	9495.05
2422.74378	9475.95
2425.5308	9457.95
2428.31606	9466.45
2431.09956	9436.25
2433.88131	9440.15
2436.6613	9472.45
2439.43954	9470.65
2442.21603	9448.85
2444.99077	9457.55
2447.76377	9429.55
2450.53501	9433.35
2453.30451	9419.55
2456.07226	9434.15
2458.83827	9430.85
2461.60254	9417.95
2464.36507	9393.85
2467.12586	9393.55
2469.88492	9375.65
2472.64224	9395.45
2475.39782	9396.25
2478.15167	9403.45
2480.90379	9436.35
2483.65417	9443.45
2486.40283	9447.25
2489.14976	9473.95
2491.89497	9472.45
2494.63845	9466.85
2497.3802	9449.55
2500.12024	9463.25
2502.85855	9483.95
2505.59514	9432.65
2508.33002	9436.95
2511.06318	9414.35
2513.79462	9393.55
2516.52435	9377.15
2519.25237	9362.65
2521.97867	9319.45
2524.70327	9318.35
2527.42616	9309.85
2530.14734	9329.15
2532.86681	9325.95
2535.58458	9334.75
2538.30065	9303.65
2541.01501	9340.65
2543.72768	9284.95
2546.43864	9280.15
2549.14791	9299.15
2551.85548	9301.35
2554.56136	9260.45
2557.26554	9264.15
2559.96803	9249.25
2562.66883	9231.85
2565.36794	9215.65
2568.06536	9231.35
2570.7611	9217.35
2573.45514	9198.05
2576.14751	9226.35
2578.83819	9196.75
2581.52719	9175.95
2584.21451	9202.05
2586.90015	9187.05
2589.58411	9154.35
2592.2664	9180.05
2594.94701	9179.35
2597.62594	9183.95
2600.30321	9156.05
2602.9788	9173.85
2605.65273	9163.05
2608.32498	9192.55
2610.99557	9175.95
2613.66449	9196.15
2616.33175	9146.55
2618.99734	9183.25
2621.66128	9167.45
2624.32355	9180.95
2626.98416	9176.05
2629.64311	9179.05
2632.30041	9194.95
2634.95605	9174.85
2637.61004	9122.45
2640.26238	9140.55
2642.91306	9111.45
2645.56209	9118.95
2648.20948	9079.25
2650.85521	9067.45
2653.4993	9061.65
2656.14175	9088.15
2658.78255	9090.75
2661.42171	9100.95
2664.05923	9117.65
2666.6951	9109.75
2669.32934	9128.15
2671.96194	9130.65
2674.59291	9126.75
2677.22224	9129.65
2679.84993	9136.85
2682.476	9120.85
2685.10043	9136.55
2687.72324	9141.65
2690.34441	9116.55
2692.96396	9138.65
2695.58188	9101.35
2698.19818	9088.15
2700.81285	9099.85
2703.4259	9047.75
2706.03733	8981.25
2708.64714	9020.75
2711.25533	9071.55
2713.86191	9095.35
2716.46687	9109.45
2719.07021	9115.25
2721.67194	9149.65
2724.27206	9125.65
2726.87057	9125.15
2729.46747	9141.35
2732.06276	9134.55
2734.65644	9120.95
2737.24852	9138.35
2739.83899	9127.55
2742.42786	9137.95
2745.01513	9146.95
2747.60079	9121.45
2750.18486	9113.05
2752.76733	9102.45
2755.3482	9093.45
2757.92747	9078.05
2760.50515	9064.55
2763.08123	9059.45
2765.65573	9050.75
2768.22863	9081.55
2770.79994	9040.15
2773.36967	9066.45
2775.9378	9063.15
2778.50435	9068.15
2781.06932	9074.55
2783.6327	9080.55
2786.1945	9052.45
2788.75471	9074.05
2791.31335	9047.55
2793.87041	9008.55
2796.42589	9020.55
2798.97979	8994.15
2801.53212	8965.95
2804.08288	9006.25
2806.63206	8980.35
2809.17967	8968.65
2811.72571	8936.65
2814.27018	8941.65
2816.81308	8941.65
2819.35442	8922.05
2821.89419	8926.75
2824.43239	8920.95
2826.96904	8920.75
2829.50412	8914.95
2832.03763	8922.95
2834.56959	8915.15
2837.1	8907.95
2839.62884	8932.75
2842.15613	8916.15
2844.68186	8911.45
2847.20604	8935.55
2849.72867	8935.25
2852.24974	8942.55
2854.76927	8919.65
2857.28724	8887.35
2859.80367	8874.65
2862.31855	8853.95
2864.83189	8898.05
2867.34368	8870.65
2869.85393	8879.15
2872.36264	8886.55
2874.8698	8869.15
2877.37543	8875.15
2879.87952	8888.65
2882.38207	8872.75
2884.88308	8867.95
2887.38256	8886.25
2889.88051	8886.85
2892.37692	8848.45
2894.8718	8868.35
2897.36515	8867.45
2899.85698	8895.05
2902.34727	8902.15
2904.83604	8902.25
2907.32328	8911.55
2909.809	8905.65
2912.29319	8933.45
2914.77587	8921.35
2917.25702	8927.95
2919.73665	8903.05
2922.21476	8883.75
2924.69136	8868.15
2927.16644	8883.15
2929.64	8841.75
2932.11205	8843.05
2934.58258	8814.05
2937.05161	8795.45
2939.51912	8839.95
2941.98513	8808.85
2944.44962	8792.35
2946.91261	8730.15
2949.37409	8781.45
2951.83407	8766.75
2954.29254	8764.75
2956.74951	8744.55
2959.20498	8738.35
2961.65895	8717.25
2964.11142	8724.55
2966.56239	8706.85
2969.01186	8673.15
2971.45984	8676.95
2973.90632	8648.55
2976.35131	8619.85
2978.7948	8594.25
2981.23681	8603.25
2983.67732	8583.25
2986.11635	8559.45
2988.55388	8530.75
2990.98993	8519.95
2993.4245	8514.85
2995.85758	8510.05
2998.28917	8459.35
3000.71928	8477.25
3003.14791	8423.55
3005.57506	8446.75
3008.00073	8407.85
3010.42493	8391.25
3012.84764	8372.45
3015.26888	8374.65
3017.68865	8373.65
3020.10694	8360.15
3022.52376	8336.25
3024.9391	8295.55
3027.35298	8297.45
3029.76539	8292.85
3032.17632	8276.15
3034.5858	8281.05
3036.9938	8284.45
3039.40034	8258.75
3041.80542	8230.35
3044.20903	8221.05
3046.61118	8239.55
3049.01187	8220.35
3051.4111	8223.95
3053.80888	8197.65
3056.20519	8190.75
3058.60005	8168.05
3060.99345	8158.05
3063.3854	8123.35
3065.7759	8094.45
3068.16494	8095.55
3070.55254	8076.35
3072.93868	8031.35
3075.32338	7997.45
3077.70662	8000.95
3080.08842	7976.15
3082.46878	7959.15
3084.84769	7962.45
3087.22515	7976.75
3089.60118	7960.15
3091.97576	7946.75
3094.3489	7931.15
3096.72061	7964.55
3099.09087	7963.35
3101.4597	7949.75
3103.82709	7956.95
3106.19305	7923.05
3108.55757	7916.35
3110.92066	7893.15
3113.28232	7884.05
3115.64255	7890.25
3118.00134	7879.35
3120.35871	7850.45
3122.71466	7841.45
3125.06917	7839.75
3127.42226	7833.45
3129.77393	7821.25
3132.12417	7800.55
3134.47299	7793.45
3136.82039	7796.25
3139.16636	7816.25
3141.51092	7819.95
3143.85406	7822.45
3146.19579	7821.55
3148.53609	7828.75
3150.87499	7836.15
3153.21246	7828.25
3155.54853	7835.75
3157.88318	7836.55
3160.21642	7821.85
3162.54826	7828.55
3164.87868	7863.35
3167.2077	7833.75
3169.5353	7820.65
3171.86151	7822.35
3174.18631	7816.45
3176.5097	7810.05
3178.83169	7798.55
3181.15228	7802.15
3183.47147	7789.25
3185.78926	7803.75
3188.10565	7783.25
3190.42065	7771.45
3192.73424	7800.55
3195.04645	7775.05
3197.35725	7796.85
3199.66667	7785.75
3201.97469	7803.25
3204.28132	7803.25
3206.58656	7824.95
3208.8904	7809.05
3211.19287	7848.65
3213.49394	7823.95
3215.79363	7822.55
3218.09193	7834.65
3220.38884	7819.45
3222.68438	7780.45
3224.97853	7786.25
3227.2713	7833.65
3229.56269	7810.15
3231.8527	7826.55
3234.14133	7821.75
3236.42858	7810.15
3238.71446	7787.45
3240.99896	7771.45
3243.28209	7757.65
3245.56384	7759.55
3247.84423	7750.95
3250.12324	7744.65
3252.40088	7747.65
3254.67715	7741.15
3256.95205	7746.85
3259.22558	7730.15
3261.49775	7720.95
3263.76855	7712.75
3266.03799	7701.65
3268.30606	7701.95
3270.57277	7689.05
3272.83812	7673.95
3275.10211	7658.65
3277.36474	7633.85
3279.62601	7647.45
3281.88593	7615.85
3284.14448	7622.95
3286.40168	7634.65
3288.65753	7627.45
3290.91202	7630.75
3293.16516	7602.65
3295.41695	7598.45
3297.66738	7540.75
3299.91647	7505.65
3302.16421	7467.65
3304.4106	7445.35
3306.65564	7399.85
3308.89933	7343.65
3311.14169	7307.95
3313.38269	7230.35
3315.62236	7207.15
3317.86068	7147.65
3320.09766	7098.35
3322.3333	7056.85
3324.5676	7017.55
3326.80056	6889.35
3329.03219	6863.65
3331.26248	3.45
3333.49143	-0.55
3335.71905	-0.65
