Data from AgNPs_FTO_APTES_UA_50uM_CRN_500uM_R6G_10uM_NaF_0.1M_Addition_RamanShift__20__17-05-13-544.txt Node

Date: Mon Feb 21 17:05:13 GMT 2022
User: TCL
Spectrometer: QEP01345
Trigger mode: 4
Integration Time (sec): 7.000000E0
Scans to average: 10
Electric dark correction enabled: true
Nonlinearity correction enabled: false
Boxcar width: 0
XAxis mode: Raman Shifts
Number of Pixels in Spectrum: 1044
>>>>>Begin Spectral Data<<<<<
46.04893	-0.95
50.45542	-0.45
54.85868	0.35
59.25871	-1.85
63.6555	51.85
68.04907	56.45
72.43941	63.15
76.82654	59.55
81.21044	66.55
85.59113	67.75
89.96862	71.75
94.34289	70.25
98.71396	75.75
103.08183	78.65
107.4465	78.35
111.80798	80.75
116.16626	80.35
120.52136	82.55
124.87327	82.75
129.222	88.15
133.56755	92.45
137.90993	94.65
142.24913	99.05
146.58517	109.05
150.91804	124.85
155.24774	146.75
159.57429	172.95
163.89768	221.75
168.21792	289.45
172.53501	392.35
176.84895	538.15
181.15975	760.95
185.46741	1059.85
189.77193	1461.35
194.07331	1963.65
198.37157	2534.45
202.6667	3135.65
206.9587	3759.95
211.24758	4339.15
215.53334	4946.45
219.81599	5567.45
224.09553	6271.45
228.37195	7014.65
232.64527	7852.45
236.91549	8743.95
241.18261	9616.35
245.44663	10426.45
249.70755	11118.65
253.96539	11710.95
258.22014	12213.65
262.4718	12628.55
266.72039	12876.55
270.96589	13002.15
275.20832	12979.95
279.44768	12872.75
283.68397	12672.65
287.91719	12457.35
292.14735	12364.15
296.37445	12372.95
300.59849	12420.65
304.81948	12532.35
309.03742	12563.15
313.25231	12460.25
317.46415	12268.85
321.67296	11964.15
325.87872	11726.25
330.08145	11605.65
334.28114	11635.75
338.47781	11707.55
342.67145	11905.45
346.86207	12092.55
351.04966	12357.35
355.23424	12626.85
359.4158	12905.15
363.59435	13108.25
367.76989	13220.85
371.94243	13315.85
376.11196	13408.55
380.27849	13479.65
384.44203	13517.95
388.60257	13537.95
392.76012	13612.85
396.91468	13706.15
401.06626	13833.15
405.21485	13940.25
409.36047	13858.85
413.50311	13651.75
417.64277	13429.45
421.77947	13315.55
425.9132	13306.15
430.04396	13352.35
434.17176	13465.25
438.2966	13606.85
442.41849	13821.75
446.53742	14103.85
450.6534	14425.25
454.76644	14673.85
458.87653	14702.05
462.98368	14644.35
467.08789	14503.15
471.18916	14318.25
475.2875	14124.25
479.38291	13987.75
483.4754	13876.75
487.56496	13747.55
491.6516	13646.35
495.73531	13567.25
499.81612	13564.75
503.89401	13626.25
507.96899	13682.75
512.04106	13726.35
516.11023	13774.55
520.1765	13769.55
524.23987	13774.65
528.30034	13750.75
532.35792	13691.05
536.41261	13610.05
540.46441	13461.35
544.51333	13431.15
548.55936	13459.85
552.60252	13569.45
556.64279	13770.25
560.6802	13868.85
564.71473	13888.45
568.7464	14058.35
572.7752	14214.65
576.80114	14268.25
580.82422	14230.95
584.84444	14356.75
588.86181	14625.05
592.87633	14940.35
596.888	15110.75
600.89682	15041.65
604.9028	15407.95
608.90594	16834.75
612.90624	18605.05
616.90371	17875.75
620.89834	15142.35
624.89015	13875.65
628.87913	13707.45
632.86528	13811.95
636.84862	13868.95
640.82913	13759.65
644.80683	13510.35
648.78172	13288.75
652.75379	13245.55
656.72306	13394.25
660.68952	13609.35
664.65319	13566.25
668.61405	13411.05
672.57211	13435.85
676.52738	13575.25
680.47986	13636.95
684.42955	13563.85
688.37646	13432.15
692.32058	13371.65
696.26192	13361.35
700.20048	13418.95
704.13626	13430.95
708.06928	13374.15
711.99952	13286.35
715.927	13245.75
719.85171	13271.05
723.77365	13262.25
727.69284	13225.15
731.60928	13209.45
735.52295	13154.85
739.43388	13187.55
743.34206	13169.95
747.24749	13190.15
751.15017	13214.65
755.05012	13280.35
758.94733	13522.65
762.8418	14047.95
766.73354	14996.25
770.62254	16117.65
774.50882	16634.75
778.39237	16178.55
782.27321	15030.05
786.15132	13995.85
790.02671	13354.35
793.89938	13113.85
797.76935	12960.75
801.6366	12886.05
805.50115	12833.15
809.36299	12784.25
813.22213	12699.65
817.07857	12681.35
820.93231	12603.25
824.78336	12577.75
828.63172	12571.35
832.47738	12533.25
836.32036	12539.65
840.16066	12513.65
843.99827	12524.35
847.8332	12503.95
851.66546	12503.75
855.49504	12531.55
859.32195	12554.85
863.1462	12552.35
866.96777	12547.65
870.78668	12542.15
874.60293	12571.25
878.41652	12552.65
882.22745	12585.05
886.03573	12595.55
889.84136	12580.75
893.64433	12500.75
897.44466	12467.85
901.24235	12412.75
905.0374	12319.45
908.8298	12234.55
912.61957	12199.75
916.40671	12254.55
920.19121	12318.65
923.97308	12391.55
927.75233	12404.95
931.52895	12414.25
935.30295	12365.45
939.07433	12186.25
942.84309	12050.75
946.60924	11948.15
950.37278	11887.85
954.13371	11868.15
957.89203	11794.05
961.64774	11757.55
965.40086	11732.25
969.15137	11652.85
972.89929	11628.85
976.64461	11581.35
980.38733	11571.55
984.12747	11598.75
987.86502	11646.45
991.59999	11706.65
995.33237	11826.15
999.06217	11992.95
1002.78939	12184.15
1006.51404	12296.15
1010.23611	12407.55
1013.95561	12487.95
1017.67255	12544.15
1021.38692	12446.95
1025.09872	12306.65
1028.80796	12249.65
1032.51465	12294.65
1036.21877	12426.35
1039.92035	12432.35
1043.61937	12398.15
1047.31584	12332.85
1051.00976	12260.95
1054.70114	12217.95
1058.38998	12212.65
1062.07627	12225.25
1065.76003	12238.45
1069.44126	12236.15
1073.11995	12266.25
1076.79611	12349.35
1080.46974	12396.45
1084.14085	12505.05
1087.80943	12583.25
1091.47549	12670.85
1095.13903	12647.55
1098.80005	12509.15
1102.45857	12353.55
1106.11456	12276.45
1109.76805	12302.25
1113.41903	12405.15
1117.06751	12561.55
1120.71348	12755.55
1124.35696	12953.05
1127.99793	13164.05
1131.63641	13255.05
1135.2724	13095.55
1138.90589	12885.65
1142.5369	12759.95
1146.16542	12625.55
1149.79145	12555.05
1153.415	12519.75
1157.03607	12606.45
1160.65467	12761.35
1164.27079	13110.45
1167.88443	13566.05
1171.49561	14162.05
1175.10432	15037.95
1178.71056	16183.05
1182.31434	17251.45
1185.91565	17695.75
1189.51451	17524.75
1193.11091	16912.75
1196.70485	16209.25
1200.29634	15580.65
1203.88538	15056.25
1207.47197	14528.35
1211.05612	14101.05
1214.63782	13827.45
1218.21708	13699.75
1221.79391	13690.35
1225.36829	13702.85
1228.94024	13646.55
1232.50976	13459.25
1236.07685	13317.45
1239.6415	13241.45
1243.20374	13227.75
1246.76355	13300.15
1250.32093	13424.15
1253.8759	13575.15
1257.42845	13777.75
1260.97859	14010.35
1264.52631	14269.55
1268.07163	14563.85
1271.61453	14852.05
1275.15503	15124.95
1278.69312	15403.45
1282.22882	15593.85
1285.76211	15829.75
1289.29301	16152.35
1292.82151	16622.55
1296.34761	17181.75
1299.87133	17915.75
1303.39266	18854.45
1306.9116	20047.25
1310.42815	21310.45
1313.94233	22113.45
1317.45412	21996.15
1320.96354	21172.85
1324.47058	20233.45
1327.97525	19401.65
1331.47754	18719.95
1334.97747	18431.65
1338.47502	18389.65
1341.97022	18532.45
1345.46305	18794.75
1348.95352	19233.75
1352.44163	19993.75
1355.92738	20991.45
1359.41078	22379.35
1362.89183	23617.75
1366.37053	23239.05
1369.84688	20943.35
1373.32088	18362.65
1376.79254	16647.15
1380.26186	15853.85
1383.72883	15578.95
1387.19347	15336.95
1390.65578	15080.35
1394.11575	14888.75
1397.57339	14870.95
1401.0287	14992.95
1404.48168	15116.45
1407.93234	15165.55
1411.38068	15051.25
1414.82669	14895.75
1418.27039	14619.05
1421.71177	14283.35
1425.15083	13979.05
1428.58758	13779.35
1432.02203	13783.55
1435.45416	13937.45
1438.88399	14151.75
1442.31151	14319.05
1445.73673	14406.95
1449.15965	14493.85
1452.58027	14555.85
1455.9986	14541.35
1459.41463	14580.55
1462.82837	14730.35
1466.23982	14957.25
1469.64898	15164.35
1473.05586	15300.75
1476.46045	15437.35
1479.86276	15406.85
1483.26279	15414.75
1486.66054	15441.45
1490.05602	15476.05
1493.44922	15672.25
1496.84016	16009.75
1500.22882	16604.95
1503.61521	17521.55
1506.99934	18630.15
1510.38121	19638.95
1513.76081	19921.35
1517.13816	19227.55
1520.51324	17934.45
1523.88607	16701.65
1527.25665	15936.15
1530.62498	15567.75
1533.99105	15332.95
1537.35488	15201.45
1540.71647	15004.95
1544.07581	14799.85
1547.4329	14668.15
1550.78776	14529.45
1554.14038	14438.95
1557.49077	14426.85
1560.83892	14481.15
1564.18484	14581.95
1567.52853	14722.45
1570.86999	14912.75
1574.20922	15078.35
1577.54624	15137.05
1580.88103	14859.85
1584.2136	14510.55
1587.54395	14389.15
1590.87208	14642.55
1594.19801	15285.75
1597.52172	16106.05
1600.84321	16570.25
1604.16251	16325.05
1607.47959	15525.85
1610.79447	14577.05
1614.10715	13662.75
1617.41763	12880.95
1620.7259	12319.55
1624.03199	12045.15
1627.33587	12016.05
1630.63757	12166.95
1633.93707	12637.35
1637.23439	13412.35
1640.52951	14575.65
1643.82246	16015.65
1647.11321	17389.85
1650.40179	17943.85
1653.68819	17232.85
1656.97241	15455.95
1660.25446	13605.75
1663.53433	12309.15
1666.81203	11508.95
1670.08756	10987.95
1673.36092	10679.05
1676.63211	10467.35
1679.90115	10303.35
1683.16801	10211.45
1686.43272	10084.25
1689.69527	9987.55
1692.95567	9920.55
1696.2139	9856.45
1699.46999	9799.25
1702.72392	9774.35
1705.97571	9778.45
1709.22535	9720.35
1712.47284	9676.95
1715.71819	9676.65
1718.96139	9630.15
1722.20246	9613.65
1725.44139	9579.25
1728.67818	9525.15
1731.91284	9487.35
1735.14537	9422.85
1738.37576	9399.45
1741.60403	9397.55
1744.83017	9363.75
1748.05418	9343.65
1751.27607	9359.95
1754.49584	9353.65
1757.71349	9350.95
1760.92903	9329.75
1764.14244	9275.15
1767.35375	9255.45
1770.56294	9199.55
1773.77002	9160.75
1776.97499	9124.85
1780.17785	9100.35
1783.37861	9072.75
1786.57727	9028.75
1789.77382	9018.25
1792.96828	8991.65
1796.16064	8973.95
1799.3509	8924.25
1802.53907	8895.65
1805.72514	8858.85
1808.90913	8850.65
1812.09102	8832.55
1815.27083	8810.95
1818.44856	8808.45
1821.6242	8781.75
1824.79776	8754.25
1827.96924	8729.75
1831.13864	8731.35
1834.30597	8747.45
1837.47122	8710.15
1840.6344	8672.45
1843.7955	8684.65
1846.95454	8678.65
1850.11151	8671.05
1853.26642	8644.25
1856.41926	8643.05
1859.57004	8621.35
1862.71876	8630.45
1865.86542	8615.75
1869.01003	8609.35
1872.15258	8665.45
1875.29308	8626.95
1878.43152	8643.55
1881.56792	8576.05
1884.70227	8557.25
1887.83457	8565.85
1890.96482	8547.15
1894.09304	8527.15
1897.21921	8530.85
1900.34335	8486.45
1903.46544	8511.95
1906.58551	8509.45
1909.70353	8498.75
1912.81953	8476.65
1915.93349	8465.25
1919.04543	8421.35
1922.15534	8378.55
1925.26322	8372.75
1928.36908	8365.15
1931.47292	8344.15
1934.57473	8324.05
1937.67453	8294.45
1940.77232	8287.45
1943.86808	8261.05
1946.96184	8235.15
1950.05358	8241.65
1953.14331	8216.75
1956.23103	8169.35
1959.31675	8144.65
1962.40046	8127.85
1965.48217	8093.35
1968.56188	8072.35
1971.63959	8050.95
1974.7153	8007.65
1977.78901	7998.95
1980.86073	7961.55
1983.93046	7960.75
1986.99819	7927.55
1990.06394	7898.25
1993.1277	7869.95
1996.18947	7838.55
1999.24925	7826.55
2002.30706	7788.95
2005.36288	7765.55
2008.41672	7754.35
2011.46859	7704.05
2014.51848	7711.55
2017.56639	7698.65
2020.61233	7650.65
2023.6563	7659.75
2026.6983	7625.85
2029.73833	7593.95
2032.7764	7567.95
2035.8125	7562.35
2038.84664	7556.15
2041.87881	7539.55
2044.90903	7510.35
2047.93729	7467.15
2050.96359	7451.15
2053.98794	7481.75
2057.01034	7475.65
2060.03078	7480.75
2063.04927	7468.35
2066.06582	7460.65
2069.08042	7458.05
2072.09307	7444.75
2075.10378	7404.75
2078.11255	7419.55
2081.11938	7407.75
2084.12426	7391.85
2087.12722	7407.35
2090.12824	7377.85
2093.12732	7388.65
2096.12447	7392.15
2099.11969	7418.55
2102.11299	7379.75
2105.10435	7383.75
2108.09379	7395.05
2111.08131	7417.45
2114.0669	7408.05
2117.05057	7402.95
2120.03233	7393.45
2123.01216	7396.15
2125.99008	7400.75
2128.96609	7404.95
2131.94018	7428.25
2134.91236	7404.55
2137.88263	7388.15
2140.851	7408.85
2143.81746	7408.15
2146.78201	7415.85
2149.74466	7427.05
2152.7054	7423.85
2155.66425	7403.95
2158.6212	7393.15
2161.57625	7382.75
2164.52941	7382.25
2167.48067	7392.65
2170.43004	7387.45
2173.37752	7379.45
2176.32311	7379.45
2179.26681	7375.25
2182.20863	7379.15
2185.14856	7387.45
2188.08661	7367.15
2191.02278	7374.15
2193.95707	7363.35
2196.88948	7361.15
2199.82001	7347.15
2202.74867	7333.55
2205.67545	7349.35
2208.60037	7321.25
2211.52341	7316.75
2214.44458	7314.85
2217.36388	7294.35
2220.28132	7262.15
2223.1969	7256.25
2226.11061	7262.55
2229.02246	7223.95
2231.93245	7201.15
2234.84058	7189.95
2237.74686	7202.45
2240.65128	7166.35
2243.55385	7154.45
2246.45456	7137.45
2249.35343	7136.25
2252.25044	7119.35
2255.14561	7117.15
2258.03893	7113.75
2260.93041	7086.55
2263.82004	7076.15
2266.70783	7051.65
2269.59378	7046.15
2272.4779	7024.35
2275.36017	7004.75
2278.24061	6993.45
2281.11922	6976.55
2283.996	6948.25
2286.87094	6948.75
2289.74405	6934.25
2292.61534	6919.75
2295.4848	6911.75
2298.35243	6910.75
2301.21824	6907.25
2304.08223	6921.55
2306.94439	6898.05
2309.80474	6900.05
2312.66327	6880.15
2315.51999	6870.85
2318.37489	6861.25
2321.22797	6844.55
2324.07925	6852.65
2326.92871	6828.65
2329.77637	6804.75
2332.62222	6813.75
2335.46626	6801.35
2338.3085	6808.55
2341.14893	6764.85
2343.98756	6784.55
2346.8244	6790.35
2349.65943	6772.15
2352.49267	6775.45
2355.32411	6777.75
2358.15376	6769.45
2360.98161	6785.95
2363.80768	6743.95
2366.63195	6755.95
2369.45444	6757.95
2372.27514	6737.95
2375.09405	6726.95
2377.91118	6714.75
2380.72652	6713.05
2383.54009	6686.35
2386.35187	6658.45
2389.16188	6643.65
2391.97011	6624.25
2394.77657	6620.15
2397.58125	6594.15
2400.38416	6579.15
2403.18529	6567.55
2405.98466	6559.35
2408.78226	6537.45
2411.57809	6540.75
2414.37216	6521.35
2417.16446	6545.35
2419.955	6550.45
2422.74378	6530.35
2425.5308	6500.65
2428.31606	6504.85
2431.09956	6496.05
2433.88131	6473.05
2436.6613	6495.25
2439.43954	6476.65
2442.21603	6470.85
2444.99077	6463.95
2447.76377	6448.85
2450.53501	6447.15
2453.30451	6453.75
2456.07226	6445.05
2458.83827	6434.05
2461.60254	6436.35
2464.36507	6436.75
2467.12586	6433.95
2469.88492	6423.75
2472.64224	6408.85
2475.39782	6405.85
2478.15167	6422.85
2480.90379	6407.45
2483.65417	6412.85
2486.40283	6419.55
2489.14976	6407.55
2491.89497	6428.25
2494.63845	6408.75
2497.3802	6405.15
2500.12024	6395.45
2502.85855	6384.55
2505.59514	6371.05
2508.33002	6368.65
2511.06318	6369.85
2513.79462	6325.95
2516.52435	6320.25
2519.25237	6309.85
2521.97867	6303.35
2524.70327	6309.15
2527.42616	6280.25
2530.14734	6308.55
2532.86681	6279.15
2535.58458	6255.15
2538.30065	6273.75
2541.01501	6264.75
2543.72768	6250.75
2546.43864	6232.95
2549.14791	6217.45
2551.85548	6231.35
2554.56136	6197.95
2557.26554	6205.05
2559.96803	6188.15
2562.66883	6178.35
2565.36794	6164.75
2568.06536	6155.15
2570.7611	6147.15
2573.45514	6140.05
2576.14751	6131.15
2578.83819	6136.65
2581.52719	6123.35
2584.21451	6121.85
2586.90015	6094.75
2589.58411	6104.75
2592.2664	6084.95
2594.94701	6060.85
2597.62594	6056.95
2600.30321	6052.55
2602.9788	6048.65
2605.65273	6033.75
2608.32498	6020.95
2610.99557	6030.55
2613.66449	6004.45
2616.33175	6014.85
2618.99734	6007.25
2621.66128	6010.25
2624.32355	5999.95
2626.98416	5981.05
2629.64311	5973.15
2632.30041	5961.45
2634.95605	5974.25
2637.61004	5956.95
2640.26238	5958.15
2642.91306	5955.65
2645.56209	5965.05
2648.20948	5941.95
2650.85521	5933.95
2653.4993	5939.15
2656.14175	5941.65
2658.78255	5948.35
2661.42171	5916.65
2664.05923	5923.35
2666.6951	5952.55
2669.32934	5924.05
2671.96194	5937.25
2674.59291	5917.65
2677.22224	5926.85
2679.84993	5933.55
2682.476	5925.15
2685.10043	5921.05
2687.72324	5918.35
2690.34441	5923.95
2692.96396	5904.75
2695.58188	5928.35
2698.19818	5912.55
2700.81285	5915.65
2703.4259	5911.75
2706.03733	5921.25
2708.64714	5923.55
2711.25533	5902.65
2713.86191	5911.05
2716.46687	5913.85
2719.07021	5912.35
2721.67194	5922.85
2724.27206	5921.15
2726.87057	5899.55
2729.46747	5905.55
2732.06276	5924.95
2734.65644	5933.95
2737.24852	5901.35
2739.83899	5916.65
2742.42786	5895.35
2745.01513	5887.65
2747.60079	5874.25
2750.18486	5872.95
2752.76733	5867.45
2755.3482	5853.95
2757.92747	5855.25
2760.50515	5831.85
2763.08123	5862.45
2765.65573	5843.05
2768.22863	5833.55
2770.79994	5824.45
2773.36967	5826.35
2775.9378	5822.15
2778.50435	5796.85
2781.06932	5804.95
2783.6327	5795.15
2786.1945	5812.45
2788.75471	5812.55
2791.31335	5789.05
2793.87041	5778.75
2796.42589	5753.05
2798.97979	5752.15
2801.53212	5739.35
2804.08288	5749.95
2806.63206	5721.55
2809.17967	5696.65
2811.72571	5697.95
2814.27018	5690.65
2816.81308	5689.45
2819.35442	5666.05
2821.89419	5677.65
2824.43239	5684.35
2826.96904	5678.55
2829.50412	5658.65
2832.03763	5663.55
2834.56959	5659.15
2837.1	5675.55
2839.62884	5668.75
2842.15613	5663.65
2844.68186	5666.25
2847.20604	5678.85
2849.72867	5690.55
2852.24974	5685.95
2854.76927	5671.15
2857.28724	5671.85
2859.80367	5664.45
2862.31855	5671.25
2864.83189	5648.85
2867.34368	5643.25
2869.85393	5632.45
2872.36264	5647.25
2874.8698	5646.65
2877.37543	5638.85
2879.87952	5621.25
2882.38207	5631.75
2884.88308	5632.15
2887.38256	5641.05
2889.88051	5648.25
2892.37692	5664.65
2894.8718	5636.35
2897.36515	5636.35
2899.85698	5663.05
2902.34727	5668.65
2904.83604	5686.25
2907.32328	5680.45
2909.809	5679.45
2912.29319	5699.55
2914.77587	5702.35
2917.25702	5721.15
2919.73665	5717.45
2922.21476	5727.85
2924.69136	5720.55
2927.16644	5720.25
2929.64	5711.15
2932.11205	5695.85
2934.58258	5682.05
2937.05161	5688.05
2939.51912	5693.55
2941.98513	5668.95
2944.44962	5672.85
2946.91261	5649.25
2949.37409	5668.85
2951.83407	5648.05
2954.29254	5633.75
2956.74951	5635.45
2959.20498	5605.15
2961.65895	5618.35
2964.11142	5613.25
2966.56239	5574.45
2969.01186	5576.95
2971.45984	5561.95
2973.90632	5548.75
2976.35131	5526.95
2978.7948	5518.65
2981.23681	5494.25
2983.67732	5487.75
2986.11635	5474.15
2988.55388	5451.35
2990.98993	5445.55
2993.4245	5433.35
2995.85758	5429.85
2998.28917	5427.15
3000.71928	5397.15
3003.14791	5398.45
3005.57506	5383.85
3008.00073	5376.35
3010.42493	5361.55
3012.84764	5346.85
3015.26888	5348.75
3017.68865	5344.45
3020.10694	5324.05
3022.52376	5336.95
3024.9391	5318.45
3027.35298	5301.65
3029.76539	5295.75
3032.17632	5293.05
3034.5858	5265.15
3036.9938	5262.45
3039.40034	5264.75
3041.80542	5268.75
3044.20903	5257.95
3046.61118	5267.55
3049.01187	5239.85
3051.4111	5234.75
3053.80888	5237.85
3056.20519	5213.75
3058.60005	5232.65
3060.99345	5212.75
3063.3854	5181.75
3065.7759	5190.55
3068.16494	5189.55
3070.55254	5148.45
3072.93868	5160.05
3075.32338	5142.15
3077.70662	5132.65
3080.08842	5121.15
3082.46878	5107.35
3084.84769	5120.35
3087.22515	5121.05
3089.60118	5125.25
3091.97576	5120.15
3094.3489	5121.15
3096.72061	5133.85
3099.09087	5135.15
3101.4597	5121.35
3103.82709	5132.55
3106.19305	5124.35
3108.55757	5119.85
3110.92066	5111.55
3113.28232	5110.05
3115.64255	5104.35
3118.00134	5107.15
3120.35871	5096.15
3122.71466	5070.15
3125.06917	5066.65
3127.42226	5064.55
3129.77393	5068.35
3132.12417	5057.75
3134.47299	5070.25
3136.82039	5066.95
3139.16636	5074.85
3141.51092	5077.85
3143.85406	5071.75
3146.19579	5066.85
3148.53609	5075.75
3150.87499	5088.15
3153.21246	5100.25
3155.54853	5112.95
3157.88318	5108.35
3160.21642	5102.75
3162.54826	5113.25
3164.87868	5112.95
3167.2077	5112.55
3169.5353	5112.15
3171.86151	5121.15
3174.18631	5119.55
3176.5097	5115.85
3178.83169	5101.65
3181.15228	5101.35
3183.47147	5103.15
3185.78926	5108.55
3188.10565	5106.45
3190.42065	5087.65
3192.73424	5103.05
3195.04645	5117.25
3197.35725	5125.15
3199.66667	5124.65
3201.97469	5118.65
3204.28132	5123.85
3206.58656	5136.15
3208.8904	5142.25
3211.19287	5136.95
3213.49394	5126.15
3215.79363	5150.05
3218.09193	5132.95
3220.38884	5139.65
3222.68438	5153.95
3224.97853	5146.95
3227.2713	5153.65
3229.56269	5136.75
3231.8527	5146.25
3234.14133	5121.35
3236.42858	5106.05
3238.71446	5127.65
3240.99896	5099.05
3243.28209	5094.85
3245.56384	5102.75
3247.84423	5106.55
3250.12324	5099.35
3252.40088	5094.15
3254.67715	5078.15
3256.95205	5076.35
3259.22558	5093.85
3261.49775	5069.65
3263.76855	5067.75
3266.03799	5075.95
3268.30606	5060.75
3270.57277	5074.75
3272.83812	5060.25
3275.10211	5041.65
3277.36474	5033.45
3279.62601	5022.85
3281.88593	5022.05
3284.14448	5011.05
3286.40168	5037.55
3288.65753	5016.75
3290.91202	5018.55
3293.16516	5019.75
3295.41695	5000.35
3297.66738	4989.65
3299.91647	4963.65
3302.16421	4930.05
3304.4106	4917.75
3306.65564	4889.35
3308.89933	4856.85
3311.14169	4818.25
3313.38269	4778.75
3315.62236	4748.55
3317.86068	4725.55
3320.09766	4679.95
3322.3333	4660.85
3324.5676	4631.05
3326.80056	4574.35
3329.03219	4531.25
3331.26248	2.35
3333.49143	-0.35
3335.71905	-0.35
