Data from AgNPs_FTO_APTES_UA_50uM_CRN_0uM_R6G_10uM_NaF_0.1M_Addition_RamanShift__22__10-35-54-649.txt Node

Date: Mon Feb 21 10:35:54 GMT 2022
User: TCL
Spectrometer: QEP01345
Trigger mode: 4
Integration Time (sec): 7.000000E0
Scans to average: 10
Electric dark correction enabled: true
Nonlinearity correction enabled: false
Boxcar width: 0
XAxis mode: Raman Shifts
Number of Pixels in Spectrum: 1044
>>>>>Begin Spectral Data<<<<<
46.04893	0.15
50.45542	-0.35
54.85868	-0.55
59.25871	-1.95
63.6555	41.55
68.04907	43.55
72.43941	46.75
76.82654	48.75
81.21044	52.55
85.59113	51.25
89.96862	54.55
94.34289	58.65
98.71396	56.35
103.08183	65.15
107.4465	65.35
111.80798	60.95
116.16626	62.35
120.52136	62.05
124.87327	69.45
129.222	62.95
133.56755	66.05
137.90993	71.55
142.24913	76.25
146.58517	85.35
150.91804	92.95
155.24774	109.95
159.57429	136.15
163.89768	167.85
168.21792	214.35
172.53501	291.25
176.84895	404.55
181.15975	561.95
185.46741	781.75
189.77193	1075.25
194.07331	1435.35
198.37157	1848.85
202.6667	2277.35
206.9587	2723.35
211.24758	3145.45
215.53334	3581.15
219.81599	4035.95
224.09553	4548.25
228.37195	5105.65
232.64527	5725.15
236.91549	6369.45
241.18261	6997.15
245.44663	7571.85
249.70755	8104.75
253.96539	8540.65
258.22014	8903.15
262.4718	9211.25
266.72039	9420.05
270.96589	9531.05
275.20832	9494.05
279.44768	9394.85
283.68397	9235.25
287.91719	9087.15
292.14735	8991.85
296.37445	8980.05
300.59849	9029.65
304.81948	9157.55
309.03742	9219.35
313.25231	9264.55
317.46415	9206.85
321.67296	9098.55
325.87872	8992.25
330.08145	8950.05
334.28114	8962.05
338.47781	9022.25
342.67145	9127.65
346.86207	9284.95
351.04966	9460.25
355.23424	9653.45
359.4158	9813.05
363.59435	9933.85
367.76989	10019.75
371.94243	10067.85
376.11196	10139.35
380.27849	10186.85
384.44203	10252.95
388.60257	10282.15
392.76012	10286.75
396.91468	10366.45
401.06626	10505.55
405.21485	10616.85
409.36047	10587.65
413.50311	10483.45
417.64277	10386.65
421.77947	10370.55
425.9132	10373.95
430.04396	10402.55
434.17176	10473.85
438.2966	10661.55
442.41849	10928.05
446.53742	11358.65
450.6534	11804.45
454.76644	12043.85
458.87653	12074.95
462.98368	11820.65
467.08789	11559.85
471.18916	11260.05
475.2875	10967.35
479.38291	10702.55
483.4754	10559.55
487.56496	10469.95
491.6516	10435.55
495.73531	10470.35
499.81612	10506.85
503.89401	10608.15
507.96899	10618.15
512.04106	10567.75
516.11023	10545.75
520.1765	10549.05
524.23987	10599.65
528.30034	10639.65
532.35792	10633.65
536.41261	10510.55
540.46441	10311.75
544.51333	10236.65
548.55936	10258.05
552.60252	10423.35
556.64279	10705.75
560.6802	10891.35
564.71473	10900.85
568.7464	10883.35
572.7752	10990.95
576.80114	11085.75
580.82422	11287.35
584.84444	11689.75
588.86181	12462.25
592.87633	13403.35
596.888	13895.25
600.89682	13344.75
604.9028	12858.15
608.90594	13595.95
612.90624	14799.65
616.90371	14274.35
620.89834	12214.05
624.89015	11146.65
628.87913	10983.55
632.86528	10956.05
636.84862	10896.85
640.82913	10725.05
644.80683	10480.05
648.78172	10330.45
652.75379	10335.65
656.72306	10479.45
660.68952	10718.15
664.65319	10711.65
668.61405	10516.35
672.57211	10509.25
676.52738	10580.45
680.47986	10554.25
684.42955	10428.35
688.37646	10366.85
692.32058	10453.15
696.26192	10635.65
700.20048	10788.65
704.13626	10844.35
708.06928	10748.15
711.99952	10676.25
715.927	10729.95
719.85171	10813.25
723.77365	10815.95
727.69284	10712.05
731.60928	10568.65
735.52295	10588.35
739.43388	10613.35
743.34206	10667.95
747.24749	10697.85
751.15017	10755.25
755.05012	10825.25
758.94733	11037.65
762.8418	11469.45
766.73354	12158.15
770.62254	12939.45
774.50882	13256.95
778.39237	12963.65
782.27321	12252.65
786.15132	11580.95
790.02671	11093.35
793.89938	10882.95
797.76935	10788.35
801.6366	10723.85
805.50115	10737.45
809.36299	10714.05
813.22213	10640.75
817.07857	10609.55
820.93231	10568.15
824.78336	10543.35
828.63172	10571.45
832.47738	10580.55
836.32036	10620.55
840.16066	10651.85
843.99827	10712.45
847.8332	10684.55
851.66546	10658.75
855.49504	10627.15
859.32195	10643.05
863.1462	10608.55
866.96777	10573.15
870.78668	10590.05
874.60293	10584.25
878.41652	10630.65
882.22745	10694.25
886.03573	10774.95
889.84136	10776.25
893.64433	10678.15
897.44466	10650.55
901.24235	10594.75
905.0374	10563.95
908.8298	10530.25
912.61957	10515.75
916.40671	10559.65
920.19121	10673.05
923.97308	10759.25
927.75233	10868.85
931.52895	10909.05
935.30295	10835.95
939.07433	10645.05
942.84309	10549.85
946.60924	10488.85
950.37278	10462.65
954.13371	10416.45
957.89203	10367.95
961.64774	10317.05
965.40086	10316.05
969.15137	10346.05
972.89929	10328.45
976.64461	10337.55
980.38733	10399.75
984.12747	10443.15
987.86502	10514.55
991.59999	10623.55
995.33237	10766.15
999.06217	11091.55
1002.78939	11378.65
1006.51404	11584.65
1010.23611	11697.35
1013.95561	11819.95
1017.67255	11793.05
1021.38692	11724.95
1025.09872	11548.65
1028.80796	11596.35
1032.51465	11816.65
1036.21877	12049.05
1039.92035	12147.35
1043.61937	12060.95
1047.31584	11857.85
1051.00976	11578.95
1054.70114	11404.95
1058.38998	11332.65
1062.07627	11308.85
1065.76003	11283.35
1069.44126	11347.55
1073.11995	11479.05
1076.79611	11654.05
1080.46974	11769.95
1084.14085	11909.95
1087.80943	12016.55
1091.47549	12060.15
1095.13903	11986.15
1098.80005	11773.25
1102.45857	11569.15
1106.11456	11492.35
1109.76805	11524.85
1113.41903	11559.75
1117.06751	11646.35
1120.71348	11752.95
1124.35696	11884.95
1127.99793	12007.05
1131.63641	12104.65
1135.2724	11976.85
1138.90589	11853.95
1142.5369	11796.25
1146.16542	11782.95
1149.79145	11803.75
1153.415	11798.75
1157.03607	11837.85
1160.65467	11972.15
1164.27079	12276.35
1167.88443	12782.65
1171.49561	13436.55
1175.10432	14391.15
1178.71056	15641.05
1182.31434	16830.45
1185.91565	17303.05
1189.51451	17058.45
1193.11091	16378.65
1196.70485	15620.95
1200.29634	15015.45
1203.88538	14466.85
1207.47197	14034.25
1211.05612	13712.55
1214.63782	13489.95
1218.21708	13467.75
1221.79391	13547.35
1225.36829	13658.15
1228.94024	13656.25
1232.50976	13337.85
1236.07685	13018.75
1239.6415	12786.95
1243.20374	12730.85
1246.76355	12778.05
1250.32093	12914.15
1253.8759	13151.85
1257.42845	13490.15
1260.97859	13836.35
1264.52631	14209.45
1268.07163	14613.75
1271.61453	14988.15
1275.15503	15347.05
1278.69312	15720.45
1282.22882	16105.15
1285.76211	16489.25
1289.29301	16977.55
1292.82151	17582.75
1296.34761	18322.15
1299.87133	19245.05
1303.39266	20401.65
1306.9116	21782.55
1310.42815	23009.25
1313.94233	23775.55
1317.45412	23478.55
1320.96354	22440.15
1324.47058	21136.65
1327.97525	20032.15
1331.47754	19322.55
1334.97747	18972.85
1338.47502	18696.15
1341.97022	18411.35
1345.46305	18167.05
1348.95352	18344.35
1352.44163	19108.45
1355.92738	20506.55
1359.41078	22278.55
1362.89183	23769.55
1366.37053	23758.15
1369.84688	21807.25
1373.32088	19065.75
1376.79254	17186.55
1380.26186	16408.85
1383.72883	16189.55
1387.19347	15931.25
1390.65578	15589.25
1394.11575	15300.55
1397.57339	15314.35
1401.0287	15470.05
1404.48168	15607.45
1407.93234	15624.15
1411.38068	15585.15
1414.82669	15478.75
1418.27039	15199.85
1421.71177	14886.95
1425.15083	14558.55
1428.58758	14450.15
1432.02203	14634.15
1435.45416	14967.45
1438.88399	15240.95
1442.31151	15314.45
1445.73673	15294.45
1449.15965	15250.85
1452.58027	15092.25
1455.9986	14844.55
1459.41463	14736.55
1462.82837	14877.15
1466.23982	15176.75
1469.64898	15593.15
1473.05586	15887.95
1476.46045	16127.75
1479.86276	16243.75
1483.26279	16316.95
1486.66054	16388.65
1490.05602	16559.25
1493.44922	16683.65
1496.84016	16756.15
1500.22882	16949.75
1503.61521	17238.15
1506.99934	17734.95
1510.38121	18236.05
1513.76081	18430.65
1517.13816	18092.35
1520.51324	17325.15
1523.88607	16554.65
1527.25665	16196.15
1530.62498	16005.75
1533.99105	15911.45
1537.35488	15741.45
1540.71647	15481.55
1544.07581	15234.25
1547.4329	14989.05
1550.78776	14731.05
1554.14038	14507.25
1557.49077	14376.55
1560.83892	14301.85
1564.18484	14346.85
1567.52853	14449.05
1570.86999	14616.35
1574.20922	14796.35
1577.54624	14890.25
1580.88103	14807.75
1584.2136	14739.55
1587.54395	15040.75
1590.87208	15825.45
1594.19801	17016.05
1597.52172	18270.15
1600.84321	18891.95
1604.16251	18381.15
1607.47959	17010.75
1610.79447	15398.95
1614.10715	14015.05
1617.41763	13113.35
1620.7259	12598.95
1624.03199	12377.25
1627.33587	12440.35
1630.63757	12765.45
1633.93707	13314.75
1637.23439	14305.45
1640.52951	15836.85
1643.82246	17861.45
1647.11321	19532.25
1650.40179	19779.95
1653.68819	18276.75
1656.97241	15894.55
1660.25446	13739.95
1663.53433	12375.85
1666.81203	11611.05
1670.08756	11185.05
1673.36092	10947.35
1676.63211	10802.15
1679.90115	10662.95
1683.16801	10555.95
1686.43272	10448.25
1689.69527	10379.65
1692.95567	10287.15
1696.2139	10145.75
1699.46999	10046.65
1702.72392	10006.05
1705.97571	10067.95
1709.22535	10157.25
1712.47284	10253.15
1715.71819	10256.25
1718.96139	10271.95
1722.20246	10280.95
1725.44139	10240.95
1728.67818	10178.35
1731.91284	10151.75
1735.14537	10136.45
1738.37576	10072.75
1741.60403	10043.15
1744.83017	10031.85
1748.05418	9967.25
1751.27607	9926.65
1754.49584	9876.45
1757.71349	9780.75
1760.92903	9755.75
1764.14244	9739.65
1767.35375	9753.95
1770.56294	9738.15
1773.77002	9765.35
1776.97499	9809.65
1780.17785	9886.15
1783.37861	9897.25
1786.57727	9915.15
1789.77382	9898.25
1792.96828	9942.15
1796.16064	9913.65
1799.3509	9907.65
1802.53907	9877.15
1805.72514	9851.75
1808.90913	9854.75
1812.09102	9843.05
1815.27083	9850.05
1818.44856	9820.85
1821.6242	9810.85
1824.79776	9796.25
1827.96924	9794.45
1831.13864	9772.75
1834.30597	9789.35
1837.47122	9778.65
1840.6344	9784.75
1843.7955	9787.05
1846.95454	9761.15
1850.11151	9739.95
1853.26642	9736.25
1856.41926	9750.75
1859.57004	9735.25
1862.71876	9740.85
1865.86542	9758.95
1869.01003	9739.65
1872.15258	9721.85
1875.29308	9737.85
1878.43152	9717.35
1881.56792	9750.85
1884.70227	9716.75
1887.83457	9727.55
1890.96482	9706.75
1894.09304	9672.35
1897.21921	9674.35
1900.34335	9709.05
1903.46544	9661.65
1906.58551	9660.75
1909.70353	9666.15
1912.81953	9682.25
1915.93349	9651.25
1919.04543	9633.85
1922.15534	9642.75
1925.26322	9604.15
1928.36908	9568.85
1931.47292	9591.85
1934.57473	9565.55
1937.67453	9561.95
1940.77232	9544.45
1943.86808	9527.85
1946.96184	9517.05
1950.05358	9465.45
1953.14331	9444.15
1956.23103	9433.55
1959.31675	9395.65
1962.40046	9377.65
1965.48217	9362.55
1968.56188	9355.05
1971.63959	9314.85
1974.7153	9333.05
1977.78901	9313.95
1980.86073	9262.65
1983.93046	9219.15
1986.99819	9196.75
1990.06394	9191.35
1993.1277	9172.55
1996.18947	9152.55
1999.24925	9135.95
2002.30706	9100.65
2005.36288	9080.05
2008.41672	9060.15
2011.46859	9042.65
2014.51848	8988.65
2017.56639	8982.15
2020.61233	8967.85
2023.6563	8969.15
2026.6983	8946.25
2029.73833	8918.45
2032.7764	8911.95
2035.8125	8903.65
2038.84664	8898.75
2041.87881	8892.85
2044.90903	8858.85
2047.93729	8846.65
2050.96359	8858.05
2053.98794	8842.85
2057.01034	8840.95
2060.03078	8833.55
2063.04927	8819.75
2066.06582	8828.85
2069.08042	8831.25
2072.09307	8835.45
2075.10378	8822.35
2078.11255	8826.25
2081.11938	8825.25
2084.12426	8828.65
2087.12722	8826.15
2090.12824	8834.85
2093.12732	8811.15
2096.12447	8829.65
2099.11969	8839.85
2102.11299	8824.95
2105.10435	8859.65
2108.09379	8883.45
2111.08131	8865.75
2114.0669	8872.15
2117.05057	8890.15
2120.03233	8887.95
2123.01216	8894.35
2125.99008	8918.65
2128.96609	8922.85
2131.94018	8943.55
2134.91236	8932.05
2137.88263	8933.55
2140.851	8951.95
2143.81746	8974.55
2146.78201	8963.35
2149.74466	8973.15
2152.7054	8996.45
2155.66425	8966.15
2158.6212	8994.25
2161.57625	8974.65
2164.52941	8997.35
2167.48067	9002.85
2170.43004	8964.35
2173.37752	8972.55
2176.32311	8960.45
2179.26681	8968.85
2182.20863	8963.95
2185.14856	8995.65
2188.08661	8997.55
2191.02278	9001.15
2193.95707	8984.45
2196.88948	8998.35
2199.82001	8995.35
2202.74867	8997.05
2205.67545	8996.45
2208.60037	8988.85
2211.52341	8997.35
2214.44458	8976.55
2217.36388	8939.65
2220.28132	8946.75
2223.1969	8923.45
2226.11061	8915.25
2229.02246	8894.95
2231.93245	8888.65
2234.84058	8881.55
2237.74686	8863.75
2240.65128	8877.65
2243.55385	8875.25
2246.45456	8848.35
2249.35343	8840.85
2252.25044	8832.05
2255.14561	8812.05
2258.03893	8796.45
2260.93041	8777.45
2263.82004	8776.25
2266.70783	8751.45
2269.59378	8729.95
2272.4779	8750.65
2275.36017	8705.85
2278.24061	8705.55
2281.11922	8696.85
2283.996	8705.35
2286.87094	8686.25
2289.74405	8675.15
2292.61534	8652.15
2295.4848	8658.75
2298.35243	8681.85
2301.21824	8658.95
2304.08223	8672.45
2306.94439	8671.95
2309.80474	8690.45
2312.66327	8691.85
2315.51999	8670.75
2318.37489	8672.65
2321.22797	8658.45
2324.07925	8650.65
2326.92871	8648.95
2329.77637	8667.35
2332.62222	8631.85
2335.46626	8628.35
2338.3085	8611.35
2341.14893	8618.35
2343.98756	8614.65
2346.8244	8636.55
2349.65943	8631.75
2352.49267	8639.95
2355.32411	8600.75
2358.15376	8614.45
2360.98161	8605.45
2363.80768	8599.35
2366.63195	8592.95
2369.45444	8574.65
2372.27514	8574.25
2375.09405	8530.75
2377.91118	8548.75
2380.72652	8523.35
2383.54009	8514.75
2386.35187	8516.95
2389.16188	8505.85
2391.97011	8508.85
2394.77657	8508.35
2397.58125	8472.05
2400.38416	8497.65
2403.18529	8476.65
2405.98466	8449.85
2408.78226	8463.75
2411.57809	8427.45
2414.37216	8407.05
2417.16446	8412.95
2419.955	8402.15
2422.74378	8407.65
2425.5308	8376.05
2428.31606	8377.55
2431.09956	8396.75
2433.88131	8389.25
2436.6613	8398.05
2439.43954	8401.85
2442.21603	8386.45
2444.99077	8377.15
2447.76377	8387.35
2450.53501	8360.95
2453.30451	8371.95
2456.07226	8348.55
2458.83827	8348.65
2461.60254	8343.65
2464.36507	8350.75
2467.12586	8336.25
2469.88492	8319.35
2472.64224	8333.25
2475.39782	8320.45
2478.15167	8361.85
2480.90379	8346.75
2483.65417	8353.05
2486.40283	8372.45
2489.14976	8380.85
2491.89497	8368.45
2494.63845	8348.75
2497.3802	8336.45
2500.12024	8375.45
2502.85855	8355.05
2505.59514	8342.35
2508.33002	8340.75
2511.06318	8335.75
2513.79462	8313.95
2516.52435	8325.55
2519.25237	8303.65
2521.97867	8297.75
2524.70327	8310.25
2527.42616	8294.15
2530.14734	8292.65
2532.86681	8302.95
2535.58458	8307.75
2538.30065	8277.95
2541.01501	8279.95
2543.72768	8244.65
2546.43864	8264.15
2549.14791	8252.95
2551.85548	8246.95
2554.56136	8229.75
2557.26554	8222.15
2559.96803	8218.55
2562.66883	8207.35
2565.36794	8197.35
2568.06536	8186.75
2570.7611	8198.15
2573.45514	8197.55
2576.14751	8208.25
2578.83819	8205.95
2581.52719	8183.75
2584.21451	8156.65
2586.90015	8177.15
2589.58411	8138.95
2592.2664	8136.45
2594.94701	8152.15
2597.62594	8152.95
2600.30321	8126.95
2602.9788	8115.35
2605.65273	8113.95
2608.32498	8135.05
2610.99557	8136.65
2613.66449	8141.75
2616.33175	8125.65
2618.99734	8118.05
2621.66128	8097.65
2624.32355	8090.05
2626.98416	8100.95
2629.64311	8089.55
2632.30041	8086.15
2634.95605	8079.35
2637.61004	8043.95
2640.26238	8036.85
2642.91306	8041.45
2645.56209	8056.25
2648.20948	8006.25
2650.85521	8013.55
2653.4993	8001.85
2656.14175	8010.95
2658.78255	8061.75
2661.42171	8045.75
2664.05923	8043.95
2666.6951	8056.85
2669.32934	8073.55
2671.96194	8058.95
2674.59291	8051.85
2677.22224	8055.65
2679.84993	8094.45
2682.476	8067.15
2685.10043	8076.75
2687.72324	8072.85
2690.34441	8082.95
2692.96396	8064.15
2695.58188	8056.55
2698.19818	8056.65
2700.81285	8047.05
2703.4259	8003.35
2706.03733	7940.35
2708.64714	7978.95
2711.25533	8068.35
2713.86191	8076.45
2716.46687	8106.85
2719.07021	8110.55
2721.67194	8138.55
2724.27206	8125.15
2726.87057	8112.35
2729.46747	8114.55
2732.06276	8111.55
2734.65644	8117.45
2737.24852	8112.65
2739.83899	8115.25
2742.42786	8124.35
2745.01513	8117.35
2747.60079	8093.85
2750.18486	8083.35
2752.76733	8087.85
2755.3482	8073.75
2757.92747	8081.65
2760.50515	8075.25
2763.08123	8076.25
2765.65573	8068.35
2768.22863	8063.05
2770.79994	8077.25
2773.36967	8088.25
2775.9378	8059.35
2778.50435	8064.35
2781.06932	8065.85
2783.6327	8051.15
2786.1945	8051.55
2788.75471	8033.15
2791.31335	8018.95
2793.87041	7996.35
2796.42589	8003.35
2798.97979	7991.35
2801.53212	7957.25
2804.08288	7973.25
2806.63206	7957.05
2809.17967	7941.35
2811.72571	7940.65
2814.27018	7930.45
2816.81308	7906.15
2819.35442	7907.65
2821.89419	7888.55
2824.43239	7879.15
2826.96904	7872.95
2829.50412	7864.45
2832.03763	7865.45
2834.56959	7883.75
2837.1	7861.15
2839.62884	7880.55
2842.15613	7870.55
2844.68186	7915.05
2847.20604	7940.45
2849.72867	7913.95
2852.24974	7928.05
2854.76927	7938.55
2857.28724	7874.45
2859.80367	7909.75
2862.31855	7891.55
2864.83189	7887.95
2867.34368	7885.45
2869.85393	7902.05
2872.36264	7896.95
2874.8698	7897.45
2877.37543	7888.65
2879.87952	7922.75
2882.38207	7921.45
2884.88308	7940.95
2887.38256	7941.85
2889.88051	7935.35
2892.37692	7939.95
2894.8718	7931.65
2897.36515	7964.25
2899.85698	7966.85
2902.34727	7969.75
2904.83604	7981.45
2907.32328	7980.55
2909.809	7993.75
2912.29319	7999.85
2914.77587	8001.25
2917.25702	8010.35
2919.73665	7995.25
2922.21476	7986.65
2924.69136	7996.25
2927.16644	7969.35
2929.64	7957.35
2932.11205	7943.25
2934.58258	7919.05
2937.05161	7931.55
2939.51912	7948.25
2941.98513	7920.45
2944.44962	7902.95
2946.91261	7875.45
2949.37409	7895.35
2951.83407	7908.45
2954.29254	7892.75
2956.74951	7890.75
2959.20498	7894.05
2961.65895	7844.95
2964.11142	7854.75
2966.56239	7850.95
2969.01186	7866.75
2971.45984	7825.85
2973.90632	7824.15
2976.35131	7800.25
2978.7948	7814.95
2981.23681	7770.65
2983.67732	7778.55
2986.11635	7775.15
2988.55388	7736.15
2990.98993	7731.25
2993.4245	7726.25
2995.85758	7717.75
2998.28917	7684.95
3000.71928	7656.45
3003.14791	7658.15
3005.57506	7653.95
3008.00073	7644.25
3010.42493	7622.05
3012.84764	7629.15
3015.26888	7611.55
3017.68865	7620.85
3020.10694	7601.95
3022.52376	7589.45
3024.9391	7599.45
3027.35298	7565.95
3029.76539	7577.35
3032.17632	7603.35
3034.5858	7573.75
3036.9938	7554.25
3039.40034	7565.55
3041.80542	7546.35
3044.20903	7510.85
3046.61118	7548.25
3049.01187	7547.55
3051.4111	7531.75
3053.80888	7520.25
3056.20519	7543.75
3058.60005	7538.15
3060.99345	7524.55
3063.3854	7500.85
3065.7759	7484.45
3068.16494	7488.85
3070.55254	7451.25
3072.93868	7434.55
3075.32338	7429.65
3077.70662	7421.05
3080.08842	7397.55
3082.46878	7393.55
3084.84769	7392.55
3087.22515	7414.25
3089.60118	7407.15
3091.97576	7412.25
3094.3489	7424.25
3096.72061	7418.85
3099.09087	7423.45
3101.4597	7440.05
3103.82709	7426.45
3106.19305	7400.45
3108.55757	7397.25
3110.92066	7395.45
3113.28232	7386.05
3115.64255	7378.95
3118.00134	7371.55
3120.35871	7355.15
3122.71466	7353.65
3125.06917	7344.65
3127.42226	7329.05
3129.77393	7323.05
3132.12417	7344.95
3134.47299	7333.55
3136.82039	7347.75
3139.16636	7344.25
3141.51092	7356.55
3143.85406	7357.15
3146.19579	7343.45
3148.53609	7360.85
3150.87499	7374.95
3153.21246	7371.35
3155.54853	7391.75
3157.88318	7374.65
3160.21642	7391.95
3162.54826	7410.95
3164.87868	7401.65
3167.2077	7401.25
3169.5353	7419.15
3171.86151	7412.05
3174.18631	7387.35
3176.5097	7381.75
3178.83169	7373.45
3181.15228	7410.95
3183.47147	7379.15
3185.78926	7392.75
3188.10565	7370.85
3190.42065	7371.95
3192.73424	7392.35
3195.04645	7350.15
3197.35725	7365.75
3199.66667	7370.55
3201.97469	7387.05
3204.28132	7399.75
3206.58656	7421.25
3208.8904	7404.15
3211.19287	7418.45
3213.49394	7412.55
3215.79363	7419.65
3218.09193	7439.35
3220.38884	7416.05
3222.68438	7404.85
3224.97853	7398.65
3227.2713	7431.65
3229.56269	7421.75
3231.8527	7438.85
3234.14133	7429.65
3236.42858	7391.05
3238.71446	7379.65
3240.99896	7377.95
3243.28209	7385.75
3245.56384	7399.25
3247.84423	7377.65
3250.12324	7369.95
3252.40088	7355.45
3254.67715	7359.25
3256.95205	7369.05
3259.22558	7348.15
3261.49775	7342.05
3263.76855	7372.65
3266.03799	7333.75
3268.30606	7329.05
3270.57277	7318.55
3272.83812	7323.05
3275.10211	7302.95
3277.36474	7299.35
3279.62601	7312.55
3281.88593	7296.25
3284.14448	7311.35
3286.40168	7295.25
3288.65753	7280.65
3290.91202	7283.15
3293.16516	7279.35
3295.41695	7244.95
3297.66738	7227.45
3299.91647	7172.35
3302.16421	7165.95
3304.4106	7150.05
3306.65564	7084.05
3308.89933	7024.25
3311.14169	6996.35
3313.38269	6933.25
3315.62236	6908.45
3317.86068	6855.35
3320.09766	6817.65
3322.3333	6757.55
3324.5676	6749.05
3326.80056	6607.25
3329.03219	6581.45
3331.26248	2.45
3333.49143	-0.95
3335.71905	0.65
