Data from AgNPs_FTO_APTES_UA_50uM_CRN_10uM_R6G_10uM_NaF_0.1M_Addition_RamanShift__10__13-25-04-872.txt Node

Date: Mon Feb 21 13:25:04 GMT 2022
User: TCL
Spectrometer: QEP01345
Trigger mode: 4
Integration Time (sec): 7.000000E0
Scans to average: 10
Electric dark correction enabled: true
Nonlinearity correction enabled: false
Boxcar width: 0
XAxis mode: Raman Shifts
Number of Pixels in Spectrum: 1044
>>>>>Begin Spectral Data<<<<<
46.04893	-0.25
50.45542	-1.35
54.85868	-0.95
59.25871	-1.75
63.6555	65.65
68.04907	70.95
72.43941	71.55
76.82654	75.35
81.21044	79.55
85.59113	85.35
89.96862	89.55
94.34289	93.25
98.71396	88.25
103.08183	100.15
107.4465	100.85
111.80798	98.25
116.16626	101.35
120.52136	103.95
124.87327	113.05
129.222	113.45
133.56755	119.45
137.90993	132.45
142.24913	139.65
146.58517	158.05
150.91804	175.25
155.24774	213.15
159.57429	258.95
163.89768	338.95
168.21792	444.95
172.53501	602.65
176.84895	841.75
181.15975	1172.85
185.46741	1656.25
189.77193	2278.25
194.07331	3045.75
198.37157	3920.25
202.6667	4848.85
206.9587	5751.65
211.24758	6644.25
215.53334	7552.35
219.81599	8495.75
224.09553	9530.95
228.37195	10695.05
232.64527	12006.95
236.91549	13375.25
241.18261	14758.05
245.44663	16034.55
249.70755	17127.05
253.96539	18034.75
258.22014	18815.55
262.4718	19429.65
266.72039	19849.95
270.96589	20035.05
275.20832	19985.45
279.44768	19839.95
283.68397	19617.15
287.91719	19374.75
292.14735	19231.85
296.37445	19171.15
300.59849	19123.55
304.81948	19153.05
309.03742	19159.05
313.25231	19095.95
317.46415	18884.75
321.67296	18584.15
325.87872	18361.45
330.08145	18297.25
334.28114	18315.65
338.47781	18413.55
342.67145	18650.95
346.86207	18916.65
351.04966	19292.75
355.23424	19678.25
359.4158	19987.65
363.59435	20153.95
367.76989	20323.15
371.94243	20383.15
376.11196	20418.35
380.27849	20509.35
384.44203	20569.65
388.60257	20743.15
392.76012	20945.75
396.91468	21203.25
401.06626	21453.35
405.21485	21667.15
409.36047	21567.35
413.50311	21250.85
417.64277	21063.05
421.77947	21077.25
425.9132	21212.15
430.04396	21344.45
434.17176	21460.55
438.2966	21660.15
442.41849	22066.25
446.53742	22678.65
450.6534	23305.15
454.76644	23698.05
458.87653	23787.95
462.98368	23734.05
467.08789	23476.45
471.18916	23093.05
475.2875	22671.25
479.38291	22393.25
483.4754	22162.45
487.56496	21964.95
491.6516	21710.35
495.73531	21548.95
499.81612	21505.65
503.89401	21625.25
507.96899	21736.65
512.04106	21742.15
516.11023	21660.15
520.1765	21499.35
524.23987	21383.85
528.30034	21266.55
532.35792	21138.75
536.41261	20962.65
540.46441	20739.65
544.51333	20700.55
548.55936	20835.05
552.60252	21206.45
556.64279	21700.85
560.6802	22076.45
564.71473	22286.95
568.7464	22531.75
572.7752	23157.55
576.80114	23881.85
580.82422	24566.15
584.84444	25412.75
588.86181	26776.85
592.87633	28395.15
596.888	29046.15
600.89682	27992.95
604.9028	27134.75
608.90594	28064.05
612.90624	29418.55
616.90371	27461.45
620.89834	23599.15
624.89015	21877.45
628.87913	21700.15
632.86528	21947.15
636.84862	21946.35
640.82913	21555.95
644.80683	21050.65
648.78172	20684.25
652.75379	20644.45
656.72306	20939.85
660.68952	21300.15
664.65319	21161.65
668.61405	20815.65
672.57211	20830.55
676.52738	20954.75
680.47986	20964.95
684.42955	20837.65
688.37646	20718.85
692.32058	20815.15
696.26192	21051.25
700.20048	21298.25
704.13626	21453.55
708.06928	21482.85
711.99952	21376.55
715.927	21367.65
719.85171	21379.85
723.77365	21313.95
727.69284	21013.95
731.60928	20804.55
735.52295	20745.75
739.43388	20775.75
743.34206	20860.25
747.24749	21055.55
751.15017	21241.75
755.05012	21589.85
758.94733	22116.15
762.8418	23161.25
766.73354	24769.25
770.62254	26281.35
774.50882	26586.45
778.39237	25450.75
782.27321	23874.05
786.15132	22562.25
790.02671	21655.35
793.89938	21184.75
797.76935	20915.75
801.6366	20770.95
805.50115	20651.15
809.36299	20552.05
813.22213	20447.95
817.07857	20352.65
820.93231	20261.55
824.78336	20173.05
828.63172	20121.85
832.47738	20094.75
836.32036	20108.65
840.16066	20083.25
843.99827	20089.25
847.8332	20096.25
851.66546	20144.65
855.49504	20200.05
859.32195	20185.75
863.1462	20155.65
866.96777	20121.95
870.78668	20106.15
874.60293	20123.75
878.41652	20191.35
882.22745	20298.85
886.03573	20357.25
889.84136	20342.85
893.64433	20282.35
897.44466	20272.55
901.24235	20249.25
905.0374	20190.05
908.8298	20089.45
912.61957	20078.45
916.40671	20223.45
920.19121	20503.15
923.97308	20742.75
927.75233	20827.55
931.52895	20598.35
935.30295	20306.05
939.07433	19935.45
942.84309	19668.35
946.60924	19544.25
950.37278	19521.55
954.13371	19477.45
957.89203	19503.15
961.64774	19499.95
965.40086	19485.05
969.15137	19501.55
972.89929	19418.95
976.64461	19382.75
980.38733	19355.65
984.12747	19371.65
987.86502	19479.45
991.59999	19555.75
995.33237	19780.75
999.06217	20121.15
1002.78939	20586.75
1006.51404	21085.35
1010.23611	21567.95
1013.95561	21815.65
1017.67255	21892.35
1021.38692	21669.85
1025.09872	21226.65
1028.80796	20872.25
1032.51465	20762.45
1036.21877	20757.75
1039.92035	20816.95
1043.61937	20896.75
1047.31584	20903.05
1051.00976	20859.25
1054.70114	20914.65
1058.38998	20996.15
1062.07627	21162.25
1065.76003	21402.15
1069.44126	21712.95
1073.11995	22115.25
1076.79611	22472.25
1080.46974	22687.25
1084.14085	22914.75
1087.80943	23219.25
1091.47549	23436.05
1095.13903	23448.55
1098.80005	23161.65
1102.45857	22667.75
1106.11456	22277.45
1109.76805	22073.35
1113.41903	22134.15
1117.06751	22284.75
1120.71348	22554.95
1124.35696	22799.15
1127.99793	23004.15
1131.63641	23170.55
1135.2724	23163.05
1138.90589	23061.75
1142.5369	23191.85
1146.16542	23314.05
1149.79145	23544.55
1153.415	23777.95
1157.03607	24046.95
1160.65467	24532.35
1164.27079	25385.75
1167.88443	26542.75
1171.49561	28019.95
1175.10432	29870.65
1178.71056	32206.65
1182.31434	34326.95
1185.91565	35392.15
1189.51451	35287.85
1193.11091	34497.95
1196.70485	33452.65
1200.29634	32070.55
1203.88538	30878.05
1207.47197	30094.75
1211.05612	29515.85
1214.63782	28958.95
1218.21708	28431.65
1221.79391	28103.35
1225.36829	27918.65
1228.94024	27777.65
1232.50976	27391.85
1236.07685	26849.75
1239.6415	26503.65
1243.20374	26392.05
1246.76355	26425.35
1250.32093	26628.15
1253.8759	27128.35
1257.42845	27855.15
1260.97859	28712.75
1264.52631	29723.15
1268.07163	30653.55
1271.61453	31526.05
1275.15503	32360.35
1278.69312	33232.45
1282.22882	34246.45
1285.76211	35404.95
1289.29301	36747.35
1292.82151	38299.35
1296.34761	40127.75
1299.87133	42214.85
1303.39266	44366.15
1306.9116	46370.65
1310.42815	47895.95
1313.94233	48704.35
1317.45412	48328.25
1320.96354	47252.85
1324.47058	46139.25
1327.97525	45213.55
1331.47754	44542.35
1334.97747	44168.75
1338.47502	43970.75
1341.97022	43841.75
1345.46305	43715.45
1348.95352	43706.25
1352.44163	44002.85
1355.92738	44984.65
1359.41078	46654.25
1362.89183	48223.05
1366.37053	47871.75
1369.84688	44550.95
1373.32088	40014.45
1376.79254	36686.15
1380.26186	35299.15
1383.72883	35020.45
1387.19347	34822.65
1390.65578	34355.45
1394.11575	34077.55
1397.57339	34162.35
1401.0287	34443.45
1404.48168	34660.95
1407.93234	34592.45
1411.38068	34127.95
1414.82669	33364.15
1418.27039	32400.45
1421.71177	31393.55
1425.15083	30544.95
1428.58758	30142.05
1432.02203	30313.15
1435.45416	30911.15
1438.88399	31571.85
1442.31151	32008.05
1445.73673	32286.05
1449.15965	32477.55
1452.58027	32566.25
1455.9986	32544.95
1459.41463	32772.95
1462.82837	33346.55
1466.23982	34103.35
1469.64898	34784.45
1473.05586	35327.95
1476.46045	35571.45
1479.86276	35649.35
1483.26279	35590.35
1486.66054	35670.95
1490.05602	36027.75
1493.44922	36616.65
1496.84016	37259.95
1500.22882	37839.75
1503.61521	38596.25
1506.99934	39392.85
1510.38121	39866.35
1513.76081	39707.75
1517.13816	38823.65
1520.51324	37862.45
1523.88607	37132.85
1527.25665	36795.55
1530.62498	36605.75
1533.99105	36290.25
1537.35488	35590.05
1540.71647	34635.25
1544.07581	33590.65
1547.4329	32707.05
1550.78776	32020.45
1554.14038	31627.75
1557.49077	31467.85
1560.83892	31515.25
1564.18484	31591.85
1567.52853	31716.35
1570.86999	31970.55
1574.20922	32492.85
1577.54624	32854.85
1580.88103	32794.35
1584.2136	32882.55
1587.54395	33610.95
1590.87208	35105.75
1594.19801	37162.85
1597.52172	39162.35
1600.84321	39614.85
1604.16251	37967.05
1607.47959	35162.75
1610.79447	32278.55
1614.10715	29615.95
1617.41763	27531.95
1620.7259	26080.65
1624.03199	25344.05
1627.33587	25396.65
1630.63757	26139.15
1633.93707	27883.05
1637.23439	30898.65
1640.52951	35257.95
1643.82246	40431.45
1647.11321	44364.65
1650.40179	44747.25
1653.68819	41141.75
1656.97241	35394.75
1660.25446	30117.15
1663.53433	26248.65
1666.81203	23856.15
1670.08756	22378.25
1673.36092	21490.05
1676.63211	20917.45
1679.90115	20497.45
1683.16801	20180.75
1686.43272	19900.95
1689.69527	19724.25
1692.95567	19510.25
1696.2139	19315.95
1699.46999	19124.55
1702.72392	19009.25
1705.97571	19068.85
1709.22535	19120.05
1712.47284	19199.05
1715.71819	19155.75
1718.96139	19103.75
1722.20246	19029.75
1725.44139	18938.15
1728.67818	18824.95
1731.91284	18763.75
1735.14537	18638.25
1738.37576	18562.05
1741.60403	18487.55
1744.83017	18386.55
1748.05418	18347.45
1751.27607	18298.15
1754.49584	18190.65
1757.71349	18139.35
1760.92903	18102.25
1764.14244	18068.75
1767.35375	18080.15
1770.56294	17987.25
1773.77002	18000.85
1776.97499	17992.05
1780.17785	17991.95
1783.37861	18018.95
1786.57727	17947.15
1789.77382	17939.95
1792.96828	17935.35
1796.16064	17870.65
1799.3509	17831.55
1802.53907	17819.85
1805.72514	17803.95
1808.90913	17748.25
1812.09102	17705.85
1815.27083	17684.35
1818.44856	17675.55
1821.6242	17658.95
1824.79776	17671.45
1827.96924	17689.85
1831.13864	17662.85
1834.30597	17669.55
1837.47122	17673.25
1840.6344	17686.45
1843.7955	17707.25
1846.95454	17658.65
1850.11151	17676.45
1853.26642	17672.65
1856.41926	17602.65
1859.57004	17607.65
1862.71876	17594.95
1865.86542	17567.75
1869.01003	17560.15
1872.15258	17517.35
1875.29308	17513.65
1878.43152	17493.35
1881.56792	17486.75
1884.70227	17449.05
1887.83457	17414.65
1890.96482	17416.25
1894.09304	17378.95
1897.21921	17370.05
1900.34335	17357.65
1903.46544	17317.35
1906.58551	17330.45
1909.70353	17259.15
1912.81953	17231.55
1915.93349	17208.25
1919.04543	17171.95
1922.15534	17128.55
1925.26322	17101.15
1928.36908	17031.05
1931.47292	17000.75
1934.57473	16927.55
1937.67453	16895.75
1940.77232	16868.75
1943.86808	16793.15
1946.96184	16769.85
1950.05358	16725.35
1953.14331	16668.75
1956.23103	16664.95
1959.31675	16581.65
1962.40046	16563.15
1965.48217	16543.75
1968.56188	16469.15
1971.63959	16405.35
1974.7153	16357.45
1977.78901	16328.95
1980.86073	16269.15
1983.93046	16204.85
1986.99819	16162.55
1990.06394	16136.85
1993.1277	16079.05
1996.18947	16000.95
1999.24925	15956.85
2002.30706	15917.25
2005.36288	15875.35
2008.41672	15831.15
2011.46859	15782.35
2014.51848	15738.75
2017.56639	15716.75
2020.61233	15689.45
2023.6563	15620.75
2026.6983	15585.75
2029.73833	15567.25
2032.7764	15555.05
2035.8125	15485.65
2038.84664	15480.35
2041.87881	15462.45
2044.90903	15437.15
2047.93729	15406.05
2050.96359	15398.95
2053.98794	15371.75
2057.01034	15350.65
2060.03078	15330.15
2063.04927	15350.95
2066.06582	15343.85
2069.08042	15343.95
2072.09307	15327.55
2075.10378	15308.45
2078.11255	15299.45
2081.11938	15354.65
2084.12426	15317.85
2087.12722	15322.25
2090.12824	15305.95
2093.12732	15337.65
2096.12447	15344.45
2099.11969	15330.95
2102.11299	15308.45
2105.10435	15342.25
2108.09379	15324.85
2111.08131	15348.05
2114.0669	15348.25
2117.05057	15391.45
2120.03233	15372.15
2123.01216	15382.85
2125.99008	15400.65
2128.96609	15416.35
2131.94018	15434.45
2134.91236	15466.55
2137.88263	15488.55
2140.851	15421.55
2143.81746	15431.95
2146.78201	15446.55
2149.74466	15425.15
2152.7054	15446.45
2155.66425	15445.55
2158.6212	15420.95
2161.57625	15419.55
2164.52941	15419.45
2167.48067	15380.25
2170.43004	15373.65
2173.37752	15362.75
2176.32311	15383.25
2179.26681	15367.75
2182.20863	15370.65
2185.14856	15388.95
2188.08661	15359.25
2191.02278	15387.35
2193.95707	15375.05
2196.88948	15361.85
2199.82001	15352.25
2202.74867	15326.15
2205.67545	15303.05
2208.60037	15305.85
2211.52341	15217.85
2214.44458	15221.25
2217.36388	15194.05
2220.28132	15180.05
2223.1969	15121.25
2226.11061	15116.35
2229.02246	15082.35
2231.93245	15081.65
2234.84058	15074.15
2237.74686	15046.25
2240.65128	15045.15
2243.55385	15018.75
2246.45456	15037.15
2249.35343	14991.85
2252.25044	14969.05
2255.14561	14956.05
2258.03893	14909.15
2260.93041	14883.45
2263.82004	14838.55
2266.70783	14806.15
2269.59378	14764.95
2272.4779	14756.05
2275.36017	14743.15
2278.24061	14705.45
2281.11922	14652.75
2283.996	14666.85
2286.87094	14596.95
2289.74405	14590.55
2292.61534	14565.85
2295.4848	14563.55
2298.35243	14574.45
2301.21824	14543.35
2304.08223	14558.45
2306.94439	14540.05
2309.80474	14563.75
2312.66327	14510.45
2315.51999	14491.55
2318.37489	14499.75
2321.22797	14448.25
2324.07925	14457.65
2326.92871	14449.45
2329.77637	14394.35
2332.62222	14352.45
2335.46626	14348.35
2338.3085	14347.45
2341.14893	14368.55
2343.98756	14338.35
2346.8244	14336.15
2349.65943	14352.75
2352.49267	14348.75
2355.32411	14368.35
2358.15376	14350.65
2360.98161	14355.15
2363.80768	14327.45
2366.63195	14323.85
2369.45444	14288.25
2372.27514	14325.35
2375.09405	14297.05
2377.91118	14281.95
2380.72652	14225.75
2383.54009	14184.25
2386.35187	14206.05
2389.16188	14185.25
2391.97011	14149.05
2394.77657	14137.35
2397.58125	14101.55
2400.38416	14063.85
2403.18529	14049.85
2405.98466	14066.15
2408.78226	14043.55
2411.57809	14018.75
2414.37216	13973.95
2417.16446	13982.55
2419.955	13973.05
2422.74378	13991.35
2425.5308	13958.25
2428.31606	13974.55
2431.09956	13926.35
2433.88131	13917.15
2436.6613	13920.25
2439.43954	13945.25
2442.21603	13896.35
2444.99077	13922.25
2447.76377	13964.45
2450.53501	13907.95
2453.30451	13901.95
2456.07226	13895.85
2458.83827	13915.45
2461.60254	13891.05
2464.36507	13884.35
2467.12586	13882.55
2469.88492	13881.35
2472.64224	13864.85
2475.39782	13849.85
2478.15167	13856.55
2480.90379	13870.35
2483.65417	13866.65
2486.40283	13880.35
2489.14976	13901.15
2491.89497	13831.25
2494.63845	13863.05
2497.3802	13838.35
2500.12024	13808.05
2502.85855	13832.85
2505.59514	13830.45
2508.33002	13805.35
2511.06318	13803.75
2513.79462	13788.25
2516.52435	13739.15
2519.25237	13777.75
2521.97867	13755.35
2524.70327	13750.25
2527.42616	13716.15
2530.14734	13753.65
2532.86681	13760.65
2535.58458	13723.05
2538.30065	13726.95
2541.01501	13685.15
2543.72768	13683.55
2546.43864	13664.15
2549.14791	13633.95
2551.85548	13625.65
2554.56136	13618.85
2557.26554	13600.85
2559.96803	13625.65
2562.66883	13594.15
2565.36794	13593.65
2568.06536	13604.35
2570.7611	13587.35
2573.45514	13540.65
2576.14751	13530.35
2578.83819	13515.45
2581.52719	13515.85
2584.21451	13485.65
2586.90015	13491.05
2589.58411	13458.25
2592.2664	13460.25
2594.94701	13437.55
2597.62594	13428.85
2600.30321	13425.05
2602.9788	13418.65
2605.65273	13387.55
2608.32498	13402.55
2610.99557	13350.25
2613.66449	13386.45
2616.33175	13387.65
2618.99734	13404.35
2621.66128	13371.05
2624.32355	13374.85
2626.98416	13319.25
2629.64311	13326.45
2632.30041	13322.75
2634.95605	13345.15
2637.61004	13306.15
2640.26238	13283.15
2642.91306	13251.55
2645.56209	13236.85
2648.20948	13250.35
2650.85521	13275.05
2653.4993	13284.95
2656.14175	13307.65
2658.78255	13329.45
2661.42171	13314.35
2664.05923	13370.65
2666.6951	13333.55
2669.32934	13365.85
2671.96194	13352.55
2674.59291	13392.35
2677.22224	13355.65
2679.84993	13382.75
2682.476	13323.35
2685.10043	13351.95
2687.72324	13327.05
2690.34441	13320.15
2692.96396	13315.25
2695.58188	13336.75
2698.19818	13309.15
2700.81285	13347.15
2703.4259	13284.05
2706.03733	13233.35
2708.64714	13263.05
2711.25533	13293.75
2713.86191	13327.75
2716.46687	13329.15
2719.07021	13333.15
2721.67194	13328.15
2724.27206	13361.05
2726.87057	13390.85
2729.46747	13392.15
2732.06276	13382.75
2734.65644	13399.15
2737.24852	13381.15
2739.83899	13400.45
2742.42786	13396.95
2745.01513	13383.15
2747.60079	13380.55
2750.18486	13344.25
2752.76733	13291.85
2755.3482	13332.15
2757.92747	13308.85
2760.50515	13307.85
2763.08123	13292.65
2765.65573	13287.15
2768.22863	13274.25
2770.79994	13268.05
2773.36967	13251.95
2775.9378	13249.95
2778.50435	13274.35
2781.06932	13258.05
2783.6327	13256.45
2786.1945	13272.65
2788.75471	13236.65
2791.31335	13225.15
2793.87041	13214.05
2796.42589	13170.95
2798.97979	13155.65
2801.53212	13111.65
2804.08288	13119.55
2806.63206	13121.15
2809.17967	13084.15
2811.72571	13024.15
2814.27018	13025.55
2816.81308	12997.55
2819.35442	12980.65
2821.89419	12940.55
2824.43239	12938.15
2826.96904	12947.15
2829.50412	12933.45
2832.03763	12898.65
2834.56959	12923.45
2837.1	12897.05
2839.62884	12873.65
2842.15613	12823.15
2844.68186	12830.35
2847.20604	12844.55
2849.72867	12831.75
2852.24974	12837.15
2854.76927	12797.75
2857.28724	12772.95
2859.80367	12821.25
2862.31855	12772.85
2864.83189	12771.05
2867.34368	12744.45
2869.85393	12769.55
2872.36264	12783.85
2874.8698	12752.25
2877.37543	12745.25
2879.87952	12709.75
2882.38207	12731.55
2884.88308	12740.25
2887.38256	12743.85
2889.88051	12726.35
2892.37692	12742.25
2894.8718	12777.65
2897.36515	12756.65
2899.85698	12756.85
2902.34727	12800.35
2904.83604	12778.95
2907.32328	12822.75
2909.809	12820.35
2912.29319	12823.35
2914.77587	12810.95
2917.25702	12825.15
2919.73665	12808.35
2922.21476	12821.65
2924.69136	12804.15
2927.16644	12808.45
2929.64	12785.95
2932.11205	12753.75
2934.58258	12730.85
2937.05161	12752.95
2939.51912	12760.35
2941.98513	12749.45
2944.44962	12704.25
2946.91261	12683.05
2949.37409	12704.95
2951.83407	12652.95
2954.29254	12661.05
2956.74951	12655.95
2959.20498	12633.75
2961.65895	12656.75
2964.11142	12644.55
2966.56239	12635.55
2969.01186	12600.15
2971.45984	12539.95
2973.90632	12556.75
2976.35131	12530.05
2978.7948	12509.65
2981.23681	12469.35
2983.67732	12471.65
2986.11635	12446.55
2988.55388	12366.55
2990.98993	12379.15
2993.4245	12373.95
2995.85758	12349.05
2998.28917	12312.45
3000.71928	12271.35
3003.14791	12251.55
3005.57506	12221.55
3008.00073	12191.55
3010.42493	12197.65
3012.84764	12166.05
3015.26888	12143.15
3017.68865	12108.35
3020.10694	12084.35
3022.52376	12048.15
3024.9391	12036.25
3027.35298	12054.85
3029.76539	12018.75
3032.17632	12035.25
3034.5858	11999.35
3036.9938	11983.05
3039.40034	11971.85
3041.80542	11963.05
3044.20903	11943.15
3046.61118	11960.25
3049.01187	11920.85
3051.4111	11910.35
3053.80888	11913.05
3056.20519	11895.75
3058.60005	11869.45
3060.99345	11855.25
3063.3854	11818.05
3065.7759	11764.15
3068.16494	11741.05
3070.55254	11711.75
3072.93868	11646.45
3075.32338	11635.75
3077.70662	11616.45
3080.08842	11585.05
3082.46878	11607.75
3084.84769	11564.15
3087.22515	11547.75
3089.60118	11531.05
3091.97576	11555.35
3094.3489	11573.95
3096.72061	11559.35
3099.09087	11530.85
3101.4597	11519.15
3103.82709	11528.45
3106.19305	11524.45
3108.55757	11495.45
3110.92066	11525.05
3113.28232	11470.25
3115.64255	11427.95
3118.00134	11383.15
3120.35871	11352.65
3122.71466	11375.35
3125.06917	11345.55
3127.42226	11324.35
3129.77393	11321.35
3132.12417	11300.65
3134.47299	11313.05
3136.82039	11307.45
3139.16636	11294.05
3141.51092	11257.05
3143.85406	11276.35
3146.19579	11276.55
3148.53609	11281.25
3150.87499	11261.85
3153.21246	11278.65
3155.54853	11290.65
3157.88318	11273.15
3160.21642	11292.15
3162.54826	11286.55
3164.87868	11302.35
3167.2077	11267.95
3169.5353	11286.45
3171.86151	11304.25
3174.18631	11297.15
3176.5097	11262.05
3178.83169	11229.35
3181.15228	11232.95
3183.47147	11176.65
3185.78926	11177.65
3188.10565	11130.85
3190.42065	11137.85
3192.73424	11183.85
3195.04645	11144.15
3197.35725	11161.05
3199.66667	11142.05
3201.97469	11118.25
3204.28132	11136.95
3206.58656	11137.65
3208.8904	11104.15
3211.19287	11129.95
3213.49394	11133.15
3215.79363	11129.35
3218.09193	11106.25
3220.38884	11127.75
3222.68438	11110.25
3224.97853	11103.15
3227.2713	11110.55
3229.56269	11107.35
3231.8527	11113.75
3234.14133	11089.45
3236.42858	11065.35
3238.71446	11062.05
3240.99896	11014.15
3243.28209	10992.75
3245.56384	10958.05
3247.84423	10985.55
3250.12324	10981.55
3252.40088	10961.95
3254.67715	10968.65
3256.95205	10930.05
3259.22558	10932.75
3261.49775	10919.15
3263.76855	10924.45
3266.03799	10898.75
3268.30606	10868.45
3270.57277	10852.45
3272.83812	10834.85
3275.10211	10808.85
3277.36474	10802.15
3279.62601	10797.25
3281.88593	10767.35
3284.14448	10766.25
3286.40168	10792.95
3288.65753	10798.35
3290.91202	10777.75
3293.16516	10752.85
3295.41695	10726.85
3297.66738	10708.75
3299.91647	10633.35
3302.16421	10566.15
3304.4106	10501.75
3306.65564	10454.35
3308.89933	10381.25
3311.14169	10321.75
3313.38269	10195.75
3315.62236	10130.15
3317.86068	10045.35
3320.09766	9972.55
3322.3333	9907.25
3324.5676	9865.45
3326.80056	9685.75
3329.03219	9636.65
3331.26248	3.85
3333.49143	-0.55
3335.71905	-0.35
