Data from AgNPs_FTO_APTES_UA_50uM_CRN_500uM_R6G_10uM_NaF_0.1M_Addition_RamanShift__10__16-53-33-529.txt Node

Date: Mon Feb 21 16:53:33 GMT 2022
User: TCL
Spectrometer: QEP01345
Trigger mode: 4
Integration Time (sec): 7.000000E0
Scans to average: 10
Electric dark correction enabled: true
Nonlinearity correction enabled: false
Boxcar width: 0
XAxis mode: Raman Shifts
Number of Pixels in Spectrum: 1044
>>>>>Begin Spectral Data<<<<<
46.04893	-0.35
50.45542	-0.25
54.85868	-0.35
59.25871	-0.35
63.6555	44.25
68.04907	47.05
72.43941	53.55
76.82654	51.25
81.21044	54.35
85.59113	59.85
89.96862	60.95
94.34289	61.05
98.71396	62.05
103.08183	65.65
107.4465	66.95
111.80798	72.75
116.16626	66.65
120.52136	72.15
124.87327	71.95
129.222	77.95
133.56755	77.45
137.90993	79.55
142.24913	85.55
146.58517	97.65
150.91804	106.55
155.24774	121.85
159.57429	149.85
163.89768	188.95
168.21792	244.15
172.53501	336.85
176.84895	469.15
181.15975	663.35
185.46741	923.95
189.77193	1273.65
194.07331	1712.45
198.37157	2200.75
202.6667	2726.75
206.9587	3249.55
211.24758	3760.35
215.53334	4283.95
219.81599	4809.05
224.09553	5431.85
228.37195	6076.65
232.64527	6815.95
236.91549	7586.35
241.18261	8344.15
245.44663	9039.75
249.70755	9625.85
253.96539	10131.45
258.22014	10565.35
262.4718	10918.15
266.72039	11179.85
270.96589	11302.25
275.20832	11290.85
279.44768	11210.05
283.68397	11045.75
287.91719	10889.15
292.14735	10819.85
296.37445	10842.45
300.59849	10907.05
304.81948	11029.05
309.03742	11084.75
313.25231	11025.25
317.46415	10838.85
321.67296	10565.05
325.87872	10324.05
330.08145	10197.65
334.28114	10206.25
338.47781	10262.15
342.67145	10426.55
346.86207	10631.95
351.04966	10849.15
355.23424	11114.85
359.4158	11313.75
363.59435	11452.75
367.76989	11552.85
371.94243	11644.25
376.11196	11672.55
380.27849	11714.75
384.44203	11770.45
388.60257	11782.85
392.76012	11848.35
396.91468	11970.35
401.06626	12091.15
405.21485	12187.65
409.36047	12128.05
413.50311	11861.95
417.64277	11648.75
421.77947	11546.15
425.9132	11524.65
430.04396	11553.45
434.17176	11631.25
438.2966	11689.65
442.41849	11840.35
446.53742	12050.65
450.6534	12258.55
454.76644	12401.75
458.87653	12438.75
462.98368	12440.05
467.08789	12379.35
471.18916	12269.85
475.2875	12134.95
479.38291	11995.45
483.4754	11933.95
487.56496	11834.05
491.6516	11760.85
495.73531	11734.85
499.81612	11698.25
503.89401	11728.55
507.96899	11850.15
512.04106	11877.45
516.11023	11897.65
520.1765	11946.75
524.23987	11910.05
528.30034	11852.25
532.35792	11797.95
536.41261	11740.35
540.46441	11606.15
544.51333	11553.15
548.55936	11631.35
552.60252	11772.65
556.64279	11949.95
560.6802	12037.65
564.71473	12083.65
568.7464	12175.15
572.7752	12324.75
576.80114	12390.85
580.82422	12391.65
584.84444	12491.75
588.86181	12647.35
592.87633	12845.15
596.888	12939.25
600.89682	12914.25
604.9028	13333.65
608.90594	14703.15
612.90624	16414.45
616.90371	15791.55
620.89834	13219.15
624.89015	12014.35
628.87913	11881.25
632.86528	11967.45
636.84862	12092.85
640.82913	12036.75
644.80683	11805.55
648.78172	11606.45
652.75379	11570.15
656.72306	11694.55
660.68952	11900.55
664.65319	11850.85
668.61405	11648.95
672.57211	11583.25
676.52738	11646.95
680.47986	11661.75
684.42955	11645.75
688.37646	11542.25
692.32058	11501.15
696.26192	11573.15
700.20048	11637.35
704.13626	11678.05
708.06928	11677.25
711.99952	11641.85
715.927	11619.75
719.85171	11633.15
723.77365	11619.15
727.69284	11564.15
731.60928	11516.65
735.52295	11461.15
739.43388	11474.15
743.34206	11499.65
747.24749	11513.85
751.15017	11527.15
755.05012	11624.05
758.94733	11871.55
762.8418	12409.25
766.73354	13343.65
770.62254	14334.65
774.50882	14814.05
778.39237	14324.95
782.27321	13364.75
786.15132	12374.75
790.02671	11802.65
793.89938	11526.25
797.76935	11421.45
801.6366	11323.05
805.50115	11290.05
809.36299	11279.05
813.22213	11246.65
817.07857	11234.35
820.93231	11172.95
824.78336	11185.45
828.63172	11164.95
832.47738	11160.15
836.32036	11113.45
840.16066	11114.35
843.99827	11088.55
847.8332	11085.95
851.66546	11110.35
855.49504	11125.55
859.32195	11094.05
863.1462	11085.15
866.96777	11069.55
870.78668	11121.55
874.60293	11120.05
878.41652	11105.45
882.22745	11158.45
886.03573	11178.35
889.84136	11183.25
893.64433	11174.05
897.44466	11124.25
901.24235	11090.45
905.0374	11034.15
908.8298	10996.25
912.61957	10949.55
916.40671	10976.15
920.19121	11060.65
923.97308	11094.85
927.75233	11129.45
931.52895	11106.25
935.30295	11011.35
939.07433	10884.75
942.84309	10771.35
946.60924	10666.35
950.37278	10617.45
954.13371	10596.05
957.89203	10582.45
961.64774	10540.15
965.40086	10522.95
969.15137	10525.75
972.89929	10504.05
976.64461	10471.45
980.38733	10414.35
984.12747	10449.05
987.86502	10461.15
991.59999	10503.55
995.33237	10562.45
999.06217	10616.45
1002.78939	10736.25
1006.51404	10868.65
1010.23611	10956.15
1013.95561	11085.25
1017.67255	11149.15
1021.38692	11061.75
1025.09872	10941.85
1028.80796	10864.05
1032.51465	10794.55
1036.21877	10800.45
1039.92035	10825.35
1043.61937	10851.15
1047.31584	10891.45
1051.00976	10917.05
1054.70114	10932.25
1058.38998	10959.35
1062.07627	10974.05
1065.76003	11055.55
1069.44126	11115.35
1073.11995	11193.55
1076.79611	11290.15
1080.46974	11383.25
1084.14085	11461.95
1087.80943	11528.15
1091.47549	11604.15
1095.13903	11608.75
1098.80005	11486.05
1102.45857	11330.85
1106.11456	11203.75
1109.76805	11200.55
1113.41903	11239.15
1117.06751	11362.95
1120.71348	11547.15
1124.35696	11725.65
1127.99793	11977.75
1131.63641	12058.55
1135.2724	11883.15
1138.90589	11683.35
1142.5369	11548.65
1146.16542	11463.25
1149.79145	11369.85
1153.415	11346.05
1157.03607	11386.75
1160.65467	11521.85
1164.27079	11754.25
1167.88443	12142.35
1171.49561	12658.55
1175.10432	13409.75
1178.71056	14381.75
1182.31434	15261.75
1185.91565	15663.75
1189.51451	15626.95
1193.11091	15225.65
1196.70485	14719.55
1200.29634	14162.05
1203.88538	13726.05
1207.47197	13223.15
1211.05612	12785.25
1214.63782	12473.05
1218.21708	12291.55
1221.79391	12147.25
1225.36829	12111.75
1228.94024	12093.95
1232.50976	12107.15
1236.07685	12048.75
1239.6415	11996.05
1243.20374	11998.05
1246.76355	12054.25
1250.32093	12114.45
1253.8759	12204.25
1257.42845	12392.55
1260.97859	12624.25
1264.52631	12860.95
1268.07163	13079.35
1271.61453	13291.45
1275.15503	13433.75
1278.69312	13566.95
1282.22882	13709.65
1285.76211	13876.75
1289.29301	14197.35
1292.82151	14590.85
1296.34761	15053.75
1299.87133	15616.05
1303.39266	16294.35
1306.9116	17241.05
1310.42815	18239.75
1313.94233	18777.25
1317.45412	18623.95
1320.96354	17918.95
1324.47058	17254.55
1327.97525	16600.15
1331.47754	16093.65
1334.97747	15833.45
1338.47502	15879.55
1341.97022	16049.85
1345.46305	16481.55
1348.95352	17059.95
1352.44163	17742.95
1355.92738	18587.25
1359.41078	19758.15
1362.89183	20956.35
1366.37053	20728.35
1369.84688	18672.45
1373.32088	16380.75
1376.79254	14848.35
1380.26186	14114.65
1383.72883	13818.75
1387.19347	13559.55
1390.65578	13321.15
1394.11575	13064.75
1397.57339	12925.15
1401.0287	12859.35
1404.48168	12844.55
1407.93234	12784.45
1411.38068	12679.05
1414.82669	12560.95
1418.27039	12448.15
1421.71177	12253.05
1425.15083	12049.35
1428.58758	11930.75
1432.02203	11913.65
1435.45416	12012.75
1438.88399	12102.35
1442.31151	12170.85
1445.73673	12235.05
1449.15965	12302.15
1452.58027	12331.25
1455.9986	12321.35
1459.41463	12386.05
1462.82837	12497.75
1466.23982	12678.65
1469.64898	12841.15
1473.05586	12995.55
1476.46045	13089.85
1479.86276	13161.15
1483.26279	13214.15
1486.66054	13349.55
1490.05602	13582.65
1493.44922	13898.35
1496.84016	14525.45
1500.22882	15418.75
1503.61521	16620.45
1506.99934	17940.15
1510.38121	18886.35
1513.76081	19023.95
1517.13816	18114.55
1520.51324	16665.95
1523.88607	15401.85
1527.25665	14656.65
1530.62498	14229.85
1533.99105	13999.55
1537.35488	13768.35
1540.71647	13551.85
1544.07581	13327.85
1547.4329	13170.55
1550.78776	12992.05
1554.14038	12920.25
1557.49077	12928.75
1560.83892	13006.65
1564.18484	13158.55
1567.52853	13364.75
1570.86999	13585.35
1574.20922	13767.75
1577.54624	13819.05
1580.88103	13490.25
1584.2136	13078.15
1587.54395	12807.65
1590.87208	12874.35
1594.19801	13206.65
1597.52172	13721.65
1600.84321	13987.25
1604.16251	13775.65
1607.47959	13300.85
1610.79447	12766.65
1614.10715	12154.75
1617.41763	11589.35
1620.7259	11128.55
1624.03199	10877.35
1627.33587	10793.35
1630.63757	10894.55
1633.93707	11183.05
1637.23439	11767.55
1640.52951	12692.75
1643.82246	13893.05
1647.11321	15165.75
1650.40179	15833.05
1653.68819	15344.45
1656.97241	13948.85
1660.25446	12363.25
1663.53433	11216.05
1666.81203	10517.95
1670.08756	10039.25
1673.36092	9789.45
1676.63211	9627.45
1679.90115	9490.55
1683.16801	9396.45
1686.43272	9298.45
1689.69527	9190.15
1692.95567	9138.55
1696.2139	9070.75
1699.46999	9013.65
1702.72392	8983.25
1705.97571	8965.35
1709.22535	8930.65
1712.47284	8904.05
1715.71819	8901.05
1718.96139	8888.65
1722.20246	8870.85
1725.44139	8826.85
1728.67818	8779.55
1731.91284	8737.95
1735.14537	8708.65
1738.37576	8651.35
1741.60403	8624.55
1744.83017	8627.45
1748.05418	8611.75
1751.27607	8569.35
1754.49584	8625.05
1757.71349	8584.55
1760.92903	8566.65
1764.14244	8544.35
1767.35375	8546.15
1770.56294	8492.25
1773.77002	8489.45
1776.97499	8458.05
1780.17785	8409.45
1783.37861	8402.25
1786.57727	8363.05
1789.77382	8350.65
1792.96828	8337.05
1796.16064	8311.15
1799.3509	8278.25
1802.53907	8277.35
1805.72514	8240.35
1808.90913	8220.55
1812.09102	8198.25
1815.27083	8174.85
1818.44856	8151.65
1821.6242	8150.35
1824.79776	8120.35
1827.96924	8116.95
1831.13864	8124.35
1834.30597	8112.45
1837.47122	8087.55
1840.6344	8050.35
1843.7955	8072.15
1846.95454	8056.65
1850.11151	8048.65
1853.26642	8042.35
1856.41926	8018.25
1859.57004	8010.75
1862.71876	8006.05
1865.86542	7991.85
1869.01003	7993.25
1872.15258	7986.85
1875.29308	7962.95
1878.43152	7948.95
1881.56792	7953.85
1884.70227	7937.15
1887.83457	7911.55
1890.96482	7925.25
1894.09304	7910.45
1897.21921	7886.55
1900.34335	7872.25
1903.46544	7858.95
1906.58551	7872.35
1909.70353	7859.65
1912.81953	7825.05
1915.93349	7808.65
1919.04543	7784.05
1922.15534	7760.05
1925.26322	7752.45
1928.36908	7737.45
1931.47292	7718.15
1934.57473	7688.25
1937.67453	7702.15
1940.77232	7663.45
1943.86808	7646.55
1946.96184	7640.35
1950.05358	7607.65
1953.14331	7600.55
1956.23103	7570.05
1959.31675	7542.25
1962.40046	7495.55
1965.48217	7473.35
1968.56188	7465.85
1971.63959	7424.05
1974.7153	7421.85
1977.78901	7403.95
1980.86073	7366.25
1983.93046	7342.65
1986.99819	7340.15
1990.06394	7299.95
1993.1277	7270.85
1996.18947	7243.85
1999.24925	7224.75
2002.30706	7213.85
2005.36288	7187.05
2008.41672	7167.75
2011.46859	7121.85
2014.51848	7115.05
2017.56639	7097.05
2020.61233	7082.65
2023.6563	7064.55
2026.6983	7025.15
2029.73833	7008.15
2032.7764	6982.95
2035.8125	6977.25
2038.84664	6960.35
2041.87881	6940.15
2044.90903	6923.55
2047.93729	6906.95
2050.96359	6886.85
2053.98794	6871.85
2057.01034	6885.35
2060.03078	6857.85
2063.04927	6879.45
2066.06582	6882.85
2069.08042	6852.75
2072.09307	6852.85
2075.10378	6823.05
2078.11255	6827.15
2081.11938	6833.55
2084.12426	6813.55
2087.12722	6811.95
2090.12824	6809.95
2093.12732	6805.75
2096.12447	6807.35
2099.11969	6805.15
2102.11299	6798.35
2105.10435	6812.25
2108.09379	6799.65
2111.08131	6829.85
2114.0669	6820.55
2117.05057	6825.45
2120.03233	6831.65
2123.01216	6812.95
2125.99008	6821.75
2128.96609	6845.35
2131.94018	6856.65
2134.91236	6849.15
2137.88263	6822.25
2140.851	6816.95
2143.81746	6852.55
2146.78201	6818.95
2149.74466	6850.45
2152.7054	6844.15
2155.66425	6822.75
2158.6212	6817.75
2161.57625	6809.15
2164.52941	6814.05
2167.48067	6796.75
2170.43004	6800.65
2173.37752	6793.85
2176.32311	6782.95
2179.26681	6765.15
2182.20863	6785.35
2185.14856	6782.25
2188.08661	6766.05
2191.02278	6789.85
2193.95707	6778.85
2196.88948	6747.45
2199.82001	6746.65
2202.74867	6742.35
2205.67545	6737.45
2208.60037	6710.75
2211.52341	6720.45
2214.44458	6708.95
2217.36388	6680.35
2220.28132	6675.15
2223.1969	6634.95
2226.11061	6638.25
2229.02246	6628.55
2231.93245	6597.85
2234.84058	6574.75
2237.74686	6594.75
2240.65128	6576.35
2243.55385	6564.55
2246.45456	6547.95
2249.35343	6565.25
2252.25044	6540.55
2255.14561	6524.65
2258.03893	6522.65
2260.93041	6503.45
2263.82004	6467.65
2266.70783	6483.75
2269.59378	6470.35
2272.4779	6441.75
2275.36017	6415.35
2278.24061	6404.65
2281.11922	6397.45
2283.996	6360.45
2286.87094	6371.25
2289.74405	6354.05
2292.61534	6344.25
2295.4848	6337.95
2298.35243	6338.15
2301.21824	6338.65
2304.08223	6318.65
2306.94439	6316.85
2309.80474	6322.95
2312.66327	6287.35
2315.51999	6286.95
2318.37489	6290.15
2321.22797	6275.45
2324.07925	6271.25
2326.92871	6241.15
2329.77637	6228.75
2332.62222	6222.85
2335.46626	6227.75
2338.3085	6234.45
2341.14893	6205.25
2343.98756	6196.25
2346.8244	6189.95
2349.65943	6179.65
2352.49267	6167.25
2355.32411	6164.15
2358.15376	6172.95
2360.98161	6179.95
2363.80768	6168.65
2366.63195	6161.05
2369.45444	6169.35
2372.27514	6155.85
2375.09405	6162.05
2377.91118	6145.45
2380.72652	6151.15
2383.54009	6112.25
2386.35187	6088.25
2389.16188	6050.65
2391.97011	6051.55
2394.77657	6029.25
2397.58125	6031.75
2400.38416	5996.75
2403.18529	5983.05
2405.98466	5984.15
2408.78226	5971.85
2411.57809	5964.35
2414.37216	5951.15
2417.16446	5960.85
2419.955	5964.25
2422.74378	5958.65
2425.5308	5925.65
2428.31606	5941.35
2431.09956	5935.35
2433.88131	5917.15
2436.6613	5914.45
2439.43954	5897.65
2442.21603	5899.85
2444.99077	5895.15
2447.76377	5887.15
2450.53501	5878.65
2453.30451	5891.95
2456.07226	5879.15
2458.83827	5861.75
2461.60254	5865.75
2464.36507	5863.75
2467.12586	5858.95
2469.88492	5838.45
2472.64224	5848.55
2475.39782	5847.85
2478.15167	5864.15
2480.90379	5835.75
2483.65417	5840.85
2486.40283	5843.95
2489.14976	5833.65
2491.89497	5833.35
2494.63845	5841.85
2497.3802	5813.85
2500.12024	5836.45
2502.85855	5810.95
2505.59514	5810.35
2508.33002	5776.35
2511.06318	5773.75
2513.79462	5763.85
2516.52435	5751.05
2519.25237	5725.85
2521.97867	5719.45
2524.70327	5716.15
2527.42616	5694.25
2530.14734	5712.75
2532.86681	5691.15
2535.58458	5695.05
2538.30065	5673.95
2541.01501	5671.15
2543.72768	5662.95
2546.43864	5647.95
2549.14791	5638.65
2551.85548	5614.85
2554.56136	5605.15
2557.26554	5628.45
2559.96803	5608.05
2562.66883	5587.15
2565.36794	5569.45
2568.06536	5578.55
2570.7611	5554.35
2573.45514	5543.85
2576.14751	5542.75
2578.83819	5519.25
2581.52719	5514.45
2584.21451	5523.95
2586.90015	5508.15
2589.58411	5485.95
2592.2664	5490.25
2594.94701	5456.15
2597.62594	5436.25
2600.30321	5426.75
2602.9788	5433.15
2605.65273	5439.05
2608.32498	5424.65
2610.99557	5417.15
2613.66449	5411.05
2616.33175	5381.95
2618.99734	5405.55
2621.66128	5392.05
2624.32355	5390.35
2626.98416	5367.35
2629.64311	5369.35
2632.30041	5350.25
2634.95605	5346.35
2637.61004	5320.25
2640.26238	5319.25
2642.91306	5313.65
2645.56209	5322.95
2648.20948	5312.95
2650.85521	5308.15
2653.4993	5296.85
2656.14175	5300.15
2658.78255	5302.75
2661.42171	5303.05
2664.05923	5301.35
2666.6951	5304.25
2669.32934	5301.15
2671.96194	5283.15
2674.59291	5288.95
2677.22224	5289.85
2679.84993	5322.85
2682.476	5294.25
2685.10043	5290.35
2687.72324	5275.95
2690.34441	5287.75
2692.96396	5273.15
2695.58188	5288.25
2698.19818	5283.45
2700.81285	5289.35
2703.4259	5293.05
2706.03733	5282.05
2708.64714	5279.05
2711.25533	5276.15
2713.86191	5278.15
2716.46687	5293.05
2719.07021	5285.25
2721.67194	5299.45
2724.27206	5287.45
2726.87057	5286.35
2729.46747	5275.15
2732.06276	5286.15
2734.65644	5269.05
2737.24852	5267.85
2739.83899	5270.45
2742.42786	5249.45
2745.01513	5234.65
2747.60079	5222.95
2750.18486	5218.45
2752.76733	5228.65
2755.3482	5211.75
2757.92747	5197.55
2760.50515	5207.35
2763.08123	5196.55
2765.65573	5196.85
2768.22863	5187.65
2770.79994	5154.75
2773.36967	5158.05
2775.9378	5167.55
2778.50435	5161.15
2781.06932	5150.65
2783.6327	5141.45
2786.1945	5124.85
2788.75471	5135.55
2791.31335	5117.35
2793.87041	5094.95
2796.42589	5101.55
2798.97979	5099.55
2801.53212	5063.45
2804.08288	5082.05
2806.63206	5059.45
2809.17967	5030.75
2811.72571	5041.65
2814.27018	5032.75
2816.81308	5034.25
2819.35442	5020.35
2821.89419	5020.75
2824.43239	5032.75
2826.96904	5016.05
2829.50412	4994.35
2832.03763	5005.25
2834.56959	4986.75
2837.1	5000.85
2839.62884	4993.05
2842.15613	5013.75
2844.68186	5007.55
2847.20604	5033.05
2849.72867	5025.15
2852.24974	5043.95
2854.76927	5014.55
2857.28724	5007.45
2859.80367	5015.85
2862.31855	5006.85
2864.83189	5001.45
2867.34368	4991.55
2869.85393	4982.55
2872.36264	4973.15
2874.8698	4993.55
2877.37543	4974.75
2879.87952	4951.45
2882.38207	4962.75
2884.88308	4965.05
2887.38256	4972.25
2889.88051	4957.75
2892.37692	4979.45
2894.8718	4970.85
2897.36515	4967.25
2899.85698	4962.75
2902.34727	4983.05
2904.83604	4981.35
2907.32328	4981.85
2909.809	4986.95
2912.29319	4979.35
2914.77587	4997.85
2917.25702	4995.95
2919.73665	4993.95
2922.21476	5011.05
2924.69136	4991.85
2927.16644	4992.15
2929.64	4975.25
2932.11205	4981.45
2934.58258	4964.75
2937.05161	4963.75
2939.51912	4970.15
2941.98513	4970.95
2944.44962	4944.35
2946.91261	4917.85
2949.37409	4911.25
2951.83407	4912.35
2954.29254	4923.95
2956.74951	4896.55
2959.20498	4891.35
2961.65895	4879.45
2964.11142	4878.25
2966.56239	4862.15
2969.01186	4857.65
2971.45984	4848.95
2973.90632	4835.45
2976.35131	4827.05
2978.7948	4828.15
2981.23681	4796.65
2983.67732	4780.55
2986.11635	4778.45
2988.55388	4754.45
2990.98993	4754.95
2993.4245	4736.65
2995.85758	4741.85
2998.28917	4739.65
3000.71928	4709.65
3003.14791	4712.45
3005.57506	4713.45
3008.00073	4685.55
3010.42493	4688.15
3012.84764	4675.55
3015.26888	4676.05
3017.68865	4668.85
3020.10694	4654.05
3022.52376	4646.95
3024.9391	4642.15
3027.35298	4639.75
3029.76539	4632.95
3032.17632	4615.05
3034.5858	4606.55
3036.9938	4600.85
3039.40034	4597.95
3041.80542	4591.65
3044.20903	4591.55
3046.61118	4586.95
3049.01187	4567.85
3051.4111	4572.05
3053.80888	4569.65
3056.20519	4552.65
3058.60005	4554.75
3060.99345	4552.45
3063.3854	4545.45
3065.7759	4530.55
3068.16494	4517.75
3070.55254	4513.85
3072.93868	4498.25
3075.32338	4486.55
3077.70662	4508.15
3080.08842	4462.95
3082.46878	4465.45
3084.84769	4475.75
3087.22515	4457.25
3089.60118	4473.55
3091.97576	4459.75
3094.3489	4476.75
3096.72061	4479.15
3099.09087	4482.85
3101.4597	4465.45
3103.82709	4458.05
3106.19305	4457.25
3108.55757	4465.15
3110.92066	4454.35
3113.28232	4465.15
3115.64255	4451.05
3118.00134	4451.75
3120.35871	4427.95
3122.71466	4419.35
3125.06917	4415.45
3127.42226	4412.65
3129.77393	4404.85
3132.12417	4415.75
3134.47299	4432.55
3136.82039	4419.15
3139.16636	4414.15
3141.51092	4418.45
3143.85406	4425.35
3146.19579	4426.65
3148.53609	4428.95
3150.87499	4437.95
3153.21246	4450.05
3155.54853	4456.05
3157.88318	4460.85
3160.21642	4468.45
3162.54826	4457.25
3164.87868	4459.65
3167.2077	4466.45
3169.5353	4456.95
3171.86151	4453.85
3174.18631	4452.45
3176.5097	4453.85
3178.83169	4448.65
3181.15228	4443.25
3183.47147	4438.35
3185.78926	4438.05
3188.10565	4431.95
3190.42065	4436.25
3192.73424	4431.45
3195.04645	4435.25
3197.35725	4441.65
3199.66667	4442.45
3201.97469	4444.45
3204.28132	4442.05
3206.58656	4450.25
3208.8904	4452.85
3211.19287	4471.15
3213.49394	4458.15
3215.79363	4461.95
3218.09193	4456.75
3220.38884	4456.35
3222.68438	4458.45
3224.97853	4472.95
3227.2713	4459.35
3229.56269	4453.75
3231.8527	4453.05
3234.14133	4435.45
3236.42858	4418.75
3238.71446	4416.65
3240.99896	4403.45
3243.28209	4421.95
3245.56384	4416.05
3247.84423	4418.25
3250.12324	4406.25
3252.40088	4408.95
3254.67715	4388.75
3256.95205	4396.25
3259.22558	4390.55
3261.49775	4389.45
3263.76855	4377.65
3266.03799	4372.15
3268.30606	4369.85
3270.57277	4369.95
3272.83812	4361.05
3275.10211	4357.35
3277.36474	4338.95
3279.62601	4335.85
3281.88593	4333.55
3284.14448	4324.75
3286.40168	4325.45
3288.65753	4316.05
3290.91202	4327.85
3293.16516	4316.55
3295.41695	4322.75
3297.66738	4287.95
3299.91647	4267.55
3302.16421	4237.85
3304.4106	4215.55
3306.65564	4209.85
3308.89933	4173.95
3311.14169	4154.65
3313.38269	4112.85
3315.62236	4092.45
3317.86068	4063.55
3320.09766	4025.55
3322.3333	4005.35
3324.5676	3993.55
3326.80056	3929.25
3329.03219	3920.05
3331.26248	2.15
3333.49143	-1.35
3335.71905	-0.95
