Data from AgNPs_FTO_APTES_UA_50uM_CRN_1uM_R6G_10uM_NaF_0.1M_Addition_RamanShift__8__11-24-54-714.txt Node

Date: Mon Feb 21 11:24:54 GMT 2022
User: TCL
Spectrometer: QEP01345
Trigger mode: 4
Integration Time (sec): 7.000000E0
Scans to average: 10
Electric dark correction enabled: true
Nonlinearity correction enabled: false
Boxcar width: 0
XAxis mode: Raman Shifts
Number of Pixels in Spectrum: 1044
>>>>>Begin Spectral Data<<<<<
46.04893	0.45
50.45542	-0.95
54.85868	-0.55
59.25871	-2.05
63.6555	64.95
68.04907	68.65
72.43941	69.25
76.82654	73.15
81.21044	75.65
85.59113	78.15
89.96862	79.85
94.34289	86.95
98.71396	82.45
103.08183	93.25
107.4465	91.45
111.80798	94.15
116.16626	87.95
120.52136	95.55
124.87327	101.95
129.222	98.55
133.56755	110.55
137.90993	122.35
142.24913	125.15
146.58517	140.05
150.91804	157.05
155.24774	189.95
159.57429	239.85
163.89768	297.95
168.21792	403.15
172.53501	537.85
176.84895	753.75
181.15975	1050.65
185.46741	1483.85
189.77193	2055.65
194.07331	2743.15
198.37157	3542.85
202.6667	4372.55
206.9587	5188.65
211.24758	5992.45
215.53334	6808.55
219.81599	7674.95
224.09553	8610.35
228.37195	9648.05
232.64527	10820.35
236.91549	12035.85
241.18261	13272.35
245.44663	14423.95
249.70755	15437.35
253.96539	16348.75
258.22014	17081.15
262.4718	17634.85
266.72039	18029.85
270.96589	18217.75
275.20832	18264.15
279.44768	18071.35
283.68397	17883.25
287.91719	17676.25
292.14735	17565.85
296.37445	17534.55
300.59849	17520.45
304.81948	17611.35
309.03742	17637.45
313.25231	17601.55
317.46415	17417.05
321.67296	17082.65
325.87872	16811.45
330.08145	16672.05
334.28114	16618.15
338.47781	16744.95
342.67145	16967.05
346.86207	17225.05
351.04966	17548.65
355.23424	17896.85
359.4158	18181.95
363.59435	18472.45
367.76989	18648.35
371.94243	18725.85
376.11196	18752.25
380.27849	18816.15
384.44203	18862.25
388.60257	19008.45
392.76012	19204.55
396.91468	19457.75
401.06626	19788.15
405.21485	19954.85
409.36047	19934.15
413.50311	19669.85
417.64277	19564.45
421.77947	19595.45
425.9132	19669.35
430.04396	19723.05
434.17176	19827.75
438.2966	19925.45
442.41849	20173.75
446.53742	20617.55
450.6534	21114.35
454.76644	21502.95
458.87653	21677.75
462.98368	21607.85
467.08789	21423.35
471.18916	21159.35
475.2875	20834.15
479.38291	20646.45
483.4754	20520.65
487.56496	20402.05
491.6516	20176.15
495.73531	19963.15
499.81612	19824.95
503.89401	19969.95
507.96899	20035.85
512.04106	20012.55
516.11023	19920.95
520.1765	19741.45
524.23987	19638.35
528.30034	19476.85
532.35792	19314.25
536.41261	19147.85
540.46441	18972.45
544.51333	18932.05
548.55936	19080.35
552.60252	19394.25
556.64279	19819.05
560.6802	20196.05
564.71473	20398.25
568.7464	20769.55
572.7752	21340.05
576.80114	21990.05
580.82422	22713.25
584.84444	23533.05
588.86181	24651.65
592.87633	25684.05
596.888	25611.55
600.89682	24453.45
604.9028	23841.05
608.90594	24934.25
612.90624	26399.05
616.90371	24935.95
620.89834	21556.05
624.89015	19997.65
628.87913	19812.25
632.86528	19955.35
636.84862	20051.75
640.82913	19685.75
644.80683	19260.55
648.78172	18950.75
652.75379	18941.05
656.72306	19165.85
660.68952	19452.95
664.65319	19392.55
668.61405	19133.95
672.57211	19121.65
676.52738	19220.25
680.47986	19220.85
684.42955	19058.45
688.37646	18949.65
692.32058	19102.25
696.26192	19403.95
700.20048	19703.75
704.13626	19754.35
708.06928	19785.05
711.99952	19711.95
715.927	19695.45
719.85171	19800.75
723.77365	19753.25
727.69284	19418.25
731.60928	19156.45
735.52295	19009.75
739.43388	19020.45
743.34206	19077.45
747.24749	19190.15
751.15017	19379.35
755.05012	19676.95
758.94733	20158.25
762.8418	20967.05
766.73354	22235.15
770.62254	23401.55
774.50882	23628.75
778.39237	22724.45
782.27321	21506.15
786.15132	20464.05
790.02671	19737.75
793.89938	19377.85
797.76935	19179.45
801.6366	19122.75
805.50115	19036.75
809.36299	18964.05
813.22213	18859.35
817.07857	18793.65
820.93231	18746.75
824.78336	18650.35
828.63172	18609.25
832.47738	18540.05
836.32036	18515.35
840.16066	18515.15
843.99827	18555.45
847.8332	18560.05
851.66546	18589.45
855.49504	18624.95
859.32195	18623.65
863.1462	18568.05
866.96777	18508.75
870.78668	18535.45
874.60293	18566.85
878.41652	18582.15
882.22745	18700.45
886.03573	18728.05
889.84136	18721.65
893.64433	18624.75
897.44466	18598.05
901.24235	18535.55
905.0374	18490.95
908.8298	18449.75
912.61957	18426.35
916.40671	18555.05
920.19121	18756.15
923.97308	18993.15
927.75233	19048.75
931.52895	18928.75
935.30295	18644.65
939.07433	18354.95
942.84309	18121.85
946.60924	18021.25
950.37278	17984.45
954.13371	17978.35
957.89203	18000.85
961.64774	17977.65
965.40086	17980.15
969.15137	17946.95
972.89929	17889.35
976.64461	17877.75
980.38733	17864.95
984.12747	17874.45
987.86502	17959.95
991.59999	18101.45
995.33237	18266.95
999.06217	18510.75
1002.78939	18920.05
1006.51404	19266.35
1010.23611	19624.85
1013.95561	19839.25
1017.67255	19911.75
1021.38692	19708.75
1025.09872	19413.15
1028.80796	19159.35
1032.51465	19158.25
1036.21877	19243.75
1039.92035	19299.85
1043.61937	19346.75
1047.31584	19331.45
1051.00976	19234.65
1054.70114	19259.05
1058.38998	19289.55
1062.07627	19475.75
1065.76003	19701.85
1069.44126	19966.45
1073.11995	20324.25
1076.79611	20642.35
1080.46974	20821.85
1084.14085	20986.25
1087.80943	21232.05
1091.47549	21388.95
1095.13903	21478.35
1098.80005	21182.05
1102.45857	20655.55
1106.11456	20322.25
1109.76805	20087.65
1113.41903	20057.65
1117.06751	20115.05
1120.71348	20300.05
1124.35696	20443.35
1127.99793	20673.65
1131.63641	20832.85
1135.2724	20794.05
1138.90589	20772.85
1142.5369	20774.55
1146.16542	20895.45
1149.79145	21067.05
1153.415	21251.35
1157.03607	21472.05
1160.65467	21955.25
1164.27079	22779.25
1167.88443	23793.65
1171.49561	24933.55
1175.10432	26312.75
1178.71056	28068.95
1182.31434	29802.15
1185.91565	30634.15
1189.51451	30617.05
1193.11091	29964.05
1196.70485	29030.25
1200.29634	28059.75
1203.88538	27306.15
1207.47197	26999.25
1211.05612	26692.75
1214.63782	26309.45
1218.21708	25723.45
1221.79391	25104.55
1225.36829	24623.15
1228.94024	24364.15
1232.50976	24101.15
1236.07685	23783.45
1239.6415	23524.65
1243.20374	23456.15
1246.76355	23586.75
1250.32093	23867.75
1253.8759	24313.25
1257.42845	24934.25
1260.97859	25684.05
1264.52631	26497.05
1268.07163	27346.75
1271.61453	28093.35
1275.15503	28728.55
1278.69312	29473.85
1282.22882	30293.55
1285.76211	31320.65
1289.29301	32491.05
1292.82151	33755.55
1296.34761	35389.05
1299.87133	37131.85
1303.39266	38995.25
1306.9116	40628.35
1310.42815	41827.85
1313.94233	42398.95
1317.45412	42008.85
1320.96354	41289.55
1324.47058	40571.85
1327.97525	40074.15
1331.47754	39798.95
1334.97747	39555.05
1338.47502	39199.25
1341.97022	38759.55
1345.46305	38219.85
1348.95352	37890.95
1352.44163	37892.95
1355.92738	38654.55
1359.41078	40215.85
1362.89183	41682.05
1366.37053	41508.25
1369.84688	38757.05
1373.32088	34917.85
1376.79254	32022.05
1380.26186	30899.45
1383.72883	30765.75
1387.19347	30687.25
1390.65578	30307.35
1394.11575	30066.35
1397.57339	30220.85
1401.0287	30627.35
1404.48168	30950.15
1407.93234	30920.55
1411.38068	30473.35
1414.82669	29684.85
1418.27039	28648.55
1421.71177	27683.05
1425.15083	26945.55
1428.58758	26624.95
1432.02203	26936.95
1435.45416	27575.85
1438.88399	28325.15
1442.31151	28784.45
1445.73673	28955.15
1449.15965	29100.35
1452.58027	29069.95
1455.9986	28987.35
1459.41463	29160.75
1462.82837	29547.55
1466.23982	30083.75
1469.64898	30574.25
1473.05586	30858.05
1476.46045	30942.35
1479.86276	30867.95
1483.26279	30719.05
1486.66054	30783.05
1490.05602	31015.35
1493.44922	31370.95
1496.84016	31871.25
1500.22882	32445.95
1503.61521	33163.75
1506.99934	33957.45
1510.38121	34599.35
1513.76081	34626.45
1517.13816	34022.85
1520.51324	33096.75
1523.88607	32415.05
1527.25665	32138.45
1530.62498	32067.25
1533.99105	31807.15
1537.35488	31295.45
1540.71647	30548.05
1544.07581	29685.55
1547.4329	28895.75
1550.78776	28207.75
1554.14038	27816.55
1557.49077	27590.55
1560.83892	27517.85
1564.18484	27526.25
1567.52853	27611.25
1570.86999	27854.15
1574.20922	28330.55
1577.54624	28749.75
1580.88103	28838.65
1584.2136	29127.35
1587.54395	29995.35
1590.87208	31438.55
1594.19801	33342.65
1597.52172	34934.15
1600.84321	35184.15
1604.16251	33568.45
1607.47959	31011.55
1610.79447	28419.45
1614.10715	26064.05
1617.41763	24288.85
1620.7259	23065.75
1624.03199	22458.85
1627.33587	22513.15
1630.63757	23127.95
1633.93707	24568.65
1637.23439	27021.35
1640.52951	30580.75
1643.82246	34854.25
1647.11321	38210.15
1650.40179	38703.65
1653.68819	35775.35
1656.97241	30963.45
1660.25446	26363.95
1663.53433	23133.25
1666.81203	21130.65
1670.08756	19935.05
1673.36092	19205.35
1676.63211	18742.85
1679.90115	18387.85
1683.16801	18130.25
1686.43272	17936.25
1689.69527	17736.45
1692.95567	17543.45
1696.2139	17400.75
1699.46999	17247.75
1702.72392	17165.85
1705.97571	17241.65
1709.22535	17272.55
1712.47284	17319.65
1715.71819	17366.45
1718.96139	17324.95
1722.20246	17297.15
1725.44139	17192.35
1728.67818	17107.75
1731.91284	17003.45
1735.14537	16945.75
1738.37576	16853.05
1741.60403	16772.45
1744.83017	16721.75
1748.05418	16662.25
1751.27607	16605.15
1754.49584	16519.35
1757.71349	16454.05
1760.92903	16376.35
1764.14244	16353.35
1767.35375	16350.45
1770.56294	16362.05
1773.77002	16339.65
1776.97499	16388.15
1780.17785	16411.25
1783.37861	16420.25
1786.57727	16377.15
1789.77382	16379.85
1792.96828	16383.75
1796.16064	16395.45
1799.3509	16362.15
1802.53907	16279.05
1805.72514	16267.25
1808.90913	16213.05
1812.09102	16188.55
1815.27083	16188.05
1818.44856	16195.25
1821.6242	16172.85
1824.79776	16134.25
1827.96924	16165.95
1831.13864	16130.75
1834.30597	16160.65
1837.47122	16164.15
1840.6344	16144.85
1843.7955	16131.25
1846.95454	16121.15
1850.11151	16112.55
1853.26642	16070.95
1856.41926	16065.75
1859.57004	16078.15
1862.71876	16052.55
1865.86542	16066.15
1869.01003	16049.95
1872.15258	16031.65
1875.29308	16008.25
1878.43152	15972.05
1881.56792	15966.45
1884.70227	15955.75
1887.83457	15928.35
1890.96482	15885.25
1894.09304	15877.65
1897.21921	15872.65
1900.34335	15834.35
1903.46544	15807.95
1906.58551	15827.25
1909.70353	15766.35
1912.81953	15762.85
1915.93349	15729.65
1919.04543	15718.75
1922.15534	15674.65
1925.26322	15662.35
1928.36908	15574.25
1931.47292	15559.55
1934.57473	15544.85
1937.67453	15517.65
1940.77232	15482.25
1943.86808	15422.75
1946.96184	15428.55
1950.05358	15393.15
1953.14331	15330.95
1956.23103	15277.85
1959.31675	15211.55
1962.40046	15170.85
1965.48217	15151.45
1968.56188	15136.35
1971.63959	15117.95
1974.7153	15070.95
1977.78901	15009.15
1980.86073	14967.45
1983.93046	14903.85
1986.99819	14818.15
1990.06394	14825.95
1993.1277	14808.15
1996.18947	14773.95
1999.24925	14708.05
2002.30706	14627.75
2005.36288	14628.05
2008.41672	14608.65
2011.46859	14548.55
2014.51848	14491.25
2017.56639	14485.45
2020.61233	14461.15
2023.6563	14443.95
2026.6983	14373.25
2029.73833	14367.45
2032.7764	14317.05
2035.8125	14282.65
2038.84664	14265.55
2041.87881	14262.65
2044.90903	14215.05
2047.93729	14210.15
2050.96359	14173.65
2053.98794	14179.55
2057.01034	14159.55
2060.03078	14151.65
2063.04927	14124.15
2066.06582	14142.65
2069.08042	14102.15
2072.09307	14155.05
2075.10378	14107.55
2078.11255	14100.85
2081.11938	14124.65
2084.12426	14108.95
2087.12722	14128.55
2090.12824	14108.85
2093.12732	14109.05
2096.12447	14112.95
2099.11969	14113.95
2102.11299	14119.05
2105.10435	14158.55
2108.09379	14117.85
2111.08131	14143.55
2114.0669	14127.25
2117.05057	14192.95
2120.03233	14187.05
2123.01216	14209.25
2125.99008	14234.05
2128.96609	14219.55
2131.94018	14192.85
2134.91236	14228.05
2137.88263	14234.45
2140.851	14255.05
2143.81746	14262.65
2146.78201	14253.15
2149.74466	14269.25
2152.7054	14244.55
2155.66425	14269.85
2158.6212	14245.45
2161.57625	14242.85
2164.52941	14257.95
2167.48067	14251.05
2170.43004	14225.55
2173.37752	14216.65
2176.32311	14199.35
2179.26681	14207.55
2182.20863	14247.65
2185.14856	14271.15
2188.08661	14212.85
2191.02278	14220.75
2193.95707	14209.85
2196.88948	14207.55
2199.82001	14211.95
2202.74867	14175.15
2205.67545	14146.05
2208.60037	14165.45
2211.52341	14146.75
2214.44458	14117.95
2217.36388	14101.75
2220.28132	14079.55
2223.1969	14072.65
2226.11061	14042.65
2229.02246	14019.25
2231.93245	13996.85
2234.84058	13991.25
2237.74686	13971.15
2240.65128	13947.25
2243.55385	13927.65
2246.45456	13915.05
2249.35343	13867.05
2252.25044	13868.75
2255.14561	13867.45
2258.03893	13841.25
2260.93041	13760.95
2263.82004	13766.35
2266.70783	13764.85
2269.59378	13717.15
2272.4779	13701.45
2275.36017	13671.65
2278.24061	13663.45
2281.11922	13615.25
2283.996	13647.85
2286.87094	13607.75
2289.74405	13585.75
2292.61534	13563.95
2295.4848	13576.35
2298.35243	13551.85
2301.21824	13555.25
2304.08223	13522.85
2306.94439	13555.45
2309.80474	13542.65
2312.66327	13535.35
2315.51999	13496.85
2318.37489	13499.85
2321.22797	13490.25
2324.07925	13493.95
2326.92871	13428.45
2329.77637	13442.15
2332.62222	13413.85
2335.46626	13414.35
2338.3085	13391.35
2341.14893	13389.25
2343.98756	13396.45
2346.8244	13381.25
2349.65943	13383.85
2352.49267	13393.75
2355.32411	13390.95
2358.15376	13366.55
2360.98161	13365.25
2363.80768	13362.55
2366.63195	13355.65
2369.45444	13321.75
2372.27514	13336.95
2375.09405	13327.25
2377.91118	13300.15
2380.72652	13245.15
2383.54009	13219.45
2386.35187	13213.85
2389.16188	13178.85
2391.97011	13205.95
2394.77657	13172.05
2397.58125	13142.05
2400.38416	13106.55
2403.18529	13130.45
2405.98466	13136.75
2408.78226	13103.35
2411.57809	13072.75
2414.37216	13077.85
2417.16446	13084.55
2419.955	13058.75
2422.74378	13050.35
2425.5308	13037.65
2428.31606	12988.05
2431.09956	13013.15
2433.88131	13029.75
2436.6613	13028.75
2439.43954	13009.25
2442.21603	12998.95
2444.99077	12986.25
2447.76377	13024.25
2450.53501	12980.05
2453.30451	12984.95
2456.07226	12977.75
2458.83827	13008.75
2461.60254	13001.25
2464.36507	12945.85
2467.12586	12926.35
2469.88492	12919.45
2472.64224	12932.95
2475.39782	12936.65
2478.15167	12938.45
2480.90379	12939.25
2483.65417	12908.85
2486.40283	12948.75
2489.14976	12948.45
2491.89497	12945.35
2494.63845	12943.55
2497.3802	12912.15
2500.12024	12949.45
2502.85855	12940.85
2505.59514	12914.55
2508.33002	12923.15
2511.06318	12910.25
2513.79462	12908.55
2516.52435	12867.75
2519.25237	12849.25
2521.97867	12845.35
2524.70327	12823.35
2527.42616	12840.95
2530.14734	12830.45
2532.86681	12846.55
2535.58458	12840.65
2538.30065	12827.35
2541.01501	12791.45
2543.72768	12796.85
2546.43864	12783.85
2549.14791	12776.35
2551.85548	12787.25
2554.56136	12730.65
2557.26554	12723.95
2559.96803	12700.45
2562.66883	12683.85
2565.36794	12677.35
2568.06536	12645.65
2570.7611	12640.35
2573.45514	12635.05
2576.14751	12652.45
2578.83819	12616.25
2581.52719	12615.05
2584.21451	12607.15
2586.90015	12582.45
2589.58411	12576.35
2592.2664	12570.35
2594.94701	12576.35
2597.62594	12573.35
2600.30321	12561.55
2602.9788	12538.65
2605.65273	12542.75
2608.32498	12547.25
2610.99557	12538.25
2613.66449	12515.35
2616.33175	12497.05
2618.99734	12515.85
2621.66128	12476.55
2624.32355	12479.35
2626.98416	12469.55
2629.64311	12454.25
2632.30041	12446.45
2634.95605	12424.95
2637.61004	12404.05
2640.26238	12406.65
2642.91306	12404.85
2645.56209	12421.25
2648.20948	12400.65
2650.85521	12391.65
2653.4993	12394.65
2656.14175	12417.15
2658.78255	12429.45
2661.42171	12430.75
2664.05923	12465.85
2666.6951	12466.35
2669.32934	12489.75
2671.96194	12467.55
2674.59291	12467.15
2677.22224	12428.75
2679.84993	12445.65
2682.476	12435.15
2685.10043	12485.25
2687.72324	12467.35
2690.34441	12459.05
2692.96396	12436.85
2695.58188	12477.95
2698.19818	12435.15
2700.81285	12448.45
2703.4259	12384.45
2706.03733	12324.65
2708.64714	12356.95
2711.25533	12409.05
2713.86191	12481.25
2716.46687	12515.55
2719.07021	12533.55
2721.67194	12553.85
2724.27206	12511.85
2726.87057	12557.85
2729.46747	12545.55
2732.06276	12561.75
2734.65644	12578.85
2737.24852	12527.15
2739.83899	12562.15
2742.42786	12552.05
2745.01513	12517.45
2747.60079	12527.35
2750.18486	12516.65
2752.76733	12499.35
2755.3482	12479.15
2757.92747	12473.75
2760.50515	12458.65
2763.08123	12437.35
2765.65573	12420.55
2768.22863	12411.05
2770.79994	12389.25
2773.36967	12400.25
2775.9378	12410.95
2778.50435	12370.95
2781.06932	12393.15
2783.6327	12420.55
2786.1945	12397.25
2788.75471	12386.05
2791.31335	12390.85
2793.87041	12344.65
2796.42589	12325.55
2798.97979	12303.35
2801.53212	12252.95
2804.08288	12272.05
2806.63206	12236.75
2809.17967	12227.05
2811.72571	12168.25
2814.27018	12178.65
2816.81308	12157.45
2819.35442	12141.65
2821.89419	12125.85
2824.43239	12100.55
2826.96904	12075.75
2829.50412	12082.25
2832.03763	12045.15
2834.56959	12063.85
2837.1	12060.05
2839.62884	12057.55
2842.15613	12020.55
2844.68186	12046.75
2847.20604	12046.75
2849.72867	12016.45
2852.24974	12008.55
2854.76927	11991.65
2857.28724	11931.75
2859.80367	11947.05
2862.31855	11934.45
2864.83189	11917.45
2867.34368	11906.25
2869.85393	11942.45
2872.36264	11913.55
2874.8698	11921.45
2877.37543	11930.75
2879.87952	11906.55
2882.38207	11923.85
2884.88308	11939.65
2887.38256	11923.05
2889.88051	11953.95
2892.37692	11949.85
2894.8718	11933.65
2897.36515	11942.85
2899.85698	11951.05
2902.34727	11961.15
2904.83604	11930.45
2907.32328	11955.65
2909.809	11937.15
2912.29319	11984.75
2914.77587	11987.25
2917.25702	11987.45
2919.73665	11961.35
2922.21476	11965.35
2924.69136	11968.95
2927.16644	11968.95
2929.64	11928.25
2932.11205	11932.75
2934.58258	11898.35
2937.05161	11924.65
2939.51912	11901.95
2941.98513	11889.35
2944.44962	11890.05
2946.91261	11867.75
2949.37409	11860.45
2951.83407	11876.45
2954.29254	11860.85
2956.74951	11855.25
2959.20498	11849.25
2961.65895	11852.15
2964.11142	11810.65
2966.56239	11803.95
2969.01186	11807.65
2971.45984	11781.35
2973.90632	11795.85
2976.35131	11759.15
2978.7948	11748.95
2981.23681	11745.65
2983.67732	11704.15
2986.11635	11684.25
2988.55388	11631.75
2990.98993	11638.15
2993.4245	11618.95
2995.85758	11576.55
2998.28917	11555.25
3000.71928	11573.85
3003.14791	11524.85
3005.57506	11506.45
3008.00073	11447.65
3010.42493	11469.45
3012.84764	11437.95
3015.26888	11411.85
3017.68865	11427.45
3020.10694	11380.05
3022.52376	11367.15
3024.9391	11353.75
3027.35298	11334.25
3029.76539	11343.25
3032.17632	11335.15
3034.5858	11318.55
3036.9938	11309.55
3039.40034	11304.85
3041.80542	11284.25
3044.20903	11249.95
3046.61118	11264.75
3049.01187	11226.85
3051.4111	11230.35
3053.80888	11209.25
3056.20519	11204.75
3058.60005	11148.15
3060.99345	11135.55
3063.3854	11125.15
3065.7759	11094.45
3068.16494	11068.75
3070.55254	11041.05
3072.93868	11030.25
3075.32338	10962.45
3077.70662	10929.45
3080.08842	10915.55
3082.46878	10913.95
3084.84769	10874.45
3087.22515	10881.75
3089.60118	10888.95
3091.97576	10876.95
3094.3489	10903.55
3096.72061	10903.55
3099.09087	10898.35
3101.4597	10884.05
3103.82709	10888.25
3106.19305	10862.05
3108.55757	10857.65
3110.92066	10844.95
3113.28232	10837.85
3115.64255	10801.15
3118.00134	10807.15
3120.35871	10774.75
3122.71466	10718.95
3125.06917	10707.75
3127.42226	10691.75
3129.77393	10658.75
3132.12417	10671.65
3134.47299	10662.25
3136.82039	10653.35
3139.16636	10654.85
3141.51092	10654.25
3143.85406	10667.05
3146.19579	10694.85
3148.53609	10692.15
3150.87499	10683.55
3153.21246	10686.95
3155.54853	10675.85
3157.88318	10666.55
3160.21642	10684.75
3162.54826	10662.45
3164.87868	10662.55
3167.2077	10655.85
3169.5353	10674.95
3171.86151	10681.85
3174.18631	10656.05
3176.5097	10639.75
3178.83169	10622.45
3181.15228	10622.05
3183.47147	10592.95
3185.78926	10587.65
3188.10565	10558.35
3190.42065	10551.85
3192.73424	10533.85
3195.04645	10515.85
3197.35725	10506.05
3199.66667	10532.65
3201.97469	10518.45
3204.28132	10523.65
3206.58656	10535.45
3208.8904	10540.45
3211.19287	10553.95
3213.49394	10546.25
3215.79363	10539.45
3218.09193	10535.55
3220.38884	10523.85
3222.68438	10504.75
3224.97853	10505.95
3227.2713	10526.95
3229.56269	10523.45
3231.8527	10523.15
3234.14133	10505.95
3236.42858	10473.85
3238.71446	10447.45
3240.99896	10422.65
3243.28209	10445.45
3245.56384	10427.65
3247.84423	10429.15
3250.12324	10413.75
3252.40088	10396.05
3254.67715	10355.95
3256.95205	10362.25
3259.22558	10386.05
3261.49775	10354.15
3263.76855	10337.65
3266.03799	10300.85
3268.30606	10312.55
3270.57277	10290.95
3272.83812	10253.25
3275.10211	10235.75
3277.36474	10221.25
3279.62601	10204.55
3281.88593	10188.05
3284.14448	10220.05
3286.40168	10222.15
3288.65753	10242.65
3290.91202	10206.35
3293.16516	10161.05
3295.41695	10130.65
3297.66738	10107.65
3299.91647	10053.75
3302.16421	10006.15
3304.4106	9975.35
3306.65564	9894.95
3308.89933	9804.55
3311.14169	9747.35
3313.38269	9654.85
3315.62236	9616.65
3317.86068	9540.55
3320.09766	9474.45
3322.3333	9387.05
3324.5676	9352.05
3326.80056	9153.55
3329.03219	9143.15
3331.26248	2.75
3333.49143	-0.15
3335.71905	0.65
