Data from AgNPs_FTO_APTES_UA_50uM_CRN_200uM_R6G_10uM_NaF_0.1M_Addition_RamanShift__19__16-16-35-087.txt Node

Date: Mon Feb 21 16:16:35 GMT 2022
User: TCL
Spectrometer: QEP01345
Trigger mode: 4
Integration Time (sec): 7.000000E0
Scans to average: 10
Electric dark correction enabled: true
Nonlinearity correction enabled: false
Boxcar width: 0
XAxis mode: Raman Shifts
Number of Pixels in Spectrum: 1044
>>>>>Begin Spectral Data<<<<<
46.04893	0.45
50.45542	0.65
54.85868	0.05
59.25871	-1.05
63.6555	49.25
68.04907	54.45
72.43941	55.55
76.82654	55.65
81.21044	61.55
85.59113	65.55
89.96862	66.85
94.34289	68.15
98.71396	68.45
103.08183	73.85
107.4465	77.75
111.80798	76.55
116.16626	74.65
120.52136	78.25
124.87327	84.55
129.222	80.85
133.56755	87.25
137.90993	94.95
142.24913	97.65
146.58517	108.85
150.91804	122.55
155.24774	146.45
159.57429	174.25
163.89768	224.65
168.21792	299.35
172.53501	403.15
176.84895	553.85
181.15975	776.45
185.46741	1098.05
189.77193	1520.45
194.07331	2019.95
198.37157	2623.85
202.6667	3245.85
206.9587	3866.65
211.24758	4469.85
215.53334	5072.15
219.81599	5715.15
224.09553	6413.25
228.37195	7201.95
232.64527	8089.85
236.91549	9011.45
241.18261	9922.65
245.44663	10764.15
249.70755	11455.85
253.96539	12102.75
258.22014	12624.15
262.4718	13025.75
266.72039	13306.55
270.96589	13486.35
275.20832	13459.55
279.44768	13312.55
283.68397	13127.15
287.91719	12967.85
292.14735	12849.45
296.37445	12859.45
300.59849	12926.25
304.81948	13016.25
309.03742	13036.45
313.25231	12932.85
317.46415	12684.55
321.67296	12373.55
325.87872	12105.15
330.08145	11996.35
334.28114	11994.65
338.47781	12121.05
342.67145	12306.95
346.86207	12508.45
351.04966	12805.05
355.23424	13098.25
359.4158	13392.65
363.59435	13571.15
367.76989	13755.25
371.94243	13804.25
376.11196	13917.55
380.27849	13971.65
384.44203	14051.75
388.60257	14067.65
392.76012	14119.65
396.91468	14252.85
401.06626	14370.15
405.21485	14485.35
409.36047	14438.65
413.50311	14205.95
417.64277	13938.05
421.77947	13817.15
425.9132	13786.15
430.04396	13811.85
434.17176	13887.85
438.2966	14067.95
442.41849	14311.45
446.53742	14621.15
450.6534	14971.05
454.76644	15208.15
458.87653	15288.85
462.98368	15248.65
467.08789	15101.65
471.18916	14894.15
475.2875	14723.15
479.38291	14575.55
483.4754	14463.85
487.56496	14334.25
491.6516	14221.15
495.73531	14133.65
499.81612	14154.15
503.89401	14240.05
507.96899	14320.55
512.04106	14363.95
516.11023	14374.85
520.1765	14352.75
524.23987	14353.55
528.30034	14284.85
532.35792	14221.45
536.41261	14158.05
540.46441	14030.15
544.51333	13962.25
548.55936	13979.85
552.60252	14133.95
556.64279	14328.75
560.6802	14433.15
564.71473	14474.35
568.7464	14588.95
572.7752	14770.25
576.80114	14867.55
580.82422	14901.75
584.84444	14986.75
588.86181	15284.35
592.87633	15579.75
596.888	15740.75
600.89682	15731.25
604.9028	16183.15
608.90594	17787.15
612.90624	19612.45
616.90371	18726.45
620.89834	15822.35
624.89015	14533.95
628.87913	14381.85
632.86528	14424.65
636.84862	14456.55
640.82913	14336.75
644.80683	14083.95
648.78172	13860.75
652.75379	13814.65
656.72306	14013.05
660.68952	14239.45
664.65319	14199.55
668.61405	13994.85
672.57211	14012.25
676.52738	14117.45
680.47986	14175.35
684.42955	14077.25
688.37646	13974.75
692.32058	13875.35
696.26192	13893.25
700.20048	13946.35
704.13626	13996.15
708.06928	13956.25
711.99952	13873.15
715.927	13823.85
719.85171	13878.05
723.77365	13893.35
727.69284	13860.65
731.60928	13808.15
735.52295	13790.35
739.43388	13821.95
743.34206	13814.65
747.24749	13842.95
751.15017	13862.95
755.05012	13966.15
758.94733	14182.85
762.8418	14796.65
766.73354	15840.85
770.62254	17023.05
774.50882	17597.15
778.39237	17085.35
782.27321	15871.85
786.15132	14763.45
790.02671	14050.25
793.89938	13730.65
797.76935	13618.95
801.6366	13562.85
805.50115	13518.55
809.36299	13434.95
813.22213	13323.55
817.07857	13299.15
820.93231	13266.75
824.78336	13229.15
828.63172	13226.25
832.47738	13193.45
836.32036	13204.65
840.16066	13243.85
843.99827	13281.95
847.8332	13235.45
851.66546	13211.45
855.49504	13235.15
859.32195	13260.75
863.1462	13302.35
866.96777	13284.05
870.78668	13248.65
874.60293	13273.35
878.41652	13265.65
882.22745	13297.05
886.03573	13321.65
889.84136	13329.75
893.64433	13244.75
897.44466	13193.05
901.24235	13124.85
905.0374	13041.55
908.8298	13004.85
912.61957	12959.85
916.40671	12983.15
920.19121	13106.25
923.97308	13210.95
927.75233	13240.25
931.52895	13227.05
935.30295	13170.35
939.07433	13004.55
942.84309	12818.25
946.60924	12744.65
950.37278	12685.55
954.13371	12629.85
957.89203	12552.65
961.64774	12528.45
965.40086	12505.75
969.15137	12462.25
972.89929	12418.75
976.64461	12387.85
980.38733	12355.85
984.12747	12426.85
987.86502	12492.05
991.59999	12573.75
995.33237	12707.85
999.06217	12943.95
1002.78939	13178.65
1006.51404	13356.55
1010.23611	13455.55
1013.95561	13535.65
1017.67255	13574.25
1021.38692	13493.75
1025.09872	13374.75
1028.80796	13349.85
1032.51465	13500.95
1036.21877	13685.55
1039.92035	13732.85
1043.61937	13667.25
1047.31584	13525.95
1051.00976	13349.05
1054.70114	13259.05
1058.38998	13239.55
1062.07627	13271.95
1065.76003	13281.15
1069.44126	13318.95
1073.11995	13368.95
1076.79611	13442.95
1080.46974	13530.65
1084.14085	13651.35
1087.80943	13735.85
1091.47549	13848.45
1095.13903	13813.85
1098.80005	13669.25
1102.45857	13499.55
1106.11456	13410.75
1109.76805	13400.35
1113.41903	13519.65
1117.06751	13659.85
1120.71348	13874.65
1124.35696	14042.15
1127.99793	14261.95
1131.63641	14358.55
1135.2724	14222.95
1138.90589	14029.05
1142.5369	13852.55
1146.16542	13743.45
1149.79145	13627.45
1153.415	13621.35
1157.03607	13722.25
1160.65467	13929.55
1164.27079	14319.95
1167.88443	14851.95
1171.49561	15545.75
1175.10432	16506.75
1178.71056	17767.55
1182.31434	18962.05
1185.91565	19520.45
1189.51451	19367.85
1193.11091	18692.95
1196.70485	17874.15
1200.29634	17131.75
1203.88538	16558.45
1207.47197	16016.65
1211.05612	15532.45
1214.63782	15225.85
1218.21708	15052.25
1221.79391	15062.45
1225.36829	15085.95
1228.94024	15047.95
1232.50976	14851.75
1236.07685	14685.65
1239.6415	14535.15
1243.20374	14574.45
1246.76355	14626.25
1250.32093	14772.95
1253.8759	14956.35
1257.42845	15253.65
1260.97859	15518.05
1264.52631	15868.05
1268.07163	16184.35
1271.61453	16569.65
1275.15503	16924.45
1278.69312	17244.15
1282.22882	17554.35
1285.76211	17856.85
1289.29301	18183.45
1292.82151	18629.35
1296.34761	19224.35
1299.87133	20044.05
1303.39266	21116.05
1306.9116	22422.35
1310.42815	23877.65
1313.94233	24694.05
1317.45412	24542.25
1320.96354	23699.65
1324.47058	22677.15
1327.97525	21795.05
1331.47754	21137.65
1334.97747	20819.85
1338.47502	20786.95
1341.97022	20904.45
1345.46305	21165.05
1348.95352	21597.25
1352.44163	22250.35
1355.92738	23348.65
1359.41078	24796.95
1362.89183	26055.35
1366.37053	25563.05
1369.84688	23079.85
1373.32088	20347.75
1376.79254	18512.65
1380.26186	17649.75
1383.72883	17280.65
1387.19347	16990.95
1390.65578	16654.85
1394.11575	16457.55
1397.57339	16533.55
1401.0287	16660.15
1404.48168	16865.15
1407.93234	16902.65
1411.38068	16842.75
1414.82669	16631.55
1418.27039	16336.95
1421.71177	15996.15
1425.15083	15647.15
1428.58758	15419.45
1432.02203	15433.65
1435.45416	15676.65
1438.88399	15879.75
1442.31151	16076.75
1445.73673	16183.95
1449.15965	16293.55
1452.58027	16385.95
1455.9986	16418.25
1459.41463	16467.75
1462.82837	16665.35
1466.23982	16951.75
1469.64898	17234.65
1473.05586	17431.95
1476.46045	17523.65
1479.86276	17559.05
1483.26279	17527.95
1486.66054	17501.25
1490.05602	17604.55
1493.44922	17834.25
1496.84016	18132.15
1500.22882	18800.25
1503.61521	19740.95
1506.99934	20897.85
1510.38121	21861.15
1513.76081	22141.25
1517.13816	21360.95
1520.51324	19976.35
1523.88607	18745.75
1527.25665	17954.85
1530.62498	17527.55
1533.99105	17296.35
1537.35488	17123.45
1540.71647	16951.25
1544.07581	16762.75
1547.4329	16566.55
1550.78776	16429.55
1554.14038	16373.05
1557.49077	16335.85
1560.83892	16385.35
1564.18484	16463.35
1567.52853	16628.55
1570.86999	16788.35
1574.20922	16961.45
1577.54624	16987.25
1580.88103	16707.75
1584.2136	16350.05
1587.54395	16296.85
1590.87208	16651.45
1594.19801	17425.45
1597.52172	18424.45
1600.84321	18872.45
1604.16251	18513.15
1607.47959	17576.85
1610.79447	16513.55
1614.10715	15478.45
1617.41763	14572.45
1620.7259	13942.75
1624.03199	13627.25
1627.33587	13557.25
1630.63757	13752.75
1633.93707	14321.35
1637.23439	15209.65
1640.52951	16481.05
1643.82246	18083.85
1647.11321	19518.05
1650.40179	20041.25
1653.68819	19132.15
1656.97241	17163.05
1660.25446	15134.45
1663.53433	13677.95
1666.81203	12778.95
1670.08756	12226.15
1673.36092	11922.75
1676.63211	11685.75
1679.90115	11530.05
1683.16801	11393.95
1686.43272	11268.15
1689.69527	11149.95
1692.95567	11069.85
1696.2139	10916.55
1699.46999	10786.15
1702.72392	10745.75
1705.97571	10780.75
1709.22535	10866.05
1712.47284	10899.45
1715.71819	10918.75
1718.96139	10923.55
1722.20246	10912.45
1725.44139	10840.95
1728.67818	10819.95
1731.91284	10787.15
1735.14537	10715.95
1738.37576	10690.95
1741.60403	10626.65
1744.83017	10620.05
1748.05418	10594.25
1751.27607	10553.25
1754.49584	10513.05
1757.71349	10476.85
1760.92903	10425.25
1764.14244	10392.55
1767.35375	10361.35
1770.56294	10298.75
1773.77002	10290.95
1776.97499	10326.35
1780.17785	10335.45
1783.37861	10334.05
1786.57727	10337.25
1789.77382	10318.55
1792.96828	10313.85
1796.16064	10270.35
1799.3509	10258.75
1802.53907	10232.95
1805.72514	10207.55
1808.90913	10203.65
1812.09102	10182.95
1815.27083	10146.75
1818.44856	10139.35
1821.6242	10119.55
1824.79776	10093.65
1827.96924	10088.25
1831.13864	10066.25
1834.30597	10074.35
1837.47122	10059.45
1840.6344	10067.15
1843.7955	10039.85
1846.95454	10033.75
1850.11151	10041.05
1853.26642	10010.95
1856.41926	10023.55
1859.57004	10011.85
1862.71876	9989.95
1865.86542	9988.95
1869.01003	9972.25
1872.15258	9978.65
1875.29308	9960.95
1878.43152	9970.35
1881.56792	9945.55
1884.70227	9922.35
1887.83457	9926.15
1890.96482	9930.95
1894.09304	9886.05
1897.21921	9892.65
1900.34335	9875.65
1903.46544	9868.95
1906.58551	9860.65
1909.70353	9846.65
1912.81953	9831.25
1915.93349	9821.45
1919.04543	9790.85
1922.15534	9776.15
1925.26322	9769.65
1928.36908	9747.65
1931.47292	9697.55
1934.57473	9674.05
1937.67453	9664.65
1940.77232	9671.75
1943.86808	9610.85
1946.96184	9595.75
1950.05358	9577.85
1953.14331	9541.95
1956.23103	9513.75
1959.31675	9477.45
1962.40046	9466.35
1965.48217	9426.55
1968.56188	9435.55
1971.63959	9385.95
1974.7153	9364.35
1977.78901	9334.15
1980.86073	9301.85
1983.93046	9252.15
1986.99819	9250.75
1990.06394	9195.85
1993.1277	9187.05
1996.18947	9155.75
1999.24925	9125.65
2002.30706	9102.35
2005.36288	9076.45
2008.41672	9063.85
2011.46859	9011.45
2014.51848	9014.25
2017.56639	8984.05
2020.61233	8967.25
2023.6563	8936.85
2026.6983	8910.55
2029.73833	8894.85
2032.7764	8864.25
2035.8125	8834.15
2038.84664	8834.05
2041.87881	8825.65
2044.90903	8818.75
2047.93729	8789.35
2050.96359	8787.75
2053.98794	8755.85
2057.01034	8778.85
2060.03078	8749.25
2063.04927	8772.35
2066.06582	8757.75
2069.08042	8758.25
2072.09307	8747.55
2075.10378	8732.45
2078.11255	8684.25
2081.11938	8712.65
2084.12426	8704.65
2087.12722	8728.15
2090.12824	8698.85
2093.12732	8708.65
2096.12447	8714.85
2099.11969	8689.15
2102.11299	8686.55
2105.10435	8702.75
2108.09379	8686.15
2111.08131	8727.25
2114.0669	8708.15
2117.05057	8726.55
2120.03233	8712.65
2123.01216	8726.75
2125.99008	8743.55
2128.96609	8742.05
2131.94018	8746.45
2134.91236	8771.15
2137.88263	8743.45
2140.851	8767.35
2143.81746	8772.55
2146.78201	8773.55
2149.74466	8772.35
2152.7054	8761.85
2155.66425	8779.25
2158.6212	8801.65
2161.57625	8752.05
2164.52941	8751.35
2167.48067	8756.75
2170.43004	8759.95
2173.37752	8731.15
2176.32311	8772.75
2179.26681	8752.45
2182.20863	8744.05
2185.14856	8752.15
2188.08661	8737.55
2191.02278	8738.15
2193.95707	8739.95
2196.88948	8720.85
2199.82001	8747.25
2202.74867	8719.15
2205.67545	8728.65
2208.60037	8716.45
2211.52341	8697.35
2214.44458	8693.65
2217.36388	8661.35
2220.28132	8644.45
2223.1969	8616.75
2226.11061	8622.45
2229.02246	8583.35
2231.93245	8600.75
2234.84058	8560.35
2237.74686	8542.15
2240.65128	8537.75
2243.55385	8535.55
2246.45456	8527.15
2249.35343	8488.95
2252.25044	8493.15
2255.14561	8467.35
2258.03893	8446.15
2260.93041	8438.45
2263.82004	8429.95
2266.70783	8411.95
2269.59378	8387.05
2272.4779	8384.55
2275.36017	8346.35
2278.24061	8352.65
2281.11922	8319.05
2283.996	8309.95
2286.87094	8308.15
2289.74405	8294.75
2292.61534	8294.25
2295.4848	8272.35
2298.35243	8277.85
2301.21824	8263.05
2304.08223	8270.45
2306.94439	8281.35
2309.80474	8262.15
2312.66327	8275.85
2315.51999	8260.75
2318.37489	8238.75
2321.22797	8248.55
2324.07925	8251.55
2326.92871	8229.75
2329.77637	8201.15
2332.62222	8181.65
2335.46626	8180.85
2338.3085	8189.35
2341.14893	8176.15
2343.98756	8182.85
2346.8244	8191.35
2349.65943	8172.35
2352.49267	8169.75
2355.32411	8159.45
2358.15376	8169.65
2360.98161	8153.55
2363.80768	8149.45
2366.63195	8146.85
2369.45444	8124.45
2372.27514	8145.15
2375.09405	8125.85
2377.91118	8084.15
2380.72652	8069.55
2383.54009	8046.45
2386.35187	8022.45
2389.16188	8012.05
2391.97011	7995.95
2394.77657	8002.55
2397.58125	7975.65
2400.38416	7990.55
2403.18529	7958.95
2405.98466	7942.35
2408.78226	7935.55
2411.57809	7912.15
2414.37216	7901.25
2417.16446	7868.85
2419.955	7872.95
2422.74378	7873.05
2425.5308	7846.25
2428.31606	7874.25
2431.09956	7871.05
2433.88131	7844.55
2436.6613	7836.45
2439.43954	7838.35
2442.21603	7819.95
2444.99077	7821.95
2447.76377	7828.15
2450.53501	7834.85
2453.30451	7831.85
2456.07226	7816.45
2458.83827	7789.65
2461.60254	7807.35
2464.36507	7787.85
2467.12586	7780.55
2469.88492	7790.55
2472.64224	7789.55
2475.39782	7764.45
2478.15167	7762.25
2480.90379	7789.05
2483.65417	7775.45
2486.40283	7783.35
2489.14976	7792.65
2491.89497	7805.25
2494.63845	7789.05
2497.3802	7764.95
2500.12024	7759.45
2502.85855	7770.65
2505.59514	7733.65
2508.33002	7755.75
2511.06318	7732.55
2513.79462	7742.75
2516.52435	7719.35
2519.25237	7691.35
2521.97867	7678.05
2524.70327	7680.55
2527.42616	7676.85
2530.14734	7654.75
2532.86681	7661.95
2535.58458	7677.95
2538.30065	7639.15
2541.01501	7667.35
2543.72768	7652.15
2546.43864	7619.35
2549.14791	7612.35
2551.85548	7613.25
2554.56136	7569.45
2557.26554	7579.35
2559.96803	7578.35
2562.66883	7549.25
2565.36794	7554.55
2568.06536	7555.85
2570.7611	7514.25
2573.45514	7531.15
2576.14751	7526.75
2578.83819	7502.65
2581.52719	7506.35
2584.21451	7504.55
2586.90015	7483.55
2589.58411	7477.05
2592.2664	7465.75
2594.94701	7439.05
2597.62594	7454.95
2600.30321	7439.85
2602.9788	7418.65
2605.65273	7405.65
2608.32498	7429.65
2610.99557	7406.85
2613.66449	7418.65
2616.33175	7393.65
2618.99734	7380.95
2621.66128	7384.35
2624.32355	7384.45
2626.98416	7369.45
2629.64311	7358.75
2632.30041	7380.75
2634.95605	7378.55
2637.61004	7348.95
2640.26238	7357.55
2642.91306	7336.55
2645.56209	7323.35
2648.20948	7327.15
2650.85521	7310.05
2653.4993	7294.65
2656.14175	7327.55
2658.78255	7322.95
2661.42171	7332.05
2664.05923	7351.95
2666.6951	7344.35
2669.32934	7346.55
2671.96194	7333.45
2674.59291	7340.65
2677.22224	7335.25
2679.84993	7336.35
2682.476	7322.35
2685.10043	7332.85
2687.72324	7302.65
2690.34441	7301.75
2692.96396	7317.65
2695.58188	7290.95
2698.19818	7308.55
2700.81285	7281.15
2703.4259	7253.65
2706.03733	7208.45
2708.64714	7234.35
2711.25533	7293.05
2713.86191	7284.85
2716.46687	7303.55
2719.07021	7319.85
2721.67194	7327.25
2724.27206	7303.55
2726.87057	7312.15
2729.46747	7328.95
2732.06276	7329.05
2734.65644	7313.35
2737.24852	7310.65
2739.83899	7309.35
2742.42786	7283.05
2745.01513	7286.95
2747.60079	7303.35
2750.18486	7280.75
2752.76733	7272.85
2755.3482	7265.85
2757.92747	7250.95
2760.50515	7235.55
2763.08123	7251.65
2765.65573	7223.65
2768.22863	7218.25
2770.79994	7233.85
2773.36967	7225.15
2775.9378	7227.85
2778.50435	7204.65
2781.06932	7195.35
2783.6327	7201.05
2786.1945	7203.95
2788.75471	7190.75
2791.31335	7175.35
2793.87041	7174.85
2796.42589	7143.35
2798.97979	7158.35
2801.53212	7144.75
2804.08288	7119.95
2806.63206	7120.95
2809.17967	7095.25
2811.72571	7089.75
2814.27018	7068.05
2816.81308	7090.75
2819.35442	7050.45
2821.89419	7070.15
2824.43239	7047.25
2826.96904	7050.65
2829.50412	7035.75
2832.03763	7020.95
2834.56959	7036.65
2837.1	7030.55
2839.62884	7027.45
2842.15613	7022.25
2844.68186	7039.75
2847.20604	7040.15
2849.72867	7030.15
2852.24974	7044.35
2854.76927	7018.75
2857.28724	7005.55
2859.80367	7011.05
2862.31855	7000.75
2864.83189	7002.85
2867.34368	6976.65
2869.85393	6991.55
2872.36264	6977.95
2874.8698	6985.05
2877.37543	7004.35
2879.87952	6986.15
2882.38207	6990.15
2884.88308	6992.45
2887.38256	6989.85
2889.88051	6992.05
2892.37692	6996.45
2894.8718	6996.65
2897.36515	7029.15
2899.85698	7009.25
2902.34727	7041.25
2904.83604	7035.55
2907.32328	7082.85
2909.809	7068.45
2912.29319	7079.55
2914.77587	7062.45
2917.25702	7061.45
2919.73665	7073.35
2922.21476	7068.15
2924.69136	7078.55
2927.16644	7083.65
2929.64	7064.25
2932.11205	7070.95
2934.58258	7053.45
2937.05161	7055.75
2939.51912	7056.65
2941.98513	7018.85
2944.44962	7014.15
2946.91261	7009.55
2949.37409	7016.05
2951.83407	7022.95
2954.29254	6982.25
2956.74951	6983.75
2959.20498	6977.75
2961.65895	6945.75
2964.11142	6962.35
2966.56239	6958.15
2969.01186	6918.65
2971.45984	6924.95
2973.90632	6888.75
2976.35131	6874.45
2978.7948	6867.05
2981.23681	6862.15
2983.67732	6838.45
2986.11635	6817.55
2988.55388	6789.95
2990.98993	6788.15
2993.4245	6783.65
2995.85758	6766.95
2998.28917	6759.15
3000.71928	6729.95
3003.14791	6728.25
3005.57506	6729.95
3008.00073	6707.85
3010.42493	6727.95
3012.84764	6697.45
3015.26888	6700.25
3017.68865	6681.65
3020.10694	6674.55
3022.52376	6663.45
3024.9391	6659.95
3027.35298	6644.45
3029.76539	6636.85
3032.17632	6613.45
3034.5858	6616.45
3036.9938	6621.75
3039.40034	6591.35
3041.80542	6602.55
3044.20903	6574.35
3046.61118	6596.35
3049.01187	6570.15
3051.4111	6555.25
3053.80888	6573.55
3056.20519	6547.55
3058.60005	6537.85
3060.99345	6549.15
3063.3854	6528.55
3065.7759	6511.65
3068.16494	6495.85
3070.55254	6490.05
3072.93868	6452.15
3075.32338	6443.05
3077.70662	6432.15
3080.08842	6439.85
3082.46878	6433.75
3084.84769	6413.65
3087.22515	6422.15
3089.60118	6419.55
3091.97576	6429.75
3094.3489	6418.75
3096.72061	6412.75
3099.09087	6426.85
3101.4597	6409.55
3103.82709	6415.15
3106.19305	6421.35
3108.55757	6419.25
3110.92066	6411.45
3113.28232	6399.55
3115.64255	6387.75
3118.00134	6375.25
3120.35871	6389.25
3122.71466	6359.15
3125.06917	6346.15
3127.42226	6361.65
3129.77393	6348.05
3132.12417	6338.75
3134.47299	6348.45
3136.82039	6340.45
3139.16636	6356.85
3141.51092	6339.85
3143.85406	6357.15
3146.19579	6363.25
3148.53609	6349.75
3150.87499	6378.15
3153.21246	6390.05
3155.54853	6396.25
3157.88318	6387.45
3160.21642	6392.95
3162.54826	6391.35
3164.87868	6402.75
3167.2077	6395.25
3169.5353	6398.35
3171.86151	6404.65
3174.18631	6394.55
3176.5097	6394.45
3178.83169	6391.75
3181.15228	6390.05
3183.47147	6364.15
3185.78926	6384.05
3188.10565	6370.65
3190.42065	6370.55
3192.73424	6382.65
3195.04645	6386.15
3197.35725	6387.15
3199.66667	6389.15
3201.97469	6383.95
3204.28132	6385.25
3206.58656	6385.65
3208.8904	6395.25
3211.19287	6408.95
3213.49394	6407.85
3215.79363	6403.55
3218.09193	6410.75
3220.38884	6402.45
3222.68438	6405.05
3224.97853	6395.95
3227.2713	6407.45
3229.56269	6402.45
3231.8527	6392.05
3234.14133	6391.65
3236.42858	6374.25
3238.71446	6389.45
3240.99896	6360.05
3243.28209	6360.75
3245.56384	6341.05
3247.84423	6364.05
3250.12324	6350.95
3252.40088	6367.05
3254.67715	6351.85
3256.95205	6329.55
3259.22558	6353.95
3261.49775	6327.95
3263.76855	6345.05
3266.03799	6319.95
3268.30606	6311.85
3270.57277	6285.65
3272.83812	6270.85
3275.10211	6277.15
3277.36474	6267.45
3279.62601	6287.65
3281.88593	6259.75
3284.14448	6269.95
3286.40168	6278.25
3288.65753	6264.65
3290.91202	6248.35
3293.16516	6236.25
3295.41695	6225.15
3297.66738	6206.15
3299.91647	6167.55
3302.16421	6149.25
3304.4106	6122.75
3306.65564	6082.65
3308.89933	6056.75
3311.14169	6002.15
3313.38269	5938.65
3315.62236	5907.65
3317.86068	5883.75
3320.09766	5824.25
3322.3333	5800.05
3324.5676	5771.75
3326.80056	5669.75
3329.03219	5644.05
3331.26248	0.45
3333.49143	-1.55
3335.71905	1.15
