Data from AgNPs_FTO_APTES_UA_50uM_CRN_20uM_R6G_10uM_NaF_0.1M_Addition_RamanShift__7__14-02-24-919.txt Node

Date: Mon Feb 21 14:02:24 GMT 2022
User: TCL
Spectrometer: QEP01345
Trigger mode: 4
Integration Time (sec): 7.000000E0
Scans to average: 10
Electric dark correction enabled: true
Nonlinearity correction enabled: false
Boxcar width: 0
XAxis mode: Raman Shifts
Number of Pixels in Spectrum: 1044
>>>>>Begin Spectral Data<<<<<
46.04893	1.15
50.45542	-0.75
54.85868	-0.85
59.25871	-1.55
63.6555	49.25
68.04907	55.05
72.43941	56.85
76.82654	62.45
81.21044	63.35
85.59113	70.45
89.96862	70.15
94.34289	74.15
98.71396	72.05
103.08183	81.35
107.4465	79.15
111.80798	79.15
116.16626	78.85
120.52136	81.65
124.87327	89.95
129.222	83.85
133.56755	87.85
137.90993	94.95
142.24913	101.85
146.58517	109.75
150.91804	123.45
155.24774	142.15
159.57429	173.15
163.89768	221.25
168.21792	290.05
172.53501	390.15
176.84895	543.75
181.15975	751.45
185.46741	1046.65
189.77193	1444.45
194.07331	1936.75
198.37157	2487.35
202.6667	3064.35
206.9587	3673.95
211.24758	4239.05
215.53334	4813.15
219.81599	5423.15
224.09553	6134.45
228.37195	6862.75
232.64527	7727.75
236.91549	8582.55
241.18261	9434.75
245.44663	10213.25
249.70755	10865.95
253.96539	11438.45
258.22014	11907.85
262.4718	12241.45
266.72039	12476.45
270.96589	12589.45
275.20832	12565.95
279.44768	12406.25
283.68397	12206.75
287.91719	12021.75
292.14735	11893.95
296.37445	11877.65
300.59849	11954.95
304.81948	12083.55
309.03742	12153.35
313.25231	12120.85
317.46415	11927.35
321.67296	11630.65
325.87872	11397.95
330.08145	11325.45
334.28114	11295.95
338.47781	11393.75
342.67145	11524.85
346.86207	11749.45
351.04966	12028.75
355.23424	12311.05
359.4158	12570.75
363.59435	12760.05
367.76989	12861.25
371.94243	12909.35
376.11196	12948.25
380.27849	12962.05
384.44203	12987.95
388.60257	13060.55
392.76012	13166.95
396.91468	13301.45
401.06626	13496.65
405.21485	13606.75
409.36047	13509.25
413.50311	13233.25
417.64277	13026.85
421.77947	12941.95
425.9132	12931.25
430.04396	12941.75
434.17176	12995.75
438.2966	13112.75
442.41849	13324.25
446.53742	13639.55
450.6534	13973.25
454.76644	14155.15
458.87653	14191.15
462.98368	14113.95
467.08789	13964.55
471.18916	13793.55
475.2875	13533.65
479.38291	13326.95
483.4754	13154.75
487.56496	13053.85
491.6516	12991.95
495.73531	12948.85
499.81612	12970.45
503.89401	13114.25
507.96899	13150.25
512.04106	13161.25
516.11023	13181.55
520.1765	13129.65
524.23987	13065.25
528.30034	13030.45
532.35792	12958.55
536.41261	12856.75
540.46441	12678.15
544.51333	12596.15
548.55936	12648.35
552.60252	12852.35
556.64279	13106.55
560.6802	13240.95
564.71473	13293.15
568.7464	13405.45
572.7752	13643.45
576.80114	13862.15
580.82422	14145.15
584.84444	14646.35
588.86181	15377.05
592.87633	16092.45
596.888	16381.85
600.89682	15855.55
604.9028	15749.25
608.90594	17128.45
612.90624	18912.75
616.90371	17863.75
620.89834	14749.25
624.89015	13326.45
628.87913	13147.05
632.86528	13275.85
636.84862	13365.55
640.82913	13207.75
644.80683	12824.45
648.78172	12612.65
652.75379	12593.65
656.72306	12794.75
660.68952	13087.35
664.65319	13025.35
668.61405	12741.85
672.57211	12700.25
676.52738	12796.05
680.47986	12804.25
684.42955	12721.65
688.37646	12611.95
692.32058	12645.15
696.26192	12797.65
700.20048	12931.05
704.13626	13004.95
708.06928	12970.65
711.99952	12889.55
715.927	12874.05
719.85171	12938.95
723.77365	12910.05
727.69284	12768.45
731.60928	12614.05
735.52295	12582.65
739.43388	12582.85
743.34206	12640.65
747.24749	12697.55
751.15017	12785.25
755.05012	12930.25
758.94733	13234.85
762.8418	13928.15
766.73354	15031.25
770.62254	16248.05
774.50882	16588.95
778.39237	16061.85
782.27321	14934.45
786.15132	13914.75
790.02671	13237.75
793.89938	12870.75
797.76935	12704.55
801.6366	12632.55
805.50115	12528.05
809.36299	12467.15
813.22213	12405.75
817.07857	12352.95
820.93231	12289.85
824.78336	12270.35
828.63172	12232.65
832.47738	12252.15
836.32036	12230.35
840.16066	12233.75
843.99827	12231.85
847.8332	12205.95
851.66546	12196.65
855.49504	12192.15
859.32195	12227.35
863.1462	12239.95
866.96777	12179.55
870.78668	12191.15
874.60293	12223.25
878.41652	12259.55
882.22745	12306.55
886.03573	12380.05
889.84136	12363.65
893.64433	12335.45
897.44466	12281.55
901.24235	12269.75
905.0374	12253.15
908.8298	12171.95
912.61957	12136.95
916.40671	12171.25
920.19121	12270.65
923.97308	12393.75
927.75233	12482.65
931.52895	12478.05
935.30295	12365.45
939.07433	12138.95
942.84309	11926.25
946.60924	11854.75
950.37278	11781.75
954.13371	11797.65
957.89203	11798.75
961.64774	11793.35
965.40086	11785.15
969.15137	11771.75
972.89929	11761.25
976.64461	11758.25
980.38733	11755.15
984.12747	11785.45
987.86502	11834.15
991.59999	11888.95
995.33237	11999.65
999.06217	12209.85
1002.78939	12432.55
1006.51404	12673.15
1010.23611	12946.65
1013.95561	13088.15
1017.67255	13101.75
1021.38692	12986.85
1025.09872	12786.15
1028.80796	12682.05
1032.51465	12634.35
1036.21877	12721.05
1039.92035	12787.45
1043.61937	12770.45
1047.31584	12744.15
1051.00976	12688.95
1054.70114	12695.95
1058.38998	12693.15
1062.07627	12771.55
1065.76003	12860.45
1069.44126	13062.55
1073.11995	13257.55
1076.79611	13520.75
1080.46974	13674.25
1084.14085	13835.35
1087.80943	13975.85
1091.47549	14041.25
1095.13903	14027.05
1098.80005	13784.65
1102.45857	13485.25
1106.11456	13278.15
1109.76805	13184.95
1113.41903	13251.05
1117.06751	13328.15
1120.71348	13519.35
1124.35696	13741.65
1127.99793	13949.35
1131.63641	14062.95
1135.2724	13981.35
1138.90589	13807.35
1142.5369	13716.85
1146.16542	13698.55
1149.79145	13698.95
1153.415	13736.15
1157.03607	13831.05
1160.65467	14068.75
1164.27079	14546.55
1167.88443	15161.85
1171.49561	16005.55
1175.10432	17128.85
1178.71056	18585.35
1182.31434	19886.35
1185.91565	20448.55
1189.51451	20275.55
1193.11091	19701.45
1196.70485	18878.15
1200.29634	18078.65
1203.88538	17385.95
1207.47197	16849.45
1211.05612	16343.35
1214.63782	16007.75
1218.21708	15734.85
1221.79391	15552.95
1225.36829	15511.75
1228.94024	15487.25
1232.50976	15344.85
1236.07685	15193.55
1239.6415	15028.65
1243.20374	14986.25
1246.76355	15051.05
1250.32093	15171.05
1253.8759	15423.75
1257.42845	15761.25
1260.97859	16289.25
1264.52631	16780.65
1268.07163	17296.95
1271.61453	17772.35
1275.15503	18240.25
1278.69312	18624.25
1282.22882	19020.35
1285.76211	19585.55
1289.29301	20246.25
1292.82151	20938.85
1296.34761	21785.55
1299.87133	22813.15
1303.39266	23974.15
1306.9116	25342.05
1310.42815	26527.55
1313.94233	27137.65
1317.45412	26783.85
1320.96354	25851.75
1324.47058	24841.45
1327.97525	23991.35
1331.47754	23417.25
1334.97747	23073.75
1338.47502	22840.75
1341.97022	22830.05
1345.46305	22892.15
1348.95352	23305.45
1352.44163	24055.55
1355.92738	25251.55
1359.41078	26966.85
1362.89183	28513.55
1366.37053	28384.25
1369.84688	25910.65
1373.32088	22711.25
1376.79254	20461.95
1380.26186	19382.65
1383.72883	18943.75
1387.19347	18551.95
1390.65578	18123.75
1394.11575	17851.15
1397.57339	17789.65
1401.0287	17907.35
1404.48168	17993.25
1407.93234	17950.45
1411.38068	17858.95
1414.82669	17578.85
1418.27039	17277.65
1421.71177	16969.45
1425.15083	16656.75
1428.58758	16550.85
1432.02203	16675.15
1435.45416	16950.25
1438.88399	17187.75
1442.31151	17327.05
1445.73673	17399.85
1449.15965	17445.65
1452.58027	17430.75
1455.9986	17376.05
1459.41463	17398.15
1462.82837	17656.45
1466.23982	18018.95
1469.64898	18409.95
1473.05586	18724.55
1476.46045	18917.85
1479.86276	19069.55
1483.26279	19117.35
1486.66054	19276.35
1490.05602	19653.65
1493.44922	20192.45
1496.84016	20799.85
1500.22882	21644.35
1503.61521	22690.25
1506.99934	23841.75
1510.38121	24703.45
1513.76081	24725.25
1517.13816	23773.05
1520.51324	22327.25
1523.88607	21037.95
1527.25665	20321.65
1530.62498	19831.95
1533.99105	19455.05
1537.35488	19027.65
1540.71647	18549.25
1544.07581	18107.75
1547.4329	17717.75
1550.78776	17489.75
1554.14038	17290.15
1557.49077	17266.55
1560.83892	17330.85
1564.18484	17493.45
1567.52853	17741.45
1570.86999	18003.95
1574.20922	18300.15
1577.54624	18384.95
1580.88103	18142.15
1584.2136	17807.75
1587.54395	17893.05
1590.87208	18573.55
1594.19801	19551.85
1597.52172	20589.85
1600.84321	20892.95
1604.16251	20174.55
1607.47959	18853.55
1610.79447	17427.25
1614.10715	16178.05
1617.41763	15144.35
1620.7259	14467.55
1624.03199	14167.85
1627.33587	14186.65
1630.63757	14531.25
1633.93707	15307.65
1637.23439	16652.15
1640.52951	18742.95
1643.82246	21260.75
1647.11321	23420.95
1650.40179	23994.75
1653.68819	22383.75
1656.97241	19464.35
1660.25446	16604.05
1663.53433	14624.45
1666.81203	13436.75
1670.08756	12734.65
1673.36092	12361.25
1676.63211	12119.45
1679.90115	11910.05
1683.16801	11740.95
1686.43272	11636.35
1689.69527	11522.85
1692.95567	11378.25
1696.2139	11241.65
1699.46999	11082.85
1702.72392	11046.55
1705.97571	11093.25
1709.22535	11156.05
1712.47284	11221.55
1715.71819	11239.15
1718.96139	11239.35
1722.20246	11193.55
1725.44139	11139.55
1728.67818	11102.95
1731.91284	11044.65
1735.14537	10986.55
1738.37576	10923.55
1741.60403	10892.95
1744.83017	10852.55
1748.05418	10813.75
1751.27607	10754.85
1754.49584	10680.95
1757.71349	10635.25
1760.92903	10587.95
1764.14244	10593.65
1767.35375	10595.55
1770.56294	10542.75
1773.77002	10562.15
1776.97499	10563.85
1780.17785	10599.45
1783.37861	10611.45
1786.57727	10630.15
1789.77382	10618.05
1792.96828	10562.25
1796.16064	10575.45
1799.3509	10581.75
1802.53907	10529.75
1805.72514	10515.05
1808.90913	10504.95
1812.09102	10496.75
1815.27083	10473.95
1818.44856	10479.65
1821.6242	10432.05
1824.79776	10443.25
1827.96924	10438.05
1831.13864	10420.15
1834.30597	10440.85
1837.47122	10423.05
1840.6344	10436.05
1843.7955	10401.75
1846.95454	10417.25
1850.11151	10427.45
1853.26642	10403.45
1856.41926	10395.85
1859.57004	10392.35
1862.71876	10383.25
1865.86542	10359.35
1869.01003	10360.25
1872.15258	10324.25
1875.29308	10328.55
1878.43152	10315.75
1881.56792	10317.45
1884.70227	10290.55
1887.83457	10278.05
1890.96482	10280.45
1894.09304	10258.15
1897.21921	10255.85
1900.34335	10240.55
1903.46544	10226.35
1906.58551	10208.35
1909.70353	10194.05
1912.81953	10190.35
1915.93349	10166.95
1919.04543	10145.35
1922.15534	10143.05
1925.26322	10117.55
1928.36908	10094.05
1931.47292	10064.65
1934.57473	10042.45
1937.67453	10026.85
1940.77232	9991.25
1943.86808	9982.55
1946.96184	9958.85
1950.05358	9916.05
1953.14331	9899.75
1956.23103	9889.25
1959.31675	9857.85
1962.40046	9820.95
1965.48217	9795.15
1968.56188	9757.55
1971.63959	9742.85
1974.7153	9725.25
1977.78901	9700.05
1980.86073	9678.25
1983.93046	9607.05
1986.99819	9600.75
1990.06394	9582.55
1993.1277	9581.35
1996.18947	9553.95
1999.24925	9520.65
2002.30706	9479.75
2005.36288	9431.15
2008.41672	9425.25
2011.46859	9374.75
2014.51848	9384.55
2017.56639	9359.75
2020.61233	9350.45
2023.6563	9292.95
2026.6983	9283.25
2029.73833	9245.75
2032.7764	9228.25
2035.8125	9220.45
2038.84664	9209.75
2041.87881	9209.95
2044.90903	9193.85
2047.93729	9173.85
2050.96359	9188.05
2053.98794	9168.45
2057.01034	9156.75
2060.03078	9162.75
2063.04927	9166.95
2066.06582	9148.05
2069.08042	9115.35
2072.09307	9096.45
2075.10378	9093.25
2078.11255	9094.85
2081.11938	9117.85
2084.12426	9115.85
2087.12722	9134.95
2090.12824	9115.85
2093.12732	9112.05
2096.12447	9143.55
2099.11969	9148.95
2102.11299	9135.35
2105.10435	9133.85
2108.09379	9137.95
2111.08131	9143.75
2114.0669	9164.55
2117.05057	9151.25
2120.03233	9164.05
2123.01216	9179.95
2125.99008	9172.65
2128.96609	9172.65
2131.94018	9195.15
2134.91236	9200.25
2137.88263	9210.95
2140.851	9218.65
2143.81746	9217.35
2146.78201	9213.05
2149.74466	9236.65
2152.7054	9224.15
2155.66425	9202.65
2158.6212	9200.65
2161.57625	9183.45
2164.52941	9181.05
2167.48067	9161.95
2170.43004	9195.65
2173.37752	9190.75
2176.32311	9195.75
2179.26681	9194.35
2182.20863	9197.95
2185.14856	9200.25
2188.08661	9207.95
2191.02278	9217.45
2193.95707	9201.55
2196.88948	9188.45
2199.82001	9181.25
2202.74867	9178.55
2205.67545	9189.15
2208.60037	9123.55
2211.52341	9140.65
2214.44458	9148.25
2217.36388	9110.95
2220.28132	9106.55
2223.1969	9098.45
2226.11061	9081.95
2229.02246	9037.25
2231.93245	9051.55
2234.84058	9028.55
2237.74686	9020.55
2240.65128	9048.25
2243.55385	9023.45
2246.45456	9040.75
2249.35343	9007.85
2252.25044	8973.75
2255.14561	8982.05
2258.03893	8966.75
2260.93041	8938.85
2263.82004	8944.75
2266.70783	8930.85
2269.59378	8904.95
2272.4779	8869.65
2275.36017	8876.05
2278.24061	8837.95
2281.11922	8840.65
2283.996	8829.95
2286.87094	8808.95
2289.74405	8797.45
2292.61534	8798.85
2295.4848	8778.85
2298.35243	8779.25
2301.21824	8772.75
2304.08223	8769.15
2306.94439	8773.55
2309.80474	8778.95
2312.66327	8786.45
2315.51999	8757.55
2318.37489	8719.25
2321.22797	8747.75
2324.07925	8732.95
2326.92871	8725.95
2329.77637	8697.15
2332.62222	8697.85
2335.46626	8695.35
2338.3085	8672.95
2341.14893	8658.55
2343.98756	8683.15
2346.8244	8682.55
2349.65943	8687.45
2352.49267	8660.45
2355.32411	8668.15
2358.15376	8669.55
2360.98161	8675.55
2363.80768	8670.15
2366.63195	8653.75
2369.45444	8682.85
2372.27514	8643.25
2375.09405	8649.65
2377.91118	8645.35
2380.72652	8627.25
2383.54009	8577.55
2386.35187	8593.35
2389.16188	8543.95
2391.97011	8542.45
2394.77657	8539.85
2397.58125	8528.75
2400.38416	8519.35
2403.18529	8505.35
2405.98466	8477.05
2408.78226	8471.55
2411.57809	8454.95
2414.37216	8441.55
2417.16446	8448.45
2419.955	8434.15
2422.74378	8452.95
2425.5308	8440.15
2428.31606	8430.75
2431.09956	8442.65
2433.88131	8428.25
2436.6613	8406.75
2439.43954	8414.55
2442.21603	8423.75
2444.99077	8432.35
2447.76377	8449.05
2450.53501	8433.45
2453.30451	8416.35
2456.07226	8415.75
2458.83827	8406.15
2461.60254	8406.95
2464.36507	8431.35
2467.12586	8401.25
2469.88492	8391.35
2472.64224	8410.85
2475.39782	8393.25
2478.15167	8398.05
2480.90379	8410.95
2483.65417	8418.95
2486.40283	8404.15
2489.14976	8409.95
2491.89497	8397.65
2494.63845	8414.55
2497.3802	8371.75
2500.12024	8412.85
2502.85855	8402.05
2505.59514	8373.65
2508.33002	8372.35
2511.06318	8364.75
2513.79462	8379.65
2516.52435	8350.85
2519.25237	8331.85
2521.97867	8321.15
2524.70327	8332.25
2527.42616	8302.85
2530.14734	8288.65
2532.86681	8282.05
2535.58458	8321.45
2538.30065	8296.75
2541.01501	8305.35
2543.72768	8302.55
2546.43864	8261.05
2549.14791	8263.95
2551.85548	8253.55
2554.56136	8265.95
2557.26554	8249.25
2559.96803	8224.65
2562.66883	8235.35
2565.36794	8243.55
2568.06536	8247.15
2570.7611	8219.35
2573.45514	8225.45
2576.14751	8194.05
2578.83819	8173.35
2581.52719	8159.95
2584.21451	8149.15
2586.90015	8150.95
2589.58411	8125.45
2592.2664	8127.35
2594.94701	8114.65
2597.62594	8128.25
2600.30321	8124.05
2602.9788	8118.25
2605.65273	8099.85
2608.32498	8110.05
2610.99557	8076.25
2613.66449	8101.95
2616.33175	8092.95
2618.99734	8103.75
2621.66128	8090.65
2624.32355	8076.65
2626.98416	8090.85
2629.64311	8061.75
2632.30041	8051.45
2634.95605	8039.15
2637.61004	8029.35
2640.26238	8011.25
2642.91306	8006.55
2645.56209	8001.75
2648.20948	8011.95
2650.85521	7996.35
2653.4993	7979.95
2656.14175	8012.75
2658.78255	8006.95
2661.42171	8022.05
2664.05923	8045.35
2666.6951	8063.65
2669.32934	8068.35
2671.96194	8057.45
2674.59291	8052.85
2677.22224	8075.35
2679.84993	8056.65
2682.476	8040.05
2685.10043	8048.35
2687.72324	8048.15
2690.34441	8029.65
2692.96396	8059.45
2695.58188	8038.55
2698.19818	8039.15
2700.81285	8038.15
2703.4259	8003.95
2706.03733	7950.85
2708.64714	8006.25
2711.25533	8021.85
2713.86191	8028.85
2716.46687	8037.15
2719.07021	8044.55
2721.67194	8087.05
2724.27206	8047.25
2726.87057	8069.75
2729.46747	8077.05
2732.06276	8090.05
2734.65644	8069.75
2737.24852	8093.65
2739.83899	8076.25
2742.42786	8090.45
2745.01513	8060.55
2747.60079	8077.15
2750.18486	8076.25
2752.76733	8050.25
2755.3482	8030.45
2757.92747	8041.05
2760.50515	8031.25
2763.08123	8025.65
2765.65573	8014.25
2768.22863	8014.25
2770.79994	7993.35
2773.36967	7995.75
2775.9378	7961.15
2778.50435	7949.55
2781.06932	7953.95
2783.6327	8000.25
2786.1945	7968.85
2788.75471	7969.95
2791.31335	7943.05
2793.87041	7936.05
2796.42589	7927.35
2798.97979	7917.15
2801.53212	7909.95
2804.08288	7899.45
2806.63206	7875.95
2809.17967	7874.85
2811.72571	7879.45
2814.27018	7838.35
2816.81308	7830.55
2819.35442	7826.15
2821.89419	7842.55
2824.43239	7842.25
2826.96904	7814.25
2829.50412	7834.75
2832.03763	7807.55
2834.56959	7813.45
2837.1	7821.55
2839.62884	7800.65
2842.15613	7789.95
2844.68186	7807.75
2847.20604	7810.55
2849.72867	7798.55
2852.24974	7810.05
2854.76927	7796.65
2857.28724	7780.75
2859.80367	7767.35
2862.31855	7788.85
2864.83189	7780.05
2867.34368	7763.15
2869.85393	7782.95
2872.36264	7777.25
2874.8698	7789.75
2877.37543	7780.15
2879.87952	7774.55
2882.38207	7766.65
2884.88308	7775.75
2887.38256	7802.75
2889.88051	7795.75
2892.37692	7790.15
2894.8718	7785.55
2897.36515	7799.25
2899.85698	7816.25
2902.34727	7812.35
2904.83604	7826.75
2907.32328	7823.75
2909.809	7823.05
2912.29319	7834.05
2914.77587	7856.25
2917.25702	7837.35
2919.73665	7853.25
2922.21476	7840.15
2924.69136	7837.15
2927.16644	7863.35
2929.64	7832.95
2932.11205	7810.55
2934.58258	7819.85
2937.05161	7819.75
2939.51912	7801.15
2941.98513	7804.25
2944.44962	7777.05
2946.91261	7748.85
2949.37409	7788.75
2951.83407	7761.05
2954.29254	7749.65
2956.74951	7747.45
2959.20498	7722.75
2961.65895	7712.65
2964.11142	7715.25
2966.56239	7678.05
2969.01186	7709.45
2971.45984	7678.45
2973.90632	7667.75
2976.35131	7674.85
2978.7948	7631.55
2981.23681	7625.15
2983.67732	7620.35
2986.11635	7609.55
2988.55388	7587.25
2990.98993	7583.65
2993.4245	7561.55
2995.85758	7541.65
2998.28917	7507.75
3000.71928	7516.85
3003.14791	7493.75
3005.57506	7493.95
3008.00073	7480.95
3010.42493	7453.05
3012.84764	7469.95
3015.26888	7481.35
3017.68865	7436.75
3020.10694	7446.85
3022.52376	7413.75
3024.9391	7423.35
3027.35298	7400.05
3029.76539	7403.55
3032.17632	7377.55
3034.5858	7377.55
3036.9938	7373.05
3039.40034	7380.85
3041.80542	7347.15
3044.20903	7332.55
3046.61118	7353.65
3049.01187	7366.65
3051.4111	7335.85
3053.80888	7345.45
3056.20519	7340.25
3058.60005	7299.65
3060.99345	7308.35
3063.3854	7292.85
3065.7759	7283.85
3068.16494	7269.85
3070.55254	7240.45
3072.93868	7216.35
3075.32338	7212.45
3077.70662	7181.05
3080.08842	7182.65
3082.46878	7192.95
3084.84769	7147.55
3087.22515	7146.85
3089.60118	7152.75
3091.97576	7181.45
3094.3489	7159.05
3096.72061	7161.25
3099.09087	7168.85
3101.4597	7159.65
3103.82709	7166.05
3106.19305	7151.55
3108.55757	7136.85
3110.92066	7135.65
3113.28232	7119.45
3115.64255	7108.95
3118.00134	7119.95
3120.35871	7112.25
3122.71466	7096.85
3125.06917	7093.75
3127.42226	7097.35
3129.77393	7092.15
3132.12417	7054.55
3134.47299	7067.85
3136.82039	7047.85
3139.16636	7044.85
3141.51092	7064.35
3143.85406	7081.65
3146.19579	7087.75
3148.53609	7088.85
3150.87499	7087.85
3153.21246	7087.85
3155.54853	7117.95
3157.88318	7111.55
3160.21642	7127.55
3162.54826	7125.75
3164.87868	7108.15
3167.2077	7127.05
3169.5353	7117.05
3171.86151	7127.25
3174.18631	7136.05
3176.5097	7117.85
3178.83169	7085.45
3181.15228	7095.75
3183.47147	7086.55
3185.78926	7091.35
3188.10565	7086.75
3190.42065	7094.45
3192.73424	7104.45
3195.04645	7087.45
3197.35725	7084.95
3199.66667	7072.05
3201.97469	7087.05
3204.28132	7063.65
3206.58656	7077.55
3208.8904	7087.15
3211.19287	7075.25
3213.49394	7111.85
3215.79363	7086.75
3218.09193	7090.85
3220.38884	7089.15
3222.68438	7075.35
3224.97853	7085.25
3227.2713	7078.75
3229.56269	7089.75
3231.8527	7076.95
3234.14133	7083.95
3236.42858	7049.85
3238.71446	7068.75
3240.99896	7034.35
3243.28209	7036.55
3245.56384	7012.25
3247.84423	7031.05
3250.12324	7019.15
3252.40088	7039.45
3254.67715	7017.35
3256.95205	7030.85
3259.22558	7028.05
3261.49775	6995.65
3263.76855	7007.35
3266.03799	6974.65
3268.30606	6982.35
3270.57277	6975.55
3272.83812	6963.75
3275.10211	6952.15
3277.36474	6936.05
3279.62601	6942.45
3281.88593	6923.05
3284.14448	6934.25
3286.40168	6950.05
3288.65753	6935.55
3290.91202	6942.65
3293.16516	6908.15
3295.41695	6915.75
3297.66738	6860.65
3299.91647	6843.95
3302.16421	6787.25
3304.4106	6789.35
3306.65564	6736.15
3308.89933	6694.05
3311.14169	6659.05
3313.38269	6576.35
3315.62236	6534.65
3317.86068	6489.25
3320.09766	6443.45
3322.3333	6386.45
3324.5676	6410.35
3326.80056	6252.95
3329.03219	6227.25
3331.26248	1.75
3333.49143	-0.85
3335.71905	-0.05
