Data from AgNPs_FTO_APTES_UA_50uM_CRN_200uM_R6G_10uM_NaF_0.1M_Addition_RamanShift__3__15-57-55-064.txt Node

Date: Mon Feb 21 15:57:55 GMT 2022
User: TCL
Spectrometer: QEP01345
Trigger mode: 4
Integration Time (sec): 7.000000E0
Scans to average: 10
Electric dark correction enabled: true
Nonlinearity correction enabled: false
Boxcar width: 0
XAxis mode: Raman Shifts
Number of Pixels in Spectrum: 1044
>>>>>Begin Spectral Data<<<<<
46.04893	0.675
50.45542	-1.625
54.85868	-0.625
59.25871	-1.025
63.6555	51.075
68.04907	55.375
72.43941	55.775
76.82654	59.475
81.21044	62.275
85.59113	71.075
89.96862	68.075
94.34289	71.675
98.71396	72.375
103.08183	78.175
107.4465	77.775
111.80798	78.275
116.16626	77.775
120.52136	75.675
124.87327	84.575
129.222	84.875
133.56755	87.775
137.90993	96.175
142.24913	102.275
146.58517	112.875
150.91804	123.375
155.24774	152.775
159.57429	181.975
163.89768	231.775
168.21792	308.875
172.53501	421.875
176.84895	582.575
181.15975	814.375
185.46741	1127.975
189.77193	1569.475
194.07331	2102.475
198.37157	2699.175
202.6667	3329.275
206.9587	3947.975
211.24758	4584.875
215.53334	5209.675
219.81599	5884.575
224.09553	6639.475
228.37195	7435.975
232.64527	8347.675
236.91549	9276.475
241.18261	10206.275
245.44663	11036.275
249.70755	11788.375
253.96539	12377.475
258.22014	12901.075
262.4718	13317.575
266.72039	13607.975
270.96589	13769.175
275.20832	13729.675
279.44768	13606.575
283.68397	13428.475
287.91719	13284.275
292.14735	13149.775
296.37445	13168.775
300.59849	13294.875
304.81948	13458.575
309.03742	13554.975
313.25231	13523.575
317.46415	13272.075
321.67296	12915.775
325.87872	12629.175
330.08145	12491.575
334.28114	12473.575
338.47781	12551.075
342.67145	12728.075
346.86207	13000.375
351.04966	13357.375
355.23424	13689.275
359.4158	13935.375
363.59435	14148.575
367.76989	14274.975
371.94243	14372.175
376.11196	14415.075
380.27849	14437.875
384.44203	14550.775
388.60257	14619.475
392.76012	14654.475
396.91468	14805.375
401.06626	15027.375
405.21485	15154.075
409.36047	15031.575
413.50311	14737.775
417.64277	14441.475
421.77947	14317.375
425.9132	14284.075
430.04396	14286.175
434.17176	14352.575
438.2966	14528.975
442.41849	14810.875
446.53742	15233.675
450.6534	15663.975
454.76644	15868.775
458.87653	15953.675
462.98368	15822.275
467.08789	15603.275
471.18916	15339.375
475.2875	15077.075
479.38291	14851.975
483.4754	14673.975
487.56496	14532.375
491.6516	14453.775
495.73531	14401.175
499.81612	14404.875
503.89401	14528.075
507.96899	14580.475
512.04106	14632.875
516.11023	14664.375
520.1765	14680.875
524.23987	14653.975
528.30034	14584.775
532.35792	14501.875
536.41261	14374.175
540.46441	14185.475
544.51333	14125.875
548.55936	14194.775
552.60252	14435.275
556.64279	14699.875
560.6802	14868.375
564.71473	14930.375
568.7464	15026.475
572.7752	15221.975
576.80114	15319.975
580.82422	15451.375
584.84444	15767.575
588.86181	16337.375
592.87633	16947.975
596.888	17218.975
600.89682	16987.475
604.9028	17232.375
608.90594	18992.175
612.90624	21175.875
616.90371	20145.775
620.89834	16663.975
624.89015	15086.175
628.87913	14851.675
632.86528	14904.175
636.84862	14946.775
640.82913	14788.375
644.80683	14438.275
648.78172	14181.975
652.75379	14145.775
656.72306	14348.875
660.68952	14642.575
664.65319	14521.975
668.61405	14219.275
672.57211	14175.175
676.52738	14258.275
680.47986	14269.075
684.42955	14169.275
688.37646	14061.875
692.32058	14103.975
696.26192	14246.175
700.20048	14391.975
704.13626	14425.975
708.06928	14397.975
711.99952	14270.975
715.927	14250.175
719.85171	14335.875
723.77365	14363.575
727.69284	14215.275
731.60928	14135.575
735.52295	14110.975
739.43388	14124.975
743.34206	14182.575
747.24749	14204.875
751.15017	14274.075
755.05012	14423.275
758.94733	14795.575
762.8418	15517.175
766.73354	16759.375
770.62254	18077.275
774.50882	18640.475
778.39237	18042.375
782.27321	16685.975
786.15132	15471.375
790.02671	14744.475
793.89938	14376.975
797.76935	14198.475
801.6366	14150.975
805.50115	14115.875
809.36299	14040.675
813.22213	13919.975
817.07857	13876.375
820.93231	13848.375
824.78336	13809.575
828.63172	13792.275
832.47738	13840.575
836.32036	13870.375
840.16066	13903.675
843.99827	13961.875
847.8332	13905.175
851.66546	13849.175
855.49504	13829.175
859.32195	13861.575
863.1462	13849.475
866.96777	13840.075
870.78668	13828.075
874.60293	13820.975
878.41652	13847.575
882.22745	13907.375
886.03573	13977.475
889.84136	13965.875
893.64433	13906.775
897.44466	13833.575
901.24235	13780.075
905.0374	13721.175
908.8298	13675.575
912.61957	13675.575
916.40671	13760.375
920.19121	13871.375
923.97308	14016.275
927.75233	14121.575
931.52895	14125.875
935.30295	14006.675
939.07433	13805.275
942.84309	13617.375
946.60924	13507.175
950.37278	13456.675
954.13371	13375.275
957.89203	13320.775
961.64774	13295.575
965.40086	13289.775
969.15137	13243.275
972.89929	13250.575
976.64461	13210.475
980.38733	13240.475
984.12747	13323.975
987.86502	13447.275
991.59999	13594.775
995.33237	13828.375
999.06217	14136.875
1002.78939	14518.175
1006.51404	14705.675
1010.23611	14836.875
1013.95561	14974.775
1017.67255	14991.975
1021.38692	14914.775
1025.09872	14761.675
1028.80796	14790.875
1032.51465	15091.075
1036.21877	15419.775
1039.92035	15579.175
1043.61937	15437.175
1047.31584	15149.475
1051.00976	14769.875
1054.70114	14587.375
1058.38998	14476.375
1062.07627	14483.575
1065.76003	14512.875
1069.44126	14585.275
1073.11995	14725.275
1076.79611	14919.575
1080.46974	15070.875
1084.14085	15280.575
1087.80943	15457.675
1091.47549	15507.475
1095.13903	15481.975
1098.80005	15191.875
1102.45857	14932.875
1106.11456	14821.475
1109.76805	14818.775
1113.41903	14916.475
1117.06751	15085.275
1120.71348	15308.875
1124.35696	15531.175
1127.99793	15781.375
1131.63641	15872.875
1135.2724	15646.575
1138.90589	15458.875
1142.5369	15267.775
1146.16542	15199.075
1149.79145	15162.075
1153.415	15172.975
1157.03607	15283.375
1160.65467	15557.175
1164.27079	16045.975
1167.88443	16761.775
1171.49561	17693.975
1175.10432	18920.975
1178.71056	20586.775
1182.31434	22112.875
1185.91565	22833.775
1189.51451	22617.875
1193.11091	21782.875
1196.70485	20741.475
1200.29634	19864.975
1203.88538	19141.675
1207.47197	18451.675
1211.05612	17885.375
1214.63782	17459.775
1218.21708	17240.575
1221.79391	17212.875
1225.36829	17256.175
1228.94024	17170.275
1232.50976	16945.875
1236.07685	16710.275
1239.6415	16544.175
1243.20374	16533.875
1246.76355	16665.375
1250.32093	16866.475
1253.8759	17166.775
1257.42845	17558.075
1260.97859	17948.975
1264.52631	18397.575
1268.07163	18958.075
1271.61453	19495.775
1275.15503	19995.175
1278.69312	20405.575
1282.22882	20711.875
1285.76211	21092.975
1289.29301	21594.175
1292.82151	22319.975
1296.34761	23255.575
1299.87133	24499.275
1303.39266	26050.575
1306.9116	27916.775
1310.42815	29578.275
1313.94233	30395.575
1317.45412	29860.875
1320.96354	28608.375
1324.47058	27182.175
1327.97525	25914.475
1331.47754	25043.575
1334.97747	24550.775
1338.47502	24332.575
1341.97022	24342.675
1345.46305	24532.875
1348.95352	25020.975
1352.44163	26034.375
1355.92738	27588.775
1359.41078	29679.375
1362.89183	31379.975
1366.37053	30862.175
1369.84688	27827.575
1373.32088	24208.475
1376.79254	21922.375
1380.26186	20918.775
1383.72883	20496.775
1387.19347	20151.575
1390.65578	19715.275
1394.11575	19452.775
1397.57339	19462.175
1401.0287	19566.075
1404.48168	19667.875
1407.93234	19632.975
1411.38068	19511.375
1414.82669	19245.575
1418.27039	18985.175
1421.71177	18619.575
1425.15083	18220.175
1428.58758	18056.075
1432.02203	18197.675
1435.45416	18544.375
1438.88399	18845.375
1442.31151	18986.375
1445.73673	19063.275
1449.15965	19093.675
1452.58027	19053.875
1455.9986	18942.075
1459.41463	18949.575
1462.82837	19134.375
1466.23982	19480.075
1469.64898	19854.175
1473.05586	20188.075
1476.46045	20414.675
1479.86276	20509.075
1483.26279	20536.675
1486.66054	20639.675
1490.05602	20941.975
1493.44922	21396.075
1496.84016	21983.075
1500.22882	22839.975
1503.61521	24053.375
1506.99934	25475.775
1510.38121	26600.375
1513.76081	26786.475
1517.13816	25707.875
1520.51324	24017.375
1523.88607	22426.575
1527.25665	21523.975
1530.62498	21105.875
1533.99105	20813.575
1537.35488	20500.175
1540.71647	20141.575
1544.07581	19797.075
1547.4329	19480.075
1550.78776	19250.375
1554.14038	19090.275
1557.49077	19030.775
1560.83892	19062.975
1564.18484	19184.875
1567.52853	19447.075
1570.86999	19713.575
1574.20922	19987.175
1577.54624	20061.875
1580.88103	19767.775
1584.2136	19464.275
1587.54395	19523.575
1590.87208	20186.475
1594.19801	21267.375
1597.52172	22409.975
1600.84321	22986.675
1604.16251	22384.675
1607.47959	21020.775
1610.79447	19473.075
1614.10715	18073.175
1617.41763	17004.575
1620.7259	16243.275
1624.03199	15855.575
1627.33587	15909.575
1630.63757	16240.475
1633.93707	17015.575
1637.23439	18218.775
1640.52951	20068.675
1643.82246	22370.475
1647.11321	24394.275
1650.40179	25091.475
1653.68819	23653.175
1656.97241	20787.375
1660.25446	18055.775
1663.53433	16120.775
1666.81203	14981.475
1670.08756	14280.175
1673.36092	13900.775
1676.63211	13583.775
1679.90115	13403.675
1683.16801	13234.075
1686.43272	13142.775
1689.69527	13018.075
1692.95567	12882.675
1696.2139	12730.075
1699.46999	12609.675
1702.72392	12553.475
1705.97571	12574.475
1709.22535	12669.375
1712.47284	12712.275
1715.71819	12730.475
1718.96139	12739.175
1722.20246	12701.975
1725.44139	12675.075
1728.67818	12642.075
1731.91284	12577.675
1735.14537	12533.575
1738.37576	12468.075
1741.60403	12410.275
1744.83017	12373.475
1748.05418	12341.175
1751.27607	12301.475
1754.49584	12233.075
1757.71349	12209.575
1760.92903	12147.675
1764.14244	12127.975
1767.35375	12143.275
1770.56294	12105.575
1773.77002	12092.875
1776.97499	12118.575
1780.17785	12129.175
1783.37861	12175.075
1786.57727	12160.675
1789.77382	12142.075
1792.96828	12138.475
1796.16064	12110.675
1799.3509	12070.375
1802.53907	12060.075
1805.72514	12061.275
1808.90913	12036.375
1812.09102	12056.475
1815.27083	11994.875
1818.44856	12009.775
1821.6242	11951.575
1824.79776	11977.975
1827.96924	11958.675
1831.13864	11973.475
1834.30597	11947.975
1837.47122	11946.875
1840.6344	11932.675
1843.7955	11942.775
1846.95454	11927.775
1850.11151	11941.675
1853.26642	11909.775
1856.41926	11915.275
1859.57004	11912.375
1862.71876	11895.575
1865.86542	11873.475
1869.01003	11867.175
1872.15258	11841.075
1875.29308	11832.875
1878.43152	11824.075
1881.56792	11807.775
1884.70227	11807.775
1887.83457	11810.475
1890.96482	11792.075
1894.09304	11789.475
1897.21921	11773.875
1900.34335	11783.475
1903.46544	11747.475
1906.58551	11765.475
1909.70353	11742.275
1912.81953	11721.375
1915.93349	11706.875
1919.04543	11682.975
1922.15534	11672.575
1925.26322	11647.675
1928.36908	11631.675
1931.47292	11608.375
1934.57473	11598.875
1937.67453	11563.275
1940.77232	11571.675
1943.86808	11524.975
1946.96184	11506.775
1950.05358	11454.875
1953.14331	11411.575
1956.23103	11413.675
1959.31675	11340.375
1962.40046	11335.675
1965.48217	11308.475
1968.56188	11280.775
1971.63959	11225.375
1974.7153	11230.475
1977.78901	11226.375
1980.86073	11188.775
1983.93046	11136.775
1986.99819	11111.075
1990.06394	11080.275
1993.1277	11041.775
1996.18947	11031.475
1999.24925	10990.675
2002.30706	10972.475
2005.36288	10925.875
2008.41672	10892.075
2011.46859	10849.175
2014.51848	10841.875
2017.56639	10845.475
2020.61233	10802.775
2023.6563	10779.775
2026.6983	10769.175
2029.73833	10740.675
2032.7764	10731.675
2035.8125	10675.475
2038.84664	10682.475
2041.87881	10694.075
2044.90903	10687.375
2047.93729	10629.875
2050.96359	10636.875
2053.98794	10625.475
2057.01034	10605.475
2060.03078	10645.375
2063.04927	10590.675
2066.06582	10637.475
2069.08042	10586.675
2072.09307	10568.275
2075.10378	10587.875
2078.11255	10576.275
2081.11938	10569.275
2084.12426	10560.775
2087.12722	10572.275
2090.12824	10570.475
2093.12732	10582.475
2096.12447	10553.975
2099.11969	10560.175
2102.11299	10578.775
2105.10435	10586.875
2108.09379	10582.575
2111.08131	10602.275
2114.0669	10581.775
2117.05057	10601.775
2120.03233	10621.475
2123.01216	10626.275
2125.99008	10624.675
2128.96609	10652.875
2131.94018	10658.075
2134.91236	10667.775
2137.88263	10688.875
2140.851	10703.375
2143.81746	10679.275
2146.78201	10682.175
2149.74466	10694.775
2152.7054	10695.275
2155.66425	10712.575
2158.6212	10697.075
2161.57625	10688.275
2164.52941	10711.575
2167.48067	10705.475
2170.43004	10687.075
2173.37752	10715.975
2176.32311	10709.175
2179.26681	10693.275
2182.20863	10706.675
2185.14856	10735.375
2188.08661	10728.375
2191.02278	10742.275
2193.95707	10730.875
2196.88948	10722.775
2199.82001	10711.575
2202.74867	10715.475
2205.67545	10695.375
2208.60037	10712.675
2211.52341	10674.475
2214.44458	10677.375
2217.36388	10662.575
2220.28132	10660.175
2223.1969	10650.575
2226.11061	10618.275
2229.02246	10576.275
2231.93245	10573.175
2234.84058	10562.575
2237.74686	10565.575
2240.65128	10547.775
2243.55385	10543.275
2246.45456	10535.575
2249.35343	10524.875
2252.25044	10525.075
2255.14561	10517.075
2258.03893	10500.175
2260.93041	10498.675
2263.82004	10481.075
2266.70783	10453.175
2269.59378	10428.875
2272.4779	10396.275
2275.36017	10390.475
2278.24061	10370.575
2281.11922	10366.875
2283.996	10340.475
2286.87094	10324.375
2289.74405	10312.575
2292.61534	10317.275
2295.4848	10299.375
2298.35243	10311.975
2301.21824	10324.575
2304.08223	10311.075
2306.94439	10333.375
2309.80474	10299.475
2312.66327	10313.775
2315.51999	10324.375
2318.37489	10278.675
2321.22797	10278.975
2324.07925	10295.375
2326.92871	10288.075
2329.77637	10268.075
2332.62222	10251.275
2335.46626	10260.675
2338.3085	10241.275
2341.14893	10262.175
2343.98756	10260.875
2346.8244	10264.875
2349.65943	10223.675
2352.49267	10233.475
2355.32411	10235.775
2358.15376	10230.475
2360.98161	10225.875
2363.80768	10223.875
2366.63195	10217.975
2369.45444	10208.675
2372.27514	10194.475
2375.09405	10195.875
2377.91118	10188.075
2380.72652	10162.275
2383.54009	10145.075
2386.35187	10124.175
2389.16188	10095.575
2391.97011	10098.375
2394.77657	10094.775
2397.58125	10056.875
2400.38416	10054.275
2403.18529	10041.875
2405.98466	10029.275
2408.78226	9988.675
2411.57809	9979.575
2414.37216	9960.475
2417.16446	9968.075
2419.955	9952.675
2422.74378	9962.075
2425.5308	9923.975
2428.31606	9935.475
2431.09956	9943.975
2433.88131	9917.575
2436.6613	9918.375
2439.43954	9940.475
2442.21603	9931.675
2444.99077	9919.275
2447.76377	9942.075
2450.53501	9928.275
2453.30451	9934.075
2456.07226	9923.075
2458.83827	9914.275
2461.60254	9901.875
2464.36507	9908.475
2467.12586	9914.475
2469.88492	9920.075
2472.64224	9926.875
2475.39782	9903.075
2478.15167	9899.775
2480.90379	9915.275
2483.65417	9917.075
2486.40283	9938.575
2489.14976	9941.575
2491.89497	9940.975
2494.63845	9944.275
2497.3802	9938.375
2500.12024	9968.175
2502.85855	9940.375
2505.59514	9931.575
2508.33002	9919.875
2511.06318	9921.975
2513.79462	9899.275
2516.52435	9873.975
2519.25237	9870.075
2521.97867	9849.775
2524.70327	9828.675
2527.42616	9819.375
2530.14734	9853.575
2532.86681	9834.975
2535.58458	9850.475
2538.30065	9832.375
2541.01501	9829.175
2543.72768	9813.375
2546.43864	9809.075
2549.14791	9808.975
2551.85548	9792.175
2554.56136	9779.675
2557.26554	9767.875
2559.96803	9779.775
2562.66883	9769.575
2565.36794	9761.475
2568.06536	9748.975
2570.7611	9744.475
2573.45514	9744.975
2576.14751	9738.675
2578.83819	9680.175
2581.52719	9710.475
2584.21451	9686.075
2586.90015	9694.375
2589.58411	9664.075
2592.2664	9663.675
2594.94701	9664.675
2597.62594	9650.775
2600.30321	9676.575
2602.9788	9658.275
2605.65273	9660.475
2608.32498	9653.875
2610.99557	9649.675
2613.66449	9651.275
2616.33175	9625.575
2618.99734	9654.575
2621.66128	9620.875
2624.32355	9606.175
2626.98416	9643.975
2629.64311	9584.775
2632.30041	9620.475
2634.95605	9577.375
2637.61004	9572.675
2640.26238	9545.875
2642.91306	9571.275
2645.56209	9563.575
2648.20948	9551.275
2650.85521	9549.575
2653.4993	9538.175
2656.14175	9546.575
2658.78255	9535.775
2661.42171	9529.875
2664.05923	9566.875
2666.6951	9587.875
2669.32934	9577.275
2671.96194	9591.675
2674.59291	9597.275
2677.22224	9595.675
2679.84993	9596.075
2682.476	9560.075
2685.10043	9558.575
2687.72324	9555.975
2690.34441	9560.675
2692.96396	9555.375
2695.58188	9566.775
2698.19818	9553.375
2700.81285	9548.375
2703.4259	9545.075
2706.03733	9502.275
2708.64714	9541.675
2711.25533	9564.875
2713.86191	9551.575
2716.46687	9565.775
2719.07021	9581.575
2721.67194	9607.075
2724.27206	9618.275
2726.87057	9607.175
2729.46747	9624.275
2732.06276	9648.675
2734.65644	9645.975
2737.24852	9604.575
2739.83899	9619.675
2742.42786	9609.075
2745.01513	9606.675
2747.60079	9614.475
2750.18486	9602.875
2752.76733	9603.075
2755.3482	9577.675
2757.92747	9571.475
2760.50515	9561.175
2763.08123	9543.475
2765.65573	9555.675
2768.22863	9521.675
2770.79994	9514.575
2773.36967	9501.275
2775.9378	9498.175
2778.50435	9505.475
2781.06932	9511.475
2783.6327	9550.075
2786.1945	9515.475
2788.75471	9533.775
2791.31335	9500.975
2793.87041	9476.075
2796.42589	9441.575
2798.97979	9453.175
2801.53212	9437.375
2804.08288	9438.175
2806.63206	9399.075
2809.17967	9390.075
2811.72571	9402.175
2814.27018	9371.675
2816.81308	9365.075
2819.35442	9353.775
2821.89419	9344.475
2824.43239	9351.675
2826.96904	9356.275
2829.50412	9349.075
2832.03763	9365.375
2834.56959	9386.875
2837.1	9370.375
2839.62884	9338.675
2842.15613	9364.675
2844.68186	9372.075
2847.20604	9379.975
2849.72867	9375.575
2852.24974	9366.975
2854.76927	9347.175
2857.28724	9342.375
2859.80367	9358.175
2862.31855	9347.375
2864.83189	9325.875
2867.34368	9344.975
2869.85393	9344.475
2872.36264	9336.875
2874.8698	9347.075
2877.37543	9361.775
2879.87952	9355.275
2882.38207	9345.275
2884.88308	9351.775
2887.38256	9365.875
2889.88051	9381.575
2892.37692	9364.875
2894.8718	9368.375
2897.36515	9388.975
2899.85698	9398.275
2902.34727	9415.475
2904.83604	9400.575
2907.32328	9434.575
2909.809	9436.275
2912.29319	9430.475
2914.77587	9448.275
2917.25702	9453.775
2919.73665	9448.375
2922.21476	9445.275
2924.69136	9446.375
2927.16644	9463.075
2929.64	9436.375
2932.11205	9429.875
2934.58258	9381.675
2937.05161	9401.475
2939.51912	9392.075
2941.98513	9422.575
2944.44962	9383.075
2946.91261	9363.275
2949.37409	9361.775
2951.83407	9337.175
2954.29254	9342.075
2956.74951	9351.675
2959.20498	9313.075
2961.65895	9309.275
2964.11142	9286.475
2966.56239	9277.375
2969.01186	9291.575
2971.45984	9266.075
2973.90632	9261.175
2976.35131	9222.175
2978.7948	9217.275
2981.23681	9209.175
2983.67732	9210.875
2986.11635	9172.075
2988.55388	9175.175
2990.98993	9182.175
2993.4245	9138.575
2995.85758	9135.675
2998.28917	9107.375
3000.71928	9098.275
3003.14791	9073.675
3005.57506	9060.975
3008.00073	9060.475
3010.42493	9066.375
3012.84764	9041.975
3015.26888	9042.475
3017.68865	9027.675
3020.10694	9027.975
3022.52376	8996.175
3024.9391	9031.975
3027.35298	8982.975
3029.76539	8979.975
3032.17632	8975.475
3034.5858	8970.175
3036.9938	8950.975
3039.40034	8945.975
3041.80542	8949.775
3044.20903	8933.775
3046.61118	8909.675
3049.01187	8924.875
3051.4111	8939.575
3053.80888	8914.375
3056.20519	8913.875
3058.60005	8904.875
3060.99345	8901.375
3063.3854	8875.375
3065.7759	8855.075
3068.16494	8841.575
3070.55254	8804.475
3072.93868	8768.075
3075.32338	8770.375
3077.70662	8760.575
3080.08842	8753.575
3082.46878	8761.875
3084.84769	8722.775
3087.22515	8710.975
3089.60118	8746.675
3091.97576	8742.275
3094.3489	8738.775
3096.72061	8745.275
3099.09087	8750.075
3101.4597	8749.375
3103.82709	8754.575
3106.19305	8769.775
3108.55757	8750.175
3110.92066	8733.875
3113.28232	8727.875
3115.64255	8690.875
3118.00134	8697.975
3120.35871	8686.475
3122.71466	8693.575
3125.06917	8669.275
3127.42226	8656.075
3129.77393	8644.275
3132.12417	8654.675
3134.47299	8652.675
3136.82039	8636.375
3139.16636	8640.875
3141.51092	8638.075
3143.85406	8641.975
3146.19579	8644.675
3148.53609	8664.575
3150.87499	8678.875
3153.21246	8683.775
3155.54853	8738.775
3157.88318	8713.475
3160.21642	8727.575
3162.54826	8723.675
3164.87868	8695.075
3167.2077	8716.675
3169.5353	8718.475
3171.86151	8718.675
3174.18631	8706.775
3176.5097	8709.875
3178.83169	8687.275
3181.15228	8692.475
3183.47147	8685.475
3185.78926	8711.075
3188.10565	8679.375
3190.42065	8700.575
3192.73424	8675.875
3195.04645	8652.275
3197.35725	8666.975
3199.66667	8672.375
3201.97469	8669.975
3204.28132	8677.975
3206.58656	8677.375
3208.8904	8687.575
3211.19287	8697.675
3213.49394	8702.075
3215.79363	8714.575
3218.09193	8722.875
3220.38884	8730.975
3222.68438	8713.475
3224.97853	8709.275
3227.2713	8710.275
3229.56269	8718.875
3231.8527	8702.575
3234.14133	8678.675
3236.42858	8683.075
3238.71446	8649.175
3240.99896	8675.075
3243.28209	8667.475
3245.56384	8617.475
3247.84423	8628.775
3250.12324	8648.075
3252.40088	8626.075
3254.67715	8654.875
3256.95205	8644.475
3259.22558	8637.775
3261.49775	8634.075
3263.76855	8611.475
3266.03799	8630.575
3268.30606	8584.275
3270.57277	8569.675
3272.83812	8575.975
3275.10211	8551.775
3277.36474	8546.775
3279.62601	8555.075
3281.88593	8533.375
3284.14448	8541.375
3286.40168	8548.075
3288.65753	8532.275
3290.91202	8528.575
3293.16516	8536.675
3295.41695	8502.475
3297.66738	8469.275
3299.91647	8430.275
3302.16421	8399.375
3304.4106	8364.975
3306.65564	8303.775
3308.89933	8258.975
3311.14169	8199.875
3313.38269	8129.775
3315.62236	8088.175
3317.86068	8029.575
3320.09766	7946.875
3322.3333	7917.975
3324.5676	7894.075
3326.80056	7746.375
3329.03219	7719.075
3331.26248	2.575
3333.49143	-0.825
3335.71905	0.775
