Data from AgNPs_FTO_APTES_UA_50uM_CRN_500uM_R6G_10uM_NaF_0.1M_Addition_RamanShift__32__17-19-13-562.txt Node

Date: Mon Feb 21 17:19:13 GMT 2022
User: TCL
Spectrometer: QEP01345
Trigger mode: 4
Integration Time (sec): 7.000000E0
Scans to average: 10
Electric dark correction enabled: true
Nonlinearity correction enabled: false
Boxcar width: 0
XAxis mode: Raman Shifts
Number of Pixels in Spectrum: 1044
>>>>>Begin Spectral Data<<<<<
46.04893	0.15
50.45542	-0.35
54.85868	-0.25
59.25871	-2.35
63.6555	46.35
68.04907	49.95
72.43941	57.05
76.82654	56.65
81.21044	61.15
85.59113	60.85
89.96862	64.55
94.34289	64.85
98.71396	72.15
103.08183	74.65
107.4465	75.55
111.80798	76.85
116.16626	76.35
120.52136	79.35
124.87327	77.55
129.222	81.25
133.56755	86.95
137.90993	85.85
142.24913	92.75
146.58517	99.15
150.91804	112.55
155.24774	128.35
159.57429	160.85
163.89768	203.75
168.21792	269.35
172.53501	354.55
176.84895	491.85
181.15975	682.75
185.46741	950.75
189.77193	1315.85
194.07331	1754.25
198.37157	2262.95
202.6667	2798.65
206.9587	3344.75
211.24758	3894.85
215.53334	4509.35
219.81599	5201.55
224.09553	6001.75
228.37195	6923.75
232.64527	7909.95
236.91549	8868.15
241.18261	9717.55
245.44663	10368.05
249.70755	10834.45
253.96539	11184.05
258.22014	11382.55
262.4718	11475.95
266.72039	11488.35
270.96589	11419.45
275.20832	11186.55
279.44768	10830.35
283.68397	10488.55
287.91719	10286.35
292.14735	10440.95
296.37445	10994.75
300.59849	11993.55
304.81948	13124.85
309.03742	14013.35
313.25231	14155.35
317.46415	13109.75
321.67296	11447.75
325.87872	10025.55
330.08145	9349.25
334.28114	9338.35
338.47781	9635.45
342.67145	10111.35
346.86207	10922.15
351.04966	12194.65
355.23424	13583.65
359.4158	14520.35
363.59435	14910.85
367.76989	14936.25
371.94243	14710.75
376.11196	14455.45
380.27849	14156.75
384.44203	13752.05
388.60257	13269.45
392.76012	12924.65
396.91468	12940.75
401.06626	13374.55
405.21485	13714.75
409.36047	13104.65
413.50311	11718.55
417.64277	10443.95
421.77947	9656.65
425.9132	9299.15
430.04396	9161.55
434.17176	9183.95
438.2966	9381.65
442.41849	9708.35
446.53742	10095.65
450.6534	10428.25
454.76644	10585.65
458.87653	10488.15
462.98368	10301.85
467.08789	10021.25
471.18916	9637.15
475.2875	9214.05
479.38291	8878.75
483.4754	8673.85
487.56496	8519.45
491.6516	8431.45
495.73531	8429.75
499.81612	8539.55
503.89401	8748.05
507.96899	9075.85
512.04106	9476.05
516.11023	9967.95
520.1765	10323.95
524.23987	10297.65
528.30034	9915.55
532.35792	9475.05
536.41261	9057.65
540.46441	8587.15
544.51333	8336.45
548.55936	8330.95
552.60252	8642.45
556.64279	9014.05
560.6802	9261.35
564.71473	9667.55
568.7464	10606.05
572.7752	11013.65
576.80114	10088.65
580.82422	8975.55
584.84444	8486.75
588.86181	8369.45
592.87633	8431.65
596.888	8649.75
600.89682	9301.65
604.9028	11748.85
608.90594	18636.55
612.90624	28037.35
616.90371	26891.45
620.89834	15440.75
624.89015	10006.05
628.87913	9024.15
632.86528	9244.95
636.84862	9704.75
640.82913	9460.05
644.80683	8597.45
648.78172	7971.05
652.75379	8018.15
656.72306	8753.45
660.68952	9685.95
664.65319	9396.95
668.61405	8311.75
672.57211	7770.65
676.52738	7763.25
680.47986	7762.15
684.42955	7631.45
688.37646	7500.95
692.32058	7503.85
696.26192	7601.65
700.20048	7781.15
704.13626	7919.35
708.06928	7837.75
711.99952	7733.85
715.927	7695.65
719.85171	7826.15
723.77365	7912.25
727.69284	7812.95
731.60928	7699.25
735.52295	7685.95
739.43388	7724.85
743.34206	7745.75
747.24749	7728.55
751.15017	7758.45
755.05012	8003.65
758.94733	8844.75
762.8418	10981.75
766.73354	14571.15
770.62254	18324.35
774.50882	20765.95
778.39237	20050.25
782.27321	16032.75
786.15132	11749.25
790.02671	9318.65
793.89938	8360.15
797.76935	7977.55
801.6366	7797.55
805.50115	7724.25
809.36299	7708.55
813.22213	7685.65
817.07857	7623.95
820.93231	7572.25
824.78336	7585.05
828.63172	7666.25
832.47738	7679.05
836.32036	7582.15
840.16066	7441.95
843.99827	7331.25
847.8332	7315.45
851.66546	7349.75
855.49504	7351.15
859.32195	7316.45
863.1462	7289.65
866.96777	7232.25
870.78668	7218.15
874.60293	7267.85
878.41652	7372.05
882.22745	7490.45
886.03573	7600.25
889.84136	7577.85
893.64433	7470.95
897.44466	7450.65
901.24235	7439.15
905.0374	7353.35
908.8298	7243.25
912.61957	7124.35
916.40671	7134.95
920.19121	7182.15
923.97308	7260.75
927.75233	7511.65
931.52895	7815.75
935.30295	7733.45
939.07433	7261.15
942.84309	6845.45
946.60924	6562.55
950.37278	6484.15
954.13371	6403.95
957.89203	6397.95
961.64774	6387.25
965.40086	6356.95
969.15137	6336.25
972.89929	6331.75
976.64461	6316.75
980.38733	6299.25
984.12747	6328.75
987.86502	6350.05
991.59999	6391.05
995.33237	6448.65
999.06217	6583.85
1002.78939	6803.85
1006.51404	7053.55
1010.23611	7326.95
1013.95561	7503.75
1017.67255	7458.95
1021.38692	7293.85
1025.09872	7096.65
1028.80796	6944.05
1032.51465	6911.95
1036.21877	7004.95
1039.92035	7085.65
1043.61937	7197.05
1047.31584	7268.45
1051.00976	7276.85
1054.70114	7204.55
1058.38998	7158.35
1062.07627	7144.05
1065.76003	7170.25
1069.44126	7186.85
1073.11995	7280.75
1076.79611	7526.35
1080.46974	7955.75
1084.14085	8507.05
1087.80943	9066.55
1091.47549	9228.05
1095.13903	8860.05
1098.80005	8212.75
1102.45857	7786.55
1106.11456	7713.25
1109.76805	7971.75
1113.41903	8485.05
1117.06751	9347.95
1120.71348	10436.25
1124.35696	11620.35
1127.99793	12374.15
1131.63641	11926.15
1135.2724	10586.25
1138.90589	9424.55
1142.5369	8745.85
1146.16542	8279.85
1149.79145	8005.75
1153.415	7901.05
1157.03607	7961.35
1160.65467	8235.25
1164.27079	8715.85
1167.88443	9535.65
1171.49561	10894.25
1175.10432	13379.65
1178.71056	16692.55
1182.31434	19042.35
1185.91565	19181.75
1189.51451	17873.15
1193.11091	15810.55
1196.70485	13806.45
1200.29634	12615.75
1203.88538	11786.35
1207.47197	10493.85
1211.05612	9365.05
1214.63782	8692.65
1218.21708	8373.55
1221.79391	8260.15
1225.36829	8203.05
1228.94024	8183.55
1232.50976	8165.25
1236.07685	8217.65
1239.6415	8287.05
1243.20374	8419.95
1246.76355	8543.95
1250.32093	8711.95
1253.8759	8973.75
1257.42845	9352.85
1260.97859	9878.95
1264.52631	10466.55
1268.07163	11025.55
1271.61453	11477.65
1275.15503	11714.85
1278.69312	11671.65
1282.22882	11594.15
1285.76211	12031.15
1289.29301	12684.05
1292.82151	13348.75
1296.34761	14110.45
1299.87133	15447.45
1303.39266	17960.25
1306.9116	21904.75
1310.42815	26003.65
1313.94233	27500.05
1317.45412	25261.15
1320.96354	21342.45
1324.47058	17690.35
1327.97525	14942.65
1331.47754	13334.25
1334.97747	12825.25
1338.47502	13123.65
1341.97022	14203.05
1345.46305	16107.85
1348.95352	18827.55
1352.44163	22217.25
1355.92738	27014.85
1359.41078	33858.45
1362.89183	39131.95
1366.37053	36184.75
1369.84688	28054.95
1373.32088	20968.15
1376.79254	16528.45
1380.26186	14080.15
1383.72883	12721.75
1387.19347	11694.15
1390.65578	10732.45
1394.11575	9968.65
1397.57339	9538.35
1401.0287	9397.45
1404.48168	9361.05
1407.93234	9368.35
1411.38068	9510.15
1414.82669	9691.25
1418.27039	9806.15
1421.71177	9735.35
1425.15083	9614.05
1428.58758	9552.05
1432.02203	9721.95
1435.45416	9831.25
1438.88399	9859.35
1442.31151	9762.55
1445.73673	9815.05
1449.15965	9922.05
1452.58027	9825.45
1455.9986	9640.85
1459.41463	9582.45
1462.82837	9772.75
1466.23982	10117.35
1469.64898	10439.05
1473.05586	10633.75
1476.46045	10770.15
1479.86276	11077.55
1483.26279	11638.75
1486.66054	12304.85
1490.05602	13207.15
1493.44922	14663.05
1496.84016	17011.85
1500.22882	20829.55
1503.61521	26154.25
1506.99934	32117.65
1510.38121	36959.25
1513.76081	38238.25
1517.13816	34217.85
1520.51324	27083.75
1523.88607	20722.05
1527.25665	16673.95
1530.62498	14487.25
1533.99105	13206.25
1537.35488	12447.75
1540.71647	12049.85
1544.07581	12027.65
1547.4329	12165.25
1550.78776	12402.35
1554.14038	12653.05
1557.49077	12906.15
1560.83892	13448.55
1564.18484	14317.45
1567.52853	15441.05
1570.86999	16317.25
1574.20922	16820.75
1577.54624	16484.95
1580.88103	14832.95
1584.2136	12618.55
1587.54395	11215.25
1590.87208	10905.45
1594.19801	11577.35
1597.52172	12763.55
1600.84321	13314.05
1604.16251	12697.55
1607.47959	11705.55
1610.79447	10701.45
1614.10715	9655.75
1617.41763	8832.45
1620.7259	8332.85
1624.03199	8171.15
1627.33587	8223.85
1630.63757	8495.25
1633.93707	9085.65
1637.23439	10108.05
1640.52951	11898.05
1643.82246	14763.85
1647.11321	18701.75
1650.40179	21689.75
1653.68819	21062.45
1656.97241	17175.35
1660.25446	12927.25
1663.53433	10109.25
1666.81203	8607.15
1670.08756	7686.85
1673.36092	7168.35
1676.63211	6828.35
1679.90115	6605.05
1683.16801	6434.75
1686.43272	6280.35
1689.69527	6174.55
1692.95567	6106.85
1696.2139	6043.45
1699.46999	6013.45
1702.72392	5998.95
1705.97571	5996.75
1709.22535	5981.75
1712.47284	5978.75
1715.71819	6005.05
1718.96139	5994.35
1722.20246	5985.65
1725.44139	5929.85
1728.67818	5834.25
1731.91284	5740.95
1735.14537	5654.05
1738.37576	5596.75
1741.60403	5553.15
1744.83017	5533.55
1748.05418	5496.45
1751.27607	5488.05
1754.49584	5463.75
1757.71349	5444.25
1760.92903	5412.85
1764.14244	5387.25
1767.35375	5360.15
1770.56294	5304.25
1773.77002	5286.35
1776.97499	5235.25
1780.17785	5211.05
1783.37861	5179.55
1786.57727	5173.95
1789.77382	5135.05
1792.96828	5137.15
1796.16064	5122.95
1799.3509	5109.85
1802.53907	5082.45
1805.72514	5068.35
1808.90913	5045.85
1812.09102	5008.25
1815.27083	4982.45
1818.44856	4961.55
1821.6242	4949.15
1824.79776	4928.05
1827.96924	4919.05
1831.13864	4915.25
1834.30597	4897.35
1837.47122	4885.75
1840.6344	4883.45
1843.7955	4859.55
1846.95454	4863.05
1850.11151	4857.45
1853.26642	4838.25
1856.41926	4835.85
1859.57004	4841.65
1862.71876	4837.75
1865.86542	4840.45
1869.01003	4830.65
1872.15258	4826.45
1875.29308	4824.45
1878.43152	4842.65
1881.56792	4843.95
1884.70227	4840.85
1887.83457	4809.85
1890.96482	4812.05
1894.09304	4808.65
1897.21921	4796.95
1900.34335	4794.55
1903.46544	4807.65
1906.58551	4788.85
1909.70353	4797.65
1912.81953	4790.85
1915.93349	4778.15
1919.04543	4757.95
1922.15534	4748.25
1925.26322	4740.95
1928.36908	4714.35
1931.47292	4697.75
1934.57473	4666.25
1937.67453	4644.45
1940.77232	4628.45
1943.86808	4623.45
1946.96184	4603.15
1950.05358	4600.95
1953.14331	4589.95
1956.23103	4558.95
1959.31675	4552.55
1962.40046	4554.75
1965.48217	4543.65
1968.56188	4545.95
1971.63959	4522.25
1974.7153	4519.05
1977.78901	4510.15
1980.86073	4483.45
1983.93046	4466.45
1986.99819	4451.15
1990.06394	4418.95
1993.1277	4399.45
1996.18947	4373.25
1999.24925	4337.95
2002.30706	4332.85
2005.36288	4316.95
2008.41672	4296.95
2011.46859	4294.05
2014.51848	4271.35
2017.56639	4262.75
2020.61233	4249.75
2023.6563	4244.05
2026.6983	4214.05
2029.73833	4201.45
2032.7764	4182.35
2035.8125	4176.65
2038.84664	4163.55
2041.87881	4152.85
2044.90903	4154.35
2047.93729	4137.55
2050.96359	4135.75
2053.98794	4128.65
2057.01034	4130.75
2060.03078	4117.35
2063.04927	4105.65
2066.06582	4100.55
2069.08042	4089.35
2072.09307	4086.55
2075.10378	4068.55
2078.11255	4076.65
2081.11938	4078.15
2084.12426	4065.15
2087.12722	4065.55
2090.12824	4056.15
2093.12732	4073.15
2096.12447	4071.05
2099.11969	4062.05
2102.11299	4068.05
2105.10435	4063.35
2108.09379	4078.35
2111.08131	4072.75
2114.0669	4076.35
2117.05057	4094.85
2120.03233	4086.25
2123.01216	4099.35
2125.99008	4098.75
2128.96609	4101.35
2131.94018	4110.05
2134.91236	4107.85
2137.88263	4088.75
2140.851	4097.35
2143.81746	4090.25
2146.78201	4076.65
2149.74466	4067.75
2152.7054	4076.55
2155.66425	4062.55
2158.6212	4049.75
2161.57625	4038.15
2164.52941	4055.95
2167.48067	4029.75
2170.43004	4026.15
2173.37752	4022.35
2176.32311	4037.55
2179.26681	4026.25
2182.20863	4023.35
2185.14856	4031.75
2188.08661	4027.55
2191.02278	4029.15
2193.95707	4017.75
2196.88948	3995.35
2199.82001	4001.75
2202.74867	3995.35
2205.67545	3981.45
2208.60037	3998.05
2211.52341	3972.45
2214.44458	3979.15
2217.36388	3968.95
2220.28132	3963.45
2223.1969	3935.95
2226.11061	3939.05
2229.02246	3918.05
2231.93245	3897.75
2234.84058	3891.75
2237.74686	3887.85
2240.65128	3885.75
2243.55385	3881.25
2246.45456	3894.15
2249.35343	3877.75
2252.25044	3888.15
2255.14561	3905.15
2258.03893	3906.55
2260.93041	3917.85
2263.82004	3927.05
2266.70783	3895.85
2269.59378	3890.15
2272.4779	3878.35
2275.36017	3874.75
2278.24061	3851.35
2281.11922	3835.15
2283.996	3841.95
2286.87094	3827.75
2289.74405	3812.15
2292.61534	3800.75
2295.4848	3780.95
2298.35243	3766.05
2301.21824	3757.65
2304.08223	3761.75
2306.94439	3763.55
2309.80474	3760.15
2312.66327	3758.25
2315.51999	3746.45
2318.37489	3734.35
2321.22797	3736.95
2324.07925	3730.15
2326.92871	3723.65
2329.77637	3727.35
2332.62222	3712.35
2335.46626	3721.85
2338.3085	3705.35
2341.14893	3706.65
2343.98756	3734.25
2346.8244	3726.35
2349.65943	3728.65
2352.49267	3749.65
2355.32411	3773.45
2358.15376	3781.35
2360.98161	3801.95
2363.80768	3825.55
2366.63195	3844.05
2369.45444	3864.75
2372.27514	3863.55
2375.09405	3858.45
2377.91118	3831.05
2380.72652	3792.45
2383.54009	3786.45
2386.35187	3750.05
2389.16188	3701.95
2391.97011	3688.65
2394.77657	3667.75
2397.58125	3641.75
2400.38416	3625.75
2403.18529	3603.35
2405.98466	3583.45
2408.78226	3577.95
2411.57809	3593.45
2414.37216	3583.05
2417.16446	3584.65
2419.955	3579.95
2422.74378	3570.25
2425.5308	3568.15
2428.31606	3573.75
2431.09956	3583.45
2433.88131	3582.05
2436.6613	3596.35
2439.43954	3583.75
2442.21603	3586.75
2444.99077	3597.65
2447.76377	3610.25
2450.53501	3610.35
2453.30451	3617.15
2456.07226	3622.95
2458.83827	3609.65
2461.60254	3613.25
2464.36507	3620.55
2467.12586	3601.65
2469.88492	3608.95
2472.64224	3604.55
2475.39782	3623.95
2478.15167	3637.65
2480.90379	3658.35
2483.65417	3679.65
2486.40283	3693.85
2489.14976	3726.05
2491.89497	3742.05
2494.63845	3748.25
2497.3802	3730.85
2500.12024	3724.45
2502.85855	3688.65
2505.59514	3660.05
2508.33002	3630.35
2511.06318	3592.45
2513.79462	3559.25
2516.52435	3522.85
2519.25237	3482.95
2521.97867	3467.25
2524.70327	3446.95
2527.42616	3446.35
2530.14734	3442.05
2532.86681	3440.65
2535.58458	3426.75
2538.30065	3438.15
2541.01501	3449.35
2543.72768	3447.65
2546.43864	3435.65
2549.14791	3457.95
2551.85548	3453.35
2554.56136	3444.95
2557.26554	3457.75
2559.96803	3460.15
2562.66883	3442.35
2565.36794	3433.05
2568.06536	3436.95
2570.7611	3429.05
2573.45514	3411.15
2576.14751	3393.25
2578.83819	3391.55
2581.52719	3380.25
2584.21451	3369.85
2586.90015	3361.35
2589.58411	3361.25
2592.2664	3351.55
2594.94701	3333.25
2597.62594	3320.95
2600.30321	3337.45
2602.9788	3346.05
2605.65273	3321.65
2608.32498	3341.45
2610.99557	3335.15
2613.66449	3336.65
2616.33175	3336.95
2618.99734	3341.35
2621.66128	3323.85
2624.32355	3322.05
2626.98416	3309.75
2629.64311	3304.45
2632.30041	3292.85
2634.95605	3266.75
2637.61004	3260.85
2640.26238	3272.25
2642.91306	3261.15
2645.56209	3263.05
2648.20948	3258.75
2650.85521	3241.05
2653.4993	3242.25
2656.14175	3244.65
2658.78255	3262.15
2661.42171	3264.95
2664.05923	3273.95
2666.6951	3274.15
2669.32934	3295.85
2671.96194	3294.15
2674.59291	3290.65
2677.22224	3298.85
2679.84993	3300.55
2682.476	3306.55
2685.10043	3311.65
2687.72324	3312.15
2690.34441	3292.85
2692.96396	3288.15
2695.58188	3296.65
2698.19818	3280.85
2700.81285	3289.25
2703.4259	3285.75
2706.03733	3296.55
2708.64714	3296.85
2711.25533	3310.15
2713.86191	3313.95
2716.46687	3313.35
2719.07021	3326.95
2721.67194	3344.05
2724.27206	3320.25
2726.87057	3318.75
2729.46747	3327.05
2732.06276	3307.55
2734.65644	3295.15
2737.24852	3296.15
2739.83899	3282.95
2742.42786	3283.25
2745.01513	3257.75
2747.60079	3260.85
2750.18486	3244.95
2752.76733	3233.85
2755.3482	3228.85
2757.92747	3216.95
2760.50515	3202.15
2763.08123	3201.75
2765.65573	3203.05
2768.22863	3201.95
2770.79994	3189.55
2773.36967	3183.45
2775.9378	3200.65
2778.50435	3194.55
2781.06932	3191.15
2783.6327	3202.05
2786.1945	3204.15
2788.75471	3208.05
2791.31335	3208.55
2793.87041	3209.45
2796.42589	3214.25
2798.97979	3211.85
2801.53212	3200.35
2804.08288	3226.95
2806.63206	3226.35
2809.17967	3238.05
2811.72571	3232.65
2814.27018	3256.65
2816.81308	3266.15
2819.35442	3286.05
2821.89419	3285.25
2824.43239	3287.85
2826.96904	3317.45
2829.50412	3309.75
2832.03763	3315.45
2834.56959	3329.25
2837.1	3311.55
2839.62884	3351.15
2842.15613	3368.15
2844.68186	3416.85
2847.20604	3452.55
2849.72867	3509.45
2852.24974	3528.15
2854.76927	3520.65
2857.28724	3532.15
2859.80367	3519.15
2862.31855	3530.95
2864.83189	3526.25
2867.34368	3538.95
2869.85393	3506.65
2872.36264	3527.15
2874.8698	3531.35
2877.37543	3524.75
2879.87952	3513.35
2882.38207	3494.05
2884.88308	3488.35
2887.38256	3482.75
2889.88051	3465.35
2892.37692	3466.55
2894.8718	3466.75
2897.36515	3469.55
2899.85698	3456.25
2902.34727	3489.25
2904.83604	3466.25
2907.32328	3480.45
2909.809	3480.15
2912.29319	3482.05
2914.77587	3472.75
2917.25702	3464.45
2919.73665	3462.75
2922.21476	3464.05
2924.69136	3443.05
2927.16644	3438.95
2929.64	3427.85
2932.11205	3429.35
2934.58258	3399.45
2937.05161	3386.45
2939.51912	3371.05
2941.98513	3344.75
2944.44962	3315.95
2946.91261	3288.35
2949.37409	3274.15
2951.83407	3264.55
2954.29254	3246.55
2956.74951	3229.25
2959.20498	3224.65
2961.65895	3215.55
2964.11142	3218.95
2966.56239	3187.05
2969.01186	3182.35
2971.45984	3159.85
2973.90632	3151.55
2976.35131	3144.25
2978.7948	3140.35
2981.23681	3127.45
2983.67732	3114.55
2986.11635	3098.75
2988.55388	3097.35
2990.98993	3086.15
2993.4245	3087.55
2995.85758	3074.55
2998.28917	3080.65
3000.71928	3087.25
3003.14791	3077.55
3005.57506	3067.45
3008.00073	3060.35
3010.42493	3056.85
3012.84764	3062.85
3015.26888	3058.95
3017.68865	3066.15
3020.10694	3055.15
3022.52376	3052.85
3024.9391	3044.85
3027.35298	3038.75
3029.76539	3023.45
3032.17632	3022.35
3034.5858	3023.55
3036.9938	2984.95
3039.40034	2993.85
3041.80542	2976.75
3044.20903	2979.05
3046.61118	2968.35
3049.01187	2958.05
3051.4111	2957.95
3053.80888	2946.65
3056.20519	2940.65
3058.60005	2940.65
3060.99345	2939.95
3063.3854	2935.15
3065.7759	2918.25
3068.16494	2920.95
3070.55254	2909.85
3072.93868	2903.15
3075.32338	2890.85
3077.70662	2885.05
3080.08842	2877.85
3082.46878	2879.45
3084.84769	2854.45
3087.22515	2861.95
3089.60118	2859.55
3091.97576	2861.45
3094.3489	2849.55
3096.72061	2855.05
3099.09087	2849.25
3101.4597	2862.15
3103.82709	2843.05
3106.19305	2842.65
3108.55757	2848.75
3110.92066	2835.85
3113.28232	2820.25
3115.64255	2838.65
3118.00134	2839.65
3120.35871	2824.45
3122.71466	2829.25
3125.06917	2828.85
3127.42226	2826.85
3129.77393	2831.85
3132.12417	2835.05
3134.47299	2839.05
3136.82039	2841.85
3139.16636	2849.05
3141.51092	2841.35
3143.85406	2854.85
3146.19579	2864.55
3148.53609	2863.25
3150.87499	2876.75
3153.21246	2891.25
3155.54853	2888.65
3157.88318	2890.75
3160.21642	2904.45
3162.54826	2900.85
3164.87868	2904.35
3167.2077	2912.55
3169.5353	2905.75
3171.86151	2919.45
3174.18631	2916.55
3176.5097	2914.55
3178.83169	2915.95
3181.15228	2909.55
3183.47147	2912.85
3185.78926	2922.75
3188.10565	2916.15
3190.42065	2923.35
3192.73424	2927.25
3195.04645	2923.35
3197.35725	2948.75
3199.66667	2967.35
3201.97469	2954.45
3204.28132	2974.65
3206.58656	2970.45
3208.8904	2982.85
3211.19287	2989.65
3213.49394	2994.95
3215.79363	3000.55
3218.09193	3015.75
3220.38884	3009.25
3222.68438	3009.25
3224.97853	3024.65
3227.2713	3023.55
3229.56269	3023.45
3231.8527	3005.35
3234.14133	2985.65
3236.42858	3000.05
3238.71446	2999.15
3240.99896	2987.25
3243.28209	2993.85
3245.56384	2992.05
3247.84423	2987.85
3250.12324	3002.75
3252.40088	2985.95
3254.67715	2971.45
3256.95205	2988.85
3259.22558	2983.45
3261.49775	2985.15
3263.76855	2976.65
3266.03799	2980.65
3268.30606	2987.65
3270.57277	2974.25
3272.83812	2966.95
3275.10211	2963.05
3277.36474	2957.45
3279.62601	2956.25
3281.88593	2943.05
3284.14448	2954.75
3286.40168	2955.25
3288.65753	2942.45
3290.91202	2953.25
3293.16516	2948.25
3295.41695	2947.45
3297.66738	2923.55
3299.91647	2928.65
3302.16421	2910.25
3304.4106	2890.45
3306.65564	2876.35
3308.89933	2845.65
3311.14169	2831.85
3313.38269	2800.95
3315.62236	2775.75
3317.86068	2756.95
3320.09766	2728.65
3322.3333	2715.45
3324.5676	2692.25
3326.80056	2655.85
3329.03219	2637.45
3331.26248	2.45
3333.49143	-0.75
3335.71905	-0.35
