Data from AgNPs_FTO_APTES_UA_50uM_CRN_1uM_R6G_10uM_NaF_0.1M_Addition_RamanShift__15__11-33-04-725.txt Node

Date: Mon Feb 21 11:33:04 GMT 2022
User: TCL
Spectrometer: QEP01345
Trigger mode: 4
Integration Time (sec): 7.000000E0
Scans to average: 10
Electric dark correction enabled: true
Nonlinearity correction enabled: false
Boxcar width: 0
XAxis mode: Raman Shifts
Number of Pixels in Spectrum: 1044
>>>>>Begin Spectral Data<<<<<
46.04893	0.05
50.45542	-0.75
54.85868	0.15
59.25871	-1.15
63.6555	66.05
68.04907	72.85
72.43941	73.55
76.82654	75.95
81.21044	80.95
85.59113	85.25
89.96862	83.55
94.34289	90.25
98.71396	93.15
103.08183	99.25
107.4465	98.95
111.80798	101.85
116.16626	98.65
120.52136	97.05
124.87327	110.75
129.222	109.65
133.56755	117.95
137.90993	126.75
142.24913	135.85
146.58517	152.15
150.91804	179.95
155.24774	213.95
159.57429	262.35
163.89768	334.55
168.21792	446.55
172.53501	607.95
176.84895	853.65
181.15975	1193.25
185.46741	1685.65
189.77193	2326.55
194.07331	3111.05
198.37157	3999.85
202.6667	4952.45
206.9587	5888.35
211.24758	6813.15
215.53334	7739.65
219.81599	8740.65
224.09553	9872.85
228.37195	11122.65
232.64527	12495.05
236.91549	13868.85
241.18261	15253.15
245.44663	16491.55
249.70755	17604.85
253.96539	18500.95
258.22014	19352.75
262.4718	19987.85
266.72039	20465.95
270.96589	20709.25
275.20832	20711.65
279.44768	20564.55
283.68397	20265.75
287.91719	20101.35
292.14735	19999.15
296.37445	20088.25
300.59849	20261.95
304.81948	20515.85
309.03742	20684.75
313.25231	20535.15
317.46415	20036.55
321.67296	19316.85
325.87872	18671.35
330.08145	18358.75
334.28114	18311.05
338.47781	18451.95
342.67145	18741.55
346.86207	19154.55
351.04966	19682.95
355.23424	20316.95
359.4158	20813.95
363.59435	21167.05
367.76989	21371.35
371.94243	21453.75
376.11196	21453.25
380.27849	21501.35
384.44203	21541.35
388.60257	21639.95
392.76012	21742.35
396.91468	21937.25
401.06626	22331.75
405.21485	22585.45
409.36047	22429.75
413.50311	21901.75
417.64277	21493.25
421.77947	21220.85
425.9132	21233.25
430.04396	21230.35
434.17176	21312.65
438.2966	21467.55
442.41849	21811.55
446.53742	22310.45
450.6534	22872.85
454.76644	23359.65
458.87653	23550.65
462.98368	23489.55
467.08789	23302.05
471.18916	23010.05
475.2875	22646.15
479.38291	22461.05
483.4754	22324.75
487.56496	22106.75
491.6516	21860.95
495.73531	21616.15
499.81612	21459.95
503.89401	21604.75
507.96899	21708.15
512.04106	21689.15
516.11023	21676.05
520.1765	21549.55
524.23987	21437.75
528.30034	21257.75
532.35792	21030.25
536.41261	20770.95
540.46441	20534.55
544.51333	20454.85
548.55936	20643.85
552.60252	21061.85
556.64279	21540.45
560.6802	21954.75
564.71473	22246.75
568.7464	22746.85
572.7752	23298.35
576.80114	23570.75
580.82422	23693.35
584.84444	23888.85
588.86181	24081.65
592.87633	24288.15
596.888	24260.75
600.89682	24134.85
604.9028	25046.15
608.90594	28172.25
612.90624	31947.65
616.90371	30366.75
620.89834	24453.35
624.89015	21616.55
628.87913	21110.85
632.86528	21276.65
636.84862	21430.35
640.82913	21171.15
644.80683	20596.05
648.78172	20123.25
652.75379	20038.75
656.72306	20429.85
660.68952	20964.65
664.65319	20888.05
668.61405	20354.65
672.57211	20259.95
676.52738	20300.55
680.47986	20323.75
684.42955	20149.85
688.37646	20137.55
692.32058	20243.65
696.26192	20442.85
700.20048	20691.55
704.13626	20760.45
708.06928	20705.65
711.99952	20560.95
715.927	20523.05
719.85171	20604.55
723.77365	20591.95
727.69284	20354.65
731.60928	20118.45
735.52295	19969.65
739.43388	19985.55
743.34206	20049.45
747.24749	20104.85
751.15017	20297.65
755.05012	20557.75
758.94733	21169.15
762.8418	22481.45
766.73354	24589.45
770.62254	26723.85
774.50882	27468.15
778.39237	26383.95
782.27321	24217.55
786.15132	22288.05
790.02671	21033.35
793.89938	20421.75
797.76935	20143.35
801.6366	20012.45
805.50115	19945.25
809.36299	19856.25
813.22213	19694.35
817.07857	19588.65
820.93231	19527.35
824.78336	19465.95
828.63172	19447.75
832.47738	19399.85
836.32036	19370.05
840.16066	19371.05
843.99827	19374.65
847.8332	19374.65
851.66546	19351.15
855.49504	19305.45
859.32195	19373.55
863.1462	19330.35
866.96777	19270.95
870.78668	19241.45
874.60293	19284.95
878.41652	19307.15
882.22745	19399.45
886.03573	19430.15
889.84136	19445.15
893.64433	19396.25
897.44466	19333.85
901.24235	19252.05
905.0374	19087.45
908.8298	19002.75
912.61957	18935.95
916.40671	19070.45
920.19121	19222.05
923.97308	19336.65
927.75233	19485.95
931.52895	19449.25
935.30295	19264.55
939.07433	18924.05
942.84309	18626.55
946.60924	18490.15
950.37278	18436.95
954.13371	18419.45
957.89203	18377.05
961.64774	18308.15
965.40086	18247.65
969.15137	18222.45
972.89929	18187.35
976.64461	18139.45
980.38733	18139.95
984.12747	18192.15
987.86502	18336.95
991.59999	18507.45
995.33237	18772.95
999.06217	19155.25
1002.78939	19567.75
1006.51404	19975.25
1010.23611	20329.65
1013.95561	20512.45
1017.67255	20529.35
1021.38692	20304.25
1025.09872	19999.25
1028.80796	19813.35
1032.51465	19886.75
1036.21877	20028.75
1039.92035	20130.95
1043.61937	20109.85
1047.31584	19997.25
1051.00976	19841.45
1054.70114	19744.65
1058.38998	19781.05
1062.07627	19926.45
1065.76003	20115.55
1069.44126	20302.65
1073.11995	20665.55
1076.79611	20999.35
1080.46974	21264.05
1084.14085	21532.85
1087.80943	21870.75
1091.47549	22107.55
1095.13903	22091.35
1098.80005	21769.75
1102.45857	21315.05
1106.11456	20953.95
1109.76805	20786.95
1113.41903	20882.05
1117.06751	21075.55
1120.71348	21430.75
1124.35696	21762.45
1127.99793	22188.85
1131.63641	22246.55
1135.2724	21981.15
1138.90589	21628.75
1142.5369	21420.05
1146.16542	21338.05
1149.79145	21349.85
1153.415	21443.65
1157.03607	21656.45
1160.65467	22132.15
1164.27079	22999.35
1167.88443	24147.85
1171.49561	25648.75
1175.10432	27692.05
1178.71056	30394.25
1182.31434	32862.45
1185.91565	34109.95
1189.51451	33961.15
1193.11091	32961.85
1196.70485	31408.75
1200.29634	29984.85
1203.88538	28814.45
1207.47197	27765.45
1211.05612	26912.45
1214.63782	26266.55
1218.21708	25907.75
1221.79391	25575.25
1225.36829	25408.25
1228.94024	25198.45
1232.50976	24897.05
1236.07685	24527.75
1239.6415	24321.15
1243.20374	24292.05
1246.76355	24342.05
1250.32093	24623.65
1253.8759	25155.45
1257.42845	25821.65
1260.97859	26595.05
1264.52631	27565.85
1268.07163	28432.95
1271.61453	29287.75
1275.15503	30054.45
1278.69312	30677.95
1282.22882	31268.55
1285.76211	31957.85
1289.29301	32919.95
1292.82151	34038.35
1296.34761	35487.95
1299.87133	37212.25
1303.39266	39485.85
1306.9116	42219.85
1310.42815	44925.75
1313.94233	46587.15
1317.45412	46416.25
1320.96354	45147.65
1324.47058	43762.75
1327.97525	42627.75
1331.47754	41869.25
1334.97747	41528.85
1338.47502	41443.25
1341.97022	41444.05
1345.46305	41325.15
1348.95352	41322.75
1352.44163	41562.05
1355.92738	42693.85
1359.41078	45113.45
1362.89183	47637.15
1366.37053	46983.25
1369.84688	42452.35
1373.32088	37252.25
1376.79254	33793.65
1380.26186	32220.95
1383.72883	31730.95
1387.19347	31390.85
1390.65578	30907.15
1394.11575	30655.85
1397.57339	30810.05
1401.0287	31203.55
1404.48168	31597.25
1407.93234	31770.05
1411.38068	31520.65
1414.82669	30891.25
1418.27039	29936.15
1421.71177	28930.95
1425.15083	28098.95
1428.58758	27615.15
1432.02203	27781.95
1435.45416	28365.55
1438.88399	28973.05
1442.31151	29450.05
1445.73673	29795.65
1449.15965	30169.15
1452.58027	30391.95
1455.9986	30495.45
1459.41463	30733.35
1462.82837	31122.25
1466.23982	31669.45
1469.64898	32133.85
1473.05586	32407.35
1476.46045	32332.65
1479.86276	32159.05
1483.26279	32063.75
1486.66054	32061.55
1490.05602	32374.35
1493.44922	32908.95
1496.84016	33759.25
1500.22882	35153.25
1503.61521	37206.45
1506.99934	39686.95
1510.38121	41770.55
1513.76081	42150.75
1517.13816	40422.65
1520.51324	37449.25
1523.88607	34775.75
1527.25665	33081.55
1530.62498	32301.25
1533.99105	31863.85
1537.35488	31480.25
1540.71647	31017.05
1544.07581	30456.35
1547.4329	29925.05
1550.78776	29504.85
1554.14038	29218.35
1557.49077	29160.25
1560.83892	29252.95
1564.18484	29541.45
1567.52853	29873.95
1570.86999	30312.35
1574.20922	30771.45
1577.54624	30981.85
1580.88103	30595.25
1584.2136	30145.05
1587.54395	30461.75
1590.87208	31628.55
1594.19801	33458.45
1597.52172	35349.65
1600.84321	35900.95
1604.16251	34505.45
1607.47959	32088.55
1610.79447	29574.15
1614.10715	27099.55
1617.41763	25045.65
1620.7259	23593.45
1624.03199	22850.25
1627.33587	22771.25
1630.63757	23380.55
1633.93707	24782.45
1637.23439	27208.55
1640.52951	30603.95
1643.82246	34698.75
1647.11321	38190.45
1650.40179	39275.55
1653.68819	36945.95
1656.97241	32042.15
1660.25446	27058.75
1663.53433	23365.95
1666.81203	21099.75
1670.08756	19711.75
1673.36092	18930.65
1676.63211	18388.95
1679.90115	18009.85
1683.16801	17700.35
1686.43272	17519.15
1689.69527	17291.75
1692.95567	17138.85
1696.2139	16979.75
1699.46999	16826.95
1702.72392	16735.05
1705.97571	16789.65
1709.22535	16842.25
1712.47284	16906.55
1715.71819	16886.35
1718.96139	16844.95
1722.20246	16809.75
1725.44139	16708.35
1728.67818	16607.65
1731.91284	16496.35
1735.14537	16394.35
1738.37576	16312.05
1741.60403	16256.45
1744.83017	16155.85
1748.05418	16131.35
1751.27607	16040.55
1754.49584	15940.35
1757.71349	15885.65
1760.92903	15831.65
1764.14244	15757.15
1767.35375	15760.55
1770.56294	15719.55
1773.77002	15734.85
1776.97499	15728.25
1780.17785	15783.55
1783.37861	15786.35
1786.57727	15755.55
1789.77382	15733.25
1792.96828	15754.35
1796.16064	15723.45
1799.3509	15684.45
1802.53907	15676.05
1805.72514	15592.25
1808.90913	15578.15
1812.09102	15559.25
1815.27083	15511.05
1818.44856	15516.65
1821.6242	15476.55
1824.79776	15467.45
1827.96924	15432.85
1831.13864	15458.15
1834.30597	15464.65
1837.47122	15459.45
1840.6344	15466.15
1843.7955	15473.85
1846.95454	15433.95
1850.11151	15427.65
1853.26642	15397.05
1856.41926	15381.05
1859.57004	15366.85
1862.71876	15388.65
1865.86542	15385.65
1869.01003	15355.45
1872.15258	15354.55
1875.29308	15339.05
1878.43152	15301.15
1881.56792	15286.85
1884.70227	15300.15
1887.83457	15249.55
1890.96482	15240.45
1894.09304	15201.55
1897.21921	15187.35
1900.34335	15158.55
1903.46544	15153.15
1906.58551	15139.35
1909.70353	15136.65
1912.81953	15108.25
1915.93349	15051.45
1919.04543	15018.75
1922.15534	14992.85
1925.26322	14979.55
1928.36908	14907.35
1931.47292	14880.95
1934.57473	14796.25
1937.67453	14782.35
1940.77232	14721.45
1943.86808	14687.45
1946.96184	14657.05
1950.05358	14607.75
1953.14331	14547.65
1956.23103	14500.95
1959.31675	14473.95
1962.40046	14407.35
1965.48217	14387.45
1968.56188	14361.45
1971.63959	14341.75
1974.7153	14295.45
1977.78901	14259.25
1980.86073	14194.95
1983.93046	14135.65
1986.99819	14062.85
1990.06394	14054.25
1993.1277	14027.25
1996.18947	13971.85
1999.24925	13935.65
2002.30706	13867.85
2005.36288	13846.75
2008.41672	13820.45
2011.46859	13774.25
2014.51848	13734.85
2017.56639	13683.15
2020.61233	13675.65
2023.6563	13658.25
2026.6983	13600.25
2029.73833	13567.15
2032.7764	13515.25
2035.8125	13498.85
2038.84664	13493.75
2041.87881	13478.85
2044.90903	13468.15
2047.93729	13426.75
2050.96359	13393.65
2053.98794	13363.85
2057.01034	13372.75
2060.03078	13348.75
2063.04927	13335.95
2066.06582	13329.85
2069.08042	13308.85
2072.09307	13340.05
2075.10378	13318.65
2078.11255	13281.05
2081.11938	13324.75
2084.12426	13287.75
2087.12722	13282.35
2090.12824	13292.65
2093.12732	13283.35
2096.12447	13265.05
2099.11969	13289.05
2102.11299	13251.55
2105.10435	13309.05
2108.09379	13266.35
2111.08131	13300.85
2114.0669	13291.95
2117.05057	13308.65
2120.03233	13336.95
2123.01216	13357.65
2125.99008	13361.35
2128.96609	13340.85
2131.94018	13335.35
2134.91236	13374.45
2137.88263	13351.35
2140.851	13369.75
2143.81746	13379.85
2146.78201	13388.75
2149.74466	13383.85
2152.7054	13366.65
2155.66425	13360.65
2158.6212	13379.95
2161.57625	13366.15
2164.52941	13355.55
2167.48067	13366.45
2170.43004	13353.55
2173.37752	13330.05
2176.32311	13316.35
2179.26681	13334.35
2182.20863	13342.65
2185.14856	13338.55
2188.08661	13330.25
2191.02278	13293.35
2193.95707	13332.05
2196.88948	13298.55
2199.82001	13299.75
2202.74867	13270.65
2205.67545	13262.05
2208.60037	13246.95
2211.52341	13240.55
2214.44458	13212.65
2217.36388	13193.45
2220.28132	13165.65
2223.1969	13152.95
2226.11061	13133.35
2229.02246	13085.75
2231.93245	13088.15
2234.84058	13035.15
2237.74686	13018.05
2240.65128	13006.25
2243.55385	12974.45
2246.45456	12988.15
2249.35343	12963.85
2252.25044	12932.25
2255.14561	12954.95
2258.03893	12914.35
2260.93041	12858.25
2263.82004	12879.85
2266.70783	12875.55
2269.59378	12844.65
2272.4779	12780.15
2275.36017	12758.15
2278.24061	12736.25
2281.11922	12709.65
2283.996	12689.45
2286.87094	12694.25
2289.74405	12672.05
2292.61534	12648.95
2295.4848	12627.25
2298.35243	12629.05
2301.21824	12603.75
2304.08223	12626.85
2306.94439	12625.95
2309.80474	12599.25
2312.66327	12599.65
2315.51999	12603.75
2318.37489	12595.85
2321.22797	12559.85
2324.07925	12559.65
2326.92871	12520.35
2329.77637	12524.55
2332.62222	12517.35
2335.46626	12504.05
2338.3085	12469.15
2341.14893	12486.05
2343.98756	12507.05
2346.8244	12487.75
2349.65943	12473.45
2352.49267	12504.75
2355.32411	12503.75
2358.15376	12502.05
2360.98161	12497.75
2363.80768	12470.55
2366.63195	12484.65
2369.45444	12485.15
2372.27514	12437.75
2375.09405	12420.35
2377.91118	12381.75
2380.72652	12350.15
2383.54009	12348.45
2386.35187	12319.05
2389.16188	12278.65
2391.97011	12266.65
2394.77657	12272.75
2397.58125	12217.85
2400.38416	12207.95
2403.18529	12195.75
2405.98466	12187.65
2408.78226	12177.65
2411.57809	12131.15
2414.37216	12109.15
2417.16446	12119.85
2419.955	12075.05
2422.74378	12112.35
2425.5308	12050.35
2428.31606	12066.75
2431.09956	12060.25
2433.88131	12070.15
2436.6613	12062.95
2439.43954	12073.95
2442.21603	12051.85
2444.99077	12028.25
2447.76377	12070.55
2450.53501	12048.75
2453.30451	12052.15
2456.07226	12061.45
2458.83827	12061.15
2461.60254	12038.25
2464.36507	12021.15
2467.12586	12001.05
2469.88492	12007.75
2472.64224	12007.45
2475.39782	11990.75
2478.15167	11986.25
2480.90379	12007.85
2483.65417	12033.35
2486.40283	12071.75
2489.14976	12068.05
2491.89497	12033.25
2494.63845	12035.75
2497.3802	12013.95
2500.12024	12038.05
2502.85855	12044.45
2505.59514	12034.05
2508.33002	11993.65
2511.06318	11977.85
2513.79462	11969.25
2516.52435	11924.65
2519.25237	11905.65
2521.97867	11903.75
2524.70327	11860.65
2527.42616	11872.35
2530.14734	11895.15
2532.86681	11872.75
2535.58458	11895.25
2538.30065	11880.25
2541.01501	11876.05
2543.72768	11841.85
2546.43864	11832.05
2549.14791	11821.65
2551.85548	11842.15
2554.56136	11799.55
2557.26554	11802.05
2559.96803	11772.75
2562.66883	11773.45
2565.36794	11724.35
2568.06536	11716.15
2570.7611	11733.75
2573.45514	11694.85
2576.14751	11697.55
2578.83819	11681.55
2581.52719	11662.95
2584.21451	11657.65
2586.90015	11658.35
2589.58411	11647.35
2592.2664	11622.05
2594.94701	11644.45
2597.62594	11607.05
2600.30321	11610.35
2602.9788	11589.85
2605.65273	11593.55
2608.32498	11624.05
2610.99557	11589.05
2613.66449	11600.05
2616.33175	11579.45
2618.99734	11590.45
2621.66128	11559.75
2624.32355	11564.25
2626.98416	11558.95
2629.64311	11551.65
2632.30041	11547.65
2634.95605	11530.05
2637.61004	11514.15
2640.26238	11494.65
2642.91306	11509.75
2645.56209	11501.65
2648.20948	11491.95
2650.85521	11450.95
2653.4993	11449.05
2656.14175	11507.55
2658.78255	11527.45
2661.42171	11502.45
2664.05923	11494.65
2666.6951	11521.35
2669.32934	11542.15
2671.96194	11524.35
2674.59291	11525.65
2677.22224	11535.45
2679.84993	11526.65
2682.476	11483.95
2685.10043	11534.95
2687.72324	11506.05
2690.34441	11511.85
2692.96396	11488.95
2695.58188	11464.55
2698.19818	11461.75
2700.81285	11483.55
2703.4259	11445.75
2706.03733	11368.35
2708.64714	11406.45
2711.25533	11479.95
2713.86191	11500.25
2716.46687	11556.45
2719.07021	11552.75
2721.67194	11557.05
2724.27206	11564.05
2726.87057	11576.75
2729.46747	11552.65
2732.06276	11576.35
2734.65644	11568.95
2737.24852	11567.65
2739.83899	11570.75
2742.42786	11576.25
2745.01513	11555.15
2747.60079	11557.65
2750.18486	11529.85
2752.76733	11509.65
2755.3482	11465.95
2757.92747	11475.95
2760.50515	11454.35
2763.08123	11464.25
2765.65573	11442.85
2768.22863	11410.65
2770.79994	11430.25
2773.36967	11426.85
2775.9378	11415.55
2778.50435	11410.25
2781.06932	11399.25
2783.6327	11432.45
2786.1945	11412.75
2788.75471	11380.25
2791.31335	11382.05
2793.87041	11371.85
2796.42589	11315.65
2798.97979	11331.45
2801.53212	11308.35
2804.08288	11313.35
2806.63206	11294.55
2809.17967	11244.15
2811.72571	11231.45
2814.27018	11214.75
2816.81308	11203.35
2819.35442	11197.45
2821.89419	11173.25
2824.43239	11166.65
2826.96904	11160.85
2829.50412	11137.95
2832.03763	11110.75
2834.56959	11134.75
2837.1	11081.75
2839.62884	11120.75
2842.15613	11094.45
2844.68186	11082.55
2847.20604	11076.65
2849.72867	11053.45
2852.24974	11054.95
2854.76927	11068.85
2857.28724	10982.05
2859.80367	11027.65
2862.31855	11018.35
2864.83189	10987.35
2867.34368	11003.45
2869.85393	11017.75
2872.36264	11027.15
2874.8698	11007.65
2877.37543	11031.25
2879.87952	11028.15
2882.38207	11006.95
2884.88308	11013.65
2887.38256	10992.05
2889.88051	11029.15
2892.37692	11010.95
2894.8718	10994.65
2897.36515	11027.65
2899.85698	11008.75
2902.34727	11047.15
2904.83604	11049.75
2907.32328	11040.15
2909.809	11069.25
2912.29319	11068.85
2914.77587	11090.65
2917.25702	11077.35
2919.73665	11038.15
2922.21476	11044.85
2924.69136	11028.15
2927.16644	11034.95
2929.64	11027.85
2932.11205	10979.85
2934.58258	10994.35
2937.05161	10975.05
2939.51912	10968.25
2941.98513	10945.35
2944.44962	10937.25
2946.91261	10890.25
2949.37409	10907.35
2951.83407	10910.35
2954.29254	10905.75
2956.74951	10884.95
2959.20498	10900.95
2961.65895	10860.75
2964.11142	10853.45
2966.56239	10835.45
2969.01186	10829.65
2971.45984	10814.15
2973.90632	10801.55
2976.35131	10785.85
2978.7948	10761.35
2981.23681	10741.55
2983.67732	10742.95
2986.11635	10704.85
2988.55388	10685.55
2990.98993	10647.55
2993.4245	10640.95
2995.85758	10611.15
2998.28917	10571.15
3000.71928	10582.25
3003.14791	10556.35
3005.57506	10529.35
3008.00073	10499.75
3010.42493	10485.25
3012.84764	10453.05
3015.26888	10475.75
3017.68865	10444.65
3020.10694	10398.95
3022.52376	10379.55
3024.9391	10394.35
3027.35298	10389.05
3029.76539	10373.15
3032.17632	10398.55
3034.5858	10352.85
3036.9938	10334.85
3039.40034	10335.85
3041.80542	10303.75
3044.20903	10273.85
3046.61118	10267.55
3049.01187	10281.25
3051.4111	10254.85
3053.80888	10232.55
3056.20519	10212.85
3058.60005	10180.65
3060.99345	10189.75
3063.3854	10145.35
3065.7759	10107.45
3068.16494	10089.55
3070.55254	10078.85
3072.93868	10046.85
3075.32338	10012.55
3077.70662	9979.75
3080.08842	9942.55
3082.46878	9930.75
3084.84769	9917.45
3087.22515	9934.75
3089.60118	9911.35
3091.97576	9914.55
3094.3489	9916.25
3096.72061	9922.15
3099.09087	9917.45
3101.4597	9908.75
3103.82709	9915.95
3106.19305	9896.95
3108.55757	9894.05
3110.92066	9855.85
3113.28232	9847.05
3115.64255	9819.75
3118.00134	9814.75
3120.35871	9773.55
3122.71466	9738.65
3125.06917	9736.55
3127.42226	9736.85
3129.77393	9702.55
3132.12417	9685.15
3134.47299	9684.45
3136.82039	9680.55
3139.16636	9691.95
3141.51092	9676.75
3143.85406	9693.65
3146.19579	9700.65
3148.53609	9691.85
3150.87499	9696.75
3153.21246	9689.25
3155.54853	9681.05
3157.88318	9682.25
3160.21642	9715.45
3162.54826	9686.35
3164.87868	9681.75
3167.2077	9683.55
3169.5353	9684.95
3171.86151	9696.25
3174.18631	9663.85
3176.5097	9643.55
3178.83169	9631.55
3181.15228	9628.15
3183.47147	9609.85
3185.78926	9623.35
3188.10565	9589.15
3190.42065	9580.55
3192.73424	9573.75
3195.04645	9565.15
3197.35725	9557.35
3199.66667	9554.45
3201.97469	9606.85
3204.28132	9578.75
3206.58656	9585.95
3208.8904	9596.05
3211.19287	9605.95
3213.49394	9607.35
3215.79363	9606.95
3218.09193	9604.85
3220.38884	9584.65
3222.68438	9555.65
3224.97853	9554.25
3227.2713	9576.25
3229.56269	9577.05
3231.8527	9586.65
3234.14133	9575.35
3236.42858	9538.75
3238.71446	9503.35
3240.99896	9481.75
3243.28209	9503.05
3245.56384	9477.65
3247.84423	9494.15
3250.12324	9459.75
3252.40088	9450.85
3254.67715	9454.55
3256.95205	9433.05
3259.22558	9420.95
3261.49775	9399.75
3263.76855	9383.65
3266.03799	9401.75
3268.30606	9386.55
3270.57277	9355.95
3272.83812	9329.75
3275.10211	9333.45
3277.36474	9314.95
3279.62601	9286.95
3281.88593	9293.25
3284.14448	9302.35
3286.40168	9309.55
3288.65753	9306.15
3290.91202	9284.25
3293.16516	9264.15
3295.41695	9245.05
3297.66738	9214.05
3299.91647	9153.75
3302.16421	9101.95
3304.4106	9073.85
3306.65564	9004.25
3308.89933	8941.25
3311.14169	8883.95
3313.38269	8817.25
3315.62236	8767.95
3317.86068	8705.85
3320.09766	8601.95
3322.3333	8562.85
3324.5676	8495.65
3326.80056	8356.65
3329.03219	8318.25
3331.26248	2.25
3333.49143	-0.15
3335.71905	0.45
