Data from AgNPs_FTO_APTES_UA_50uM_CRN_2uM_R6G_10uM_NaF_0.1M_Addition_RamanShift__4__11-58-44-760.txt Node

Date: Mon Feb 21 11:58:44 GMT 2022
User: TCL
Spectrometer: QEP01345
Trigger mode: 4
Integration Time (sec): 7.000000E0
Scans to average: 10
Electric dark correction enabled: true
Nonlinearity correction enabled: false
Boxcar width: 0
XAxis mode: Raman Shifts
Number of Pixels in Spectrum: 1044
>>>>>Begin Spectral Data<<<<<
46.04893	-0.15
50.45542	-1.75
54.85868	-1.35
59.25871	-2.35
63.6555	71.45
68.04907	81.25
72.43941	80.55
76.82654	85.35
81.21044	89.65
85.59113	94.25
89.96862	93.95
94.34289	99.25
98.71396	102.15
103.08183	104.85
107.4465	104.55
111.80798	104.15
116.16626	108.45
120.52136	112.45
124.87327	120.65
129.222	116.75
133.56755	130.15
137.90993	141.35
142.24913	147.85
146.58517	165.35
150.91804	189.15
155.24774	226.35
159.57429	280.85
163.89768	358.15
168.21792	473.95
172.53501	651.55
176.84895	903.45
181.15975	1273.55
185.46741	1787.15
189.77193	2465.65
194.07331	3295.75
198.37157	4244.15
202.6667	5241.55
206.9587	6227.25
211.24758	7222.15
215.53334	8191.25
219.81599	9252.55
224.09553	10408.35
228.37195	11666.25
232.64527	13072.05
236.91549	14541.45
241.18261	15994.95
245.44663	17351.05
249.70755	18583.35
253.96539	19615.15
258.22014	20544.15
262.4718	21253.75
266.72039	21782.65
270.96589	22043.85
275.20832	22059.85
279.44768	21816.75
283.68397	21566.65
287.91719	21325.85
292.14735	21186.35
296.37445	21145.35
300.59849	21189.05
304.81948	21334.05
309.03742	21394.95
313.25231	21324.65
317.46415	21086.85
321.67296	20730.85
325.87872	20454.35
330.08145	20347.65
334.28114	20326.95
338.47781	20475.65
342.67145	20721.75
346.86207	21062.75
351.04966	21498.65
355.23424	21936.05
359.4158	22364.25
363.59435	22681.55
367.76989	22943.75
371.94243	23086.85
376.11196	23168.05
380.27849	23297.25
384.44203	23432.95
388.60257	23629.35
392.76012	23791.25
396.91468	24055.85
401.06626	24365.75
405.21485	24610.15
409.36047	24585.55
413.50311	24290.15
417.64277	24167.15
421.77947	24186.65
425.9132	24229.55
430.04396	24354.65
434.17176	24447.35
438.2966	24678.85
442.41849	25173.45
446.53742	25908.95
450.6534	26681.95
454.76644	27276.25
458.87653	27386.35
462.98368	27171.95
467.08789	26750.15
471.18916	26261.25
475.2875	25747.25
479.38291	25448.95
483.4754	25268.25
487.56496	25093.65
491.6516	24829.15
495.73531	24580.75
499.81612	24499.95
503.89401	24640.35
507.96899	24699.25
512.04106	24644.05
516.11023	24489.55
520.1765	24361.15
524.23987	24328.65
528.30034	24213.45
532.35792	24137.75
536.41261	23913.25
540.46441	23659.05
544.51333	23545.55
548.55936	23654.15
552.60252	24036.45
556.64279	24621.35
560.6802	25059.05
564.71473	25307.15
568.7464	25633.35
572.7752	26177.85
576.80114	26689.85
580.82422	27242.85
584.84444	28144.65
588.86181	29467.45
592.87633	30725.25
596.888	30967.55
600.89682	29825.65
604.9028	29504.55
608.90594	31261.85
612.90624	33453.45
616.90371	31728.55
620.89834	27261.65
624.89015	25204.95
628.87913	24938.05
632.86528	24981.15
636.84862	24851.25
640.82913	24438.35
644.80683	23898.65
648.78172	23582.05
652.75379	23575.95
656.72306	23914.25
660.68952	24300.55
664.65319	24251.75
668.61405	23859.65
672.57211	23849.95
676.52738	23998.55
680.47986	23950.55
684.42955	23731.95
688.37646	23659.05
692.32058	23852.35
696.26192	24242.35
700.20048	24576.55
704.13626	24742.95
708.06928	24632.25
711.99952	24458.85
715.927	24493.95
719.85171	24696.95
723.77365	24630.85
727.69284	24316.15
731.60928	24030.15
735.52295	23903.65
739.43388	23960.65
743.34206	24039.95
747.24749	24146.95
751.15017	24290.55
755.05012	24611.05
758.94733	25176.45
762.8418	26171.35
766.73354	27714.25
770.62254	29258.35
774.50882	29576.75
778.39237	28619.55
782.27321	26982.75
786.15132	25587.35
790.02671	24727.05
793.89938	24292.85
797.76935	24129.15
801.6366	24006.65
805.50115	24030.85
809.36299	23943.45
813.22213	23756.85
817.07857	23674.15
820.93231	23594.95
824.78336	23538.85
828.63172	23470.55
832.47738	23466.95
836.32036	23555.05
840.16066	23661.85
843.99827	23717.95
847.8332	23682.05
851.66546	23606.55
855.49504	23576.65
859.32195	23631.45
863.1462	23508.25
866.96777	23491.75
870.78668	23449.45
874.60293	23478.25
878.41652	23515.85
882.22745	23648.95
886.03573	23763.35
889.84136	23730.85
893.64433	23622.45
897.44466	23522.05
901.24235	23392.05
905.0374	23316.25
908.8298	23274.25
912.61957	23324.45
916.40671	23451.05
920.19121	23697.75
923.97308	23959.15
927.75233	24154.25
931.52895	24021.55
935.30295	23766.85
939.07433	23447.15
942.84309	23196.85
946.60924	23110.85
950.37278	23033.95
954.13371	23055.75
957.89203	22924.95
961.64774	22884.95
965.40086	22901.75
969.15137	22855.75
972.89929	22855.15
976.64461	22831.05
980.38733	22890.85
984.12747	22998.35
987.86502	23167.05
991.59999	23439.45
995.33237	23818.25
999.06217	24418.15
1002.78939	25099.35
1006.51404	25639.25
1010.23611	26021.15
1013.95561	26217.05
1017.67255	26215.65
1021.38692	25971.95
1025.09872	25623.75
1028.80796	25629.55
1032.51465	26108.25
1036.21877	26625.55
1039.92035	26831.05
1043.61937	26661.35
1047.31584	26158.15
1051.00976	25573.55
1054.70114	25177.95
1058.38998	25102.45
1062.07627	25174.15
1065.76003	25221.75
1069.44126	25489.95
1073.11995	25816.85
1076.79611	26174.75
1080.46974	26445.95
1084.14085	26724.85
1087.80943	26965.35
1091.47549	27140.35
1095.13903	27114.55
1098.80005	26724.85
1102.45857	26218.85
1106.11456	25902.75
1109.76805	25789.35
1113.41903	25860.25
1117.06751	25996.05
1120.71348	26261.75
1124.35696	26415.15
1127.99793	26672.55
1131.63641	26812.65
1135.2724	26694.95
1138.90589	26579.25
1142.5369	26573.25
1146.16542	26660.25
1149.79145	26810.05
1153.415	26971.55
1157.03607	27207.95
1160.65467	27823.65
1164.27079	28894.05
1167.88443	30206.55
1171.49561	31759.55
1175.10432	33793.45
1178.71056	36406.85
1182.31434	38951.05
1185.91565	40084.25
1189.51451	39717.45
1193.11091	38420.55
1196.70485	36873.45
1200.29634	35559.75
1203.88538	34554.45
1207.47197	33935.85
1211.05612	33403.25
1214.63782	32843.65
1218.21708	32415.75
1221.79391	32082.35
1225.36829	31874.25
1228.94024	31561.75
1232.50976	31085.45
1236.07685	30459.55
1239.6415	30094.95
1243.20374	30026.65
1246.76355	30245.45
1250.32093	30677.75
1253.8759	31353.15
1257.42845	32091.55
1260.97859	32997.75
1264.52631	33973.55
1268.07163	35003.15
1271.61453	36039.95
1275.15503	36997.35
1278.69312	37997.65
1282.22882	39012.75
1285.76211	40157.25
1289.29301	41426.15
1292.82151	42988.55
1296.34761	44938.65
1299.87133	47413.05
1303.39266	50167.05
1306.9116	53037.35
1310.42815	55466.05
1313.94233	56709.35
1317.45412	56218.55
1320.96354	54665.15
1324.47058	52899.55
1327.97525	51518.75
1331.47754	50585.25
1334.97747	49954.65
1338.47502	49352.55
1341.97022	48457.35
1345.46305	47486.95
1348.95352	46986.45
1352.44163	47425.95
1355.92738	49367.95
1359.41078	52342.35
1362.89183	54844.55
1366.37053	54530.35
1369.84688	50489.25
1373.32088	44963.95
1376.79254	41053.05
1380.26186	39564.85
1383.72883	39444.15
1387.19347	39263.55
1390.65578	38654.85
1394.11575	38302.05
1397.57339	38495.95
1401.0287	39096.45
1404.48168	39589.05
1407.93234	39871.05
1411.38068	39572.05
1414.82669	38804.45
1418.27039	37696.55
1421.71177	36469.35
1425.15083	35407.35
1428.58758	34977.15
1432.02203	35270.05
1435.45416	36133.65
1438.88399	37071.85
1442.31151	37601.95
1445.73673	37840.65
1449.15965	37994.55
1452.58027	37898.65
1455.9986	37568.15
1459.41463	37470.15
1462.82837	37855.45
1466.23982	38709.95
1469.64898	39494.15
1473.05586	40099.45
1476.46045	40384.35
1479.86276	40467.25
1483.26279	40300.55
1486.66054	40268.85
1490.05602	40565.95
1493.44922	40859.95
1496.84016	41142.65
1500.22882	41497.25
1503.61521	42228.85
1506.99934	43206.35
1510.38121	44022.15
1513.76081	44131.15
1517.13816	43204.05
1520.51324	41739.35
1523.88607	40467.95
1527.25665	39847.65
1530.62498	39684.15
1533.99105	39580.25
1537.35488	39231.85
1540.71647	38588.95
1544.07581	37760.45
1547.4329	36965.05
1550.78776	36161.65
1554.14038	35623.85
1557.49077	35330.55
1560.83892	35111.05
1564.18484	35080.05
1567.52853	35200.35
1570.86999	35546.85
1574.20922	36105.55
1577.54624	36532.75
1580.88103	36670.65
1584.2136	36930.35
1587.54395	38159.55
1590.87208	40413.35
1594.19801	43271.65
1597.52172	45911.45
1600.84321	46679.65
1604.16251	44679.65
1607.47959	41122.25
1610.79447	37283.15
1614.10715	33872.55
1617.41763	31446.05
1620.7259	29992.15
1624.03199	29351.65
1627.33587	29516.35
1630.63757	30438.55
1633.93707	32270.45
1637.23439	35263.35
1640.52951	39665.85
1643.82246	44879.05
1647.11321	48857.85
1650.40179	49327.55
1653.68819	45384.35
1656.97241	39184.15
1660.25446	33566.25
1663.53433	29689.45
1666.81203	27350.75
1670.08756	25983.15
1673.36092	25157.55
1676.63211	24564.45
1679.90115	24147.75
1683.16801	23841.55
1686.43272	23612.05
1689.69527	23399.45
1692.95567	23214.95
1696.2139	23058.85
1699.46999	22893.65
1702.72392	22815.55
1705.97571	22853.65
1709.22535	22922.25
1712.47284	22992.65
1715.71819	22974.65
1718.96139	22921.45
1722.20246	22912.05
1725.44139	22816.95
1728.67818	22723.35
1731.91284	22594.45
1735.14537	22473.65
1738.37576	22432.25
1741.60403	22333.75
1744.83017	22235.65
1748.05418	22213.25
1751.27607	22128.85
1754.49584	22033.55
1757.71349	21964.65
1760.92903	21941.85
1764.14244	21908.45
1767.35375	21940.65
1770.56294	21890.55
1773.77002	21920.45
1776.97499	21956.75
1780.17785	21994.85
1783.37861	21958.15
1786.57727	21923.05
1789.77382	21933.45
1792.96828	21965.05
1796.16064	21903.45
1799.3509	21830.05
1802.53907	21824.05
1805.72514	21771.75
1808.90913	21712.75
1812.09102	21705.35
1815.27083	21702.95
1818.44856	21677.05
1821.6242	21693.85
1824.79776	21682.05
1827.96924	21668.95
1831.13864	21649.85
1834.30597	21686.05
1837.47122	21671.35
1840.6344	21663.45
1843.7955	21650.85
1846.95454	21643.65
1850.11151	21571.85
1853.26642	21558.75
1856.41926	21547.75
1859.57004	21595.35
1862.71876	21559.05
1865.86542	21517.35
1869.01003	21567.25
1872.15258	21565.45
1875.29308	21546.35
1878.43152	21488.55
1881.56792	21523.45
1884.70227	21561.05
1887.83457	21562.35
1890.96482	21483.45
1894.09304	21456.55
1897.21921	21377.75
1900.34335	21366.85
1903.46544	21358.65
1906.58551	21372.75
1909.70353	21338.05
1912.81953	21348.15
1915.93349	21298.65
1919.04543	21269.55
1922.15534	21231.95
1925.26322	21229.25
1928.36908	21178.75
1931.47292	21101.75
1934.57473	21109.85
1937.67453	21046.45
1940.77232	21005.45
1943.86808	20947.25
1946.96184	20887.75
1950.05358	20835.25
1953.14331	20785.95
1956.23103	20696.35
1959.31675	20674.95
1962.40046	20633.15
1965.48217	20596.35
1968.56188	20543.15
1971.63959	20514.05
1974.7153	20470.95
1977.78901	20379.45
1980.86073	20389.05
1983.93046	20295.45
1986.99819	20204.95
1990.06394	20189.55
1993.1277	20147.15
1996.18947	20117.55
1999.24925	20061.05
2002.30706	19949.05
2005.36288	19931.15
2008.41672	19903.35
2011.46859	19859.95
2014.51848	19780.25
2017.56639	19730.95
2020.61233	19693.15
2023.6563	19697.25
2026.6983	19677.55
2029.73833	19601.25
2032.7764	19550.55
2035.8125	19544.85
2038.84664	19541.85
2041.87881	19562.45
2044.90903	19501.85
2047.93729	19450.55
2050.96359	19414.85
2053.98794	19394.55
2057.01034	19429.65
2060.03078	19384.85
2063.04927	19395.85
2066.06582	19374.25
2069.08042	19338.45
2072.09307	19349.85
2075.10378	19351.65
2078.11255	19326.65
2081.11938	19333.65
2084.12426	19324.05
2087.12722	19277.15
2090.12824	19280.15
2093.12732	19293.65
2096.12447	19315.35
2099.11969	19345.35
2102.11299	19320.05
2105.10435	19373.25
2108.09379	19363.45
2111.08131	19378.65
2114.0669	19408.95
2117.05057	19426.45
2120.03233	19431.85
2123.01216	19462.25
2125.99008	19499.15
2128.96609	19540.85
2131.94018	19552.75
2134.91236	19554.25
2137.88263	19548.15
2140.851	19577.35
2143.81746	19631.55
2146.78201	19608.75
2149.74466	19652.85
2152.7054	19601.15
2155.66425	19601.75
2158.6212	19615.05
2161.57625	19625.35
2164.52941	19636.35
2167.48067	19622.65
2170.43004	19616.85
2173.37752	19598.85
2176.32311	19588.25
2179.26681	19616.05
2182.20863	19623.85
2185.14856	19637.55
2188.08661	19660.45
2191.02278	19665.85
2193.95707	19629.05
2196.88948	19658.15
2199.82001	19632.15
2202.74867	19607.65
2205.67545	19643.25
2208.60037	19602.45
2211.52341	19588.65
2214.44458	19548.55
2217.36388	19505.15
2220.28132	19527.25
2223.1969	19474.65
2226.11061	19467.35
2229.02246	19410.35
2231.93245	19423.85
2234.84058	19370.25
2237.74686	19344.85
2240.65128	19325.95
2243.55385	19334.95
2246.45456	19309.35
2249.35343	19258.25
2252.25044	19237.65
2255.14561	19214.55
2258.03893	19228.75
2260.93041	19174.05
2263.82004	19139.95
2266.70783	19134.45
2269.59378	19087.35
2272.4779	19087.85
2275.36017	19018.15
2278.24061	18975.95
2281.11922	18973.25
2283.996	18925.05
2286.87094	18941.95
2289.74405	18884.15
2292.61534	18911.85
2295.4848	18915.45
2298.35243	18920.15
2301.21824	18926.05
2304.08223	18876.85
2306.94439	18884.35
2309.80474	18938.45
2312.66327	18920.35
2315.51999	18920.25
2318.37489	18964.75
2321.22797	18919.55
2324.07925	18891.45
2326.92871	18868.15
2329.77637	18884.35
2332.62222	18878.25
2335.46626	18846.95
2338.3085	18843.85
2341.14893	18879.95
2343.98756	18895.15
2346.8244	18858.55
2349.65943	18836.25
2352.49267	18865.75
2355.32411	18839.15
2358.15376	18838.95
2360.98161	18829.35
2363.80768	18782.85
2366.63195	18769.05
2369.45444	18740.25
2372.27514	18704.15
2375.09405	18703.95
2377.91118	18666.25
2380.72652	18610.05
2383.54009	18575.05
2386.35187	18588.55
2389.16188	18577.95
2391.97011	18544.65
2394.77657	18527.15
2397.58125	18517.25
2400.38416	18476.75
2403.18529	18462.95
2405.98466	18482.25
2408.78226	18447.95
2411.57809	18382.55
2414.37216	18379.55
2417.16446	18358.85
2419.955	18330.25
2422.74378	18351.25
2425.5308	18320.65
2428.31606	18319.45
2431.09956	18308.55
2433.88131	18301.65
2436.6613	18320.75
2439.43954	18323.25
2442.21603	18334.55
2444.99077	18290.95
2447.76377	18312.15
2450.53501	18278.95
2453.30451	18287.35
2456.07226	18300.35
2458.83827	18291.35
2461.60254	18300.15
2464.36507	18270.95
2467.12586	18241.85
2469.88492	18275.55
2472.64224	18286.75
2475.39782	18260.05
2478.15167	18306.15
2480.90379	18301.75
2483.65417	18351.35
2486.40283	18336.35
2489.14976	18345.65
2491.89497	18315.75
2494.63845	18334.95
2497.3802	18322.85
2500.12024	18356.95
2502.85855	18335.45
2505.59514	18322.35
2508.33002	18305.85
2511.06318	18308.85
2513.79462	18302.45
2516.52435	18316.25
2519.25237	18296.25
2521.97867	18231.45
2524.70327	18213.75
2527.42616	18227.75
2530.14734	18209.65
2532.86681	18216.25
2535.58458	18240.05
2538.30065	18231.85
2541.01501	18211.95
2543.72768	18202.65
2546.43864	18211.85
2549.14791	18181.85
2551.85548	18143.35
2554.56136	18147.35
2557.26554	18066.55
2559.96803	18067.65
2562.66883	18088.55
2565.36794	18104.65
2568.06536	18086.25
2570.7611	18060.35
2573.45514	18053.25
2576.14751	18063.95
2578.83819	18039.15
2581.52719	18011.25
2584.21451	18005.15
2586.90015	18001.95
2589.58411	17998.75
2592.2664	18032.05
2594.94701	18008.85
2597.62594	17970.05
2600.30321	17987.75
2602.9788	17943.75
2605.65273	17937.65
2608.32498	17983.05
2610.99557	17970.75
2613.66449	17984.95
2616.33175	17933.75
2618.99734	17959.45
2621.66128	17911.05
2624.32355	17930.95
2626.98416	17921.45
2629.64311	17884.45
2632.30041	17905.25
2634.95605	17870.15
2637.61004	17823.15
2640.26238	17836.55
2642.91306	17868.05
2645.56209	17855.75
2648.20948	17829.85
2650.85521	17796.05
2653.4993	17812.85
2656.14175	17864.75
2658.78255	17874.65
2661.42171	17887.25
2664.05923	17904.65
2666.6951	17912.65
2669.32934	17961.15
2671.96194	17932.95
2674.59291	17950.95
2677.22224	17899.35
2679.84993	17925.15
2682.476	17933.35
2685.10043	17934.05
2687.72324	17908.05
2690.34441	17897.85
2692.96396	17881.85
2695.58188	17919.65
2698.19818	17894.15
2700.81285	17915.65
2703.4259	17852.95
2706.03733	17797.15
2708.64714	17838.85
2711.25533	17927.35
2713.86191	17948.55
2716.46687	17997.35
2719.07021	18050.25
2721.67194	18046.75
2724.27206	18052.95
2726.87057	18061.05
2729.46747	18035.55
2732.06276	18047.15
2734.65644	18055.15
2737.24852	18041.55
2739.83899	18033.25
2742.42786	18060.15
2745.01513	18059.05
2747.60079	18076.55
2750.18486	18028.55
2752.76733	18021.45
2755.3482	17961.45
2757.92747	17958.85
2760.50515	17952.55
2763.08123	17955.45
2765.65573	17951.75
2768.22863	17953.65
2770.79994	17961.05
2773.36967	17984.85
2775.9378	17938.05
2778.50435	17957.05
2781.06932	17908.95
2783.6327	17944.05
2786.1945	17931.05
2788.75471	17941.75
2791.31335	17936.85
2793.87041	17893.75
2796.42589	17837.25
2798.97979	17773.55
2801.53212	17776.75
2804.08288	17781.45
2806.63206	17756.65
2809.17967	17726.35
2811.72571	17681.05
2814.27018	17678.45
2816.81308	17642.55
2819.35442	17576.45
2821.89419	17556.25
2824.43239	17608.25
2826.96904	17573.75
2829.50412	17616.05
2832.03763	17518.05
2834.56959	17515.35
2837.1	17524.75
2839.62884	17521.85
2842.15613	17507.45
2844.68186	17520.15
2847.20604	17530.95
2849.72867	17501.75
2852.24974	17463.45
2854.76927	17449.25
2857.28724	17413.45
2859.80367	17418.35
2862.31855	17385.05
2864.83189	17389.35
2867.34368	17348.85
2869.85393	17392.25
2872.36264	17373.85
2874.8698	17403.45
2877.37543	17381.35
2879.87952	17366.45
2882.38207	17396.95
2884.88308	17381.85
2887.38256	17405.55
2889.88051	17387.05
2892.37692	17421.15
2894.8718	17389.15
2897.36515	17436.25
2899.85698	17414.25
2902.34727	17469.85
2904.83604	17453.75
2907.32328	17494.85
2909.809	17481.55
2912.29319	17529.25
2914.77587	17507.25
2917.25702	17521.45
2919.73665	17487.75
2922.21476	17515.25
2924.69136	17463.65
2927.16644	17498.35
2929.64	17488.15
2932.11205	17464.65
2934.58258	17399.45
2937.05161	17413.35
2939.51912	17406.75
2941.98513	17381.65
2944.44962	17367.55
2946.91261	17352.25
2949.37409	17402.55
2951.83407	17421.75
2954.29254	17426.55
2956.74951	17427.85
2959.20498	17432.35
2961.65895	17365.35
2964.11142	17370.05
2966.56239	17363.95
2969.01186	17357.55
2971.45984	17346.15
2973.90632	17341.35
2976.35131	17316.55
2978.7948	17239.35
2981.23681	17221.75
2983.67732	17193.85
2986.11635	17198.55
2988.55388	17129.85
2990.98993	17117.95
2993.4245	17090.05
2995.85758	17086.25
2998.28917	17054.95
3000.71928	17046.85
3003.14791	17007.65
3005.57506	16941.55
3008.00073	16939.55
3010.42493	16901.45
3012.84764	16896.75
3015.26888	16859.55
3017.68865	16846.75
3020.10694	16807.35
3022.52376	16798.05
3024.9391	16794.35
3027.35298	16817.55
3029.76539	16761.85
3032.17632	16741.25
3034.5858	16744.35
3036.9938	16708.15
3039.40034	16725.15
3041.80542	16690.55
3044.20903	16684.95
3046.61118	16668.45
3049.01187	16618.85
3051.4111	16655.35
3053.80888	16626.35
3056.20519	16599.45
3058.60005	16572.15
3060.99345	16559.65
3063.3854	16502.35
3065.7759	16450.55
3068.16494	16439.45
3070.55254	16367.95
3072.93868	16325.45
3075.32338	16268.45
3077.70662	16284.15
3080.08842	16228.25
3082.46878	16232.05
3084.84769	16202.85
3087.22515	16192.55
3089.60118	16194.15
3091.97576	16214.05
3094.3489	16204.45
3096.72061	16238.35
3099.09087	16212.35
3101.4597	16196.55
3103.82709	16176.55
3106.19305	16186.55
3108.55757	16192.75
3110.92066	16130.95
3113.28232	16122.95
3115.64255	16095.05
3118.00134	16058.55
3120.35871	16052.35
3122.71466	16010.85
3125.06917	15970.45
3127.42226	15931.95
3129.77393	15959.75
3132.12417	15925.95
3134.47299	15953.75
3136.82039	15940.95
3139.16636	15908.35
3141.51092	15954.05
3143.85406	15967.35
3146.19579	15947.15
3148.53609	15985.35
3150.87499	15974.25
3153.21246	15964.15
3155.54853	15963.05
3157.88318	15916.45
3160.21642	15920.85
3162.54826	15939.05
3164.87868	15912.05
3167.2077	15937.05
3169.5353	15967.65
3171.86151	15959.85
3174.18631	15933.55
3176.5097	15948.55
3178.83169	15890.25
3181.15228	15895.75
3183.47147	15859.75
3185.78926	15842.25
3188.10565	15826.65
3190.42065	15797.45
3192.73424	15798.45
3195.04645	15730.35
3197.35725	15780.65
3199.66667	15766.35
3201.97469	15819.05
3204.28132	15790.05
3206.58656	15800.25
3208.8904	15836.85
3211.19287	15828.65
3213.49394	15808.35
3215.79363	15808.15
3218.09193	15840.05
3220.38884	15833.35
3222.68438	15800.25
3224.97853	15814.85
3227.2713	15839.35
3229.56269	15825.85
3231.8527	15863.85
3234.14133	15828.25
3236.42858	15786.65
3238.71446	15745.85
3240.99896	15725.95
3243.28209	15738.25
3245.56384	15712.55
3247.84423	15716.45
3250.12324	15679.95
3252.40088	15652.95
3254.67715	15653.85
3256.95205	15633.75
3259.22558	15611.15
3261.49775	15604.35
3263.76855	15565.55
3266.03799	15583.95
3268.30606	15578.85
3270.57277	15542.55
3272.83812	15476.55
3275.10211	15456.25
3277.36474	15447.05
3279.62601	15428.45
3281.88593	15435.65
3284.14448	15435.25
3286.40168	15460.45
3288.65753	15428.55
3290.91202	15453.45
3293.16516	15392.75
3295.41695	15394.75
3297.66738	15281.85
3299.91647	15233.65
3302.16421	15150.05
3304.4106	15053.25
3306.65564	14986.25
3308.89933	14873.35
3311.14169	14778.05
3313.38269	14644.15
3315.62236	14586.45
3317.86068	14518.45
3320.09766	14394.85
3322.3333	14310.45
3324.5676	14219.45
3326.80056	14003.65
3329.03219	13951.75
3331.26248	4.35
3333.49143	-0.35
3335.71905	0.25
