Data from AgNPs_FTO_APTES_UA_50uM_CRN_500uM_R6G_10uM_NaF_0.1M_Addition_RamanShift__30__17-16-53-559.txt Node

Date: Mon Feb 21 17:16:53 GMT 2022
User: TCL
Spectrometer: QEP01345
Trigger mode: 4
Integration Time (sec): 7.000000E0
Scans to average: 10
Electric dark correction enabled: true
Nonlinearity correction enabled: false
Boxcar width: 0
XAxis mode: Raman Shifts
Number of Pixels in Spectrum: 1044
>>>>>Begin Spectral Data<<<<<
46.04893	-0.35
50.45542	-0.25
54.85868	0.05
59.25871	-2.55
63.6555	49.35
68.04907	51.45
72.43941	57.25
76.82654	53.85
81.21044	60.45
85.59113	65.75
89.96862	65.05
94.34289	86.35
98.71396	77.45
103.08183	75.25
107.4465	74.85
111.80798	73.65
116.16626	75.45
120.52136	78.45
124.87327	82.15
129.222	81.85
133.56755	82.85
137.90993	90.55
142.24913	91.65
146.58517	102.65
150.91804	108.05
155.24774	130.25
159.57429	154.85
163.89768	194.25
168.21792	258.35
172.53501	346.15
176.84895	477.45
181.15975	667.55
185.46741	931.45
189.77193	1272.05
194.07331	1717.65
198.37157	2200.35
202.6667	2733.45
206.9587	3257.35
211.24758	3794.35
215.53334	4367.35
219.81599	5024.55
224.09553	5785.65
228.37195	6643.75
232.64527	7562.85
236.91549	8480.95
241.18261	9302.35
245.44663	9942.55
249.70755	10450.45
253.96539	10826.45
258.22014	11100.55
262.4718	11215.65
266.72039	11264.95
270.96589	11178.05
275.20832	10969.95
279.44768	10662.55
283.68397	10347.75
287.91719	10186.25
292.14735	10269.55
296.37445	10761.35
300.59849	11557.15
304.81948	12512.45
309.03742	13263.85
313.25231	13328.15
317.46415	12441.15
321.67296	11067.95
325.87872	9870.65
330.08145	9335.95
334.28114	9295.65
338.47781	9599.45
342.67145	10009.55
346.86207	10720.75
351.04966	11750.95
355.23424	12917.25
359.4158	13782.55
363.59435	14100.25
367.76989	14130.85
371.94243	13972.75
376.11196	13727.55
380.27849	13520.15
384.44203	13174.25
388.60257	12785.75
392.76012	12510.95
396.91468	12570.15
401.06626	12944.65
405.21485	13238.05
409.36047	12777.15
413.50311	11660.35
417.64277	10565.95
421.77947	9914.55
425.9132	9600.55
430.04396	9533.35
434.17176	9602.35
438.2966	9777.15
442.41849	10058.05
446.53742	10414.95
450.6534	10722.45
454.76644	10886.85
458.87653	10830.45
462.98368	10651.25
467.08789	10397.15
471.18916	10094.95
475.2875	9728.15
479.38291	9430.15
483.4754	9249.65
487.56496	9096.55
491.6516	9013.45
495.73531	9009.25
499.81612	9043.25
503.89401	9238.45
507.96899	9498.75
512.04106	9848.85
516.11023	10234.15
520.1765	10514.75
524.23987	10482.25
528.30034	10204.05
532.35792	9854.95
536.41261	9492.75
540.46441	9120.25
544.51333	8885.85
548.55936	8895.25
552.60252	9165.45
556.64279	9522.75
560.6802	9709.25
564.71473	10065.55
568.7464	10841.85
572.7752	11159.45
576.80114	10394.05
580.82422	9524.15
584.84444	9163.95
588.86181	9078.25
592.87633	9172.45
596.888	9362.35
600.89682	9945.45
604.9028	11962.75
608.90594	17720.65
612.90624	25541.35
616.90371	24499.75
620.89834	14986.75
624.89015	10453.65
628.87913	9659.55
632.86528	9875.55
636.84862	10202.15
640.82913	9995.25
644.80683	9215.85
648.78172	8650.05
652.75379	8692.95
656.72306	9347.75
660.68952	10114.85
664.65319	9901.45
668.61405	8984.55
672.57211	8561.85
676.52738	8538.45
680.47986	8555.75
684.42955	8424.45
688.37646	8329.35
692.32058	8339.85
696.26192	8431.25
700.20048	8620.35
704.13626	8694.05
708.06928	8650.45
711.99952	8504.15
715.927	8492.45
719.85171	8610.75
723.77365	8663.95
727.69284	8595.45
731.60928	8460.75
735.52295	8450.25
739.43388	8475.05
743.34206	8528.45
747.24749	8534.35
751.15017	8566.35
755.05012	8798.65
758.94733	9525.45
762.8418	11336.05
766.73354	14427.15
770.62254	17538.25
774.50882	19451.45
778.39237	18827.15
782.27321	15415.25
786.15132	11832.25
790.02671	9818.35
793.89938	9008.65
797.76935	8687.55
801.6366	8551.25
805.50115	8480.35
809.36299	8504.45
813.22213	8460.85
817.07857	8451.05
820.93231	8377.95
824.78336	8386.75
828.63172	8418.75
832.47738	8452.85
836.32036	8391.25
840.16066	8281.55
843.99827	8204.45
847.8332	8171.75
851.66546	8179.95
855.49504	8188.25
859.32195	8185.35
863.1462	8121.75
866.96777	8105.35
870.78668	8104.65
874.60293	8124.55
878.41652	8208.65
882.22745	8336.05
886.03573	8438.95
889.84136	8392.65
893.64433	8334.55
897.44466	8275.85
901.24235	8267.05
905.0374	8214.25
908.8298	8098.85
912.61957	7969.35
916.40671	8024.25
920.19121	8048.25
923.97308	8147.75
927.75233	8363.15
931.52895	8630.15
935.30295	8520.95
939.07433	8098.45
942.84309	7757.95
946.60924	7541.45
950.37278	7444.65
954.13371	7412.15
957.89203	7358.45
961.64774	7355.45
965.40086	7324.25
969.15137	7290.55
972.89929	7286.65
976.64461	7288.55
980.38733	7279.75
984.12747	7285.85
987.86502	7318.95
991.59999	7361.25
995.33237	7478.55
999.06217	7614.15
1002.78939	7841.95
1006.51404	8091.55
1010.23611	8327.25
1013.95561	8484.75
1017.67255	8461.05
1021.38692	8321.05
1025.09872	8142.45
1028.80796	8012.55
1032.51465	8021.65
1036.21877	8123.45
1039.92035	8232.35
1043.61937	8292.45
1047.31584	8291.65
1051.00976	8250.95
1054.70114	8187.45
1058.38998	8172.15
1062.07627	8160.25
1065.76003	8192.95
1069.44126	8188.15
1073.11995	8299.35
1076.79611	8489.35
1080.46974	8855.85
1084.14085	9321.85
1087.80943	9783.75
1091.47549	9901.85
1095.13903	9576.65
1098.80005	9034.35
1102.45857	8666.65
1106.11456	8605.75
1109.76805	8820.25
1113.41903	9286.65
1117.06751	10001.45
1120.71348	10888.65
1124.35696	11935.15
1127.99793	12606.85
1131.63641	12186.45
1135.2724	11057.35
1138.90589	10114.35
1142.5369	9531.65
1146.16542	9144.65
1149.79145	8879.65
1153.415	8812.95
1157.03607	8867.85
1160.65467	9096.05
1164.27079	9527.25
1167.88443	10203.45
1171.49561	11416.45
1175.10432	13496.85
1178.71056	16317.15
1182.31434	18338.05
1185.91565	18556.85
1189.51451	17473.45
1193.11091	15766.85
1196.70485	14090.55
1200.29634	13074.15
1203.88538	12323.45
1207.47197	11250.25
1211.05612	10241.35
1214.63782	9683.65
1218.21708	9417.35
1221.79391	9336.55
1225.36829	9305.05
1228.94024	9289.55
1232.50976	9280.65
1236.07685	9274.35
1239.6415	9372.25
1243.20374	9478.65
1246.76355	9579.65
1250.32093	9755.55
1253.8759	10001.85
1257.42845	10404.65
1260.97859	10818.95
1264.52631	11304.85
1268.07163	11774.65
1271.61453	12162.75
1275.15503	12414.95
1278.69312	12401.25
1282.22882	12472.05
1285.76211	12843.05
1289.29301	13413.15
1292.82151	13986.15
1296.34761	14670.15
1299.87133	15860.25
1303.39266	18050.35
1306.9116	21479.95
1310.42815	24972.35
1313.94233	26140.95
1317.45412	24114.45
1320.96354	20806.45
1324.47058	17743.45
1327.97525	15456.55
1331.47754	14224.55
1334.97747	13880.25
1338.47502	14214.95
1341.97022	15240.35
1345.46305	16886.75
1348.95352	19093.25
1352.44163	21781.25
1355.92738	25773.15
1359.41078	31495.15
1362.89183	35732.45
1366.37053	32981.95
1369.84688	26094.75
1373.32088	20197.95
1376.79254	16542.05
1380.26186	14460.95
1383.72883	13263.85
1387.19347	12402.25
1390.65578	11629.85
1394.11575	10987.55
1397.57339	10661.75
1401.0287	10567.85
1404.48168	10601.95
1407.93234	10662.25
1411.38068	10808.75
1414.82669	11002.85
1418.27039	11009.95
1421.71177	10942.45
1425.15083	10773.35
1428.58758	10706.05
1432.02203	10856.35
1435.45416	10941.55
1438.88399	10908.45
1442.31151	10842.75
1445.73673	10909.95
1449.15965	10970.55
1452.58027	10914.15
1455.9986	10745.05
1459.41463	10727.95
1462.82837	10897.65
1466.23982	11188.65
1469.64898	11470.45
1473.05586	11642.55
1476.46045	11805.55
1479.86276	12048.95
1483.26279	12495.35
1486.66054	13108.55
1490.05602	13918.55
1493.44922	15210.35
1496.84016	17203.25
1500.22882	20484.35
1503.61521	24971.95
1506.99934	29988.95
1510.38121	33971.75
1513.76081	34721.55
1517.13816	31129.45
1520.51324	25167.25
1523.88607	19880.95
1527.25665	16630.35
1530.62498	14842.75
1533.99105	13839.15
1537.35488	13172.05
1540.71647	12894.55
1544.07581	12892.25
1547.4329	13023.15
1550.78776	13212.85
1554.14038	13361.25
1557.49077	13597.85
1560.83892	14023.45
1564.18484	14759.95
1567.52853	15671.15
1570.86999	16407.75
1574.20922	16727.55
1577.54624	16406.65
1580.88103	15000.95
1584.2136	13196.05
1587.54395	12085.55
1590.87208	11902.55
1594.19801	12594.45
1597.52172	13717.25
1600.84321	14257.15
1604.16251	13734.35
1607.47959	12794.65
1610.79447	11785.55
1614.10715	10752.25
1617.41763	9990.95
1620.7259	9517.45
1624.03199	9315.25
1627.33587	9357.95
1630.63757	9636.55
1633.93707	10220.05
1637.23439	11160.05
1640.52951	12774.65
1643.82246	15306.35
1647.11321	18556.55
1650.40179	20913.65
1653.68819	20181.15
1656.97241	16722.05
1660.25446	13098.25
1663.53433	10738.15
1666.81203	9414.55
1670.08756	8649.25
1673.36092	8178.25
1676.63211	7873.75
1679.90115	7682.85
1683.16801	7518.15
1686.43272	7398.95
1689.69527	7313.35
1692.95567	7224.65
1696.2139	7185.95
1699.46999	7156.65
1702.72392	7138.35
1705.97571	7113.25
1709.22535	7107.55
1712.47284	7082.35
1715.71819	7112.75
1718.96139	7111.45
1722.20246	7087.15
1725.44139	7024.65
1728.67818	6962.65
1731.91284	6873.85
1735.14537	6791.55
1738.37576	6743.15
1741.60403	6718.65
1744.83017	6699.05
1748.05418	6658.35
1751.27607	6648.65
1754.49584	6606.65
1757.71349	6603.75
1760.92903	6563.35
1764.14244	6527.65
1767.35375	6493.85
1770.56294	6486.15
1773.77002	6443.55
1776.97499	6427.85
1780.17785	6368.75
1783.37861	6368.65
1786.57727	6328.35
1789.77382	6307.75
1792.96828	6310.65
1796.16064	6306.35
1799.3509	6286.35
1802.53907	6275.35
1805.72514	6250.95
1808.90913	6216.55
1812.09102	6174.15
1815.27083	6170.15
1818.44856	6150.15
1821.6242	6147.85
1824.79776	6113.05
1827.96924	6122.15
1831.13864	6120.15
1834.30597	6094.25
1837.47122	6081.75
1840.6344	6089.45
1843.7955	6065.35
1846.95454	6046.55
1850.11151	6041.25
1853.26642	6035.15
1856.41926	6039.25
1859.57004	6030.65
1862.71876	6034.45
1865.86542	6024.35
1869.01003	6021.85
1872.15258	6042.45
1875.29308	6025.75
1878.43152	6038.55
1881.56792	6035.95
1884.70227	6022.55
1887.83457	6017.15
1890.96482	6027.15
1894.09304	6008.15
1897.21921	5999.25
1900.34335	5992.15
1903.46544	5989.85
1906.58551	6008.55
1909.70353	5986.85
1912.81953	5989.85
1915.93349	5983.05
1919.04543	5952.25
1922.15534	5924.85
1925.26322	5906.05
1928.36908	5911.55
1931.47292	5893.05
1934.57473	5868.55
1937.67453	5843.25
1940.77232	5827.75
1943.86808	5802.45
1946.96184	5788.35
1950.05358	5774.15
1953.14331	5766.05
1956.23103	5747.95
1959.31675	5724.25
1962.40046	5707.55
1965.48217	5704.95
1968.56188	5697.15
1971.63959	5684.65
1974.7153	5651.05
1977.78901	5638.65
1980.86073	5632.05
1983.93046	5606.85
1986.99819	5580.95
1990.06394	5558.25
1993.1277	5533.15
1996.18947	5514.95
1999.24925	5475.65
2002.30706	5466.55
2005.36288	5451.45
2008.41672	5429.05
2011.46859	5420.05
2014.51848	5413.45
2017.56639	5390.95
2020.61233	5369.65
2023.6563	5359.55
2026.6983	5335.85
2029.73833	5310.05
2032.7764	5312.45
2035.8125	5294.45
2038.84664	5273.85
2041.87881	5278.95
2044.90903	5250.75
2047.93729	5254.45
2050.96359	5254.05
2053.98794	5225.65
2057.01034	5218.75
2060.03078	5226.95
2063.04927	5222.45
2066.06582	5214.45
2069.08042	5203.05
2072.09307	5197.85
2075.10378	5181.65
2078.11255	5184.15
2081.11938	5182.45
2084.12426	5169.35
2087.12722	5171.95
2090.12824	5173.15
2093.12732	5163.75
2096.12447	5163.45
2099.11969	5174.05
2102.11299	5173.55
2105.10435	5173.65
2108.09379	5166.95
2111.08131	5186.65
2114.0669	5187.95
2117.05057	5204.85
2120.03233	5202.95
2123.01216	5206.85
2125.99008	5212.25
2128.96609	5209.15
2131.94018	5208.35
2134.91236	5203.75
2137.88263	5207.55
2140.851	5195.55
2143.81746	5218.45
2146.78201	5213.55
2149.74466	5182.25
2152.7054	5179.85
2155.66425	5173.05
2158.6212	5153.95
2161.57625	5159.15
2164.52941	5167.65
2167.48067	5143.35
2170.43004	5136.75
2173.37752	5150.15
2176.32311	5153.25
2179.26681	5159.05
2182.20863	5144.15
2185.14856	5160.75
2188.08661	5155.15
2191.02278	5147.25
2193.95707	5148.75
2196.88948	5118.85
2199.82001	5108.75
2202.74867	5117.35
2205.67545	5105.75
2208.60037	5107.55
2211.52341	5103.55
2214.44458	5110.65
2217.36388	5063.95
2220.28132	5072.95
2223.1969	5066.55
2226.11061	5047.45
2229.02246	5029.15
2231.93245	5025.15
2234.84058	5005.35
2237.74686	5003.55
2240.65128	5013.75
2243.55385	4998.35
2246.45456	4984.75
2249.35343	4974.65
2252.25044	4979.75
2255.14561	4980.85
2258.03893	5008.25
2260.93041	4996.55
2263.82004	4998.85
2266.70783	4975.25
2269.59378	4965.75
2272.4779	4973.55
2275.36017	4954.05
2278.24061	4933.35
2281.11922	4925.65
2283.996	4915.45
2286.87094	4891.55
2289.74405	4881.85
2292.61534	4879.95
2295.4848	4858.15
2298.35243	4833.35
2301.21824	4839.15
2304.08223	4836.65
2306.94439	4835.75
2309.80474	4830.65
2312.66327	4826.45
2315.51999	4818.75
2318.37489	4825.85
2321.22797	4794.85
2324.07925	4809.95
2326.92871	4791.45
2329.77637	4799.25
2332.62222	4788.55
2335.46626	4789.05
2338.3085	4776.45
2341.14893	4779.25
2343.98756	4780.65
2346.8244	4778.65
2349.65943	4781.35
2352.49267	4791.25
2355.32411	4813.65
2358.15376	4846.55
2360.98161	4857.05
2363.80768	4853.55
2366.63195	4890.95
2369.45444	4890.35
2372.27514	4879.85
2375.09405	4875.65
2377.91118	4845.65
2380.72652	4826.15
2383.54009	4796.55
2386.35187	4756.65
2389.16188	4762.75
2391.97011	4725.25
2394.77657	4690.85
2397.58125	4683.25
2400.38416	4654.85
2403.18529	4635.75
2405.98466	4623.95
2408.78226	4616.85
2411.57809	4625.05
2414.37216	4590.75
2417.16446	4606.85
2419.955	4611.05
2422.74378	4601.15
2425.5308	4601.95
2428.31606	4602.55
2431.09956	4595.75
2433.88131	4571.95
2436.6613	4600.05
2439.43954	4611.15
2442.21603	4594.75
2444.99077	4607.95
2447.76377	4606.25
2450.53501	4601.75
2453.30451	4605.95
2456.07226	4618.95
2458.83827	4621.85
2461.60254	4601.55
2464.36507	4588.35
2467.12586	4605.25
2469.88492	4604.75
2472.64224	4602.85
2475.39782	4597.05
2478.15167	4631.55
2480.90379	4643.65
2483.65417	4657.75
2486.40283	4666.55
2489.14976	4686.05
2491.89497	4713.65
2494.63845	4704.95
2497.3802	4696.95
2500.12024	4692.05
2502.85855	4671.55
2505.59514	4626.05
2508.33002	4607.25
2511.06318	4563.25
2513.79462	4536.85
2516.52435	4510.45
2519.25237	4489.95
2521.97867	4465.15
2524.70327	4464.45
2527.42616	4453.55
2530.14734	4444.55
2532.86681	4447.85
2535.58458	4434.45
2538.30065	4435.75
2541.01501	4441.05
2543.72768	4433.55
2546.43864	4435.25
2549.14791	4448.05
2551.85548	4447.65
2554.56136	4437.85
2557.26554	4449.85
2559.96803	4427.65
2562.66883	4414.95
2565.36794	4413.05
2568.06536	4397.85
2570.7611	4381.95
2573.45514	4380.45
2576.14751	4366.85
2578.83819	4353.75
2581.52719	4360.65
2584.21451	4343.55
2586.90015	4339.65
2589.58411	4320.85
2592.2664	4318.25
2594.94701	4305.85
2597.62594	4308.45
2600.30321	4303.35
2602.9788	4307.95
2605.65273	4299.45
2608.32498	4299.65
2610.99557	4303.85
2613.66449	4294.35
2616.33175	4296.15
2618.99734	4293.95
2621.66128	4305.75
2624.32355	4285.95
2626.98416	4269.55
2629.64311	4259.35
2632.30041	4260.75
2634.95605	4240.95
2637.61004	4229.25
2640.26238	4237.25
2642.91306	4222.45
2645.56209	4226.65
2648.20948	4208.95
2650.85521	4197.05
2653.4993	4207.05
2656.14175	4212.75
2658.78255	4213.25
2661.42171	4223.75
2664.05923	4218.35
2666.6951	4248.45
2669.32934	4248.25
2671.96194	4232.05
2674.59291	4244.65
2677.22224	4235.55
2679.84993	4251.05
2682.476	4250.05
2685.10043	4255.85
2687.72324	4240.85
2690.34441	4253.15
2692.96396	4253.25
2695.58188	4247.35
2698.19818	4234.35
2700.81285	4242.55
2703.4259	4235.25
2706.03733	4248.15
2708.64714	4239.35
2711.25533	4269.85
2713.86191	4260.05
2716.46687	4248.65
2719.07021	4256.45
2721.67194	4276.65
2724.27206	4270.85
2726.87057	4243.85
2729.46747	4264.95
2732.06276	4265.45
2734.65644	4256.95
2737.24852	4244.85
2739.83899	4215.45
2742.42786	4228.15
2745.01513	4198.75
2747.60079	4209.15
2750.18486	4180.85
2752.76733	4187.55
2755.3482	4178.55
2757.92747	4170.25
2760.50515	4163.35
2763.08123	4142.45
2765.65573	4152.15
2768.22863	4147.45
2770.79994	4128.75
2773.36967	4154.55
2775.9378	4140.15
2778.50435	4146.95
2781.06932	4134.35
2783.6327	4123.65
2786.1945	4150.45
2788.75471	4153.75
2791.31335	4143.25
2793.87041	4157.05
2796.42589	4132.75
2798.97979	4143.45
2801.53212	4140.35
2804.08288	4156.25
2806.63206	4136.85
2809.17967	4136.75
2811.72571	4144.25
2814.27018	4167.75
2816.81308	4164.05
2819.35442	4174.05
2821.89419	4168.35
2824.43239	4193.85
2826.96904	4204.45
2829.50412	4199.85
2832.03763	4197.05
2834.56959	4204.15
2837.1	4213.85
2839.62884	4219.15
2842.15613	4244.35
2844.68186	4262.45
2847.20604	4294.05
2849.72867	4345.05
2852.24974	4357.85
2854.76927	4366.95
2857.28724	4363.75
2859.80367	4374.35
2862.31855	4348.55
2864.83189	4352.35
2867.34368	4335.75
2869.85393	4342.05
2872.36264	4357.25
2874.8698	4362.95
2877.37543	4340.65
2879.87952	4332.05
2882.38207	4325.35
2884.88308	4318.65
2887.38256	4304.55
2889.88051	4299.55
2892.37692	4297.15
2894.8718	4301.55
2897.36515	4305.65
2899.85698	4306.55
2902.34727	4307.75
2904.83604	4321.55
2907.32328	4317.05
2909.809	4334.65
2912.29319	4325.25
2914.77587	4310.25
2917.25702	4315.85
2919.73665	4299.35
2922.21476	4302.55
2924.69136	4290.05
2927.16644	4275.85
2929.64	4262.05
2932.11205	4246.05
2934.58258	4228.45
2937.05161	4229.05
2939.51912	4234.65
2941.98513	4218.45
2944.44962	4179.35
2946.91261	4120.35
2949.37409	4131.25
2951.83407	4116.45
2954.29254	4109.95
2956.74951	4105.25
2959.20498	4088.55
2961.65895	4076.15
2964.11142	4073.85
2966.56239	4037.55
2969.01186	4035.15
2971.45984	4017.35
2973.90632	4014.65
2976.35131	4002.65
2978.7948	3995.95
2981.23681	3970.05
2983.67732	3973.15
2986.11635	3973.45
2988.55388	3945.95
2990.98993	3940.25
2993.4245	3939.65
2995.85758	3938.45
2998.28917	3930.45
3000.71928	3921.15
3003.14791	3908.85
3005.57506	3916.45
3008.00073	3907.35
3010.42493	3894.15
3012.84764	3882.85
3015.26888	3899.15
3017.68865	3878.65
3020.10694	3878.75
3022.52376	3870.15
3024.9391	3877.45
3027.35298	3855.75
3029.76539	3845.65
3032.17632	3840.05
3034.5858	3830.25
3036.9938	3797.25
3039.40034	3799.85
3041.80542	3810.15
3044.20903	3788.15
3046.61118	3795.75
3049.01187	3785.65
3051.4111	3780.95
3053.80888	3770.15
3056.20519	3762.55
3058.60005	3751.35
3060.99345	3768.75
3063.3854	3746.45
3065.7759	3727.75
3068.16494	3734.75
3070.55254	3705.85
3072.93868	3703.05
3075.32338	3684.55
3077.70662	3677.25
3080.08842	3670.95
3082.46878	3649.65
3084.84769	3666.95
3087.22515	3655.35
3089.60118	3663.75
3091.97576	3652.05
3094.3489	3647.05
3096.72061	3648.55
3099.09087	3659.25
3101.4597	3659.15
3103.82709	3650.85
3106.19305	3642.45
3108.55757	3644.85
3110.92066	3631.35
3113.28232	3623.15
3115.64255	3628.25
3118.00134	3622.75
3120.35871	3618.85
3122.71466	3623.15
3125.06917	3626.45
3127.42226	3583.95
3129.77393	3611.45
3132.12417	3609.95
3134.47299	3639.65
3136.82039	3615.85
3139.16636	3629.05
3141.51092	3620.55
3143.85406	3628.95
3146.19579	3638.45
3148.53609	3638.55
3150.87499	3652.35
3153.21246	3647.25
3155.54853	3679.15
3157.88318	3676.25
3160.21642	3678.05
3162.54826	3687.45
3164.87868	3685.55
3167.2077	3688.95
3169.5353	3691.85
3171.86151	3686.15
3174.18631	3685.15
3176.5097	3671.65
3178.83169	3676.95
3181.15228	3690.05
3183.47147	3678.85
3185.78926	3673.95
3188.10565	3673.95
3190.42065	3671.35
3192.73424	3703.45
3195.04645	3704.65
3197.35725	3713.25
3199.66667	3710.35
3201.97469	3708.95
3204.28132	3725.25
3206.58656	3732.65
3208.8904	3733.05
3211.19287	3744.85
3213.49394	3758.55
3215.79363	3757.65
3218.09193	3748.75
3220.38884	3756.75
3222.68438	3777.15
3224.97853	3775.65
3227.2713	3768.75
3229.56269	3762.05
3231.8527	3767.75
3234.14133	3744.95
3236.42858	3742.25
3238.71446	3740.05
3240.99896	3734.15
3243.28209	3730.35
3245.56384	3733.05
3247.84423	3721.05
3250.12324	3724.75
3252.40088	3713.15
3254.67715	3729.35
3256.95205	3718.55
3259.22558	3728.75
3261.49775	3714.65
3263.76855	3712.95
3266.03799	3706.15
3268.30606	3720.15
3270.57277	3695.45
3272.83812	3689.85
3275.10211	3691.75
3277.36474	3690.45
3279.62601	3676.55
3281.88593	3671.05
3284.14448	3683.45
3286.40168	3672.65
3288.65753	3685.05
3290.91202	3693.75
3293.16516	3668.85
3295.41695	3665.75
3297.66738	3656.35
3299.91647	3628.95
3302.16421	3613.35
3304.4106	3600.95
3306.65564	3570.95
3308.89933	3538.55
3311.14169	3525.35
3313.38269	3479.15
3315.62236	3451.05
3317.86068	3434.15
3320.09766	3406.75
3322.3333	3389.55
3324.5676	3367.95
3326.80056	3314.85
3329.03219	3283.95
3331.26248	2.75
3333.49143	-0.55
3335.71905	-0.35
