Data from AgNPs_FTO_APTES_UA_50uM_CRN_2uM_R6G_10uM_NaF_0.1M_Addition_RamanShift__27__12-25-34-796.txt Node

Date: Mon Feb 21 12:25:34 GMT 2022
User: TCL
Spectrometer: QEP01345
Trigger mode: 4
Integration Time (sec): 7.000000E0
Scans to average: 10
Electric dark correction enabled: true
Nonlinearity correction enabled: false
Boxcar width: 0
XAxis mode: Raman Shifts
Number of Pixels in Spectrum: 1044
>>>>>Begin Spectral Data<<<<<
46.04893	0.75
50.45542	-0.35
54.85868	-1.25
59.25871	-2.25
63.6555	76.65
68.04907	79.05
72.43941	78.65
76.82654	86.05
81.21044	89.35
85.59113	94.25
89.96862	96.75
94.34289	98.15
98.71396	101.15
103.08183	107.65
107.4465	110.35
111.80798	109.05
116.16626	110.35
120.52136	111.25
124.87327	122.75
129.222	122.35
133.56755	126.45
137.90993	135.45
142.24913	146.85
146.58517	164.45
150.91804	189.25
155.24774	219.05
159.57429	269.75
163.89768	349.65
168.21792	460.75
172.53501	619.15
176.84895	875.65
181.15975	1226.45
185.46741	1719.85
189.77193	2370.65
194.07331	3181.25
198.37157	4088.35
202.6667	5061.55
206.9587	6026.15
211.24758	6987.15
215.53334	7996.65
219.81599	9056.35
224.09553	10277.15
228.37195	11620.95
232.64527	13092.35
236.91549	14610.35
241.18261	16014.65
245.44663	17295.55
249.70755	18362.95
253.96539	19330.95
258.22014	20164.95
262.4718	20811.15
266.72039	21249.25
270.96589	21459.65
275.20832	21431.15
279.44768	21234.15
283.68397	20963.25
287.91719	20741.25
292.14735	20701.05
296.37445	20947.15
300.59849	21359.65
304.81948	21913.25
309.03742	22302.95
313.25231	22216.05
317.46415	21412.45
321.67296	20300.85
325.87872	19409.85
330.08145	18934.95
334.28114	18979.85
338.47781	19221.95
342.67145	19680.85
346.86207	20287.45
351.04966	21161.55
355.23424	22207.25
359.4158	23012.75
363.59435	23466.65
367.76989	23643.45
371.94243	23621.35
376.11196	23564.35
380.27849	23535.75
384.44203	23485.55
388.60257	23320.45
392.76012	23334.85
396.91468	23567.95
401.06626	24046.55
405.21485	24424.35
409.36047	24222.55
413.50311	23446.95
417.64277	22752.35
421.77947	22344.05
425.9132	22238.65
430.04396	22281.55
434.17176	22406.75
438.2966	22690.85
442.41849	23156.35
446.53742	23838.65
450.6534	24566.75
454.76644	25118.15
458.87653	25290.35
462.98368	25154.75
467.08789	24775.65
471.18916	24208.25
475.2875	23707.45
479.38291	23333.05
483.4754	23007.35
487.56496	22733.05
491.6516	22494.65
495.73531	22296.45
499.81612	22185.15
503.89401	22360.05
507.96899	22510.85
512.04106	22635.05
516.11023	22755.45
520.1765	22837.45
524.23987	22787.65
528.30034	22563.95
532.35792	22326.05
536.41261	21990.45
540.46441	21681.45
544.51333	21574.05
548.55936	21720.75
552.60252	22166.45
556.64279	22659.25
560.6802	22926.35
564.71473	23249.75
568.7464	23960.75
572.7752	24457.65
576.80114	24207.55
580.82422	23888.15
584.84444	23859.65
588.86181	24040.05
592.87633	24344.95
596.888	24678.25
600.89682	25172.55
604.9028	27071.45
608.90594	32193.45
612.90624	38517.75
616.90371	36656.65
620.89834	28013.85
624.89015	24049.05
628.87913	23437.15
632.86528	23528.45
636.84862	23510.85
640.82913	23079.75
644.80683	22195.35
648.78172	21576.15
652.75379	21552.65
656.72306	22108.25
660.68952	22876.55
664.65319	22816.45
668.61405	22055.75
672.57211	21707.95
676.52738	21722.95
680.47986	21683.65
684.42955	21495.85
688.37646	21493.85
692.32058	21627.75
696.26192	21874.25
700.20048	22120.45
704.13626	22235.55
708.06928	22186.95
711.99952	21955.15
715.927	21914.75
719.85171	21993.75
723.77365	21967.55
727.69284	21773.65
731.60928	21556.95
735.52295	21520.35
739.43388	21538.15
743.34206	21718.65
747.24749	21825.35
751.15017	22037.55
755.05012	22483.85
758.94733	23324.75
762.8418	25247.75
766.73354	28351.55
770.62254	31379.35
774.50882	32596.95
778.39237	31159.75
782.27321	27876.65
786.15132	24769.15
790.02671	22953.95
793.89938	22157.85
797.76935	21851.65
801.6366	21731.15
805.50115	21656.75
809.36299	21589.35
813.22213	21479.95
817.07857	21468.35
820.93231	21422.85
824.78336	21412.05
828.63172	21457.75
832.47738	21509.65
836.32036	21590.05
840.16066	21594.05
843.99827	21639.05
847.8332	21616.95
851.66546	21512.25
855.49504	21419.75
859.32195	21373.55
863.1462	21278.75
866.96777	21170.75
870.78668	21141.25
874.60293	21178.35
878.41652	21209.65
882.22745	21348.55
886.03573	21407.45
889.84136	21363.45
893.64433	21286.95
897.44466	21228.65
901.24235	21198.25
905.0374	21075.95
908.8298	20983.65
912.61957	20959.05
916.40671	21079.75
920.19121	21332.15
923.97308	21591.75
927.75233	21841.95
931.52895	21941.65
935.30295	21700.65
939.07433	21225.65
942.84309	20833.35
946.60924	20666.15
950.37278	20538.45
954.13371	20389.15
957.89203	20294.25
961.64774	20222.75
965.40086	20172.85
969.15137	20111.45
972.89929	20042.15
976.64461	20028.75
980.38733	20034.25
984.12747	20117.85
987.86502	20274.55
991.59999	20526.45
995.33237	20994.95
999.06217	21754.55
1002.78939	22649.95
1006.51404	23272.05
1010.23611	23706.75
1013.95561	23947.25
1017.67255	23972.05
1021.38692	23794.25
1025.09872	23567.15
1028.80796	23870.75
1032.51465	24559.35
1036.21877	25143.65
1039.92035	25259.65
1043.61937	24893.95
1047.31584	24195.45
1051.00976	23402.55
1054.70114	22874.35
1058.38998	22736.15
1062.07627	22773.05
1065.76003	22828.25
1069.44126	22931.75
1073.11995	23114.15
1076.79611	23355.05
1080.46974	23613.75
1084.14085	24053.45
1087.80943	24487.95
1091.47549	24623.65
1095.13903	24312.95
1098.80005	23717.75
1102.45857	23231.65
1106.11456	22976.85
1109.76805	23057.25
1113.41903	23469.75
1117.06751	24016.35
1120.71348	24743.35
1124.35696	25509.55
1127.99793	26074.25
1131.63641	25872.35
1135.2724	25190.55
1138.90589	24455.05
1142.5369	23998.85
1146.16542	23684.85
1149.79145	23564.65
1153.415	23620.65
1157.03607	23822.05
1160.65467	24299.55
1164.27079	25069.75
1167.88443	26300.45
1171.49561	28091.75
1175.10432	30850.45
1178.71056	34488.75
1182.31434	37613.95
1185.91565	38948.75
1189.51451	38516.25
1193.11091	36659.75
1196.70485	34411.95
1200.29634	32571.15
1203.88538	31104.95
1207.47197	29641.85
1211.05612	28461.05
1214.63782	27890.55
1218.21708	27747.35
1221.79391	27799.95
1225.36829	27903.55
1228.94024	27807.85
1232.50976	27516.75
1236.07685	27322.25
1239.6415	27222.25
1243.20374	27262.85
1246.76355	27490.55
1250.32093	27864.45
1253.8759	28520.05
1257.42845	29416.95
1260.97859	30231.85
1264.52631	31009.85
1268.07163	31824.15
1271.61453	32633.05
1275.15503	33467.95
1278.69312	34304.55
1282.22882	35107.55
1285.76211	35939.65
1289.29301	36923.65
1292.82151	37965.25
1296.34761	39150.05
1299.87133	41123.25
1303.39266	44233.85
1306.9116	48393.25
1310.42815	52770.45
1313.94233	54934.15
1317.45412	53785.85
1320.96354	50972.95
1324.47058	47969.15
1327.97525	45473.05
1331.47754	44067.55
1334.97747	43857.05
1338.47502	44402.05
1341.97022	45327.95
1345.46305	46203.35
1348.95352	46978.25
1352.44163	48099.35
1355.92738	50740.45
1359.41078	55685.85
1362.89183	60118.75
1366.37053	58098.45
1369.84688	50550.35
1373.32088	43350.55
1376.79254	38894.75
1380.26186	36555.55
1383.72883	35432.45
1387.19347	34634.85
1390.65578	33848.45
1394.11575	33419.05
1397.57339	33612.95
1401.0287	34186.45
1404.48168	34955.65
1407.93234	35705.45
1411.38068	36260.85
1414.82669	36234.95
1418.27039	35488.85
1421.71177	34324.85
1425.15083	33198.85
1428.58758	32677.25
1432.02203	32724.25
1435.45416	33016.45
1438.88399	33227.75
1442.31151	33461.35
1445.73673	33696.95
1449.15965	34036.75
1452.58027	34100.95
1455.9986	33948.45
1459.41463	33975.75
1462.82837	34335.05
1466.23982	34973.65
1469.64898	35768.65
1473.05586	36217.05
1476.46045	36494.05
1479.86276	36914.35
1483.26279	37319.55
1486.66054	37970.45
1490.05602	38946.25
1493.44922	40106.55
1496.84016	41617.95
1500.22882	43898.95
1503.61521	47293.55
1506.99934	51293.05
1510.38121	54352.25
1513.76081	54600.95
1517.13816	51290.45
1520.51324	46377.25
1523.88607	42055.95
1527.25665	39271.75
1530.62498	37840.25
1533.99105	36870.75
1537.35488	36311.05
1540.71647	35991.45
1544.07581	35799.75
1547.4329	35508.05
1550.78776	35220.75
1554.14038	35081.15
1557.49077	35111.55
1560.83892	35310.15
1564.18484	35693.25
1567.52853	36158.45
1570.86999	36444.55
1574.20922	36646.55
1577.54624	36524.15
1580.88103	35552.15
1584.2136	34471.35
1587.54395	34494.25
1590.87208	35864.35
1594.19801	38536.95
1597.52172	41472.05
1600.84321	42707.55
1604.16251	41308.55
1607.47959	38332.35
1610.79447	35022.25
1614.10715	32031.65
1617.41763	29713.95
1620.7259	28299.45
1624.03199	27660.25
1627.33587	27753.65
1630.63757	28593.25
1633.93707	30249.55
1637.23439	32607.15
1640.52951	35754.65
1643.82246	39432.45
1647.11321	42886.55
1650.40179	44320.15
1653.68819	41871.45
1656.97241	36464.75
1660.25446	31080.95
1663.53433	27281.65
1666.81203	24977.25
1670.08756	23605.35
1673.36092	22790.85
1676.63211	22263.95
1679.90115	21858.95
1683.16801	21522.55
1686.43272	21315.65
1689.69527	21164.25
1692.95567	20989.95
1696.2139	20815.55
1699.46999	20682.75
1702.72392	20607.55
1705.97571	20656.25
1709.22535	20737.75
1712.47284	20832.45
1715.71819	20802.55
1718.96139	20778.65
1722.20246	20735.05
1725.44139	20605.15
1728.67818	20487.05
1731.91284	20438.45
1735.14537	20314.65
1738.37576	20231.05
1741.60403	20154.65
1744.83017	20083.95
1748.05418	20019.95
1751.27607	19943.85
1754.49584	19833.65
1757.71349	19803.95
1760.92903	19799.45
1764.14244	19751.75
1767.35375	19786.75
1770.56294	19740.65
1773.77002	19742.85
1776.97499	19770.45
1780.17785	19785.75
1783.37861	19774.35
1786.57727	19766.35
1789.77382	19777.75
1792.96828	19751.35
1796.16064	19724.45
1799.3509	19747.75
1802.53907	19732.95
1805.72514	19666.85
1808.90913	19617.85
1812.09102	19580.15
1815.27083	19508.45
1818.44856	19537.15
1821.6242	19517.35
1824.79776	19509.85
1827.96924	19442.75
1831.13864	19464.25
1834.30597	19458.65
1837.47122	19460.25
1840.6344	19439.55
1843.7955	19442.65
1846.95454	19378.95
1850.11151	19384.55
1853.26642	19405.15
1856.41926	19411.95
1859.57004	19449.35
1862.71876	19416.45
1865.86542	19446.65
1869.01003	19428.05
1872.15258	19417.25
1875.29308	19446.85
1878.43152	19502.15
1881.56792	19487.55
1884.70227	19511.85
1887.83457	19508.85
1890.96482	19526.95
1894.09304	19459.05
1897.21921	19475.75
1900.34335	19503.35
1903.46544	19463.75
1906.58551	19485.75
1909.70353	19475.05
1912.81953	19498.55
1915.93349	19488.15
1919.04543	19433.45
1922.15534	19413.35
1925.26322	19365.05
1928.36908	19308.15
1931.47292	19262.55
1934.57473	19195.55
1937.67453	19155.65
1940.77232	19084.35
1943.86808	19043.85
1946.96184	19010.75
1950.05358	18910.05
1953.14331	18840.15
1956.23103	18824.85
1959.31675	18757.95
1962.40046	18710.45
1965.48217	18680.05
1968.56188	18618.45
1971.63959	18569.65
1974.7153	18501.85
1977.78901	18446.75
1980.86073	18419.75
1983.93046	18359.55
1986.99819	18267.75
1990.06394	18219.05
1993.1277	18189.75
1996.18947	18148.85
1999.24925	18093.85
2002.30706	18026.65
2005.36288	17974.35
2008.41672	17925.95
2011.46859	17846.65
2014.51848	17843.75
2017.56639	17789.75
2020.61233	17753.95
2023.6563	17737.55
2026.6983	17683.95
2029.73833	17649.45
2032.7764	17625.85
2035.8125	17599.65
2038.84664	17585.45
2041.87881	17591.95
2044.90903	17522.35
2047.93729	17510.15
2050.96359	17532.25
2053.98794	17511.85
2057.01034	17505.65
2060.03078	17487.45
2063.04927	17428.65
2066.06582	17414.05
2069.08042	17387.65
2072.09307	17363.45
2075.10378	17364.55
2078.11255	17335.15
2081.11938	17365.85
2084.12426	17333.75
2087.12722	17347.85
2090.12824	17328.95
2093.12732	17321.75
2096.12447	17345.45
2099.11969	17319.55
2102.11299	17336.25
2105.10435	17339.95
2108.09379	17334.75
2111.08131	17340.55
2114.0669	17318.45
2117.05057	17372.15
2120.03233	17372.35
2123.01216	17390.45
2125.99008	17390.45
2128.96609	17428.95
2131.94018	17483.45
2134.91236	17494.45
2137.88263	17471.45
2140.851	17483.45
2143.81746	17545.85
2146.78201	17513.65
2149.74466	17484.15
2152.7054	17480.05
2155.66425	17484.65
2158.6212	17487.15
2161.57625	17482.85
2164.52941	17515.45
2167.48067	17508.55
2170.43004	17501.15
2173.37752	17459.45
2176.32311	17460.85
2179.26681	17471.75
2182.20863	17484.15
2185.14856	17509.95
2188.08661	17534.35
2191.02278	17526.15
2193.95707	17514.25
2196.88948	17520.05
2199.82001	17520.35
2202.74867	17500.55
2205.67545	17553.35
2208.60037	17521.95
2211.52341	17469.05
2214.44458	17481.75
2217.36388	17434.85
2220.28132	17460.65
2223.1969	17428.85
2226.11061	17419.25
2229.02246	17338.85
2231.93245	17340.25
2234.84058	17291.35
2237.74686	17245.05
2240.65128	17242.65
2243.55385	17198.25
2246.45456	17234.05
2249.35343	17199.85
2252.25044	17182.95
2255.14561	17181.15
2258.03893	17209.45
2260.93041	17142.25
2263.82004	17083.05
2266.70783	17081.75
2269.59378	17014.25
2272.4779	16981.95
2275.36017	16976.25
2278.24061	16944.85
2281.11922	16903.55
2283.996	16868.95
2286.87094	16863.85
2289.74405	16817.95
2292.61534	16836.05
2295.4848	16808.15
2298.35243	16817.55
2301.21824	16817.95
2304.08223	16837.25
2306.94439	16823.55
2309.80474	16847.35
2312.66327	16852.45
2315.51999	16831.25
2318.37489	16842.25
2321.22797	16861.55
2324.07925	16815.35
2326.92871	16810.75
2329.77637	16830.85
2332.62222	16823.75
2335.46626	16815.55
2338.3085	16805.85
2341.14893	16832.75
2343.98756	16880.65
2346.8244	16902.85
2349.65943	16902.65
2352.49267	16887.65
2355.32411	16921.55
2358.15376	16894.35
2360.98161	16889.05
2363.80768	16890.55
2366.63195	16862.15
2369.45444	16836.15
2372.27514	16782.45
2375.09405	16758.75
2377.91118	16732.85
2380.72652	16710.05
2383.54009	16651.65
2386.35187	16603.75
2389.16188	16523.05
2391.97011	16531.75
2394.77657	16520.85
2397.58125	16499.15
2400.38416	16494.85
2403.18529	16452.55
2405.98466	16448.65
2408.78226	16376.15
2411.57809	16334.35
2414.37216	16333.65
2417.16446	16317.55
2419.955	16239.95
2422.74378	16248.85
2425.5308	16226.45
2428.31606	16239.75
2431.09956	16240.05
2433.88131	16218.65
2436.6613	16239.85
2439.43954	16283.15
2442.21603	16241.55
2444.99077	16205.85
2447.76377	16225.35
2450.53501	16224.15
2453.30451	16225.25
2456.07226	16204.75
2458.83827	16198.05
2461.60254	16202.95
2464.36507	16194.45
2467.12586	16168.55
2469.88492	16178.95
2472.64224	16165.95
2475.39782	16174.45
2478.15167	16211.35
2480.90379	16264.65
2483.65417	16324.95
2486.40283	16292.85
2489.14976	16317.35
2491.89497	16311.55
2494.63845	16359.55
2497.3802	16337.85
2500.12024	16352.95
2502.85855	16329.15
2505.59514	16311.85
2508.33002	16306.25
2511.06318	16254.75
2513.79462	16223.55
2516.52435	16171.25
2519.25237	16169.05
2521.97867	16127.25
2524.70327	16166.35
2527.42616	16134.95
2530.14734	16163.75
2532.86681	16142.35
2535.58458	16162.05
2538.30065	16140.05
2541.01501	16117.55
2543.72768	16119.75
2546.43864	16130.05
2549.14791	16092.75
2551.85548	16106.75
2554.56136	16055.95
2557.26554	16053.85
2559.96803	16062.95
2562.66883	15993.75
2565.36794	16020.05
2568.06536	16016.65
2570.7611	16006.75
2573.45514	16029.85
2576.14751	16002.45
2578.83819	15981.75
2581.52719	15980.55
2584.21451	15950.75
2586.90015	15965.65
2589.58411	15983.45
2592.2664	15956.75
2594.94701	15962.85
2597.62594	15966.05
2600.30321	15942.25
2602.9788	15945.65
2605.65273	15924.95
2608.32498	15950.55
2610.99557	15945.75
2613.66449	15957.05
2616.33175	15929.15
2618.99734	15995.15
2621.66128	15979.35
2624.32355	15988.95
2626.98416	15982.95
2629.64311	15998.55
2632.30041	16021.75
2634.95605	15988.45
2637.61004	15948.75
2640.26238	15906.95
2642.91306	15887.65
2645.56209	15884.85
2648.20948	15804.55
2650.85521	15834.95
2653.4993	15815.25
2656.14175	15859.85
2658.78255	15863.35
2661.42171	15895.65
2664.05923	15910.55
2666.6951	15907.35
2669.32934	15957.75
2671.96194	15972.15
2674.59291	15966.05
2677.22224	15964.75
2679.84993	15958.25
2682.476	15976.45
2685.10043	15983.15
2687.72324	15956.85
2690.34441	15927.25
2692.96396	15948.65
2695.58188	15951.65
2698.19818	15879.35
2700.81285	15871.95
2703.4259	15865.45
2706.03733	15830.15
2708.64714	15833.55
2711.25533	15896.35
2713.86191	15898.35
2716.46687	15925.55
2719.07021	15945.55
2721.67194	15976.45
2724.27206	15954.65
2726.87057	15995.95
2729.46747	15974.15
2732.06276	16001.05
2734.65644	16017.45
2737.24852	15999.55
2739.83899	15978.85
2742.42786	15987.55
2745.01513	15976.55
2747.60079	15948.85
2750.18486	15925.35
2752.76733	15925.35
2755.3482	15941.45
2757.92747	15932.15
2760.50515	15928.65
2763.08123	15922.85
2765.65573	15910.55
2768.22863	15908.55
2770.79994	15893.45
2773.36967	15895.95
2775.9378	15890.65
2778.50435	15871.05
2781.06932	15880.85
2783.6327	15882.55
2786.1945	15869.05
2788.75471	15884.05
2791.31335	15862.65
2793.87041	15832.15
2796.42589	15796.85
2798.97979	15778.25
2801.53212	15747.65
2804.08288	15748.65
2806.63206	15752.45
2809.17967	15750.55
2811.72571	15683.75
2814.27018	15712.25
2816.81308	15669.45
2819.35442	15683.65
2821.89419	15653.25
2824.43239	15679.25
2826.96904	15666.35
2829.50412	15626.95
2832.03763	15624.35
2834.56959	15647.25
2837.1	15635.35
2839.62884	15640.25
2842.15613	15579.75
2844.68186	15580.95
2847.20604	15563.05
2849.72867	15595.25
2852.24974	15564.25
2854.76927	15572.95
2857.28724	15547.95
2859.80367	15572.05
2862.31855	15514.75
2864.83189	15509.05
2867.34368	15502.65
2869.85393	15518.05
2872.36264	15526.95
2874.8698	15500.55
2877.37543	15500.85
2879.87952	15506.05
2882.38207	15476.55
2884.88308	15481.95
2887.38256	15523.95
2889.88051	15519.05
2892.37692	15512.85
2894.8718	15484.65
2897.36515	15533.15
2899.85698	15530.75
2902.34727	15576.75
2904.83604	15570.15
2907.32328	15578.45
2909.809	15593.85
2912.29319	15583.55
2914.77587	15600.45
2917.25702	15560.75
2919.73665	15537.95
2922.21476	15533.75
2924.69136	15519.25
2927.16644	15524.65
2929.64	15506.85
2932.11205	15485.95
2934.58258	15432.05
2937.05161	15410.85
2939.51912	15451.95
2941.98513	15409.85
2944.44962	15392.75
2946.91261	15351.55
2949.37409	15417.35
2951.83407	15390.85
2954.29254	15396.65
2956.74951	15357.95
2959.20498	15359.55
2961.65895	15368.75
2964.11142	15376.35
2966.56239	15316.45
2969.01186	15342.85
2971.45984	15310.45
2973.90632	15280.35
2976.35131	15224.55
2978.7948	15197.75
2981.23681	15152.45
2983.67732	15160.75
2986.11635	15131.25
2988.55388	15071.25
2990.98993	15027.25
2993.4245	15014.15
2995.85758	14987.35
2998.28917	14934.55
3000.71928	14936.05
3003.14791	14909.75
3005.57506	14882.85
3008.00073	14834.35
3010.42493	14867.05
3012.84764	14842.05
3015.26888	14842.45
3017.68865	14799.15
3020.10694	14788.15
3022.52376	14752.25
3024.9391	14721.05
3027.35298	14674.85
3029.76539	14678.65
3032.17632	14675.35
3034.5858	14647.45
3036.9938	14616.65
3039.40034	14595.85
3041.80542	14562.85
3044.20903	14556.75
3046.61118	14566.65
3049.01187	14515.35
3051.4111	14514.05
3053.80888	14488.45
3056.20519	14424.25
3058.60005	14396.45
3060.99345	14364.15
3063.3854	14336.25
3065.7759	14280.25
3068.16494	14270.25
3070.55254	14192.95
3072.93868	14164.95
3075.32338	14101.35
3077.70662	14067.25
3080.08842	14039.35
3082.46878	14040.85
3084.84769	13994.55
3087.22515	13965.05
3089.60118	13976.45
3091.97576	13981.05
3094.3489	13969.75
3096.72061	13978.75
3099.09087	13965.25
3101.4597	13989.95
3103.82709	13938.85
3106.19305	13939.95
3108.55757	13916.85
3110.92066	13873.65
3113.28232	13854.65
3115.64255	13844.45
3118.00134	13831.55
3120.35871	13787.85
3122.71466	13787.25
3125.06917	13722.35
3127.42226	13745.35
3129.77393	13717.45
3132.12417	13680.25
3134.47299	13667.15
3136.82039	13658.95
3139.16636	13657.55
3141.51092	13649.15
3143.85406	13662.85
3146.19579	13655.55
3148.53609	13669.95
3150.87499	13650.95
3153.21246	13639.05
3155.54853	13662.05
3157.88318	13630.15
3160.21642	13687.95
3162.54826	13635.65
3164.87868	13637.35
3167.2077	13681.35
3169.5353	13637.65
3171.86151	13648.25
3174.18631	13593.55
3176.5097	13591.45
3178.83169	13582.95
3181.15228	13599.55
3183.47147	13542.25
3185.78926	13533.35
3188.10565	13555.85
3190.42065	13550.35
3192.73424	13531.35
3195.04645	13556.45
3197.35725	13526.25
3199.66667	13508.95
3201.97469	13539.25
3204.28132	13550.45
3206.58656	13544.85
3208.8904	13547.55
3211.19287	13579.35
3213.49394	13562.85
3215.79363	13557.65
3218.09193	13558.45
3220.38884	13571.25
3222.68438	13556.75
3224.97853	13532.15
3227.2713	13551.45
3229.56269	13531.55
3231.8527	13529.05
3234.14133	13497.15
3236.42858	13483.05
3238.71446	13484.85
3240.99896	13434.45
3243.28209	13445.15
3245.56384	13438.35
3247.84423	13413.25
3250.12324	13404.55
3252.40088	13371.65
3254.67715	13364.75
3256.95205	13357.85
3259.22558	13355.85
3261.49775	13380.75
3263.76855	13370.85
3266.03799	13366.85
3268.30606	13339.55
3270.57277	13282.05
3272.83812	13277.85
3275.10211	13257.85
3277.36474	13246.35
3279.62601	13231.05
3281.88593	13234.05
3284.14448	13249.25
3286.40168	13240.35
3288.65753	13229.95
3290.91202	13204.95
3293.16516	13171.75
3295.41695	13163.55
3297.66738	13085.15
3299.91647	13006.85
3302.16421	12970.25
3304.4106	12930.85
3306.65564	12815.05
3308.89933	12747.75
3311.14169	12637.45
3313.38269	12540.25
3315.62236	12449.25
3317.86068	12350.15
3320.09766	12266.85
3322.3333	12175.55
3324.5676	12141.35
3326.80056	11916.55
3329.03219	11876.25
3331.26248	3.35
3333.49143	-0.45
3335.71905	1.05
