Data from AgNPs_FTO_APTES_UA_50uM_CRN_200uM_R6G_10uM_NaF_0.1M_Addition_RamanShift__32__16-31-45-105.txt Node

Date: Mon Feb 21 16:31:45 GMT 2022
User: TCL
Spectrometer: QEP01345
Trigger mode: 4
Integration Time (sec): 7.000000E0
Scans to average: 10
Electric dark correction enabled: true
Nonlinearity correction enabled: false
Boxcar width: 0
XAxis mode: Raman Shifts
Number of Pixels in Spectrum: 1044
>>>>>Begin Spectral Data<<<<<
46.04893	0.55
50.45542	-0.65
54.85868	-0.45
59.25871	-1.95
63.6555	42.75
68.04907	49.55
72.43941	49.95
76.82654	52.35
81.21044	55.75
85.59113	57.15
89.96862	57.75
94.34289	65.05
98.71396	61.55
103.08183	70.55
107.4465	67.45
111.80798	66.25
116.16626	64.85
120.52136	67.95
124.87327	73.35
129.222	72.15
133.56755	75.55
137.90993	82.45
142.24913	86.05
146.58517	92.45
150.91804	106.55
155.24774	119.45
159.57429	149.95
163.89768	185.35
168.21792	247.95
172.53501	326.35
176.84895	450.55
181.15975	624.65
185.46741	874.25
189.77193	1201.05
194.07331	1598.55
198.37157	2076.85
202.6667	2553.15
206.9587	3050.05
211.24758	3560.55
215.53334	4110.75
219.81599	4752.35
224.09553	5487.15
228.37195	6309.95
232.64527	7218.95
236.91549	8099.55
241.18261	8860.55
245.44663	9424.05
249.70755	9834.95
253.96539	10111.25
258.22014	10301.05
262.4718	10433.55
266.72039	10492.85
270.96589	10453.55
275.20832	10283.65
279.44768	10021.85
283.68397	9715.25
287.91719	9534.75
292.14735	9656.55
296.37445	10180.15
300.59849	11054.45
304.81948	12105.45
309.03742	12900.15
313.25231	12974.95
317.46415	12020.45
321.67296	10516.05
325.87872	9231.85
330.08145	8624.55
334.28114	8590.35
338.47781	8864.25
342.67145	9330.65
346.86207	10069.35
351.04966	11210.35
355.23424	12466.95
359.4158	13367.25
363.59435	13699.75
367.76989	13715.25
371.94243	13562.25
376.11196	13343.85
380.27849	13120.85
384.44203	12730.25
388.60257	12294.85
392.76012	11960.05
396.91468	12008.35
401.06626	12392.35
405.21485	12725.95
409.36047	12183.55
413.50311	10901.35
417.64277	9718.85
421.77947	8996.85
425.9132	8636.15
430.04396	8500.55
434.17176	8528.65
438.2966	8734.85
442.41849	9064.15
446.53742	9444.05
450.6534	9735.45
454.76644	9894.35
458.87653	9842.75
462.98368	9638.95
467.08789	9354.05
471.18916	9048.65
475.2875	8662.55
479.38291	8364.95
483.4754	8151.95
487.56496	7998.85
491.6516	7931.95
495.73531	7919.05
499.81612	8016.95
503.89401	8233.85
507.96899	8546.15
512.04106	8917.25
516.11023	9361.05
520.1765	9681.15
524.23987	9640.45
528.30034	9302.65
532.35792	8906.55
536.41261	8533.05
540.46441	8098.45
544.51333	7862.05
548.55936	7857.15
552.60252	8142.85
556.64279	8495.55
560.6802	8713.55
564.71473	9071.75
568.7464	9875.05
572.7752	10281.75
576.80114	9435.15
580.82422	8467.95
584.84444	8039.65
588.86181	7915.25
592.87633	7958.45
596.888	8182.95
600.89682	8778.75
604.9028	11000.35
608.90594	17341.25
612.90624	26067.85
616.90371	24957.65
620.89834	14388.45
624.89015	9423.75
628.87913	8486.85
632.86528	8680.85
636.84862	9043.05
640.82913	8849.95
644.80683	8110.85
648.78172	7567.55
652.75379	7597.95
656.72306	8312.35
660.68952	9166.45
664.65319	8892.25
668.61405	7883.05
672.57211	7408.95
676.52738	7383.35
680.47986	7410.15
684.42955	7286.75
688.37646	7166.25
692.32058	7175.95
696.26192	7250.95
700.20048	7398.65
704.13626	7511.05
708.06928	7443.25
711.99952	7320.35
715.927	7331.65
719.85171	7470.75
723.77365	7524.25
727.69284	7452.65
731.60928	7355.85
735.52295	7361.45
739.43388	7373.45
743.34206	7410.65
747.24749	7440.15
751.15017	7470.75
755.05012	7676.85
758.94733	8454.55
762.8418	10376.05
766.73354	13667.05
770.62254	17208.35
774.50882	19430.35
778.39237	18774.65
782.27321	15034.95
786.15132	11123.45
790.02671	8909.45
793.89938	8027.75
797.76935	7648.45
801.6366	7477.15
805.50115	7407.05
809.36299	7397.95
813.22213	7337.95
817.07857	7315.95
820.93231	7277.45
824.78336	7288.85
828.63172	7360.55
832.47738	7373.35
836.32036	7299.05
840.16066	7184.85
843.99827	7119.05
847.8332	7072.15
851.66546	7071.25
855.49504	7101.85
859.32195	7090.45
863.1462	7021.25
866.96777	6982.85
870.78668	6978.55
874.60293	7033.15
878.41652	7107.15
882.22745	7217.05
886.03573	7305.85
889.84136	7296.25
893.64433	7203.25
897.44466	7182.35
901.24235	7181.65
905.0374	7117.55
908.8298	7011.25
912.61957	6935.15
916.40671	6923.35
920.19121	6967.85
923.97308	7056.85
927.75233	7283.95
931.52895	7572.55
935.30295	7476.55
939.07433	7070.55
942.84309	6673.75
946.60924	6440.25
950.37278	6330.85
954.13371	6295.55
957.89203	6279.55
961.64774	6251.75
965.40086	6241.55
969.15137	6210.65
972.89929	6197.05
976.64461	6194.55
980.38733	6200.75
984.12747	6188.95
987.86502	6220.15
991.59999	6268.45
995.33237	6372.85
999.06217	6495.35
1002.78939	6679.35
1006.51404	6901.25
1010.23611	7196.15
1013.95561	7365.45
1017.67255	7314.85
1021.38692	7155.75
1025.09872	6969.75
1028.80796	6848.55
1032.51465	6815.85
1036.21877	6912.75
1039.92035	7012.75
1043.61937	7081.45
1047.31584	7124.45
1051.00976	7111.15
1054.70114	7055.05
1058.38998	6988.55
1062.07627	7003.65
1065.76003	7019.65
1069.44126	7024.25
1073.11995	7141.75
1076.79611	7352.25
1080.46974	7736.35
1084.14085	8280.35
1087.80943	8785.65
1091.47549	8918.85
1095.13903	8566.95
1098.80005	7981.85
1102.45857	7559.55
1106.11456	7518.55
1109.76805	7733.35
1113.41903	8219.05
1117.06751	8964.85
1120.71348	9961.25
1124.35696	10978.55
1127.99793	11711.15
1131.63641	11340.95
1135.2724	10083.05
1138.90589	9060.15
1142.5369	8402.95
1146.16542	8016.65
1149.79145	7750.15
1153.415	7650.65
1157.03607	7722.85
1160.65467	7985.45
1164.27079	8453.75
1167.88443	9220.75
1171.49561	10526.25
1175.10432	12823.15
1178.71056	15932.75
1182.31434	18115.45
1185.91565	18277.55
1189.51451	17061.75
1193.11091	15115.95
1196.70485	13192.35
1200.29634	12042.15
1203.88538	11186.75
1207.47197	10028.15
1211.05612	8993.45
1214.63782	8381.95
1218.21708	8127.55
1221.79391	8014.85
1225.36829	8000.15
1228.94024	8005.75
1232.50976	8006.15
1236.07685	8007.85
1239.6415	8099.65
1243.20374	8229.05
1246.76355	8329.05
1250.32093	8465.95
1253.8759	8723.35
1257.42845	9108.15
1260.97859	9565.45
1264.52631	10115.85
1268.07163	10642.75
1271.61453	11094.05
1275.15503	11322.15
1278.69312	11299.95
1282.22882	11290.55
1285.76211	11604.95
1289.29301	12245.05
1292.82151	12890.95
1296.34761	13566.75
1299.87133	14760.65
1303.39266	17043.65
1306.9116	20678.35
1310.42815	24514.35
1313.94233	25996.45
1317.45412	24084.15
1320.96354	20515.25
1324.47058	17133.85
1327.97525	14480.85
1331.47754	12997.05
1334.97747	12487.65
1338.47502	12764.05
1341.97022	13720.25
1345.46305	15408.65
1348.95352	17881.55
1352.44163	21022.05
1355.92738	25396.45
1359.41078	31773.65
1362.89183	36831.05
1366.37053	34382.25
1369.84688	26749.95
1373.32088	20038.95
1376.79254	15805.85
1380.26186	13492.15
1383.72883	12233.85
1387.19347	11283.75
1390.65578	10372.05
1394.11575	9647.45
1397.57339	9294.75
1401.0287	9150.35
1404.48168	9141.05
1407.93234	9206.25
1411.38068	9350.45
1414.82669	9489.15
1418.27039	9595.45
1421.71177	9610.05
1425.15083	9456.75
1428.58758	9421.65
1432.02203	9560.75
1435.45416	9702.35
1438.88399	9706.55
1442.31151	9652.85
1445.73673	9666.25
1449.15965	9752.85
1452.58027	9686.35
1455.9986	9530.45
1459.41463	9432.95
1462.82837	9580.85
1466.23982	9900.25
1469.64898	10234.15
1473.05586	10467.15
1476.46045	10585.95
1479.86276	10927.15
1483.26279	11440.05
1486.66054	12078.65
1490.05602	12983.45
1493.44922	14275.45
1496.84016	16438.15
1500.22882	19965.15
1503.61521	24830.95
1506.99934	30250.65
1510.38121	34799.75
1513.76081	36094.45
1517.13816	32506.25
1520.51324	25965.95
1523.88607	19988.65
1527.25665	16164.35
1530.62498	14073.45
1533.99105	12845.25
1537.35488	12076.75
1540.71647	11734.45
1544.07581	11685.85
1547.4329	11846.85
1550.78776	12009.65
1554.14038	12224.45
1557.49077	12508.55
1560.83892	12983.35
1564.18484	13786.85
1567.52853	14813.45
1570.86999	15665.25
1574.20922	16088.45
1577.54624	15804.65
1580.88103	14275.85
1584.2136	12222.75
1587.54395	10935.75
1590.87208	10651.05
1594.19801	11287.85
1597.52172	12465.75
1600.84321	12982.05
1604.16251	12420.55
1607.47959	11482.05
1610.79447	10500.45
1614.10715	9486.75
1617.41763	8713.05
1620.7259	8211.25
1624.03199	8038.05
1627.33587	8068.95
1630.63757	8337.35
1633.93707	8874.95
1637.23439	9857.15
1640.52951	11451.05
1643.82246	14087.05
1647.11321	17680.55
1650.40179	20497.45
1653.68819	19991.35
1656.97241	16313.45
1660.25446	12360.75
1663.53433	9673.75
1666.81203	8228.95
1670.08756	7425.55
1673.36092	6981.45
1676.63211	6679.85
1679.90115	6483.45
1683.16801	6322.05
1686.43272	6195.25
1689.69527	6084.25
1692.95567	5967.25
1696.2139	5871.35
1699.46999	5733.05
1702.72392	5698.75
1705.97571	5774.85
1709.22535	5861.85
1712.47284	5912.15
1715.71819	5971.25
1718.96139	5992.65
1722.20246	5980.75
1725.44139	5949.55
1728.67818	5860.45
1731.91284	5787.25
1735.14537	5697.15
1738.37576	5644.15
1741.60403	5612.55
1744.83017	5555.25
1748.05418	5515.15
1751.27607	5478.35
1754.49584	5420.15
1757.71349	5355.25
1760.92903	5294.75
1764.14244	5279.75
1767.35375	5283.15
1770.56294	5233.75
1773.77002	5214.95
1776.97499	5227.95
1780.17785	5227.75
1783.37861	5229.45
1786.57727	5219.25
1789.77382	5210.25
1792.96828	5230.25
1796.16064	5208.85
1799.3509	5227.45
1802.53907	5214.85
1805.72514	5184.05
1808.90913	5149.65
1812.09102	5120.75
1815.27083	5111.95
1818.44856	5091.25
1821.6242	5065.05
1824.79776	5069.25
1827.96924	5056.05
1831.13864	5042.15
1834.30597	5034.55
1837.47122	5020.45
1840.6344	5025.85
1843.7955	5004.45
1846.95454	4999.35
1850.11151	4990.55
1853.26642	4978.25
1856.41926	4971.05
1859.57004	4983.25
1862.71876	4965.85
1865.86542	4979.85
1869.01003	4993.05
1872.15258	4991.15
1875.29308	4984.35
1878.43152	4978.35
1881.56792	4970.85
1884.70227	4967.45
1887.83457	4957.35
1890.96482	4959.15
1894.09304	4964.15
1897.21921	4945.15
1900.34335	4945.45
1903.46544	4963.45
1906.58551	4946.65
1909.70353	4932.05
1912.81953	4928.75
1915.93349	4925.25
1919.04543	4918.05
1922.15534	4909.35
1925.26322	4906.15
1928.36908	4889.65
1931.47292	4853.35
1934.57473	4826.35
1937.67453	4807.55
1940.77232	4800.75
1943.86808	4765.45
1946.96184	4758.85
1950.05358	4740.85
1953.14331	4744.05
1956.23103	4724.25
1959.31675	4698.75
1962.40046	4701.65
1965.48217	4681.65
1968.56188	4675.55
1971.63959	4687.75
1974.7153	4664.85
1977.78901	4656.85
1980.86073	4626.35
1983.93046	4611.35
1986.99819	4575.35
1990.06394	4566.35
1993.1277	4517.85
1996.18947	4524.75
1999.24925	4519.95
2002.30706	4476.05
2005.36288	4473.95
2008.41672	4454.55
2011.46859	4444.45
2014.51848	4442.75
2017.56639	4417.75
2020.61233	4383.15
2023.6563	4380.65
2026.6983	4363.25
2029.73833	4364.95
2032.7764	4351.65
2035.8125	4338.15
2038.84664	4320.75
2041.87881	4319.75
2044.90903	4293.55
2047.93729	4302.95
2050.96359	4294.75
2053.98794	4286.55
2057.01034	4269.45
2060.03078	4273.35
2063.04927	4262.95
2066.06582	4268.45
2069.08042	4241.65
2072.09307	4244.85
2075.10378	4228.75
2078.11255	4228.45
2081.11938	4232.05
2084.12426	4223.95
2087.12722	4228.05
2090.12824	4213.55
2093.12732	4227.45
2096.12447	4228.75
2099.11969	4227.95
2102.11299	4234.35
2105.10435	4227.35
2108.09379	4234.35
2111.08131	4232.45
2114.0669	4236.95
2117.05057	4237.55
2120.03233	4253.55
2123.01216	4268.05
2125.99008	4266.45
2128.96609	4264.25
2131.94018	4259.95
2134.91236	4269.55
2137.88263	4258.95
2140.851	4268.55
2143.81746	4251.55
2146.78201	4240.45
2149.74466	4244.65
2152.7054	4232.55
2155.66425	4226.65
2158.6212	4228.65
2161.57625	4212.05
2164.52941	4211.45
2167.48067	4201.85
2170.43004	4196.05
2173.37752	4199.75
2176.32311	4212.45
2179.26681	4217.55
2182.20863	4204.45
2185.14856	4213.25
2188.08661	4213.35
2191.02278	4215.35
2193.95707	4194.65
2196.88948	4179.85
2199.82001	4173.45
2202.74867	4167.95
2205.67545	4171.55
2208.60037	4153.15
2211.52341	4150.05
2214.44458	4151.25
2217.36388	4151.85
2220.28132	4121.55
2223.1969	4120.95
2226.11061	4108.95
2229.02246	4090.35
2231.93245	4074.45
2234.84058	4072.35
2237.74686	4073.25
2240.65128	4066.75
2243.55385	4044.55
2246.45456	4062.35
2249.35343	4084.95
2252.25044	4057.55
2255.14561	4065.55
2258.03893	4073.15
2260.93041	4045.85
2263.82004	4063.25
2266.70783	4071.85
2269.59378	4068.55
2272.4779	4046.25
2275.36017	4043.15
2278.24061	4047.75
2281.11922	4027.85
2283.996	4012.95
2286.87094	3987.25
2289.74405	3985.05
2292.61534	3964.85
2295.4848	3965.45
2298.35243	3943.45
2301.21824	3938.75
2304.08223	3934.95
2306.94439	3935.35
2309.80474	3921.35
2312.66327	3944.15
2315.51999	3920.95
2318.37489	3927.05
2321.22797	3909.35
2324.07925	3896.85
2326.92871	3911.65
2329.77637	3904.35
2332.62222	3886.55
2335.46626	3886.35
2338.3085	3876.15
2341.14893	3884.85
2343.98756	3884.25
2346.8244	3895.35
2349.65943	3907.05
2352.49267	3926.45
2355.32411	3963.35
2358.15376	3978.85
2360.98161	3984.15
2363.80768	4011.65
2366.63195	4032.65
2369.45444	4041.65
2372.27514	4041.25
2375.09405	4041.85
2377.91118	4029.25
2380.72652	3990.85
2383.54009	3946.75
2386.35187	3931.95
2389.16188	3877.65
2391.97011	3858.45
2394.77657	3833.95
2397.58125	3810.05
2400.38416	3798.55
2403.18529	3792.55
2405.98466	3781.45
2408.78226	3766.65
2411.57809	3761.05
2414.37216	3755.65
2417.16446	3754.15
2419.955	3737.75
2422.74378	3758.75
2425.5308	3749.95
2428.31606	3750.15
2431.09956	3761.55
2433.88131	3757.15
2436.6613	3767.55
2439.43954	3777.85
2442.21603	3784.45
2444.99077	3784.45
2447.76377	3783.65
2450.53501	3794.25
2453.30451	3802.05
2456.07226	3799.25
2458.83827	3799.55
2461.60254	3797.35
2464.36507	3789.15
2467.12586	3787.35
2469.88492	3786.35
2472.64224	3793.25
2475.39782	3787.95
2478.15167	3783.15
2480.90379	3814.85
2483.65417	3856.35
2486.40283	3855.65
2489.14976	3891.75
2491.89497	3904.25
2494.63845	3889.25
2497.3802	3877.85
2500.12024	3882.55
2502.85855	3856.15
2505.59514	3837.85
2508.33002	3817.65
2511.06318	3775.25
2513.79462	3741.35
2516.52435	3709.15
2519.25237	3683.95
2521.97867	3653.75
2524.70327	3627.25
2527.42616	3639.05
2530.14734	3631.95
2532.86681	3627.65
2535.58458	3621.35
2538.30065	3622.95
2541.01501	3628.65
2543.72768	3625.65
2546.43864	3630.65
2549.14791	3650.45
2551.85548	3645.25
2554.56136	3623.05
2557.26554	3640.35
2559.96803	3634.45
2562.66883	3633.45
2565.36794	3629.65
2568.06536	3616.65
2570.7611	3601.95
2573.45514	3591.15
2576.14751	3585.05
2578.83819	3564.95
2581.52719	3558.65
2584.21451	3555.55
2586.90015	3551.05
2589.58411	3540.05
2592.2664	3540.55
2594.94701	3535.25
2597.62594	3533.45
2600.30321	3533.85
2602.9788	3520.05
2605.65273	3524.35
2608.32498	3524.85
2610.99557	3517.95
2613.66449	3533.45
2616.33175	3521.45
2618.99734	3513.45
2621.66128	3511.45
2624.32355	3516.95
2626.98416	3504.05
2629.64311	3501.05
2632.30041	3481.85
2634.95605	3475.75
2637.61004	3445.55
2640.26238	3447.65
2642.91306	3451.45
2645.56209	3426.15
2648.20948	3427.05
2650.85521	3431.75
2653.4993	3434.55
2656.14175	3444.35
2658.78255	3441.45
2661.42171	3449.85
2664.05923	3462.85
2666.6951	3469.75
2669.32934	3478.05
2671.96194	3481.25
2674.59291	3504.05
2677.22224	3495.35
2679.84993	3494.85
2682.476	3486.65
2685.10043	3497.15
2687.72324	3483.95
2690.34441	3490.95
2692.96396	3475.75
2695.58188	3492.75
2698.19818	3491.45
2700.81285	3468.75
2703.4259	3462.65
2706.03733	3410.05
2708.64714	3431.95
2711.25533	3467.35
2713.86191	3476.35
2716.46687	3501.85
2719.07021	3510.35
2721.67194	3516.55
2724.27206	3505.75
2726.87057	3504.45
2729.46747	3516.55
2732.06276	3501.85
2734.65644	3491.35
2737.24852	3479.85
2739.83899	3477.75
2742.42786	3472.35
2745.01513	3460.75
2747.60079	3450.45
2750.18486	3452.75
2752.76733	3431.15
2755.3482	3433.15
2757.92747	3424.95
2760.50515	3423.05
2763.08123	3413.95
2765.65573	3396.25
2768.22863	3377.95
2770.79994	3379.35
2773.36967	3393.75
2775.9378	3390.55
2778.50435	3386.15
2781.06932	3387.05
2783.6327	3386.25
2786.1945	3389.05
2788.75471	3404.05
2791.31335	3390.35
2793.87041	3400.45
2796.42589	3397.55
2798.97979	3402.45
2801.53212	3401.95
2804.08288	3415.15
2806.63206	3417.95
2809.17967	3411.65
2811.72571	3427.75
2814.27018	3421.45
2816.81308	3437.95
2819.35442	3451.05
2821.89419	3457.55
2824.43239	3467.85
2826.96904	3495.05
2829.50412	3480.85
2832.03763	3480.55
2834.56959	3492.65
2837.1	3490.55
2839.62884	3505.55
2842.15613	3538.15
2844.68186	3574.95
2847.20604	3611.55
2849.72867	3650.35
2852.24974	3667.15
2854.76927	3660.45
2857.28724	3636.55
2859.80367	3645.45
2862.31855	3666.95
2864.83189	3657.55
2867.34368	3650.75
2869.85393	3671.75
2872.36264	3668.55
2874.8698	3670.95
2877.37543	3650.45
2879.87952	3647.55
2882.38207	3640.55
2884.88308	3627.55
2887.38256	3607.15
2889.88051	3610.05
2892.37692	3603.55
2894.8718	3612.25
2897.36515	3619.35
2899.85698	3601.15
2902.34727	3608.75
2904.83604	3611.15
2907.32328	3617.45
2909.809	3623.65
2912.29319	3615.95
2914.77587	3612.25
2917.25702	3612.15
2919.73665	3604.95
2922.21476	3604.15
2924.69136	3599.95
2927.16644	3601.85
2929.64	3579.35
2932.11205	3569.85
2934.58258	3545.65
2937.05161	3534.15
2939.51912	3517.05
2941.98513	3504.45
2944.44962	3465.55
2946.91261	3444.45
2949.37409	3435.95
2951.83407	3405.75
2954.29254	3393.25
2956.74951	3399.75
2959.20498	3382.05
2961.65895	3366.25
2964.11142	3377.85
2966.56239	3368.35
2969.01186	3357.25
2971.45984	3328.15
2973.90632	3327.25
2976.35131	3308.75
2978.7948	3301.75
2981.23681	3296.55
2983.67732	3287.75
2986.11635	3274.55
2988.55388	3272.55
2990.98993	3259.95
2993.4245	3241.95
2995.85758	3241.75
2998.28917	3254.85
3000.71928	3246.25
3003.14791	3250.25
3005.57506	3242.55
3008.00073	3233.75
3010.42493	3232.25
3012.84764	3232.05
3015.26888	3227.35
3017.68865	3225.45
3020.10694	3222.35
3022.52376	3208.55
3024.9391	3208.55
3027.35298	3196.85
3029.76539	3187.25
3032.17632	3182.85
3034.5858	3169.75
3036.9938	3171.25
3039.40034	3148.55
3041.80542	3153.15
3044.20903	3130.05
3046.61118	3141.35
3049.01187	3124.35
3051.4111	3127.55
3053.80888	3114.55
3056.20519	3111.15
3058.60005	3107.35
3060.99345	3094.45
3063.3854	3101.75
3065.7759	3088.65
3068.16494	3084.55
3070.55254	3070.85
3072.93868	3072.45
3075.32338	3037.25
3077.70662	3052.55
3080.08842	3031.25
3082.46878	3028.35
3084.84769	2998.75
3087.22515	3018.45
3089.60118	3012.55
3091.97576	3011.35
3094.3489	3000.85
3096.72061	3010.45
3099.09087	2998.55
3101.4597	3005.65
3103.82709	2987.65
3106.19305	2995.45
3108.55757	2994.75
3110.92066	2989.25
3113.28232	2999.55
3115.64255	2981.45
3118.00134	2978.75
3120.35871	2981.75
3122.71466	2980.05
3125.06917	2978.95
3127.42226	2981.35
3129.77393	2982.95
3132.12417	2979.75
3134.47299	2989.75
3136.82039	2983.65
3139.16636	2987.05
3141.51092	3000.65
3143.85406	2996.95
3146.19579	2996.65
3148.53609	3004.15
3150.87499	3019.55
3153.21246	3016.95
3155.54853	3015.85
3157.88318	3019.55
3160.21642	3036.65
3162.54826	3051.35
3164.87868	3044.95
3167.2077	3034.25
3169.5353	3056.45
3171.86151	3045.65
3174.18631	3042.75
3176.5097	3060.65
3178.83169	3031.25
3181.15228	3052.45
3183.47147	3047.35
3185.78926	3045.15
3188.10565	3055.55
3190.42065	3048.75
3192.73424	3057.45
3195.04645	3067.55
3197.35725	3057.55
3199.66667	3080.95
3201.97469	3090.85
3204.28132	3089.55
3206.58656	3110.55
3208.8904	3114.45
3211.19287	3106.35
3213.49394	3119.95
3215.79363	3116.65
3218.09193	3124.35
3220.38884	3113.05
3222.68438	3110.85
3224.97853	3109.65
3227.2713	3112.55
3229.56269	3125.55
3231.8527	3135.95
3234.14133	3111.15
3236.42858	3116.45
3238.71446	3118.15
3240.99896	3111.45
3243.28209	3096.85
3245.56384	3074.75
3247.84423	3096.35
3250.12324	3088.35
3252.40088	3102.15
3254.67715	3084.75
3256.95205	3083.55
3259.22558	3092.95
3261.49775	3087.95
3263.76855	3089.95
3266.03799	3076.45
3268.30606	3072.65
3270.57277	3076.95
3272.83812	3075.15
3275.10211	3075.75
3277.36474	3058.75
3279.62601	3054.05
3281.88593	3060.15
3284.14448	3054.75
3286.40168	3059.05
3288.65753	3050.15
3290.91202	3071.35
3293.16516	3051.85
3295.41695	3048.55
3297.66738	3047.25
3299.91647	3028.45
3302.16421	2999.15
3304.4106	2997.95
3306.65564	2969.05
3308.89933	2938.85
3311.14169	2934.95
3313.38269	2893.05
3315.62236	2876.55
3317.86068	2838.35
3320.09766	2824.95
3322.3333	2808.75
3324.5676	2804.75
3326.80056	2721.45
3329.03219	2711.05
3331.26248	0.55
3333.49143	-0.05
3335.71905	0.45
