Data from AgNPs_FTO_APTES_UA_50uM_CRN_1uM_R6G_10uM_NaF_0.1M_Addition_RamanShift__27__11-47-04-747.txt Node

Date: Mon Feb 21 11:47:04 GMT 2022
User: TCL
Spectrometer: QEP01345
Trigger mode: 4
Integration Time (sec): 7.000000E0
Scans to average: 10
Electric dark correction enabled: true
Nonlinearity correction enabled: false
Boxcar width: 0
XAxis mode: Raman Shifts
Number of Pixels in Spectrum: 1044
>>>>>Begin Spectral Data<<<<<
46.04893	0.15
50.45542	-1.05
54.85868	-0.45
59.25871	-1.65
63.6555	70.65
68.04907	72.05
72.43941	72.25
76.82654	77.65
81.21044	79.35
85.59113	82.85
89.96862	87.65
94.34289	87.95
98.71396	90.65
103.08183	99.05
107.4465	98.95
111.80798	99.95
116.16626	97.85
120.52136	102.65
124.87327	110.05
129.222	109.45
133.56755	113.05
137.90993	122.95
142.24913	128.25
146.58517	147.35
150.91804	168.45
155.24774	195.35
159.57429	236.25
163.89768	308.35
168.21792	405.95
172.53501	547.75
176.84895	758.95
181.15975	1061.15
185.46741	1488.45
189.77193	2060.35
194.07331	2765.45
198.37157	3547.35
202.6667	4406.35
206.9587	5240.25
211.24758	6081.35
215.53334	6922.85
219.81599	7865.45
224.09553	8903.45
228.37195	10086.75
232.64527	11378.45
236.91549	12671.75
241.18261	13890.45
245.44663	14995.15
249.70755	15975.35
253.96539	16811.85
258.22014	17529.05
262.4718	18094.55
266.72039	18519.35
270.96589	18677.15
275.20832	18642.25
279.44768	18450.15
283.68397	18216.45
287.91719	18051.05
292.14735	18000.05
296.37445	18164.35
300.59849	18537.85
304.81948	18970.75
309.03742	19304.95
313.25231	19241.55
317.46415	18617.45
321.67296	17676.75
325.87872	16866.05
330.08145	16486.55
334.28114	16493.55
338.47781	16719.65
342.67145	17092.45
346.86207	17632.75
351.04966	18388.65
355.23424	19253.65
359.4158	19924.85
363.59435	20353.05
367.76989	20462.65
371.94243	20503.25
376.11196	20444.85
380.27849	20402.65
384.44203	20359.05
388.60257	20267.65
392.76012	20283.95
396.91468	20463.65
401.06626	20921.45
405.21485	21269.75
409.36047	21103.55
413.50311	20477.45
417.64277	19850.25
421.77947	19542.55
425.9132	19443.15
430.04396	19468.45
434.17176	19558.45
438.2966	19838.85
442.41849	20279.45
446.53742	20886.05
450.6534	21551.35
454.76644	22043.05
458.87653	22196.95
462.98368	22022.05
467.08789	21701.45
471.18916	21228.15
475.2875	20776.15
479.38291	20435.85
483.4754	20214.35
487.56496	19989.35
491.6516	19689.25
495.73531	19479.95
499.81612	19421.95
503.89401	19536.75
507.96899	19688.25
512.04106	19792.15
516.11023	19868.55
520.1765	19968.65
524.23987	19916.15
528.30034	19744.25
532.35792	19493.85
536.41261	19176.15
540.46441	18927.85
544.51333	18808.95
548.55936	18913.85
552.60252	19294.75
556.64279	19752.75
560.6802	20004.05
564.71473	20259.95
568.7464	20902.45
572.7752	21404.35
576.80114	21199.55
580.82422	20978.15
584.84444	20944.25
588.86181	21114.55
592.87633	21419.25
596.888	21700.85
600.89682	22049.75
604.9028	23588.35
608.90594	27847.85
612.90624	33251.95
616.90371	31921.15
620.89834	24584.65
624.89015	21098.85
628.87913	20559.65
632.86528	20533.65
636.84862	20513.55
640.82913	20097.15
644.80683	19287.75
648.78172	18776.95
652.75379	18712.45
656.72306	19167.75
660.68952	19881.85
664.65319	19849.35
668.61405	19236.05
672.57211	18916.35
676.52738	18908.05
680.47986	18875.15
684.42955	18758.55
688.37646	18739.15
692.32058	18842.35
696.26192	19017.95
700.20048	19215.45
704.13626	19328.35
708.06928	19252.05
711.99952	19091.25
715.927	19040.05
719.85171	19110.75
723.77365	19087.55
727.69284	18898.75
731.60928	18727.35
735.52295	18705.85
739.43388	18783.55
743.34206	18881.95
747.24749	19024.95
751.15017	19208.35
755.05012	19539.15
758.94733	20247.45
762.8418	21834.25
766.73354	24396.95
770.62254	26953.95
774.50882	27998.85
778.39237	26906.75
782.27321	24163.55
786.15132	21530.95
790.02671	19983.95
793.89938	19256.75
797.76935	18990.65
801.6366	18912.15
805.50115	18860.75
809.36299	18773.45
813.22213	18713.65
817.07857	18674.15
820.93231	18688.25
824.78336	18663.65
828.63172	18677.75
832.47738	18697.95
836.32036	18743.85
840.16066	18807.35
843.99827	18842.05
847.8332	18821.35
851.66546	18697.15
855.49504	18659.25
859.32195	18577.95
863.1462	18493.85
866.96777	18442.25
870.78668	18391.55
874.60293	18427.35
878.41652	18464.45
882.22745	18533.85
886.03573	18606.85
889.84136	18595.75
893.64433	18483.55
897.44466	18418.15
901.24235	18356.35
905.0374	18286.75
908.8298	18195.75
912.61957	18203.95
916.40671	18293.65
920.19121	18521.25
923.97308	18754.45
927.75233	18972.35
931.52895	19063.75
935.30295	18863.05
939.07433	18455.85
942.84309	18079.95
946.60924	17959.75
950.37278	17850.75
954.13371	17734.75
957.89203	17580.35
961.64774	17508.25
965.40086	17477.95
969.15137	17381.15
972.89929	17330.45
976.64461	17327.35
980.38733	17335.75
984.12747	17413.25
987.86502	17577.55
991.59999	17821.05
995.33237	18220.95
999.06217	18921.45
1002.78939	19729.65
1006.51404	20339.05
1010.23611	20635.55
1013.95561	20881.15
1017.67255	20941.25
1021.38692	20731.05
1025.09872	20562.35
1028.80796	20826.35
1032.51465	21429.85
1036.21877	22003.85
1039.92035	22084.45
1043.61937	21731.75
1047.31584	21050.65
1051.00976	20287.75
1054.70114	19894.35
1058.38998	19709.25
1062.07627	19692.85
1065.76003	19750.35
1069.44126	19819.25
1073.11995	20011.65
1076.79611	20229.75
1080.46974	20457.25
1084.14085	20788.65
1087.80943	21155.95
1091.47549	21317.75
1095.13903	21049.55
1098.80005	20568.35
1102.45857	20087.25
1106.11456	19893.05
1109.76805	19939.05
1113.41903	20230.25
1117.06751	20671.75
1120.71348	21272.95
1124.35696	21917.55
1127.99793	22427.95
1131.63641	22344.75
1135.2724	21746.05
1138.90589	21169.65
1142.5369	20735.45
1146.16542	20479.15
1149.79145	20365.65
1153.415	20399.25
1157.03607	20609.75
1160.65467	21009.95
1164.27079	21717.05
1167.88443	22769.35
1171.49561	24353.35
1175.10432	26730.05
1178.71056	29868.65
1182.31434	32699.85
1185.91565	33970.65
1189.51451	33634.25
1193.11091	32088.05
1196.70485	30129.65
1200.29634	28472.15
1203.88538	27120.95
1207.47197	25856.55
1211.05612	24801.75
1214.63782	24279.75
1218.21708	24158.75
1221.79391	24309.95
1225.36829	24438.45
1228.94024	24332.95
1232.50976	24056.35
1236.07685	23815.85
1239.6415	23674.45
1243.20374	23652.15
1246.76355	23762.75
1250.32093	24068.15
1253.8759	24713.55
1257.42845	25521.85
1260.97859	26247.35
1264.52631	26969.75
1268.07163	27704.35
1271.61453	28431.85
1275.15503	29195.65
1278.69312	30037.15
1282.22882	30719.75
1285.76211	31506.35
1289.29301	32287.95
1292.82151	33132.65
1296.34761	34283.85
1299.87133	36015.15
1303.39266	38700.85
1306.9116	42366.25
1310.42815	46244.55
1313.94233	48435.05
1317.45412	47683.15
1320.96354	45244.65
1324.47058	42529.55
1327.97525	40249.25
1331.47754	39007.45
1334.97747	38610.85
1338.47502	39093.35
1341.97022	39793.85
1345.46305	40380.05
1348.95352	40828.35
1352.44163	41755.75
1355.92738	43941.25
1359.41078	48051.05
1362.89183	52020.15
1366.37053	50514.95
1369.84688	44170.25
1373.32088	37966.95
1376.79254	34048.85
1380.26186	31985.15
1383.72883	31022.45
1387.19347	30273.55
1390.65578	29646.45
1394.11575	29332.65
1397.57339	29559.65
1401.0287	30176.75
1404.48168	30862.65
1407.93234	31507.75
1411.38068	31873.95
1414.82669	31793.45
1418.27039	31068.75
1421.71177	29965.85
1425.15083	28985.05
1428.58758	28484.05
1432.02203	28474.65
1435.45416	28768.85
1438.88399	28991.35
1442.31151	29154.15
1445.73673	29379.75
1449.15965	29666.75
1452.58027	29797.25
1455.9986	29740.45
1459.41463	29684.95
1462.82837	30012.75
1466.23982	30585.65
1469.64898	31213.25
1473.05586	31631.95
1476.46045	31825.65
1479.86276	32119.15
1483.26279	32557.05
1486.66054	33053.85
1490.05602	33770.55
1493.44922	34691.15
1496.84016	35935.95
1500.22882	37669.95
1503.61521	40393.55
1506.99934	43524.35
1510.38121	46073.55
1513.76081	46509.85
1517.13816	44018.35
1520.51324	40061.85
1523.88607	36443.95
1527.25665	34090.05
1530.62498	32771.05
1533.99105	32025.25
1537.35488	31584.05
1540.71647	31316.55
1544.07581	31042.55
1547.4329	30881.25
1550.78776	30591.65
1554.14038	30379.15
1557.49077	30315.85
1560.83892	30469.45
1564.18484	30770.65
1567.52853	31080.15
1570.86999	31312.95
1574.20922	31554.05
1577.54624	31491.75
1580.88103	30710.55
1584.2136	29896.25
1587.54395	30014.35
1590.87208	31390.35
1594.19801	33786.45
1597.52172	36465.25
1600.84321	37608.55
1604.16251	36418.65
1607.47959	33758.95
1610.79447	30640.35
1614.10715	27878.15
1617.41763	25752.55
1620.7259	24485.25
1624.03199	23865.95
1627.33587	24011.85
1630.63757	24805.45
1633.93707	26245.75
1637.23439	28347.15
1640.52951	31075.65
1643.82246	34218.65
1647.11321	37182.35
1650.40179	38330.35
1653.68819	36237.95
1656.97241	31634.45
1660.25446	26926.05
1663.53433	23549.45
1666.81203	21536.65
1670.08756	20308.05
1673.36092	19648.35
1676.63211	19151.95
1679.90115	18812.15
1683.16801	18528.75
1686.43272	18340.85
1689.69527	18164.35
1692.95567	18021.65
1696.2139	17865.45
1699.46999	17720.35
1702.72392	17684.75
1705.97571	17727.35
1709.22535	17795.85
1712.47284	17881.85
1715.71819	17901.65
1718.96139	17888.85
1722.20246	17826.15
1725.44139	17734.15
1728.67818	17643.25
1731.91284	17536.15
1735.14537	17443.95
1738.37576	17375.75
1741.60403	17319.75
1744.83017	17260.75
1748.05418	17213.95
1751.27607	17110.85
1754.49584	17063.55
1757.71349	16992.65
1760.92903	16947.95
1764.14244	16932.15
1767.35375	16927.15
1770.56294	16906.35
1773.77002	16908.55
1776.97499	16916.45
1780.17785	16949.25
1783.37861	16985.65
1786.57727	16991.05
1789.77382	16983.95
1792.96828	16971.75
1796.16064	16978.45
1799.3509	16951.25
1802.53907	16943.05
1805.72514	16903.65
1808.90913	16867.05
1812.09102	16820.25
1815.27083	16824.05
1818.44856	16791.55
1821.6242	16773.85
1824.79776	16727.35
1827.96924	16736.55
1831.13864	16736.55
1834.30597	16765.75
1837.47122	16723.55
1840.6344	16722.75
1843.7955	16725.55
1846.95454	16720.15
1850.11151	16683.45
1853.26642	16667.85
1856.41926	16708.65
1859.57004	16700.75
1862.71876	16685.35
1865.86542	16723.75
1869.01003	16745.65
1872.15258	16749.75
1875.29308	16759.85
1878.43152	16750.05
1881.56792	16776.35
1884.70227	16793.95
1887.83457	16782.05
1890.96482	16777.55
1894.09304	16758.45
1897.21921	16748.65
1900.34335	16741.05
1903.46544	16764.15
1906.58551	16780.55
1909.70353	16785.95
1912.81953	16799.35
1915.93349	16786.85
1919.04543	16750.05
1922.15534	16734.15
1925.26322	16691.15
1928.36908	16632.05
1931.47292	16569.35
1934.57473	16535.35
1937.67453	16484.45
1940.77232	16427.15
1943.86808	16355.85
1946.96184	16318.45
1950.05358	16254.85
1953.14331	16219.05
1956.23103	16124.45
1959.31675	16091.45
1962.40046	16052.75
1965.48217	16010.15
1968.56188	16015.65
1971.63959	15932.45
1974.7153	15931.95
1977.78901	15893.35
1980.86073	15816.35
1983.93046	15756.95
1986.99819	15688.55
1990.06394	15675.35
1993.1277	15639.95
1996.18947	15576.65
1999.24925	15543.65
2002.30706	15460.65
2005.36288	15446.05
2008.41672	15438.45
2011.46859	15392.85
2014.51848	15318.45
2017.56639	15291.45
2020.61233	15238.25
2023.6563	15259.65
2026.6983	15202.55
2029.73833	15170.35
2032.7764	15153.85
2035.8125	15147.85
2038.84664	15099.85
2041.87881	15112.25
2044.90903	15074.45
2047.93729	15074.55
2050.96359	15019.15
2053.98794	15008.95
2057.01034	15001.95
2060.03078	15008.45
2063.04927	14976.15
2066.06582	14956.25
2069.08042	14946.65
2072.09307	14943.95
2075.10378	14921.35
2078.11255	14909.65
2081.11938	14905.05
2084.12426	14879.55
2087.12722	14897.65
2090.12824	14885.45
2093.12732	14866.75
2096.12447	14812.15
2099.11969	14861.85
2102.11299	14859.25
2105.10435	14870.55
2108.09379	14887.25
2111.08131	14892.75
2114.0669	14895.75
2117.05057	14940.25
2120.03233	14926.25
2123.01216	14962.55
2125.99008	14957.75
2128.96609	14966.65
2131.94018	14976.05
2134.91236	14968.65
2137.88263	14996.65
2140.851	15013.05
2143.81746	15019.45
2146.78201	15000.45
2149.74466	15046.55
2152.7054	15020.65
2155.66425	15022.85
2158.6212	15037.05
2161.57625	15006.05
2164.52941	15017.55
2167.48067	15024.85
2170.43004	14987.35
2173.37752	14975.95
2176.32311	14983.75
2179.26681	15024.55
2182.20863	15005.85
2185.14856	15014.85
2188.08661	15039.05
2191.02278	15028.75
2193.95707	15022.25
2196.88948	15027.15
2199.82001	15046.15
2202.74867	15007.85
2205.67545	15020.45
2208.60037	15006.45
2211.52341	15010.45
2214.44458	14992.45
2217.36388	14953.05
2220.28132	14990.95
2223.1969	14919.55
2226.11061	14909.95
2229.02246	14881.05
2231.93245	14849.75
2234.84058	14819.05
2237.74686	14767.55
2240.65128	14789.75
2243.55385	14745.05
2246.45456	14744.95
2249.35343	14703.65
2252.25044	14703.45
2255.14561	14721.05
2258.03893	14697.25
2260.93041	14673.55
2263.82004	14618.45
2266.70783	14636.25
2269.59378	14609.15
2272.4779	14590.45
2275.36017	14510.65
2278.24061	14511.45
2281.11922	14477.45
2283.996	14483.15
2286.87094	14455.55
2289.74405	14413.45
2292.61534	14417.15
2295.4848	14398.25
2298.35243	14382.75
2301.21824	14394.75
2304.08223	14423.15
2306.94439	14447.05
2309.80474	14445.05
2312.66327	14468.45
2315.51999	14458.25
2318.37489	14466.15
2321.22797	14469.45
2324.07925	14457.25
2326.92871	14399.65
2329.77637	14404.95
2332.62222	14401.35
2335.46626	14402.85
2338.3085	14440.35
2341.14893	14437.25
2343.98756	14460.05
2346.8244	14500.25
2349.65943	14473.95
2352.49267	14474.65
2355.32411	14497.95
2358.15376	14485.45
2360.98161	14492.15
2363.80768	14453.85
2366.63195	14437.55
2369.45444	14383.65
2372.27514	14383.05
2375.09405	14356.95
2377.91118	14309.75
2380.72652	14275.55
2383.54009	14209.45
2386.35187	14225.15
2389.16188	14140.45
2391.97011	14188.45
2394.77657	14141.05
2397.58125	14132.95
2400.38416	14121.35
2403.18529	14077.15
2405.98466	14070.65
2408.78226	14032.15
2411.57809	13965.45
2414.37216	13937.65
2417.16446	13976.75
2419.955	13930.05
2422.74378	13916.45
2425.5308	13868.15
2428.31606	13909.55
2431.09956	13872.05
2433.88131	13877.35
2436.6613	13929.35
2439.43954	13894.65
2442.21603	13893.45
2444.99077	13899.95
2447.76377	13907.25
2450.53501	13885.15
2453.30451	13847.95
2456.07226	13854.05
2458.83827	13848.95
2461.60254	13866.65
2464.36507	13849.75
2467.12586	13818.45
2469.88492	13848.35
2472.64224	13849.95
2475.39782	13855.65
2478.15167	13889.85
2480.90379	13905.95
2483.65417	13949.25
2486.40283	13963.15
2489.14976	13977.25
2491.89497	14000.75
2494.63845	13999.15
2497.3802	13984.35
2500.12024	14045.85
2502.85855	14000.35
2505.59514	13943.15
2508.33002	13931.95
2511.06318	13916.65
2513.79462	13899.35
2516.52435	13880.75
2519.25237	13840.65
2521.97867	13799.95
2524.70327	13797.45
2527.42616	13763.25
2530.14734	13809.95
2532.86681	13781.25
2535.58458	13820.15
2538.30065	13816.25
2541.01501	13847.25
2543.72768	13786.45
2546.43864	13772.65
2549.14791	13783.25
2551.85548	13789.45
2554.56136	13782.25
2557.26554	13734.75
2559.96803	13724.85
2562.66883	13699.55
2565.36794	13667.05
2568.06536	13684.95
2570.7611	13677.55
2573.45514	13650.15
2576.14751	13668.55
2578.83819	13658.65
2581.52719	13646.55
2584.21451	13653.85
2586.90015	13673.75
2589.58411	13651.35
2592.2664	13654.55
2594.94701	13652.35
2597.62594	13667.35
2600.30321	13663.35
2602.9788	13654.05
2605.65273	13650.75
2608.32498	13653.15
2610.99557	13660.55
2613.66449	13695.75
2616.33175	13668.95
2618.99734	13683.15
2621.66128	13674.85
2624.32355	13692.45
2626.98416	13685.45
2629.64311	13720.15
2632.30041	13707.05
2634.95605	13682.65
2637.61004	13662.65
2640.26238	13649.55
2642.91306	13624.85
2645.56209	13618.45
2648.20948	13580.15
2650.85521	13548.05
2653.4993	13553.55
2656.14175	13564.85
2658.78255	13585.25
2661.42171	13568.95
2664.05923	13607.45
2666.6951	13618.25
2669.32934	13646.85
2671.96194	13627.95
2674.59291	13674.15
2677.22224	13645.95
2679.84993	13663.35
2682.476	13660.75
2685.10043	13669.65
2687.72324	13646.95
2690.34441	13657.65
2692.96396	13619.25
2695.58188	13641.05
2698.19818	13574.25
2700.81285	13572.55
2703.4259	13551.25
2706.03733	13490.25
2708.64714	13520.35
2711.25533	13598.35
2713.86191	13611.25
2716.46687	13654.35
2719.07021	13642.85
2721.67194	13666.65
2724.27206	13659.95
2726.87057	13690.65
2729.46747	13677.85
2732.06276	13684.15
2734.65644	13689.15
2737.24852	13687.55
2739.83899	13694.55
2742.42786	13686.85
2745.01513	13667.45
2747.60079	13695.85
2750.18486	13648.45
2752.76733	13633.45
2755.3482	13629.45
2757.92747	13645.95
2760.50515	13596.05
2763.08123	13613.55
2765.65573	13595.05
2768.22863	13583.65
2770.79994	13559.75
2773.36967	13627.25
2775.9378	13586.95
2778.50435	13561.95
2781.06932	13587.05
2783.6327	13611.55
2786.1945	13619.65
2788.75471	13621.35
2791.31335	13576.45
2793.87041	13578.45
2796.42589	13506.45
2798.97979	13504.15
2801.53212	13495.45
2804.08288	13490.85
2806.63206	13459.85
2809.17967	13460.65
2811.72571	13419.45
2814.27018	13450.25
2816.81308	13388.65
2819.35442	13423.35
2821.89419	13376.85
2824.43239	13413.05
2826.96904	13413.05
2829.50412	13388.35
2832.03763	13368.65
2834.56959	13379.65
2837.1	13365.95
2839.62884	13382.65
2842.15613	13323.85
2844.68186	13396.85
2847.20604	13347.05
2849.72867	13345.65
2852.24974	13335.45
2854.76927	13329.25
2857.28724	13249.65
2859.80367	13291.45
2862.31855	13282.85
2864.83189	13278.35
2867.34368	13254.55
2869.85393	13283.05
2872.36264	13290.05
2874.8698	13308.95
2877.37543	13278.45
2879.87952	13298.95
2882.38207	13298.35
2884.88308	13284.05
2887.38256	13295.85
2889.88051	13290.55
2892.37692	13306.75
2894.8718	13279.75
2897.36515	13297.75
2899.85698	13318.55
2902.34727	13329.15
2904.83604	13346.45
2907.32328	13354.95
2909.809	13331.15
2912.29319	13378.65
2914.77587	13346.45
2917.25702	13352.45
2919.73665	13332.95
2922.21476	13344.75
2924.69136	13299.95
2927.16644	13297.75
2929.64	13267.55
2932.11205	13242.35
2934.58258	13195.65
2937.05161	13236.75
2939.51912	13237.45
2941.98513	13234.65
2944.44962	13214.65
2946.91261	13161.15
2949.37409	13189.65
2951.83407	13184.95
2954.29254	13163.85
2956.74951	13165.75
2959.20498	13158.05
2961.65895	13134.95
2964.11142	13142.55
2966.56239	13098.55
2969.01186	13103.85
2971.45984	13082.05
2973.90632	13068.65
2976.35131	12999.45
2978.7948	12993.05
2981.23681	12959.55
2983.67732	12947.45
2986.11635	12965.85
2988.55388	12895.85
2990.98993	12862.85
2993.4245	12861.75
2995.85758	12832.05
2998.28917	12820.95
3000.71928	12815.95
3003.14791	12760.05
3005.57506	12768.95
3008.00073	12692.25
3010.42493	12702.25
3012.84764	12672.95
3015.26888	12680.05
3017.68865	12631.95
3020.10694	12624.85
3022.52376	12596.55
3024.9391	12583.55
3027.35298	12546.65
3029.76539	12585.45
3032.17632	12568.95
3034.5858	12553.45
3036.9938	12521.45
3039.40034	12491.35
3041.80542	12505.15
3044.20903	12464.05
3046.61118	12453.85
3049.01187	12437.85
3051.4111	12400.35
3053.80888	12365.15
3056.20519	12362.55
3058.60005	12339.85
3060.99345	12305.55
3063.3854	12262.85
3065.7759	12240.05
3068.16494	12209.95
3070.55254	12182.55
3072.93868	12148.95
3075.32338	12088.75
3077.70662	12045.85
3080.08842	12019.95
3082.46878	12036.35
3084.84769	11994.85
3087.22515	11968.35
3089.60118	11975.55
3091.97576	11977.35
3094.3489	11983.05
3096.72061	12001.65
3099.09087	11986.45
3101.4597	11974.05
3103.82709	11964.95
3106.19305	11953.05
3108.55757	11931.25
3110.92066	11885.45
3113.28232	11913.15
3115.64255	11869.85
3118.00134	11863.05
3120.35871	11850.45
3122.71466	11777.55
3125.06917	11788.55
3127.42226	11773.95
3129.77393	11747.85
3132.12417	11728.55
3134.47299	11719.15
3136.82039	11729.35
3139.16636	11735.15
3141.51092	11732.25
3143.85406	11729.25
3146.19579	11733.15
3148.53609	11772.75
3150.87499	11761.65
3153.21246	11731.05
3155.54853	11741.65
3157.88318	11729.45
3160.21642	11741.75
3162.54826	11744.45
3164.87868	11742.75
3167.2077	11718.15
3169.5353	11747.65
3171.86151	11739.85
3174.18631	11715.85
3176.5097	11688.75
3178.83169	11662.65
3181.15228	11677.15
3183.47147	11653.65
3185.78926	11642.55
3188.10565	11641.95
3190.42065	11663.95
3192.73424	11644.55
3195.04645	11620.75
3197.35725	11618.45
3199.66667	11641.85
3201.97469	11636.45
3204.28132	11663.85
3206.58656	11654.25
3208.8904	11669.55
3211.19287	11649.15
3213.49394	11664.75
3215.79363	11688.65
3218.09193	11681.85
3220.38884	11654.55
3222.68438	11655.35
3224.97853	11653.95
3227.2713	11670.45
3229.56269	11674.05
3231.8527	11669.45
3234.14133	11675.25
3236.42858	11621.25
3238.71446	11614.65
3240.99896	11578.05
3243.28209	11583.85
3245.56384	11558.65
3247.84423	11582.15
3250.12324	11558.25
3252.40088	11534.75
3254.67715	11547.55
3256.95205	11529.85
3259.22558	11532.15
3261.49775	11505.75
3263.76855	11495.25
3266.03799	11509.25
3268.30606	11492.05
3270.57277	11457.95
3272.83812	11438.25
3275.10211	11416.15
3277.36474	11402.75
3279.62601	11392.55
3281.88593	11358.05
3284.14448	11399.65
3286.40168	11391.25
3288.65753	11382.15
3290.91202	11385.05
3293.16516	11355.65
3295.41695	11349.15
3297.66738	11263.45
3299.91647	11219.45
3302.16421	11163.55
3304.4106	11135.15
3306.65564	11050.05
3308.89933	10966.15
3311.14169	10871.95
3313.38269	10801.25
3315.62236	10775.55
3317.86068	10673.95
3320.09766	10584.65
3322.3333	10499.05
3324.5676	10459.95
3326.80056	10307.55
3329.03219	10247.35
3331.26248	3.65
3333.49143	-0.75
3335.71905	0.75
