Data from AgNPs_FTO_APTES_UA_50uM_CRN_500uM_R6G_10uM_NaF_0.1M_Addition_RamanShift__3__16-45-23-518.txt Node

Date: Mon Feb 21 16:45:23 GMT 2022
User: TCL
Spectrometer: QEP01345
Trigger mode: 4
Integration Time (sec): 7.000000E0
Scans to average: 10
Electric dark correction enabled: true
Nonlinearity correction enabled: false
Boxcar width: 0
XAxis mode: Raman Shifts
Number of Pixels in Spectrum: 1044
>>>>>Begin Spectral Data<<<<<
46.04893	-1.15
50.45542	0.35
54.85868	-0.15
59.25871	-0.95
63.6555	45.95
68.04907	51.15
72.43941	56.05
76.82654	53.15
81.21044	59.75
85.59113	57.95
89.96862	61.05
94.34289	60.95
98.71396	65.65
103.08183	66.45
107.4465	69.35
111.80798	68.85
116.16626	70.95
120.52136	73.95
124.87327	75.15
129.222	78.65
133.56755	82.85
137.90993	84.75
142.24913	92.25
146.58517	98.85
150.91804	109.55
155.24774	130.05
159.57429	159.75
163.89768	205.65
168.21792	267.05
172.53501	359.65
176.84895	495.15
181.15975	700.05
185.46741	974.25
189.77193	1342.75
194.07331	1810.15
198.37157	2326.05
202.6667	2899.85
206.9587	3442.65
211.24758	3986.25
215.53334	4540.45
219.81599	5131.85
224.09553	5773.25
228.37195	6513.95
232.64527	7305.25
236.91549	8117.55
241.18261	8916.25
245.44663	9613.55
249.70755	10194.45
253.96539	10714.55
258.22014	11105.45
262.4718	11485.95
266.72039	11764.85
270.96589	11880.55
275.20832	11882.55
279.44768	11731.55
283.68397	11535.65
287.91719	11397.25
292.14735	11332.45
296.37445	11368.75
300.59849	11550.95
304.81948	11770.05
309.03742	11927.25
313.25231	11924.75
317.46415	11660.55
321.67296	11275.05
325.87872	10865.05
330.08145	10704.55
334.28114	10678.55
338.47781	10774.95
342.67145	10964.15
346.86207	11206.85
351.04966	11506.65
355.23424	11869.35
359.4158	12173.55
363.59435	12342.05
367.76989	12454.35
371.94243	12496.75
376.11196	12507.35
380.27849	12527.55
384.44203	12549.75
388.60257	12551.75
392.76012	12594.75
396.91468	12670.85
401.06626	12844.25
405.21485	12980.05
409.36047	12839.25
413.50311	12502.55
417.64277	12182.15
421.77947	11982.35
425.9132	11922.25
430.04396	11937.95
434.17176	12011.45
438.2966	12088.05
442.41849	12297.35
446.53742	12509.95
450.6534	12747.05
454.76644	12932.15
458.87653	12979.25
462.98368	12949.05
467.08789	12808.25
471.18916	12688.55
475.2875	12511.75
479.38291	12355.85
483.4754	12234.65
487.56496	12177.65
491.6516	12056.15
495.73531	12008.85
499.81612	11996.65
503.89401	12064.25
507.96899	12154.15
512.04106	12233.35
516.11023	12309.55
520.1765	12357.85
524.23987	12365.95
528.30034	12281.75
532.35792	12209.05
536.41261	12101.85
540.46441	11942.85
544.51333	11883.35
548.55936	11948.45
552.60252	12087.15
556.64279	12297.35
560.6802	12407.05
564.71473	12465.25
568.7464	12640.45
572.7752	12784.65
576.80114	12726.75
580.82422	12659.95
584.84444	12704.65
588.86181	12852.95
592.87633	13043.25
596.888	13188.15
600.89682	13263.05
604.9028	13924.55
608.90594	15874.35
612.90624	18421.15
616.90371	17687.35
620.89834	14180.45
624.89015	12563.65
628.87913	12265.25
632.86528	12392.45
636.84862	12560.95
640.82913	12450.35
644.80683	12159.15
648.78172	11884.65
652.75379	11879.15
656.72306	12041.85
660.68952	12320.55
664.65319	12255.85
668.61405	11931.35
672.57211	11828.95
676.52738	11888.25
680.47986	11879.15
684.42955	11834.95
688.37646	11763.85
692.32058	11751.15
696.26192	11820.55
700.20048	11894.05
704.13626	11961.85
708.06928	11925.95
711.99952	11876.55
715.927	11831.25
719.85171	11873.15
723.77365	11887.65
727.69284	11813.05
731.60928	11719.15
735.52295	11714.05
739.43388	11714.45
743.34206	11757.45
747.24749	11764.35
751.15017	11784.95
755.05012	11923.85
758.94733	12204.35
762.8418	12896.35
766.73354	14154.15
770.62254	15467.65
774.50882	16076.55
778.39237	15528.95
782.27321	14199.45
786.15132	12912.15
790.02671	12162.95
793.89938	11855.05
797.76935	11674.35
801.6366	11600.05
805.50115	11543.25
809.36299	11525.75
813.22213	11464.05
817.07857	11481.15
820.93231	11434.75
824.78336	11440.45
828.63172	11423.65
832.47738	11420.65
836.32036	11403.75
840.16066	11395.05
843.99827	11376.25
847.8332	11370.45
851.66546	11352.25
855.49504	11383.95
859.32195	11355.05
863.1462	11341.55
866.96777	11324.95
870.78668	11355.95
874.60293	11344.65
878.41652	11377.55
882.22745	11441.65
886.03573	11477.95
889.84136	11465.95
893.64433	11429.65
897.44466	11393.25
901.24235	11340.55
905.0374	11311.15
908.8298	11256.15
912.61957	11175.05
916.40671	11207.55
920.19121	11279.75
923.97308	11374.65
927.75233	11420.15
931.52895	11454.45
935.30295	11384.55
939.07433	11197.95
942.84309	11018.35
946.60924	10931.95
950.37278	10868.15
954.13371	10803.65
957.89203	10780.95
961.64774	10764.25
965.40086	10715.05
969.15137	10720.65
972.89929	10688.15
976.64461	10670.45
980.38733	10679.45
984.12747	10700.75
987.86502	10728.85
991.59999	10806.65
995.33237	10893.25
999.06217	11050.55
1002.78939	11182.65
1006.51404	11329.55
1010.23611	11463.25
1013.95561	11529.75
1017.67255	11570.25
1021.38692	11473.15
1025.09872	11354.55
1028.80796	11305.45
1032.51465	11334.35
1036.21877	11476.55
1039.92035	11516.05
1043.61937	11519.35
1047.31584	11475.75
1051.00976	11383.05
1054.70114	11357.95
1058.38998	11354.95
1062.07627	11371.05
1065.76003	11398.05
1069.44126	11460.75
1073.11995	11507.85
1076.79611	11658.45
1080.46974	11770.65
1084.14085	11897.35
1087.80943	12043.25
1091.47549	12131.05
1095.13903	12049.55
1098.80005	11882.95
1102.45857	11723.55
1106.11456	11595.85
1109.76805	11608.85
1113.41903	11718.75
1117.06751	11888.05
1120.71348	12142.45
1124.35696	12414.75
1127.99793	12706.95
1131.63641	12778.75
1135.2724	12492.65
1138.90589	12207.45
1142.5369	12041.45
1146.16542	11832.65
1149.79145	11750.55
1153.415	11735.85
1157.03607	11779.85
1160.65467	11937.55
1164.27079	12228.05
1167.88443	12705.15
1171.49561	13349.85
1175.10432	14317.05
1178.71056	15576.45
1182.31434	16699.45
1185.91565	17196.35
1189.51451	17029.55
1193.11091	16380.95
1196.70485	15622.55
1200.29634	14958.75
1203.88538	14396.25
1207.47197	13814.85
1211.05612	13290.95
1214.63782	12942.65
1218.21708	12754.95
1221.79391	12669.35
1225.36829	12687.65
1228.94024	12648.65
1232.50976	12597.85
1236.07685	12519.95
1239.6415	12492.35
1243.20374	12491.05
1246.76355	12564.45
1250.32093	12656.35
1253.8759	12843.05
1257.42845	13058.85
1260.97859	13312.45
1264.52631	13626.55
1268.07163	13922.45
1271.61453	14207.85
1275.15503	14446.65
1278.69312	14572.25
1282.22882	14694.95
1285.76211	14912.15
1289.29301	15261.15
1292.82151	15712.95
1296.34761	16215.75
1299.87133	16916.35
1303.39266	17895.65
1306.9116	19213.05
1310.42815	20630.15
1313.94233	21433.15
1317.45412	21022.85
1320.96354	19964.75
1324.47058	18870.65
1327.97525	17860.05
1331.47754	17114.75
1334.97747	16806.55
1338.47502	16758.55
1341.97022	17021.85
1345.46305	17442.55
1348.95352	18256.55
1352.44163	19265.25
1355.92738	20531.25
1359.41078	22454.55
1362.89183	24286.55
1366.37053	23908.75
1369.84688	21042.45
1373.32088	18030.35
1376.79254	16124.95
1380.26186	15202.25
1383.72883	14759.25
1387.19347	14460.95
1390.65578	14065.05
1394.11575	13780.05
1397.57339	13616.25
1401.0287	13531.75
1404.48168	13489.75
1407.93234	13440.45
1411.38068	13360.55
1414.82669	13307.45
1418.27039	13174.25
1421.71177	13051.75
1425.15083	12819.55
1428.58758	12707.35
1432.02203	12734.15
1435.45416	12865.65
1438.88399	12980.35
1442.31151	13036.95
1445.73673	13089.05
1449.15965	13126.65
1452.58027	13198.35
1455.9986	13119.05
1459.41463	13111.25
1462.82837	13255.95
1466.23982	13419.55
1469.64898	13630.65
1473.05586	13849.15
1476.46045	13995.95
1479.86276	14120.65
1483.26279	14203.95
1486.66054	14374.95
1490.05602	14639.45
1493.44922	15135.25
1496.84016	15874.95
1500.22882	17069.65
1503.61521	18676.35
1506.99934	20492.45
1510.38121	21926.05
1513.76081	22266.75
1517.13816	21040.25
1520.51324	18967.65
1523.88607	17085.55
1527.25665	15946.75
1530.62498	15327.05
1533.99105	14961.55
1537.35488	14655.95
1540.71647	14415.35
1544.07581	14194.45
1547.4329	14013.05
1550.78776	13928.65
1554.14038	13875.05
1557.49077	13922.95
1560.83892	14045.45
1564.18484	14254.45
1567.52853	14556.95
1570.86999	14891.85
1574.20922	15117.95
1577.54624	15107.75
1580.88103	14649.15
1584.2136	14046.05
1587.54395	13702.15
1590.87208	13773.25
1594.19801	14228.35
1597.52172	14901.55
1600.84321	15254.15
1604.16251	14963.15
1607.47959	14366.05
1610.79447	13673.95
1614.10715	12917.35
1617.41763	12262.15
1620.7259	11818.45
1624.03199	11558.85
1627.33587	11532.95
1630.63757	11671.75
1633.93707	12059.25
1637.23439	12742.45
1640.52951	13777.65
1643.82246	15280.65
1647.11321	16870.85
1650.40179	17823.75
1653.68819	17332.05
1656.97241	15478.65
1660.25446	13555.85
1663.53433	12099.55
1666.81203	11232.75
1670.08756	10727.15
1673.36092	10402.15
1676.63211	10178.55
1679.90115	10048.95
1683.16801	9939.25
1686.43272	9803.05
1689.69527	9742.15
1692.95567	9686.35
1696.2139	9623.65
1699.46999	9561.85
1702.72392	9519.25
1705.97571	9501.45
1709.22535	9478.65
1712.47284	9468.35
1715.71819	9447.95
1718.96139	9419.75
1722.20246	9407.05
1725.44139	9385.15
1728.67818	9360.65
1731.91284	9278.65
1735.14537	9243.35
1738.37576	9208.85
1741.60403	9177.35
1744.83017	9153.15
1748.05418	9131.45
1751.27607	9129.05
1754.49584	9133.45
1757.71349	9112.05
1760.92903	9102.35
1764.14244	9075.85
1767.35375	9039.85
1770.56294	9009.45
1773.77002	9001.95
1776.97499	8966.45
1780.17785	8942.55
1783.37861	8933.45
1786.57727	8925.55
1789.77382	8892.75
1792.96828	8871.85
1796.16064	8861.95
1799.3509	8838.35
1802.53907	8810.95
1805.72514	8795.35
1808.90913	8761.15
1812.09102	8752.25
1815.27083	8716.85
1818.44856	8704.15
1821.6242	8692.35
1824.79776	8658.35
1827.96924	8681.45
1831.13864	8663.05
1834.30597	8657.95
1837.47122	8651.25
1840.6344	8621.25
1843.7955	8609.75
1846.95454	8598.25
1850.11151	8597.75
1853.26642	8562.95
1856.41926	8569.85
1859.57004	8572.35
1862.71876	8538.75
1865.86542	8536.95
1869.01003	8557.75
1872.15258	8534.75
1875.29308	8545.45
1878.43152	8499.45
1881.56792	8499.65
1884.70227	8498.35
1887.83457	8505.15
1890.96482	8499.05
1894.09304	8460.35
1897.21921	8451.05
1900.34335	8478.15
1903.46544	8436.75
1906.58551	8442.85
1909.70353	8435.35
1912.81953	8399.45
1915.93349	8381.85
1919.04543	8393.25
1922.15534	8370.85
1925.26322	8338.55
1928.36908	8336.05
1931.47292	8314.05
1934.57473	8283.75
1937.67453	8262.75
1940.77232	8253.05
1943.86808	8240.75
1946.96184	8203.75
1950.05358	8189.55
1953.14331	8151.85
1956.23103	8116.45
1959.31675	8115.25
1962.40046	8083.25
1965.48217	8055.65
1968.56188	8061.65
1971.63959	8028.15
1974.7153	8034.55
1977.78901	7976.65
1980.86073	7961.55
1983.93046	7928.85
1986.99819	7916.35
1990.06394	7889.65
1993.1277	7842.85
1996.18947	7841.55
1999.24925	7811.05
2002.30706	7778.95
2005.36288	7762.15
2008.41672	7739.15
2011.46859	7732.25
2014.51848	7714.15
2017.56639	7663.85
2020.61233	7658.15
2023.6563	7636.15
2026.6983	7611.05
2029.73833	7588.45
2032.7764	7560.75
2035.8125	7552.35
2038.84664	7533.55
2041.87881	7511.15
2044.90903	7507.75
2047.93729	7507.95
2050.96359	7482.95
2053.98794	7472.05
2057.01034	7481.85
2060.03078	7448.85
2063.04927	7445.05
2066.06582	7443.25
2069.08042	7427.55
2072.09307	7443.65
2075.10378	7426.65
2078.11255	7438.95
2081.11938	7444.65
2084.12426	7415.35
2087.12722	7416.45
2090.12824	7402.45
2093.12732	7418.15
2096.12447	7412.45
2099.11969	7404.15
2102.11299	7404.95
2105.10435	7413.65
2108.09379	7394.25
2111.08131	7437.95
2114.0669	7414.45
2117.05057	7440.75
2120.03233	7425.05
2123.01216	7434.35
2125.99008	7427.75
2128.96609	7436.45
2131.94018	7457.05
2134.91236	7445.15
2137.88263	7442.65
2140.851	7451.05
2143.81746	7457.45
2146.78201	7474.05
2149.74466	7451.55
2152.7054	7448.85
2155.66425	7445.15
2158.6212	7419.75
2161.57625	7420.45
2164.52941	7422.65
2167.48067	7427.25
2170.43004	7437.45
2173.37752	7437.45
2176.32311	7428.05
2179.26681	7408.95
2182.20863	7413.45
2185.14856	7409.65
2188.08661	7436.45
2191.02278	7438.25
2193.95707	7432.25
2196.88948	7418.45
2199.82001	7407.35
2202.74867	7391.85
2205.67545	7393.35
2208.60037	7386.25
2211.52341	7352.25
2214.44458	7339.65
2217.36388	7321.95
2220.28132	7314.35
2223.1969	7302.75
2226.11061	7302.75
2229.02246	7281.05
2231.93245	7296.65
2234.84058	7249.65
2237.74686	7231.75
2240.65128	7223.15
2243.55385	7225.05
2246.45456	7202.75
2249.35343	7192.35
2252.25044	7209.65
2255.14561	7172.85
2258.03893	7168.95
2260.93041	7160.55
2263.82004	7135.85
2266.70783	7125.05
2269.59378	7122.85
2272.4779	7114.85
2275.36017	7081.35
2278.24061	7060.45
2281.11922	7047.85
2283.996	7049.65
2286.87094	7034.65
2289.74405	7007.85
2292.61534	7012.55
2295.4848	7005.15
2298.35243	7004.35
2301.21824	6995.45
2304.08223	6966.65
2306.94439	6960.05
2309.80474	6968.85
2312.66327	6961.05
2315.51999	6957.15
2318.37489	6959.75
2321.22797	6934.85
2324.07925	6940.45
2326.92871	6935.35
2329.77637	6943.35
2332.62222	6905.75
2335.46626	6915.15
2338.3085	6908.75
2341.14893	6878.35
2343.98756	6902.55
2346.8244	6871.95
2349.65943	6866.55
2352.49267	6868.25
2355.32411	6884.05
2358.15376	6880.55
2360.98161	6878.95
2363.80768	6874.85
2366.63195	6859.05
2369.45444	6852.25
2372.27514	6859.45
2375.09405	6850.55
2377.91118	6852.25
2380.72652	6804.65
2383.54009	6788.95
2386.35187	6806.95
2389.16188	6760.95
2391.97011	6739.35
2394.77657	6741.15
2397.58125	6725.85
2400.38416	6697.15
2403.18529	6693.05
2405.98466	6675.65
2408.78226	6666.55
2411.57809	6656.45
2414.37216	6645.95
2417.16446	6664.45
2419.955	6650.65
2422.74378	6648.85
2425.5308	6621.75
2428.31606	6631.95
2431.09956	6618.05
2433.88131	6622.45
2436.6613	6604.15
2439.43954	6594.15
2442.21603	6597.35
2444.99077	6602.45
2447.76377	6591.65
2450.53501	6601.05
2453.30451	6595.65
2456.07226	6591.85
2458.83827	6566.85
2461.60254	6569.35
2464.36507	6559.35
2467.12586	6547.25
2469.88492	6543.15
2472.64224	6544.55
2475.39782	6575.75
2478.15167	6592.05
2480.90379	6570.45
2483.65417	6566.45
2486.40283	6565.05
2489.14976	6557.95
2491.89497	6550.15
2494.63845	6555.15
2497.3802	6565.95
2500.12024	6565.25
2502.85855	6540.85
2505.59514	6534.75
2508.33002	6503.45
2511.06318	6508.65
2513.79462	6474.15
2516.52435	6485.85
2519.25237	6452.55
2521.97867	6456.05
2524.70327	6430.15
2527.42616	6437.45
2530.14734	6420.15
2532.86681	6423.65
2535.58458	6394.35
2538.30065	6401.65
2541.01501	6399.75
2543.72768	6398.45
2546.43864	6386.15
2549.14791	6366.25
2551.85548	6367.95
2554.56136	6354.65
2557.26554	6371.85
2559.96803	6350.35
2562.66883	6328.75
2565.36794	6332.05
2568.06536	6311.95
2570.7611	6323.05
2573.45514	6272.75
2576.14751	6299.25
2578.83819	6273.35
2581.52719	6275.15
2584.21451	6243.55
2586.90015	6241.65
2589.58411	6235.45
2592.2664	6225.15
2594.94701	6222.25
2597.62594	6197.35
2600.30321	6187.05
2602.9788	6165.85
2605.65273	6185.05
2608.32498	6188.65
2610.99557	6164.15
2613.66449	6165.15
2616.33175	6161.15
2618.99734	6156.75
2621.66128	6151.45
2624.32355	6137.25
2626.98416	6114.75
2629.64311	6096.35
2632.30041	6110.25
2634.95605	6090.25
2637.61004	6110.95
2640.26238	6089.75
2642.91306	6087.65
2645.56209	6080.75
2648.20948	6069.15
2650.85521	6074.95
2653.4993	6043.75
2656.14175	6060.25
2658.78255	6083.85
2661.42171	6076.45
2664.05923	6084.75
2666.6951	6085.85
2669.32934	6081.05
2671.96194	6078.55
2674.59291	6064.05
2677.22224	6074.85
2679.84993	6082.05
2682.476	6075.05
2685.10043	6068.25
2687.72324	6062.65
2690.34441	6057.65
2692.96396	6046.15
2695.58188	6077.25
2698.19818	6059.25
2700.81285	6056.75
2703.4259	6052.95
2706.03733	6047.25
2708.64714	6064.35
2711.25533	6058.05
2713.86191	6030.05
2716.46687	6051.45
2719.07021	6067.85
2721.67194	6078.05
2724.27206	6067.95
2726.87057	6053.65
2729.46747	6063.55
2732.06276	6074.75
2734.65644	6056.45
2737.24852	6055.75
2739.83899	6025.85
2742.42786	6030.05
2745.01513	6012.75
2747.60079	6011.75
2750.18486	6020.05
2752.76733	6000.35
2755.3482	5991.25
2757.92747	5994.25
2760.50515	5972.75
2763.08123	5970.45
2765.65573	5972.75
2768.22863	5962.75
2770.79994	5955.75
2773.36967	5948.75
2775.9378	5939.55
2778.50435	5964.05
2781.06932	5934.65
2783.6327	5923.25
2786.1945	5925.95
2788.75471	5907.55
2791.31335	5912.75
2793.87041	5915.85
2796.42589	5880.45
2798.97979	5876.45
2801.53212	5870.05
2804.08288	5856.05
2806.63206	5849.15
2809.17967	5811.65
2811.72571	5830.65
2814.27018	5830.35
2816.81308	5817.55
2819.35442	5815.95
2821.89419	5800.25
2824.43239	5828.25
2826.96904	5813.55
2829.50412	5806.55
2832.03763	5793.25
2834.56959	5798.85
2837.1	5799.35
2839.62884	5798.75
2842.15613	5808.15
2844.68186	5828.45
2847.20604	5822.25
2849.72867	5840.05
2852.24974	5831.25
2854.76927	5816.95
2857.28724	5825.05
2859.80367	5820.05
2862.31855	5808.15
2864.83189	5806.65
2867.34368	5786.65
2869.85393	5804.85
2872.36264	5789.65
2874.8698	5780.55
2877.37543	5788.55
2879.87952	5785.25
2882.38207	5778.95
2884.88308	5777.95
2887.38256	5779.75
2889.88051	5767.35
2892.37692	5766.95
2894.8718	5803.55
2897.36515	5789.85
2899.85698	5780.45
2902.34727	5795.65
2904.83604	5812.85
2907.32328	5822.75
2909.809	5819.35
2912.29319	5836.85
2914.77587	5854.65
2917.25702	5824.35
2919.73665	5838.75
2922.21476	5855.75
2924.69136	5845.95
2927.16644	5844.65
2929.64	5820.75
2932.11205	5817.35
2934.58258	5798.65
2937.05161	5796.95
2939.51912	5783.05
2941.98513	5778.25
2944.44962	5749.75
2946.91261	5724.95
2949.37409	5744.95
2951.83407	5735.95
2954.29254	5722.95
2956.74951	5729.65
2959.20498	5731.95
2961.65895	5713.05
2964.11142	5702.45
2966.56239	5698.25
2969.01186	5689.05
2971.45984	5687.65
2973.90632	5666.55
2976.35131	5651.75
2978.7948	5637.65
2981.23681	5612.75
2983.67732	5613.45
2986.11635	5599.85
2988.55388	5580.25
2990.98993	5591.75
2993.4245	5573.25
2995.85758	5562.65
2998.28917	5555.25
3000.71928	5534.75
3003.14791	5532.95
3005.57506	5530.75
3008.00073	5515.85
3010.42493	5503.55
3012.84764	5496.35
3015.26888	5497.95
3017.68865	5487.65
3020.10694	5500.95
3022.52376	5469.85
3024.9391	5478.45
3027.35298	5459.25
3029.76539	5442.35
3032.17632	5454.65
3034.5858	5429.75
3036.9938	5429.45
3039.40034	5408.15
3041.80542	5402.25
3044.20903	5403.55
3046.61118	5411.45
3049.01187	5388.85
3051.4111	5394.55
3053.80888	5376.95
3056.20519	5376.35
3058.60005	5363.95
3060.99345	5359.15
3063.3854	5352.85
3065.7759	5340.55
3068.16494	5330.65
3070.55254	5318.05
3072.93868	5328.05
3075.32338	5311.25
3077.70662	5293.75
3080.08842	5271.65
3082.46878	5301.85
3084.84769	5264.75
3087.22515	5276.25
3089.60118	5252.25
3091.97576	5249.75
3094.3489	5262.45
3096.72061	5270.65
3099.09087	5284.55
3101.4597	5268.75
3103.82709	5291.35
3106.19305	5274.25
3108.55757	5271.25
3110.92066	5249.95
3113.28232	5260.75
3115.64255	5246.65
3118.00134	5253.75
3120.35871	5252.05
3122.71466	5235.55
3125.06917	5223.25
3127.42226	5210.45
3129.77393	5213.75
3132.12417	5214.05
3134.47299	5212.15
3136.82039	5220.05
3139.16636	5219.55
3141.51092	5221.15
3143.85406	5219.55
3146.19579	5213.85
3148.53609	5234.65
3150.87499	5237.05
3153.21246	5255.85
3155.54853	5256.05
3157.88318	5261.25
3160.21642	5260.25
3162.54826	5267.95
3164.87868	5277.85
3167.2077	5252.05
3169.5353	5269.05
3171.86151	5253.05
3174.18631	5271.65
3176.5097	5256.45
3178.83169	5242.95
3181.15228	5249.85
3183.47147	5238.95
3185.78926	5251.85
3188.10565	5234.45
3190.42065	5238.05
3192.73424	5244.85
3195.04645	5239.85
3197.35725	5244.25
3199.66667	5252.45
3201.97469	5258.65
3204.28132	5248.65
3206.58656	5261.15
3208.8904	5260.35
3211.19287	5258.25
3213.49394	5290.45
3215.79363	5266.95
3218.09193	5280.55
3220.38884	5279.85
3222.68438	5297.75
3224.97853	5286.85
3227.2713	5269.35
3229.56269	5258.95
3231.8527	5265.45
3234.14133	5261.65
3236.42858	5238.25
3238.71446	5239.95
3240.99896	5225.25
3243.28209	5216.95
3245.56384	5214.75
3247.84423	5220.45
3250.12324	5197.95
3252.40088	5209.45
3254.67715	5189.25
3256.95205	5205.55
3259.22558	5207.65
3261.49775	5203.55
3263.76855	5180.35
3266.03799	5201.75
3268.30606	5174.25
3270.57277	5168.45
3272.83812	5174.65
3275.10211	5148.75
3277.36474	5156.05
3279.62601	5143.95
3281.88593	5141.65
3284.14448	5133.55
3286.40168	5143.65
3288.65753	5117.15
3290.91202	5123.35
3293.16516	5120.85
3295.41695	5113.05
3297.66738	5078.25
3299.91647	5068.85
3302.16421	5033.95
3304.4106	5028.05
3306.65564	5015.95
3308.89933	4978.25
3311.14169	4949.35
3313.38269	4909.05
3315.62236	4872.65
3317.86068	4841.65
3320.09766	4791.45
3322.3333	4764.25
3324.5676	4758.35
3326.80056	4688.15
3329.03219	4676.35
3331.26248	2.75
3333.49143	-1.45
3335.71905	-0.95
