Data from AgNPs_FTO_APTES_UA_50uM_CRN_20uM_R6G_10uM_NaF_0.1M_Addition_RamanShift__9__14-04-44-922.txt Node

Date: Mon Feb 21 14:04:44 GMT 2022
User: TCL
Spectrometer: QEP01345
Trigger mode: 4
Integration Time (sec): 7.000000E0
Scans to average: 10
Electric dark correction enabled: true
Nonlinearity correction enabled: false
Boxcar width: 0
XAxis mode: Raman Shifts
Number of Pixels in Spectrum: 1044
>>>>>Begin Spectral Data<<<<<
46.04893	1.05
50.45542	-1.55
54.85868	-0.65
59.25871	-2.25
63.6555	51.25
68.04907	53.15
72.43941	53.55
76.82654	62.35
81.21044	61.45
85.59113	67.35
89.96862	65.45
94.34289	72.45
98.71396	72.65
103.08183	79.05
107.4465	76.45
111.80798	74.65
116.16626	78.15
120.52136	78.35
124.87327	86.45
129.222	81.45
133.56755	86.85
137.90993	91.35
142.24913	96.45
146.58517	107.15
150.91804	120.75
155.24774	141.85
159.57429	167.75
163.89768	208.25
168.21792	272.65
172.53501	368.85
176.84895	503.05
181.15975	702.65
185.46741	975.95
189.77193	1347.85
194.07331	1821.85
198.37157	2343.85
202.6667	2879.65
206.9587	3434.55
211.24758	3998.25
215.53334	4537.25
219.81599	5119.55
224.09553	5759.75
228.37195	6479.65
232.64527	7255.95
236.91549	8088.95
241.18261	8873.05
245.44663	9612.05
249.70755	10263.95
253.96539	10783.75
258.22014	11182.85
262.4718	11565.05
266.72039	11777.15
270.96589	11880.85
275.20832	11841.45
279.44768	11692.15
283.68397	11503.85
287.91719	11354.15
292.14735	11247.45
296.37445	11224.95
300.59849	11260.05
304.81948	11367.15
309.03742	11460.85
313.25231	11429.85
317.46415	11231.35
321.67296	10937.35
325.87872	10682.65
330.08145	10560.05
334.28114	10584.45
338.47781	10654.35
342.67145	10778.25
346.86207	11004.55
351.04966	11242.45
355.23424	11506.55
359.4158	11748.45
363.59435	11941.45
367.76989	12026.45
371.94243	12056.65
376.11196	12093.25
380.27849	12130.55
384.44203	12159.05
388.60257	12217.55
392.76012	12302.45
396.91468	12413.35
401.06626	12598.95
405.21485	12713.65
409.36047	12630.45
413.50311	12393.35
417.64277	12202.95
421.77947	12100.15
425.9132	12091.15
430.04396	12100.25
434.17176	12152.55
438.2966	12218.15
442.41849	12394.15
446.53742	12650.85
450.6534	12946.25
454.76644	13120.95
458.87653	13159.25
462.98368	13146.75
467.08789	13034.95
471.18916	12909.85
475.2875	12696.55
479.38291	12494.75
483.4754	12370.25
487.56496	12271.25
491.6516	12215.45
495.73531	12189.25
499.81612	12186.35
503.89401	12293.15
507.96899	12348.05
512.04106	12386.85
516.11023	12354.85
520.1765	12337.35
524.23987	12294.25
528.30034	12228.15
532.35792	12144.85
536.41261	12042.45
540.46441	11921.55
544.51333	11847.45
548.55936	11910.45
552.60252	12085.15
556.64279	12311.75
560.6802	12419.25
564.71473	12451.95
568.7464	12576.85
572.7752	12805.35
576.80114	13022.45
580.82422	13307.55
584.84444	13679.75
588.86181	14216.35
592.87633	14800.75
596.888	14920.15
600.89682	14572.55
604.9028	14606.95
608.90594	15947.05
612.90624	17598.25
616.90371	16637.65
620.89834	13773.55
624.89015	12475.45
628.87913	12276.45
632.86528	12432.35
636.84862	12559.55
640.82913	12415.75
644.80683	12093.45
648.78172	11868.65
652.75379	11856.75
656.72306	12029.45
660.68952	12283.55
664.65319	12227.25
668.61405	11958.75
672.57211	11949.25
676.52738	12027.15
680.47986	12078.75
684.42955	11974.15
688.37646	11899.45
692.32058	11890.75
696.26192	12033.95
700.20048	12143.95
704.13626	12198.95
708.06928	12192.65
711.99952	12123.65
715.927	12098.95
719.85171	12110.65
723.77365	12085.15
727.69284	11959.15
731.60928	11834.65
735.52295	11796.15
739.43388	11811.75
743.34206	11855.25
747.24749	11897.75
751.15017	11964.15
755.05012	12148.15
758.94733	12413.85
762.8418	13021.85
766.73354	14103.35
770.62254	15191.35
774.50882	15609.25
778.39237	15041.85
782.27321	13976.15
786.15132	13078.95
790.02671	12408.45
793.89938	12059.55
797.76935	11918.65
801.6366	11829.05
805.50115	11770.25
809.36299	11718.55
813.22213	11633.55
817.07857	11601.85
820.93231	11550.35
824.78336	11496.55
828.63172	11471.75
832.47738	11475.75
836.32036	11480.55
840.16066	11456.55
843.99827	11483.65
847.8332	11456.25
851.66546	11460.85
855.49504	11473.95
859.32195	11485.25
863.1462	11453.95
866.96777	11461.95
870.78668	11451.15
874.60293	11486.25
878.41652	11497.75
882.22745	11562.25
886.03573	11623.75
889.84136	11613.05
893.64433	11568.05
897.44466	11531.95
901.24235	11547.85
905.0374	11503.35
908.8298	11430.45
912.61957	11406.15
916.40671	11447.35
920.19121	11513.65
923.97308	11639.05
927.75233	11711.15
931.52895	11713.15
935.30295	11587.45
939.07433	11375.55
942.84309	11187.95
946.60924	11100.75
950.37278	11065.45
954.13371	11058.15
957.89203	11054.95
961.64774	11052.55
965.40086	11060.15
969.15137	11034.35
972.89929	11021.25
976.64461	11013.65
980.38733	10998.25
984.12747	11008.55
987.86502	11034.65
991.59999	11099.35
995.33237	11200.75
999.06217	11363.15
1002.78939	11543.65
1006.51404	11760.45
1010.23611	11971.65
1013.95561	12114.65
1017.67255	12156.65
1021.38692	12048.25
1025.09872	11876.55
1028.80796	11761.45
1032.51465	11713.85
1036.21877	11749.15
1039.92035	11786.95
1043.61937	11846.35
1047.31584	11825.25
1051.00976	11826.05
1054.70114	11858.25
1058.38998	11873.95
1062.07627	11914.25
1065.76003	12032.45
1069.44126	12198.05
1073.11995	12400.25
1076.79611	12616.85
1080.46974	12754.15
1084.14085	12877.35
1087.80943	12987.35
1091.47549	13078.55
1095.13903	13093.85
1098.80005	12862.65
1102.45857	12578.45
1106.11456	12390.85
1109.76805	12302.35
1113.41903	12323.25
1117.06751	12427.95
1120.71348	12585.35
1124.35696	12780.25
1127.99793	12997.95
1131.63641	13106.65
1135.2724	13008.75
1138.90589	12869.35
1142.5369	12765.85
1146.16542	12755.35
1149.79145	12719.85
1153.415	12767.75
1157.03607	12860.35
1160.65467	13065.35
1164.27079	13499.35
1167.88443	14046.75
1171.49561	14813.45
1175.10432	15816.15
1178.71056	17060.25
1182.31434	18270.95
1185.91565	18836.65
1189.51451	18768.75
1193.11091	18345.45
1196.70485	17590.45
1200.29634	16842.85
1203.88538	16170.45
1207.47197	15603.45
1211.05612	15121.35
1214.63782	14773.55
1218.21708	14494.45
1221.79391	14335.55
1225.36829	14306.55
1228.94024	14257.55
1232.50976	14159.25
1236.07685	14058.35
1239.6415	13921.65
1243.20374	13914.25
1246.76355	13928.65
1250.32093	14038.95
1253.8759	14242.95
1257.42845	14587.05
1260.97859	15045.25
1264.52631	15492.15
1268.07163	15921.05
1271.61453	16372.95
1275.15503	16729.95
1278.69312	17049.85
1282.22882	17438.05
1285.76211	17902.75
1289.29301	18462.65
1292.82151	19059.55
1296.34761	19791.95
1299.87133	20596.05
1303.39266	21655.55
1306.9116	22800.45
1310.42815	23814.65
1313.94233	24343.85
1317.45412	24073.35
1320.96354	23309.95
1324.47058	22535.25
1327.97525	21895.55
1331.47754	21491.35
1334.97747	21195.15
1338.47502	21068.65
1341.97022	21076.95
1345.46305	21272.55
1348.95352	21649.65
1352.44163	22214.55
1355.92738	23185.75
1359.41078	24565.95
1362.89183	25867.65
1366.37053	25645.35
1369.84688	23472.45
1373.32088	20712.85
1376.79254	18744.75
1380.26186	17775.75
1383.72883	17322.05
1387.19347	16974.55
1390.65578	16565.85
1394.11575	16301.35
1397.57339	16258.45
1401.0287	16260.65
1404.48168	16314.65
1407.93234	16328.25
1411.38068	16210.25
1414.82669	15978.45
1418.27039	15707.95
1421.71177	15394.55
1425.15083	15164.55
1428.58758	15065.85
1432.02203	15139.75
1435.45416	15370.25
1438.88399	15558.85
1442.31151	15667.15
1445.73673	15712.75
1449.15965	15805.45
1452.58027	15829.05
1455.9986	15814.05
1459.41463	15923.05
1462.82837	16134.05
1466.23982	16502.55
1469.64898	16810.85
1473.05586	17038.85
1476.46045	17200.35
1479.86276	17311.25
1483.26279	17381.45
1486.66054	17568.85
1490.05602	17929.05
1493.44922	18427.65
1496.84016	19100.55
1500.22882	19960.25
1503.61521	21065.95
1506.99934	22205.95
1510.38121	23011.75
1513.76081	22975.15
1517.13816	22035.45
1520.51324	20663.05
1523.88607	19489.65
1527.25665	18767.55
1530.62498	18284.95
1533.99105	17904.65
1537.35488	17532.85
1540.71647	17111.25
1544.07581	16717.95
1547.4329	16370.85
1550.78776	16124.85
1554.14038	15964.75
1557.49077	15975.65
1560.83892	16035.65
1564.18484	16214.45
1567.52853	16398.45
1570.86999	16655.15
1574.20922	16929.45
1577.54624	17024.35
1580.88103	16744.55
1584.2136	16378.45
1587.54395	16380.95
1590.87208	16845.55
1594.19801	17633.15
1597.52172	18494.45
1600.84321	18757.75
1604.16251	18215.45
1607.47959	17114.75
1610.79447	15988.55
1614.10715	14922.35
1617.41763	14058.05
1620.7259	13409.75
1624.03199	13093.95
1627.33587	13078.65
1630.63757	13338.75
1633.93707	13997.55
1637.23439	15148.75
1640.52951	16875.45
1643.82246	19011.35
1647.11321	20929.75
1650.40179	21505.25
1653.68819	20173.85
1656.97241	17718.55
1660.25446	15249.95
1663.53433	13459.65
1666.81203	12374.05
1670.08756	11772.85
1673.36092	11404.55
1676.63211	11155.55
1679.90115	10994.45
1683.16801	10840.75
1686.43272	10721.85
1689.69527	10618.05
1692.95567	10491.95
1696.2139	10320.25
1699.46999	10199.55
1702.72392	10140.95
1705.97571	10199.15
1709.22535	10272.05
1712.47284	10341.45
1715.71819	10352.35
1718.96139	10341.25
1722.20246	10302.65
1725.44139	10281.25
1728.67818	10222.85
1731.91284	10159.35
1735.14537	10111.85
1738.37576	10058.95
1741.60403	10024.05
1744.83017	9956.55
1748.05418	9940.55
1751.27607	9916.85
1754.49584	9857.95
1757.71349	9796.45
1760.92903	9744.55
1764.14244	9752.65
1767.35375	9755.45
1770.56294	9710.65
1773.77002	9689.55
1776.97499	9729.25
1780.17785	9761.05
1783.37861	9760.65
1786.57727	9766.35
1789.77382	9745.45
1792.96828	9733.85
1796.16064	9703.85
1799.3509	9702.15
1802.53907	9689.95
1805.72514	9669.55
1808.90913	9656.45
1812.09102	9635.05
1815.27083	9619.25
1818.44856	9624.75
1821.6242	9601.35
1824.79776	9587.65
1827.96924	9580.65
1831.13864	9586.55
1834.30597	9569.35
1837.47122	9580.05
1840.6344	9557.25
1843.7955	9584.25
1846.95454	9564.55
1850.11151	9560.95
1853.26642	9556.95
1856.41926	9553.35
1859.57004	9545.85
1862.71876	9509.85
1865.86542	9524.95
1869.01003	9525.95
1872.15258	9496.35
1875.29308	9476.35
1878.43152	9476.05
1881.56792	9446.85
1884.70227	9417.95
1887.83457	9441.35
1890.96482	9415.65
1894.09304	9386.85
1897.21921	9397.65
1900.34335	9374.35
1903.46544	9368.25
1906.58551	9363.25
1909.70353	9351.15
1912.81953	9309.25
1915.93349	9326.85
1919.04543	9293.75
1922.15534	9269.25
1925.26322	9240.95
1928.36908	9217.85
1931.47292	9206.05
1934.57473	9182.15
1937.67453	9189.65
1940.77232	9138.65
1943.86808	9143.25
1946.96184	9110.45
1950.05358	9074.05
1953.14331	9051.05
1956.23103	9027.95
1959.31675	9018.15
1962.40046	9012.45
1965.48217	8975.15
1968.56188	8952.95
1971.63959	8934.55
1974.7153	8892.55
1977.78901	8876.05
1980.86073	8847.55
1983.93046	8794.15
1986.99819	8786.15
1990.06394	8759.65
1993.1277	8746.85
1996.18947	8711.15
1999.24925	8695.45
2002.30706	8655.45
2005.36288	8622.95
2008.41672	8600.95
2011.46859	8569.85
2014.51848	8538.05
2017.56639	8528.55
2020.61233	8515.35
2023.6563	8513.75
2026.6983	8460.85
2029.73833	8436.05
2032.7764	8410.75
2035.8125	8407.25
2038.84664	8399.75
2041.87881	8404.35
2044.90903	8367.75
2047.93729	8349.75
2050.96359	8361.05
2053.98794	8347.15
2057.01034	8331.75
2060.03078	8325.55
2063.04927	8329.35
2066.06582	8327.75
2069.08042	8306.45
2072.09307	8296.75
2075.10378	8318.95
2078.11255	8302.25
2081.11938	8298.45
2084.12426	8286.65
2087.12722	8298.75
2090.12824	8304.65
2093.12732	8292.85
2096.12447	8308.35
2099.11969	8320.95
2102.11299	8310.95
2105.10435	8315.15
2108.09379	8320.65
2111.08131	8329.05
2114.0669	8317.65
2117.05057	8345.45
2120.03233	8351.75
2123.01216	8391.65
2125.99008	8365.95
2128.96609	8374.15
2131.94018	8365.15
2134.91236	8370.85
2137.88263	8365.75
2140.851	8390.65
2143.81746	8395.75
2146.78201	8383.65
2149.74466	8415.45
2152.7054	8377.35
2155.66425	8386.15
2158.6212	8359.25
2161.57625	8363.65
2164.52941	8371.45
2167.48067	8349.45
2170.43004	8356.35
2173.37752	8350.45
2176.32311	8348.35
2179.26681	8337.75
2182.20863	8358.15
2185.14856	8364.55
2188.08661	8342.55
2191.02278	8350.65
2193.95707	8338.15
2196.88948	8355.25
2199.82001	8324.65
2202.74867	8330.35
2205.67545	8333.15
2208.60037	8292.85
2211.52341	8297.25
2214.44458	8297.35
2217.36388	8241.25
2220.28132	8273.15
2223.1969	8231.65
2226.11061	8232.45
2229.02246	8204.35
2231.93245	8205.25
2234.84058	8197.15
2237.74686	8186.25
2240.65128	8179.75
2243.55385	8183.85
2246.45456	8171.35
2249.35343	8163.15
2252.25044	8146.15
2255.14561	8119.45
2258.03893	8117.65
2260.93041	8086.75
2263.82004	8093.65
2266.70783	8072.05
2269.59378	8062.35
2272.4779	8047.25
2275.36017	8018.45
2278.24061	8018.95
2281.11922	7989.45
2283.996	7991.95
2286.87094	7975.45
2289.74405	7961.15
2292.61534	7950.45
2295.4848	7946.45
2298.35243	7926.75
2301.21824	7927.65
2304.08223	7940.35
2306.94439	7907.45
2309.80474	7933.95
2312.66327	7922.55
2315.51999	7913.25
2318.37489	7865.55
2321.22797	7892.85
2324.07925	7870.95
2326.92871	7873.95
2329.77637	7882.45
2332.62222	7861.65
2335.46626	7847.45
2338.3085	7836.65
2341.14893	7825.35
2343.98756	7833.65
2346.8244	7830.05
2349.65943	7833.05
2352.49267	7829.25
2355.32411	7836.65
2358.15376	7820.65
2360.98161	7832.75
2363.80768	7814.95
2366.63195	7834.55
2369.45444	7809.35
2372.27514	7828.15
2375.09405	7805.15
2377.91118	7785.35
2380.72652	7782.85
2383.54009	7768.15
2386.35187	7758.25
2389.16188	7722.05
2391.97011	7714.15
2394.77657	7709.75
2397.58125	7667.15
2400.38416	7672.05
2403.18529	7657.65
2405.98466	7659.45
2408.78226	7639.25
2411.57809	7625.05
2414.37216	7619.65
2417.16446	7613.95
2419.955	7597.45
2422.74378	7616.55
2425.5308	7594.95
2428.31606	7613.75
2431.09956	7606.15
2433.88131	7598.95
2436.6613	7583.55
2439.43954	7589.65
2442.21603	7599.95
2444.99077	7602.75
2447.76377	7612.25
2450.53501	7605.35
2453.30451	7610.05
2456.07226	7575.85
2458.83827	7579.95
2461.60254	7596.75
2464.36507	7584.75
2467.12586	7578.25
2469.88492	7561.35
2472.64224	7572.95
2475.39782	7551.25
2478.15167	7544.65
2480.90379	7574.25
2483.65417	7553.15
2486.40283	7580.25
2489.14976	7589.75
2491.89497	7574.45
2494.63845	7551.55
2497.3802	7540.15
2500.12024	7567.55
2502.85855	7549.95
2505.59514	7552.45
2508.33002	7529.05
2511.06318	7512.15
2513.79462	7503.15
2516.52435	7510.45
2519.25237	7500.35
2521.97867	7480.05
2524.70327	7481.75
2527.42616	7455.35
2530.14734	7452.95
2532.86681	7459.75
2535.58458	7462.65
2538.30065	7438.35
2541.01501	7447.45
2543.72768	7450.25
2546.43864	7435.15
2549.14791	7435.55
2551.85548	7419.05
2554.56136	7392.65
2557.26554	7401.15
2559.96803	7394.85
2562.66883	7417.75
2565.36794	7389.35
2568.06536	7382.45
2570.7611	7349.95
2573.45514	7348.75
2576.14751	7352.95
2578.83819	7316.75
2581.52719	7329.15
2584.21451	7311.35
2586.90015	7307.25
2589.58411	7283.95
2592.2664	7285.05
2594.94701	7265.75
2597.62594	7280.55
2600.30321	7265.95
2602.9788	7285.65
2605.65273	7259.95
2608.32498	7249.85
2610.99557	7228.35
2613.66449	7270.75
2616.33175	7257.45
2618.99734	7253.95
2621.66128	7246.55
2624.32355	7236.35
2626.98416	7200.95
2629.64311	7200.15
2632.30041	7179.15
2634.95605	7193.15
2637.61004	7171.65
2640.26238	7163.15
2642.91306	7165.45
2645.56209	7171.65
2648.20948	7158.05
2650.85521	7151.55
2653.4993	7177.75
2656.14175	7161.35
2658.78255	7160.95
2661.42171	7173.55
2664.05923	7193.05
2666.6951	7192.05
2669.32934	7202.65
2671.96194	7209.85
2674.59291	7211.45
2677.22224	7188.75
2679.84993	7207.45
2682.476	7184.85
2685.10043	7178.35
2687.72324	7170.75
2690.34441	7190.05
2692.96396	7189.65
2695.58188	7173.75
2698.19818	7180.65
2700.81285	7173.55
2703.4259	7135.55
2706.03733	7100.15
2708.64714	7122.25
2711.25533	7165.35
2713.86191	7169.75
2716.46687	7172.85
2719.07021	7172.55
2721.67194	7214.35
2724.27206	7208.85
2726.87057	7214.85
2729.46747	7207.85
2732.06276	7225.75
2734.65644	7206.65
2737.24852	7211.15
2739.83899	7209.15
2742.42786	7206.75
2745.01513	7187.65
2747.60079	7197.25
2750.18486	7182.55
2752.76733	7183.45
2755.3482	7167.75
2757.92747	7162.15
2760.50515	7169.25
2763.08123	7137.05
2765.65573	7134.65
2768.22863	7138.75
2770.79994	7107.45
2773.36967	7110.75
2775.9378	7118.45
2778.50435	7101.45
2781.06932	7093.65
2783.6327	7118.45
2786.1945	7114.05
2788.75471	7085.45
2791.31335	7073.85
2793.87041	7070.65
2796.42589	7043.45
2798.97979	7054.05
2801.53212	7060.15
2804.08288	7045.35
2806.63206	7009.05
2809.17967	6994.45
2811.72571	6989.45
2814.27018	6971.05
2816.81308	6984.25
2819.35442	6973.65
2821.89419	6979.55
2824.43239	6963.05
2826.96904	6963.95
2829.50412	6968.65
2832.03763	6951.45
2834.56959	6941.25
2837.1	6941.35
2839.62884	6935.65
2842.15613	6937.45
2844.68186	6924.85
2847.20604	6954.65
2849.72867	6924.55
2852.24974	6935.65
2854.76927	6929.25
2857.28724	6897.55
2859.80367	6933.15
2862.31855	6901.15
2864.83189	6918.25
2867.34368	6912.95
2869.85393	6934.45
2872.36264	6916.05
2874.8698	6910.15
2877.37543	6906.15
2879.87952	6887.95
2882.38207	6914.85
2884.88308	6909.15
2887.38256	6904.95
2889.88051	6918.25
2892.37692	6905.95
2894.8718	6919.85
2897.36515	6932.95
2899.85698	6934.55
2902.34727	6951.25
2904.83604	6941.35
2907.32328	6952.85
2909.809	6959.65
2912.29319	6965.05
2914.77587	6964.35
2917.25702	6967.85
2919.73665	6963.45
2922.21476	6976.95
2924.69136	6953.55
2927.16644	6971.45
2929.64	6935.85
2932.11205	6954.65
2934.58258	6925.15
2937.05161	6927.15
2939.51912	6930.85
2941.98513	6927.45
2944.44962	6908.45
2946.91261	6870.85
2949.37409	6898.75
2951.83407	6899.95
2954.29254	6855.15
2956.74951	6886.95
2959.20498	6861.95
2961.65895	6846.55
2964.11142	6853.95
2966.56239	6817.55
2969.01186	6809.35
2971.45984	6801.25
2973.90632	6804.55
2976.35131	6800.25
2978.7948	6785.35
2981.23681	6765.75
2983.67732	6769.25
2986.11635	6736.65
2988.55388	6710.65
2990.98993	6728.85
2993.4245	6700.55
2995.85758	6674.75
2998.28917	6650.75
3000.71928	6662.15
3003.14791	6657.45
3005.57506	6644.25
3008.00073	6648.65
3010.42493	6609.75
3012.84764	6622.65
3015.26888	6623.45
3017.68865	6615.15
3020.10694	6592.05
3022.52376	6565.75
3024.9391	6577.55
3027.35298	6563.05
3029.76539	6565.55
3032.17632	6545.55
3034.5858	6545.65
3036.9938	6542.05
3039.40034	6537.15
3041.80542	6525.45
3044.20903	6491.65
3046.61118	6520.95
3049.01187	6522.45
3051.4111	6504.45
3053.80888	6505.15
3056.20519	6477.75
3058.60005	6489.65
3060.99345	6466.35
3063.3854	6458.25
3065.7759	6449.75
3068.16494	6425.85
3070.55254	6419.35
3072.93868	6378.05
3075.32338	6378.15
3077.70662	6378.35
3080.08842	6363.75
3082.46878	6352.45
3084.84769	6347.35
3087.22515	6333.75
3089.60118	6355.85
3091.97576	6354.95
3094.3489	6338.05
3096.72061	6337.05
3099.09087	6336.55
3101.4597	6351.65
3103.82709	6350.85
3106.19305	6333.65
3108.55757	6334.15
3110.92066	6316.55
3113.28232	6311.65
3115.64255	6307.35
3118.00134	6302.85
3120.35871	6310.35
3122.71466	6317.95
3125.06917	6284.05
3127.42226	6280.65
3129.77393	6261.95
3132.12417	6271.55
3134.47299	6275.65
3136.82039	6253.65
3139.16636	6259.65
3141.51092	6277.05
3143.85406	6258.65
3146.19579	6264.35
3148.53609	6275.05
3150.87499	6290.75
3153.21246	6293.85
3155.54853	6310.95
3157.88318	6305.25
3160.21642	6303.85
3162.54826	6295.65
3164.87868	6311.35
3167.2077	6315.25
3169.5353	6311.05
3171.86151	6327.15
3174.18631	6314.85
3176.5097	6316.05
3178.83169	6289.45
3181.15228	6271.45
3183.47147	6280.25
3185.78926	6288.35
3188.10565	6286.15
3190.42065	6300.15
3192.73424	6283.15
3195.04645	6274.65
3197.35725	6278.15
3199.66667	6278.15
3201.97469	6289.75
3204.28132	6276.45
3206.58656	6284.65
3208.8904	6281.35
3211.19287	6265.05
3213.49394	6288.35
3215.79363	6298.75
3218.09193	6312.85
3220.38884	6292.55
3222.68438	6265.65
3224.97853	6282.05
3227.2713	6294.85
3229.56269	6268.15
3231.8527	6278.35
3234.14133	6271.75
3236.42858	6261.05
3238.71446	6247.95
3240.99896	6236.15
3243.28209	6225.25
3245.56384	6221.55
3247.84423	6233.85
3250.12324	6234.05
3252.40088	6225.75
3254.67715	6227.45
3256.95205	6209.95
3259.22558	6209.95
3261.49775	6202.45
3263.76855	6200.65
3266.03799	6199.55
3268.30606	6190.25
3270.57277	6188.65
3272.83812	6180.25
3275.10211	6157.95
3277.36474	6144.95
3279.62601	6159.25
3281.88593	6138.05
3284.14448	6152.85
3286.40168	6133.65
3288.65753	6126.35
3290.91202	6123.05
3293.16516	6134.55
3295.41695	6122.05
3297.66738	6083.45
3299.91647	6057.55
3302.16421	6021.35
3304.4106	5991.95
3306.65564	5966.05
3308.89933	5929.75
3311.14169	5876.85
3313.38269	5814.45
3315.62236	5776.55
3317.86068	5733.05
3320.09766	5674.25
3322.3333	5657.65
3324.5676	5651.25
3326.80056	5525.85
3329.03219	5512.45
3331.26248	2.65
3333.49143	-0.15
3335.71905	0.65
