Data from AgNPs_FTO_APTES_UA_50uM_CRN_200uM_R6G_10uM_NaF_0.1M_Addition_RamanShift__14__16-10-45-080.txt Node

Date: Mon Feb 21 16:10:45 GMT 2022
User: TCL
Spectrometer: QEP01345
Trigger mode: 4
Integration Time (sec): 7.000000E0
Scans to average: 10
Electric dark correction enabled: true
Nonlinearity correction enabled: false
Boxcar width: 0
XAxis mode: Raman Shifts
Number of Pixels in Spectrum: 1044
>>>>>Begin Spectral Data<<<<<
46.04893	0.45
50.45542	-1.05
54.85868	0.05
59.25871	-2.15
63.6555	40.85
68.04907	45.65
72.43941	49.45
76.82654	50.65
81.21044	52.65
85.59113	58.15
89.96862	56.85
94.34289	62.05
98.71396	61.85
103.08183	64.85
107.4465	65.95
111.80798	64.15
116.16626	66.75
120.52136	64.15
124.87327	72.25
129.222	68.65
133.56755	72.95
137.90993	78.55
142.24913	80.75
146.58517	89.05
150.91804	97.05
155.24774	114.15
159.57429	141.25
163.89768	175.95
168.21792	229.95
172.53501	308.55
176.84895	425.05
181.15975	596.45
185.46741	831.95
189.77193	1159.25
194.07331	1536.95
198.37157	1989.65
202.6667	2462.05
206.9587	2936.75
211.24758	3399.15
215.53334	3870.95
219.81599	4336.25
224.09553	4862.55
228.37195	5451.85
232.64527	6090.05
236.91549	6760.75
241.18261	7439.95
245.44663	8094.35
249.70755	8685.35
253.96539	9206.75
258.22014	9593.75
262.4718	9921.45
266.72039	10170.65
270.96589	10270.35
275.20832	10269.45
279.44768	10171.95
283.68397	10030.15
287.91719	9900.45
292.14735	9784.35
296.37445	9723.75
300.59849	9748.45
304.81948	9774.35
309.03742	9772.05
313.25231	9707.85
317.46415	9579.45
321.67296	9413.85
325.87872	9231.35
330.08145	9171.35
334.28114	9212.25
338.47781	9275.85
342.67145	9386.45
346.86207	9552.25
351.04966	9728.35
355.23424	9912.45
359.4158	10106.55
363.59435	10249.65
367.76989	10352.65
371.94243	10443.25
376.11196	10495.65
380.27849	10534.95
384.44203	10611.25
388.60257	10643.45
392.76012	10701.45
396.91468	10814.65
401.06626	10925.15
405.21485	11033.25
409.36047	11007.35
413.50311	10828.55
417.64277	10674.45
421.77947	10578.45
425.9132	10546.65
430.04396	10583.85
434.17176	10626.35
438.2966	10729.85
442.41849	10845.35
446.53742	10983.35
450.6534	11149.55
454.76644	11250.95
458.87653	11333.15
462.98368	11384.25
467.08789	11367.55
471.18916	11289.75
475.2875	11198.95
479.38291	11120.05
483.4754	11055.05
487.56496	11022.05
491.6516	10973.45
495.73531	10946.25
499.81612	10951.85
503.89401	11025.35
507.96899	11094.95
512.04106	11159.35
516.11023	11195.25
520.1765	11192.95
524.23987	11182.95
528.30034	11130.45
532.35792	11070.35
536.41261	11003.95
540.46441	10942.55
544.51333	10927.15
548.55936	10980.95
552.60252	11069.25
556.64279	11193.15
560.6802	11226.75
564.71473	11259.05
568.7464	11308.45
572.7752	11389.75
576.80114	11405.55
580.82422	11480.45
584.84444	11520.95
588.86181	11598.55
592.87633	11654.45
596.888	11697.05
600.89682	11813.45
604.9028	12226.55
608.90594	13211.75
612.90624	14389.95
616.90371	13967.25
620.89834	12211.45
624.89015	11380.45
628.87913	11214.55
632.86528	11311.15
636.84862	11387.55
640.82913	11367.15
644.80683	11222.65
648.78172	11096.45
652.75379	11099.75
656.72306	11199.05
660.68952	11381.85
664.65319	11352.55
668.61405	11256.45
672.57211	11253.45
676.52738	11327.15
680.47986	11397.25
684.42955	11340.75
688.37646	11317.45
692.32058	11287.85
696.26192	11295.15
700.20048	11315.25
704.13626	11333.15
708.06928	11314.75
711.99952	11254.55
715.927	11217.65
719.85171	11226.25
723.77365	11224.05
727.69284	11188.05
731.60928	11152.75
735.52295	11123.45
739.43388	11153.55
743.34206	11152.15
747.24749	11157.45
751.15017	11192.35
755.05012	11273.35
758.94733	11413.55
762.8418	11778.25
766.73354	12416.85
770.62254	13115.85
774.50882	13452.75
778.39237	13185.05
782.27321	12497.05
786.15132	11849.05
790.02671	11452.05
793.89938	11233.75
797.76935	11137.55
801.6366	11100.85
805.50115	11042.45
809.36299	10968.55
813.22213	10942.55
817.07857	10930.15
820.93231	10940.45
824.78336	10914.45
828.63172	10943.65
832.47738	10924.55
836.32036	10929.35
840.16066	10901.75
843.99827	10907.85
847.8332	10903.35
851.66546	10912.95
855.49504	10917.65
859.32195	10951.55
863.1462	10928.55
866.96777	10938.65
870.78668	10935.65
874.60293	10959.25
878.41652	10954.35
882.22745	10984.15
886.03573	11001.45
889.84136	11014.45
893.64433	10973.25
897.44466	10950.75
901.24235	10962.15
905.0374	10946.05
908.8298	10907.85
912.61957	10903.35
916.40671	10914.15
920.19121	10946.55
923.97308	10957.85
927.75233	10984.15
931.52895	10981.45
935.30295	10913.15
939.07433	10834.35
942.84309	10738.85
946.60924	10672.25
950.37278	10631.35
954.13371	10634.25
957.89203	10584.25
961.64774	10583.05
965.40086	10585.05
969.15137	10549.95
972.89929	10515.45
976.64461	10493.65
980.38733	10476.55
984.12747	10484.55
987.86502	10515.15
991.59999	10565.35
995.33237	10557.85
999.06217	10643.15
1002.78939	10687.35
1006.51404	10772.45
1010.23611	10873.25
1013.95561	10922.15
1017.67255	10973.45
1021.38692	10944.85
1025.09872	10885.05
1028.80796	10803.05
1032.51465	10770.55
1036.21877	10729.35
1039.92035	10780.25
1043.61937	10825.45
1047.31584	10857.45
1051.00976	10891.65
1054.70114	10922.55
1058.38998	10945.45
1062.07627	10988.75
1065.76003	11038.25
1069.44126	11091.95
1073.11995	11177.45
1076.79611	11252.15
1080.46974	11298.35
1084.14085	11380.45
1087.80943	11398.55
1091.47549	11453.55
1095.13903	11449.75
1098.80005	11359.75
1102.45857	11280.05
1106.11456	11191.05
1109.76805	11169.55
1113.41903	11170.05
1117.06751	11223.85
1120.71348	11353.25
1124.35696	11464.75
1127.99793	11571.15
1131.63641	11626.75
1135.2724	11512.75
1138.90589	11407.25
1142.5369	11297.85
1146.16542	11228.35
1149.79145	11191.45
1153.415	11189.95
1157.03607	11192.75
1160.65467	11269.15
1164.27079	11462.05
1167.88443	11707.05
1171.49561	12038.85
1175.10432	12508.55
1178.71056	13165.25
1182.31434	13784.55
1185.91565	14097.55
1189.51451	14166.85
1193.11091	13984.85
1196.70485	13640.85
1200.29634	13296.25
1203.88538	12973.35
1207.47197	12566.75
1211.05612	12254.65
1214.63782	11984.75
1218.21708	11812.05
1221.79391	11722.15
1225.36829	11671.75
1228.94024	11663.45
1232.50976	11632.85
1236.07685	11644.95
1239.6415	11661.35
1243.20374	11689.25
1246.76355	11713.75
1250.32093	11746.55
1253.8759	11827.85
1257.42845	11939.95
1260.97859	12074.65
1264.52631	12251.45
1268.07163	12416.75
1271.61453	12576.05
1275.15503	12678.45
1278.69312	12767.75
1282.22882	12823.15
1285.76211	12943.65
1289.29301	13056.75
1292.82151	13286.35
1296.34761	13539.75
1299.87133	13862.75
1303.39266	14305.85
1306.9116	14847.65
1310.42815	15401.55
1313.94233	15683.95
1317.45412	15623.25
1320.96354	15282.35
1324.47058	14918.65
1327.97525	14564.65
1331.47754	14358.05
1334.97747	14249.15
1338.47502	14378.55
1341.97022	14603.05
1345.46305	14964.45
1348.95352	15363.05
1352.44163	15825.75
1355.92738	16306.55
1359.41078	16935.85
1362.89183	17580.95
1366.37053	17384.55
1369.84688	16078.55
1373.32088	14657.65
1376.79254	13608.75
1380.26186	13023.65
1383.72883	12719.85
1387.19347	12484.35
1390.65578	12261.75
1394.11575	12060.45
1397.57339	11939.25
1401.0287	11916.65
1404.48168	11904.95
1407.93234	11877.65
1411.38068	11876.05
1414.82669	11839.65
1418.27039	11723.45
1421.71177	11655.35
1425.15083	11505.65
1428.58758	11400.75
1432.02203	11351.15
1435.45416	11374.45
1438.88399	11411.25
1442.31151	11461.85
1445.73673	11461.95
1449.15965	11518.95
1452.58027	11571.25
1455.9986	11609.75
1459.41463	11621.65
1462.82837	11715.45
1466.23982	11873.55
1469.64898	12054.95
1473.05586	12182.25
1476.46045	12300.75
1479.86276	12386.85
1483.26279	12459.05
1486.66054	12530.15
1490.05602	12700.75
1493.44922	12961.95
1496.84016	13406.35
1500.22882	14081.05
1503.61521	14916.05
1506.99934	15773.35
1510.38121	16336.25
1513.76081	16306.25
1517.13816	15707.85
1520.51324	14743.35
1523.88607	13927.85
1527.25665	13371.25
1530.62498	13093.85
1533.99105	12863.25
1537.35488	12724.85
1540.71647	12576.45
1544.07581	12494.15
1547.4329	12363.15
1550.78776	12314.85
1554.14038	12281.55
1557.49077	12265.45
1560.83892	12336.75
1564.18484	12443.45
1567.52853	12572.65
1570.86999	12749.45
1574.20922	12865.35
1577.54624	12827.85
1580.88103	12593.75
1584.2136	12262.85
1587.54395	12068.25
1590.87208	12037.95
1594.19801	12257.65
1597.52172	12575.95
1600.84321	12746.15
1604.16251	12643.25
1607.47959	12379.15
1610.79447	12115.15
1614.10715	11731.35
1617.41763	11341.25
1620.7259	11005.05
1624.03199	10754.05
1627.33587	10656.15
1630.63757	10661.55
1633.93707	10791.35
1637.23439	11109.65
1640.52951	11602.55
1643.82246	12264.75
1647.11321	13021.25
1650.40179	13490.55
1653.68819	13315.65
1656.97241	12537.05
1660.25446	11536.05
1663.53433	10772.05
1666.81203	10253.75
1670.08756	9939.35
1673.36092	9764.15
1676.63211	9633.45
1679.90115	9568.05
1683.16801	9476.75
1686.43272	9418.05
1689.69527	9351.45
1692.95567	9279.95
1696.2139	9134.45
1699.46999	9038.15
1702.72392	8977.85
1705.97571	9042.55
1709.22535	9135.15
1712.47284	9179.95
1715.71819	9209.75
1718.96139	9208.95
1722.20246	9209.35
1725.44139	9173.85
1728.67818	9166.25
1731.91284	9119.45
1735.14537	9064.05
1738.37576	9053.55
1741.60403	9002.95
1744.83017	8954.35
1748.05418	8932.95
1751.27607	8889.65
1754.49584	8842.15
1757.71349	8811.15
1760.92903	8786.65
1764.14244	8767.75
1767.35375	8781.05
1770.56294	8726.45
1773.77002	8710.35
1776.97499	8740.35
1780.17785	8783.95
1783.37861	8769.15
1786.57727	8784.55
1789.77382	8744.95
1792.96828	8751.45
1796.16064	8714.45
1799.3509	8714.65
1802.53907	8690.15
1805.72514	8663.35
1808.90913	8639.45
1812.09102	8632.95
1815.27083	8618.85
1818.44856	8586.35
1821.6242	8577.65
1824.79776	8552.85
1827.96924	8531.45
1831.13864	8550.15
1834.30597	8511.35
1837.47122	8534.45
1840.6344	8508.55
1843.7955	8511.55
1846.95454	8489.45
1850.11151	8490.45
1853.26642	8478.85
1856.41926	8470.25
1859.57004	8452.55
1862.71876	8444.75
1865.86542	8429.45
1869.01003	8429.65
1872.15258	8387.85
1875.29308	8389.45
1878.43152	8371.55
1881.56792	8354.75
1884.70227	8347.95
1887.83457	8324.45
1890.96482	8338.05
1894.09304	8306.35
1897.21921	8309.35
1900.34335	8309.05
1903.46544	8250.65
1906.58551	8265.35
1909.70353	8257.75
1912.81953	8272.75
1915.93349	8229.95
1919.04543	8221.45
1922.15534	8172.85
1925.26322	8168.45
1928.36908	8186.55
1931.47292	8161.45
1934.57473	8150.25
1937.67453	8125.05
1940.77232	8108.15
1943.86808	8095.25
1946.96184	8064.25
1950.05358	8022.45
1953.14331	8000.35
1956.23103	7985.95
1959.31675	7940.25
1962.40046	7944.55
1965.48217	7912.35
1968.56188	7878.35
1971.63959	7868.15
1974.7153	7850.85
1977.78901	7791.85
1980.86073	7790.05
1983.93046	7783.15
1986.99819	7741.55
1990.06394	7714.65
1993.1277	7694.75
1996.18947	7683.35
1999.24925	7638.35
2002.30706	7620.05
2005.36288	7600.45
2008.41672	7563.75
2011.46859	7551.65
2014.51848	7532.25
2017.56639	7524.05
2020.61233	7485.25
2023.6563	7478.05
2026.6983	7425.85
2029.73833	7423.15
2032.7764	7406.35
2035.8125	7364.65
2038.84664	7357.25
2041.87881	7352.55
2044.90903	7339.45
2047.93729	7316.95
2050.96359	7297.65
2053.98794	7302.95
2057.01034	7297.25
2060.03078	7292.85
2063.04927	7253.85
2066.06582	7263.45
2069.08042	7245.35
2072.09307	7252.95
2075.10378	7261.25
2078.11255	7241.05
2081.11938	7230.65
2084.12426	7250.95
2087.12722	7233.65
2090.12824	7225.35
2093.12732	7238.45
2096.12447	7228.55
2099.11969	7212.85
2102.11299	7234.65
2105.10435	7232.35
2108.09379	7233.95
2111.08131	7223.95
2114.0669	7220.45
2117.05057	7217.05
2120.03233	7239.55
2123.01216	7248.65
2125.99008	7249.95
2128.96609	7250.95
2131.94018	7266.55
2134.91236	7241.95
2137.88263	7259.45
2140.851	7256.05
2143.81746	7260.15
2146.78201	7246.05
2149.74466	7255.05
2152.7054	7259.35
2155.66425	7258.15
2158.6212	7258.85
2161.57625	7262.45
2164.52941	7234.35
2167.48067	7231.05
2170.43004	7244.05
2173.37752	7226.85
2176.32311	7224.15
2179.26681	7221.25
2182.20863	7199.55
2185.14856	7221.25
2188.08661	7201.95
2191.02278	7223.05
2193.95707	7205.05
2196.88948	7190.65
2199.82001	7196.15
2202.74867	7179.95
2205.67545	7179.35
2208.60037	7148.45
2211.52341	7138.05
2214.44458	7112.55
2217.36388	7117.75
2220.28132	7103.05
2223.1969	7068.75
2226.11061	7074.75
2229.02246	7042.75
2231.93245	7046.35
2234.84058	7033.35
2237.74686	7014.45
2240.65128	7018.25
2243.55385	7009.15
2246.45456	6981.35
2249.35343	6979.85
2252.25044	6978.15
2255.14561	6978.95
2258.03893	6953.35
2260.93041	6929.55
2263.82004	6915.35
2266.70783	6909.65
2269.59378	6892.45
2272.4779	6871.25
2275.36017	6867.75
2278.24061	6857.85
2281.11922	6833.85
2283.996	6812.75
2286.87094	6798.15
2289.74405	6789.55
2292.61534	6780.15
2295.4848	6783.35
2298.35243	6751.95
2301.21824	6740.75
2304.08223	6746.25
2306.94439	6735.05
2309.80474	6722.75
2312.66327	6718.75
2315.51999	6723.95
2318.37489	6699.65
2321.22797	6686.25
2324.07925	6671.55
2326.92871	6659.15
2329.77637	6656.45
2332.62222	6635.55
2335.46626	6645.75
2338.3085	6607.75
2341.14893	6618.25
2343.98756	6606.55
2346.8244	6578.65
2349.65943	6590.25
2352.49267	6562.95
2355.32411	6579.55
2358.15376	6565.55
2360.98161	6557.15
2363.80768	6572.95
2366.63195	6570.55
2369.45444	6564.65
2372.27514	6569.05
2375.09405	6550.45
2377.91118	6532.15
2380.72652	6526.05
2383.54009	6514.45
2386.35187	6480.45
2389.16188	6459.95
2391.97011	6463.25
2394.77657	6441.45
2397.58125	6436.45
2400.38416	6422.55
2403.18529	6404.75
2405.98466	6395.55
2408.78226	6371.95
2411.57809	6373.75
2414.37216	6361.55
2417.16446	6350.55
2419.955	6333.85
2422.74378	6336.45
2425.5308	6320.55
2428.31606	6328.15
2431.09956	6319.05
2433.88131	6315.35
2436.6613	6300.85
2439.43954	6298.45
2442.21603	6304.85
2444.99077	6291.45
2447.76377	6284.15
2450.53501	6270.95
2453.30451	6247.85
2456.07226	6250.75
2458.83827	6259.35
2461.60254	6244.75
2464.36507	6263.45
2467.12586	6250.65
2469.88492	6225.65
2472.64224	6223.05
2475.39782	6195.55
2478.15167	6201.85
2480.90379	6216.35
2483.65417	6185.85
2486.40283	6201.85
2489.14976	6199.45
2491.89497	6184.15
2494.63845	6190.15
2497.3802	6175.55
2500.12024	6188.55
2502.85855	6178.75
2505.59514	6167.95
2508.33002	6142.65
2511.06318	6126.95
2513.79462	6121.05
2516.52435	6114.65
2519.25237	6103.15
2521.97867	6102.85
2524.70327	6086.55
2527.42616	6099.55
2530.14734	6079.55
2532.86681	6049.05
2535.58458	6076.65
2538.30065	6030.45
2541.01501	6038.65
2543.72768	6013.35
2546.43864	6019.05
2549.14791	6000.25
2551.85548	6000.25
2554.56136	5968.65
2557.26554	5956.85
2559.96803	5956.55
2562.66883	5954.75
2565.36794	5937.15
2568.06536	5926.35
2570.7611	5941.25
2573.45514	5889.95
2576.14751	5910.15
2578.83819	5864.95
2581.52719	5859.95
2584.21451	5856.45
2586.90015	5868.25
2589.58411	5827.35
2592.2664	5823.55
2594.94701	5825.15
2597.62594	5793.25
2600.30321	5780.55
2602.9788	5786.15
2605.65273	5789.05
2608.32498	5772.75
2610.99557	5768.65
2613.66449	5750.55
2616.33175	5733.35
2618.99734	5759.25
2621.66128	5719.85
2624.32355	5722.15
2626.98416	5703.45
2629.64311	5707.95
2632.30041	5684.75
2634.95605	5663.85
2637.61004	5682.35
2640.26238	5648.95
2642.91306	5654.05
2645.56209	5662.95
2648.20948	5648.85
2650.85521	5634.35
2653.4993	5627.25
2656.14175	5614.55
2658.78255	5625.35
2661.42171	5624.95
2664.05923	5632.95
2666.6951	5629.15
2669.32934	5640.05
2671.96194	5617.05
2674.59291	5627.35
2677.22224	5636.15
2679.84993	5613.05
2682.476	5599.45
2685.10043	5619.35
2687.72324	5600.75
2690.34441	5610.45
2692.96396	5604.55
2695.58188	5619.65
2698.19818	5611.95
2700.81285	5586.45
2703.4259	5587.15
2706.03733	5510.65
2708.64714	5548.35
2711.25533	5573.45
2713.86191	5578.75
2716.46687	5580.55
2719.07021	5593.55
2721.67194	5597.95
2724.27206	5603.15
2726.87057	5589.15
2729.46747	5590.25
2732.06276	5608.35
2734.65644	5577.75
2737.24852	5593.05
2739.83899	5593.95
2742.42786	5579.85
2745.01513	5551.95
2747.60079	5554.95
2750.18486	5538.65
2752.76733	5549.35
2755.3482	5523.75
2757.92747	5514.05
2760.50515	5513.25
2763.08123	5514.55
2765.65573	5487.85
2768.22863	5471.15
2770.79994	5454.65
2773.36967	5446.75
2775.9378	5433.45
2778.50435	5447.45
2781.06932	5436.85
2783.6327	5425.75
2786.1945	5428.65
2788.75471	5419.85
2791.31335	5400.25
2793.87041	5394.65
2796.42589	5388.15
2798.97979	5387.75
2801.53212	5365.35
2804.08288	5355.55
2806.63206	5333.55
2809.17967	5307.85
2811.72571	5308.45
2814.27018	5300.25
2816.81308	5291.75
2819.35442	5294.05
2821.89419	5266.95
2824.43239	5270.35
2826.96904	5269.55
2829.50412	5266.75
2832.03763	5266.25
2834.56959	5264.05
2837.1	5262.85
2839.62884	5266.35
2842.15613	5260.85
2844.68186	5265.95
2847.20604	5278.85
2849.72867	5269.85
2852.24974	5263.25
2854.76927	5249.25
2857.28724	5205.95
2859.80367	5213.75
2862.31855	5235.05
2864.83189	5220.15
2867.34368	5200.15
2869.85393	5203.35
2872.36264	5207.05
2874.8698	5202.85
2877.37543	5217.25
2879.87952	5206.25
2882.38207	5203.75
2884.88308	5182.15
2887.38256	5209.85
2889.88051	5195.25
2892.37692	5183.45
2894.8718	5185.75
2897.36515	5189.85
2899.85698	5196.85
2902.34727	5205.55
2904.83604	5206.65
2907.32328	5204.25
2909.809	5213.05
2912.29319	5220.55
2914.77587	5208.15
2917.25702	5198.65
2919.73665	5210.35
2922.21476	5208.35
2924.69136	5220.05
2927.16644	5205.45
2929.64	5193.85
2932.11205	5187.15
2934.58258	5187.25
2937.05161	5181.35
2939.51912	5194.95
2941.98513	5199.65
2944.44962	5169.75
2946.91261	5153.75
2949.37409	5149.25
2951.83407	5142.05
2954.29254	5134.65
2956.74951	5135.75
2959.20498	5120.95
2961.65895	5114.75
2964.11142	5116.55
2966.56239	5087.95
2969.01186	5093.25
2971.45984	5070.55
2973.90632	5066.65
2976.35131	5070.15
2978.7948	5043.65
2981.23681	5033.15
2983.67732	5026.25
2986.11635	5047.45
2988.55388	5009.95
2990.98993	5002.95
2993.4245	4990.65
2995.85758	4985.15
2998.28917	4963.55
3000.71928	4938.65
3003.14791	4932.05
3005.57506	4934.35
3008.00073	4912.65
3010.42493	4937.05
3012.84764	4912.45
3015.26888	4895.65
3017.68865	4892.75
3020.10694	4908.95
3022.52376	4884.25
3024.9391	4887.85
3027.35298	4891.45
3029.76539	4872.85
3032.17632	4862.55
3034.5858	4855.85
3036.9938	4863.35
3039.40034	4839.15
3041.80542	4838.45
3044.20903	4839.15
3046.61118	4823.85
3049.01187	4814.75
3051.4111	4822.55
3053.80888	4825.45
3056.20519	4821.75
3058.60005	4790.85
3060.99345	4782.75
3063.3854	4785.25
3065.7759	4781.05
3068.16494	4773.25
3070.55254	4742.35
3072.93868	4740.75
3075.32338	4715.35
3077.70662	4719.15
3080.08842	4712.95
3082.46878	4718.15
3084.84769	4698.45
3087.22515	4702.55
3089.60118	4708.05
3091.97576	4708.05
3094.3489	4720.45
3096.72061	4705.35
3099.09087	4705.25
3101.4597	4716.85
3103.82709	4709.85
3106.19305	4707.15
3108.55757	4706.35
3110.92066	4705.65
3113.28232	4697.05
3115.64255	4686.15
3118.00134	4672.95
3120.35871	4676.95
3122.71466	4662.95
3125.06917	4674.35
3127.42226	4655.45
3129.77393	4644.05
3132.12417	4645.75
3134.47299	4647.55
3136.82039	4653.05
3139.16636	4654.75
3141.51092	4648.65
3143.85406	4649.25
3146.19579	4651.75
3148.53609	4678.95
3150.87499	4679.45
3153.21246	4681.85
3155.54853	4712.45
3157.88318	4704.05
3160.21642	4708.85
3162.54826	4709.75
3164.87868	4704.75
3167.2077	4689.55
3169.5353	4698.25
3171.86151	4704.35
3174.18631	4683.95
3176.5097	4686.65
3178.83169	4676.55
3181.15228	4697.05
3183.47147	4682.25
3185.78926	4659.25
3188.10565	4679.45
3190.42065	4662.35
3192.73424	4702.45
3195.04645	4670.65
3197.35725	4670.95
3199.66667	4666.05
3201.97469	4687.95
3204.28132	4667.15
3206.58656	4681.95
3208.8904	4670.95
3211.19287	4677.15
3213.49394	4684.05
3215.79363	4686.45
3218.09193	4700.55
3220.38884	4689.45
3222.68438	4674.45
3224.97853	4683.95
3227.2713	4681.15
3229.56269	4674.35
3231.8527	4652.35
3234.14133	4651.95
3236.42858	4651.15
3238.71446	4646.15
3240.99896	4626.35
3243.28209	4637.25
3245.56384	4629.25
3247.84423	4619.45
3250.12324	4617.25
3252.40088	4622.15
3254.67715	4617.05
3256.95205	4613.25
3259.22558	4615.15
3261.49775	4606.25
3263.76855	4604.15
3266.03799	4595.25
3268.30606	4601.75
3270.57277	4593.15
3272.83812	4573.15
3275.10211	4566.45
3277.36474	4561.25
3279.62601	4554.25
3281.88593	4542.25
3284.14448	4548.55
3286.40168	4540.55
3288.65753	4552.55
3290.91202	4535.65
3293.16516	4525.45
3295.41695	4513.25
3297.66738	4501.35
3299.91647	4476.55
3302.16421	4438.45
3304.4106	4447.15
3306.65564	4420.85
3308.89933	4372.25
3311.14169	4348.35
3313.38269	4313.25
3315.62236	4280.65
3317.86068	4240.85
3320.09766	4222.35
3322.3333	4190.25
3324.5676	4185.95
3326.80056	4087.45
3329.03219	4061.05
3331.26248	1.45
3333.49143	0.35
3335.71905	0.35
