Data from AgNPs_FTO_APTES_UA_50uM_CRN_100uM_R6G_10uM_NaF_0.1M_Addition_RamanShift__13__15-31-05-031.txt Node

Date: Mon Feb 21 15:31:05 GMT 2022
User: TCL
Spectrometer: QEP01345
Trigger mode: 4
Integration Time (sec): 7.000000E0
Scans to average: 10
Electric dark correction enabled: true
Nonlinearity correction enabled: false
Boxcar width: 0
XAxis mode: Raman Shifts
Number of Pixels in Spectrum: 1044
>>>>>Begin Spectral Data<<<<<
46.04893	0.75
50.45542	-0.35
54.85868	-0.65
59.25871	-1.75
63.6555	44.95
68.04907	49.55
72.43941	48.35
76.82654	53.15
81.21044	56.15
85.59113	60.15
89.96862	61.35
94.34289	64.65
98.71396	63.35
103.08183	69.45
107.4465	71.65
111.80798	70.35
116.16626	69.95
120.52136	69.55
124.87327	77.85
129.222	75.45
133.56755	79.55
137.90993	84.35
142.24913	87.75
146.58517	95.95
150.91804	106.95
155.24774	122.45
159.57429	150.25
163.89768	183.15
168.21792	240.55
172.53501	318.25
176.84895	452.25
181.15975	621.95
185.46741	875.05
189.77193	1212.65
194.07331	1624.45
198.37157	2103.65
202.6667	2601.25
206.9587	3104.25
211.24758	3572.85
215.53334	4055.05
219.81599	4549.75
224.09553	5081.35
228.37195	5715.45
232.64527	6376.35
236.91549	7107.35
241.18261	7791.05
245.44663	8497.55
249.70755	9128.95
253.96539	9675.85
258.22014	10120.35
262.4718	10463.45
266.72039	10704.75
270.96589	10849.95
275.20832	10855.35
279.44768	10747.15
283.68397	10600.75
287.91719	10450.15
292.14735	10349.95
296.37445	10305.05
300.59849	10310.65
304.81948	10346.75
309.03742	10329.65
313.25231	10261.85
317.46415	10117.85
321.67296	9915.05
325.87872	9744.95
330.08145	9684.25
334.28114	9722.75
338.47781	9811.55
342.67145	9932.35
346.86207	10074.85
351.04966	10301.15
355.23424	10484.35
359.4158	10670.95
363.59435	10821.65
367.76989	10937.55
371.94243	11023.05
376.11196	11088.55
380.27849	11158.15
384.44203	11214.85
388.60257	11249.85
392.76012	11325.95
396.91468	11402.25
401.06626	11575.65
405.21485	11664.95
409.36047	11633.45
413.50311	11491.75
417.64277	11300.55
421.77947	11205.55
425.9132	11198.65
430.04396	11213.75
434.17176	11276.65
438.2966	11363.15
442.41849	11480.05
446.53742	11635.75
450.6534	11812.85
454.76644	11919.45
458.87653	11992.55
462.98368	12024.75
467.08789	12015.85
471.18916	11967.75
475.2875	11884.25
479.38291	11783.75
483.4754	11725.15
487.56496	11635.45
491.6516	11622.05
495.73531	11595.65
499.81612	11617.35
503.89401	11691.25
507.96899	11751.95
512.04106	11802.45
516.11023	11820.55
520.1765	11814.05
524.23987	11821.15
528.30034	11740.95
532.35792	11674.75
536.41261	11660.05
540.46441	11562.85
544.51333	11565.65
548.55936	11622.25
552.60252	11740.75
556.64279	11855.95
560.6802	11893.55
564.71473	11891.55
568.7464	11974.35
572.7752	12044.85
576.80114	12112.55
580.82422	12192.05
584.84444	12267.85
588.86181	12335.15
592.87633	12375.65
596.888	12417.65
600.89682	12576.55
604.9028	12975.05
608.90594	14009.85
612.90624	15232.75
616.90371	14703.25
620.89834	12900.05
624.89015	12027.95
628.87913	11887.85
632.86528	11968.45
636.84862	12057.95
640.82913	12040.05
644.80683	11865.55
648.78172	11745.75
652.75379	11731.55
656.72306	11879.75
660.68952	12070.15
664.65319	12026.85
668.61405	11908.75
672.57211	11929.25
676.52738	11992.05
680.47986	12030.95
684.42955	11977.45
688.37646	11943.45
692.32058	11940.95
696.26192	11990.55
700.20048	11999.15
704.13626	12027.35
708.06928	11994.35
711.99952	11957.35
715.927	11914.85
719.85171	11914.85
723.77365	11909.85
727.69284	11854.45
731.60928	11783.65
735.52295	11774.05
739.43388	11790.15
743.34206	11803.25
747.24749	11810.95
751.15017	11881.65
755.05012	11938.05
758.94733	12113.75
762.8418	12474.85
766.73354	13123.25
770.62254	13870.55
774.50882	14233.15
778.39237	13918.35
782.27321	13205.85
786.15132	12551.25
790.02671	12131.85
793.89938	11914.65
797.76935	11788.65
801.6366	11755.95
805.50115	11675.95
809.36299	11634.35
813.22213	11614.75
817.07857	11611.45
820.93231	11604.85
824.78336	11552.55
828.63172	11587.25
832.47738	11547.05
836.32036	11547.75
840.16066	11561.55
843.99827	11558.35
847.8332	11548.15
851.66546	11560.35
855.49504	11541.35
859.32195	11572.25
863.1462	11573.45
866.96777	11563.85
870.78668	11576.05
874.60293	11606.85
878.41652	11618.05
882.22745	11664.75
886.03573	11690.05
889.84136	11670.65
893.64433	11652.85
897.44466	11638.45
901.24235	11620.15
905.0374	11600.85
908.8298	11572.85
912.61957	11560.85
916.40671	11584.05
920.19121	11608.35
923.97308	11643.55
927.75233	11665.25
931.52895	11648.95
935.30295	11619.35
939.07433	11492.15
942.84309	11395.15
946.60924	11351.75
950.37278	11279.35
954.13371	11276.55
957.89203	11261.35
961.64774	11250.55
965.40086	11233.65
969.15137	11208.25
972.89929	11178.95
976.64461	11148.55
980.38733	11142.35
984.12747	11175.05
987.86502	11186.75
991.59999	11193.75
995.33237	11226.05
999.06217	11326.25
1002.78939	11389.55
1006.51404	11463.75
1010.23611	11565.05
1013.95561	11660.85
1017.67255	11699.25
1021.38692	11647.05
1025.09872	11598.35
1028.80796	11534.15
1032.51465	11494.05
1036.21877	11488.35
1039.92035	11495.95
1043.61937	11524.25
1047.31584	11564.95
1051.00976	11624.25
1054.70114	11659.45
1058.38998	11685.65
1062.07627	11720.95
1065.76003	11792.35
1069.44126	11862.55
1073.11995	11940.35
1076.79611	12049.25
1080.46974	12102.05
1084.14085	12159.35
1087.80943	12221.45
1091.47549	12273.05
1095.13903	12269.15
1098.80005	12188.75
1102.45857	12078.05
1106.11456	11980.05
1109.76805	11924.35
1113.41903	11921.15
1117.06751	12011.25
1120.71348	12102.25
1124.35696	12212.95
1127.99793	12320.35
1131.63641	12370.55
1135.2724	12278.15
1138.90589	12167.85
1142.5369	12084.05
1146.16542	12039.05
1149.79145	11982.05
1153.415	11961.65
1157.03607	11995.55
1160.65467	12125.55
1164.27079	12297.95
1167.88443	12555.25
1171.49561	12913.15
1175.10432	13423.45
1178.71056	14101.15
1182.31434	14792.25
1185.91565	15192.75
1189.51451	15294.65
1193.11091	15108.35
1196.70485	14714.45
1200.29634	14327.45
1203.88538	13979.45
1207.47197	13536.95
1211.05612	13164.95
1214.63782	12888.65
1218.21708	12753.35
1221.79391	12622.85
1225.36829	12571.25
1228.94024	12542.25
1232.50976	12559.15
1236.07685	12561.55
1239.6415	12530.75
1243.20374	12548.15
1246.76355	12599.45
1250.32093	12640.55
1253.8759	12728.65
1257.42845	12864.75
1260.97859	13053.55
1264.52631	13241.55
1268.07163	13417.55
1271.61453	13579.85
1275.15503	13726.45
1278.69312	13838.35
1282.22882	13952.85
1285.76211	14025.45
1289.29301	14190.85
1292.82151	14413.15
1296.34761	14661.45
1299.87133	15010.35
1303.39266	15452.75
1306.9116	16041.95
1310.42815	16635.75
1313.94233	16974.05
1317.45412	16884.15
1320.96354	16606.35
1324.47058	16244.05
1327.97525	15867.45
1331.47754	15676.55
1334.97747	15650.65
1338.47502	15758.75
1341.97022	16033.45
1345.46305	16379.75
1348.95352	16782.25
1352.44163	17173.65
1355.92738	17646.15
1359.41078	18241.25
1362.89183	18897.15
1366.37053	18661.05
1369.84688	17331.95
1373.32088	15870.15
1376.79254	14765.45
1380.26186	14155.75
1383.72883	13803.35
1387.19347	13566.25
1390.65578	13309.15
1394.11575	13110.05
1397.57339	12970.55
1401.0287	12911.15
1404.48168	12910.35
1407.93234	12938.55
1411.38068	12919.25
1414.82669	12853.95
1418.27039	12754.85
1421.71177	12664.95
1425.15083	12508.85
1428.58758	12390.15
1432.02203	12344.25
1435.45416	12357.95
1438.88399	12421.35
1442.31151	12466.85
1445.73673	12489.05
1449.15965	12553.75
1452.58027	12623.55
1455.9986	12650.05
1459.41463	12703.05
1462.82837	12832.25
1466.23982	12995.95
1469.64898	13199.55
1473.05586	13366.05
1476.46045	13502.55
1479.86276	13589.25
1483.26279	13676.35
1486.66054	13771.45
1490.05602	13927.95
1493.44922	14224.65
1496.84016	14683.95
1500.22882	15369.05
1503.61521	16238.65
1506.99934	17087.45
1510.38121	17677.75
1513.76081	17664.35
1517.13816	16941.45
1520.51324	16028.25
1523.88607	15142.55
1527.25665	14578.45
1530.62498	14260.65
1533.99105	14040.45
1537.35488	13854.35
1540.71647	13737.25
1544.07581	13629.55
1547.4329	13502.85
1550.78776	13394.45
1554.14038	13355.05
1557.49077	13399.25
1560.83892	13445.05
1564.18484	13563.95
1567.52853	13698.65
1570.86999	13833.45
1574.20922	13986.15
1577.54624	13941.05
1580.88103	13706.75
1584.2136	13335.25
1587.54395	13156.35
1590.87208	13158.95
1594.19801	13385.05
1597.52172	13781.75
1600.84321	13963.65
1604.16251	13871.55
1607.47959	13571.55
1610.79447	13201.75
1614.10715	12751.85
1617.41763	12303.25
1620.7259	11938.05
1624.03199	11691.65
1627.33587	11594.15
1630.63757	11607.35
1633.93707	11800.75
1637.23439	12152.15
1640.52951	12699.55
1643.82246	13473.65
1647.11321	14291.55
1650.40179	14807.05
1653.68819	14602.75
1656.97241	13687.65
1660.25446	12626.05
1663.53433	11733.75
1666.81203	11190.35
1670.08756	10827.15
1673.36092	10587.15
1676.63211	10468.95
1679.90115	10359.35
1683.16801	10277.55
1686.43272	10206.15
1689.69527	10122.05
1692.95567	10011.45
1696.2139	9903.75
1699.46999	9803.35
1702.72392	9757.85
1705.97571	9826.85
1709.22535	9885.95
1712.47284	9966.85
1715.71819	10012.15
1718.96139	9998.15
1722.20246	9993.25
1725.44139	9959.95
1728.67818	9919.65
1731.91284	9874.15
1735.14537	9807.75
1738.37576	9780.35
1741.60403	9757.55
1744.83017	9742.95
1748.05418	9714.35
1751.27607	9667.45
1754.49584	9649.75
1757.71349	9588.15
1760.92903	9529.25
1764.14244	9511.95
1767.35375	9514.65
1770.56294	9474.15
1773.77002	9469.95
1776.97499	9501.05
1780.17785	9522.55
1783.37861	9534.45
1786.57727	9537.15
1789.77382	9516.25
1792.96828	9504.65
1796.16064	9471.25
1799.3509	9446.15
1802.53907	9412.25
1805.72514	9426.65
1808.90913	9397.75
1812.09102	9382.25
1815.27083	9354.75
1818.44856	9354.25
1821.6242	9358.45
1824.79776	9299.05
1827.96924	9314.75
1831.13864	9291.55
1834.30597	9281.25
1837.47122	9266.65
1840.6344	9274.15
1843.7955	9249.05
1846.95454	9241.35
1850.11151	9217.35
1853.26642	9233.75
1856.41926	9198.95
1859.57004	9206.55
1862.71876	9178.75
1865.86542	9185.05
1869.01003	9180.75
1872.15258	9160.35
1875.29308	9157.65
1878.43152	9144.45
1881.56792	9153.65
1884.70227	9124.85
1887.83457	9063.75
1890.96482	9110.75
1894.09304	9058.15
1897.21921	9073.75
1900.34335	9056.15
1903.46544	9036.15
1906.58551	9024.45
1909.70353	9007.55
1912.81953	9003.65
1915.93349	8990.55
1919.04543	8975.65
1922.15534	8975.45
1925.26322	8939.65
1928.36908	8912.05
1931.47292	8890.35
1934.57473	8870.35
1937.67453	8836.95
1940.77232	8831.85
1943.86808	8839.45
1946.96184	8784.25
1950.05358	8763.25
1953.14331	8731.55
1956.23103	8695.95
1959.31675	8678.05
1962.40046	8636.75
1965.48217	8650.75
1968.56188	8623.35
1971.63959	8605.25
1974.7153	8561.45
1977.78901	8569.15
1980.86073	8537.05
1983.93046	8493.05
1986.99819	8454.05
1990.06394	8445.75
1993.1277	8408.55
1996.18947	8392.15
1999.24925	8382.15
2002.30706	8331.65
2005.36288	8296.15
2008.41672	8260.35
2011.46859	8260.65
2014.51848	8228.75
2017.56639	8212.15
2020.61233	8185.95
2023.6563	8176.55
2026.6983	8160.05
2029.73833	8120.95
2032.7764	8114.05
2035.8125	8083.85
2038.84664	8040.55
2041.87881	8062.75
2044.90903	8040.15
2047.93729	8022.05
2050.96359	8007.35
2053.98794	7996.35
2057.01034	8003.25
2060.03078	7980.65
2063.04927	7994.95
2066.06582	7977.55
2069.08042	7961.05
2072.09307	7957.55
2075.10378	7941.75
2078.11255	7933.65
2081.11938	7938.05
2084.12426	7947.55
2087.12722	7948.45
2090.12824	7925.25
2093.12732	7912.05
2096.12447	7911.55
2099.11969	7938.15
2102.11299	7924.55
2105.10435	7924.35
2108.09379	7928.55
2111.08131	7926.65
2114.0669	7914.35
2117.05057	7942.85
2120.03233	7935.45
2123.01216	7979.05
2125.99008	7948.15
2128.96609	7971.45
2131.94018	7976.15
2134.91236	7983.15
2137.88263	7957.85
2140.851	7978.05
2143.81746	7994.35
2146.78201	7980.35
2149.74466	7982.15
2152.7054	7984.15
2155.66425	7962.05
2158.6212	7991.55
2161.57625	7974.55
2164.52941	7964.75
2167.48067	7963.35
2170.43004	7947.35
2173.37752	7944.65
2176.32311	7940.05
2179.26681	7949.85
2182.20863	7923.85
2185.14856	7956.15
2188.08661	7942.25
2191.02278	7935.65
2193.95707	7939.15
2196.88948	7913.25
2199.82001	7918.75
2202.74867	7914.35
2205.67545	7911.25
2208.60037	7877.95
2211.52341	7879.95
2214.44458	7847.85
2217.36388	7823.35
2220.28132	7811.55
2223.1969	7815.25
2226.11061	7795.05
2229.02246	7794.75
2231.93245	7756.35
2234.84058	7732.15
2237.74686	7724.75
2240.65128	7749.25
2243.55385	7719.75
2246.45456	7728.05
2249.35343	7699.65
2252.25044	7687.25
2255.14561	7660.25
2258.03893	7696.95
2260.93041	7652.95
2263.82004	7635.15
2266.70783	7623.15
2269.59378	7599.45
2272.4779	7577.75
2275.36017	7567.95
2278.24061	7539.65
2281.11922	7519.85
2283.996	7512.45
2286.87094	7492.25
2289.74405	7499.65
2292.61534	7466.05
2295.4848	7479.85
2298.35243	7454.35
2301.21824	7462.65
2304.08223	7461.95
2306.94439	7438.35
2309.80474	7440.95
2312.66327	7414.65
2315.51999	7411.45
2318.37489	7405.05
2321.22797	7381.35
2324.07925	7375.85
2326.92871	7369.05
2329.77637	7389.65
2332.62222	7353.05
2335.46626	7333.95
2338.3085	7337.15
2341.14893	7327.15
2343.98756	7305.75
2346.8244	7307.55
2349.65943	7280.55
2352.49267	7289.95
2355.32411	7288.05
2358.15376	7274.95
2360.98161	7263.45
2363.80768	7252.95
2366.63195	7255.15
2369.45444	7259.75
2372.27514	7248.95
2375.09405	7228.55
2377.91118	7239.65
2380.72652	7218.75
2383.54009	7190.75
2386.35187	7190.65
2389.16188	7165.65
2391.97011	7154.15
2394.77657	7131.65
2397.58125	7119.55
2400.38416	7110.15
2403.18529	7104.75
2405.98466	7079.75
2408.78226	7071.25
2411.57809	7046.75
2414.37216	7043.25
2417.16446	7028.85
2419.955	7029.15
2422.74378	7026.95
2425.5308	7018.75
2428.31606	7029.55
2431.09956	7010.35
2433.88131	7000.75
2436.6613	6998.05
2439.43954	6995.65
2442.21603	6984.95
2444.99077	7003.55
2447.76377	7010.45
2450.53501	6978.35
2453.30451	6964.15
2456.07226	6964.15
2458.83827	6925.45
2461.60254	6934.55
2464.36507	6931.35
2467.12586	6933.75
2469.88492	6932.25
2472.64224	6932.35
2475.39782	6910.25
2478.15167	6910.25
2480.90379	6885.05
2483.65417	6905.15
2486.40283	6910.95
2489.14976	6895.05
2491.89497	6894.15
2494.63845	6879.65
2497.3802	6823.05
2500.12024	6847.85
2502.85855	6883.55
2505.59514	6860.55
2508.33002	6826.95
2511.06318	6813.95
2513.79462	6813.45
2516.52435	6802.85
2519.25237	6797.35
2521.97867	6787.35
2524.70327	6755.85
2527.42616	6789.25
2530.14734	6762.45
2532.86681	6753.95
2535.58458	6766.75
2538.30065	6717.15
2541.01501	6731.65
2543.72768	6708.25
2546.43864	6707.85
2549.14791	6685.65
2551.85548	6685.15
2554.56136	6658.85
2557.26554	6666.85
2559.96803	6643.25
2562.66883	6645.65
2565.36794	6626.55
2568.06536	6618.25
2570.7611	6604.95
2573.45514	6600.65
2576.14751	6599.45
2578.83819	6577.05
2581.52719	6565.95
2584.21451	6539.35
2586.90015	6533.75
2589.58411	6516.45
2592.2664	6504.15
2594.94701	6477.05
2597.62594	6481.85
2600.30321	6472.35
2602.9788	6470.65
2605.65273	6467.25
2608.32498	6451.65
2610.99557	6448.45
2613.66449	6440.35
2616.33175	6430.55
2618.99734	6425.45
2621.66128	6443.05
2624.32355	6416.25
2626.98416	6395.25
2629.64311	6365.15
2632.30041	6361.85
2634.95605	6359.25
2637.61004	6342.35
2640.26238	6338.25
2642.91306	6347.25
2645.56209	6339.35
2648.20948	6304.35
2650.85521	6301.25
2653.4993	6314.75
2656.14175	6318.75
2658.78255	6304.35
2661.42171	6297.55
2664.05923	6315.35
2666.6951	6323.55
2669.32934	6338.55
2671.96194	6321.45
2674.59291	6304.15
2677.22224	6317.25
2679.84993	6295.25
2682.476	6288.35
2685.10043	6271.25
2687.72324	6288.35
2690.34441	6287.95
2692.96396	6296.35
2695.58188	6296.15
2698.19818	6275.05
2700.81285	6274.55
2703.4259	6261.55
2706.03733	6179.75
2708.64714	6231.05
2711.25533	6263.45
2713.86191	6254.65
2716.46687	6280.35
2719.07021	6267.95
2721.67194	6282.35
2724.27206	6284.75
2726.87057	6294.15
2729.46747	6280.75
2732.06276	6299.45
2734.65644	6266.65
2737.24852	6272.65
2739.83899	6257.85
2742.42786	6255.95
2745.01513	6247.05
2747.60079	6237.15
2750.18486	6249.45
2752.76733	6230.85
2755.3482	6213.75
2757.92747	6205.65
2760.50515	6192.95
2763.08123	6207.95
2765.65573	6180.45
2768.22863	6161.45
2770.79994	6158.15
2773.36967	6150.05
2775.9378	6131.55
2778.50435	6120.85
2781.06932	6116.65
2783.6327	6134.85
2786.1945	6116.35
2788.75471	6110.65
2791.31335	6086.55
2793.87041	6079.65
2796.42589	6074.85
2798.97979	6040.45
2801.53212	6060.25
2804.08288	6039.75
2806.63206	6016.85
2809.17967	5995.75
2811.72571	5989.25
2814.27018	5978.65
2816.81308	5966.75
2819.35442	5981.45
2821.89419	5974.75
2824.43239	5968.25
2826.96904	5951.55
2829.50412	5928.65
2832.03763	5930.15
2834.56959	5933.05
2837.1	5910.35
2839.62884	5925.35
2842.15613	5919.75
2844.68186	5938.65
2847.20604	5917.75
2849.72867	5939.45
2852.24974	5928.75
2854.76927	5892.55
2857.28724	5879.95
2859.80367	5888.85
2862.31855	5875.95
2864.83189	5871.85
2867.34368	5859.45
2869.85393	5862.85
2872.36264	5863.05
2874.8698	5871.35
2877.37543	5851.45
2879.87952	5873.35
2882.38207	5850.95
2884.88308	5856.05
2887.38256	5831.35
2889.88051	5837.55
2892.37692	5843.45
2894.8718	5840.95
2897.36515	5858.35
2899.85698	5859.15
2902.34727	5852.65
2904.83604	5859.35
2907.32328	5879.05
2909.809	5868.45
2912.29319	5856.45
2914.77587	5872.85
2917.25702	5867.15
2919.73665	5882.25
2922.21476	5855.05
2924.69136	5861.15
2927.16644	5861.95
2929.64	5844.25
2932.11205	5853.85
2934.58258	5833.65
2937.05161	5832.75
2939.51912	5848.35
2941.98513	5838.05
2944.44962	5818.35
2946.91261	5790.25
2949.37409	5819.05
2951.83407	5809.95
2954.29254	5796.05
2956.74951	5801.05
2959.20498	5789.65
2961.65895	5760.75
2964.11142	5768.35
2966.56239	5750.95
2969.01186	5745.95
2971.45984	5721.25
2973.90632	5729.15
2976.35131	5727.05
2978.7948	5708.55
2981.23681	5696.25
2983.67732	5699.95
2986.11635	5669.55
2988.55388	5659.45
2990.98993	5667.45
2993.4245	5631.55
2995.85758	5640.05
2998.28917	5633.55
3000.71928	5607.55
3003.14791	5600.05
3005.57506	5586.25
3008.00073	5591.35
3010.42493	5589.95
3012.84764	5585.15
3015.26888	5578.65
3017.68865	5558.15
3020.10694	5561.45
3022.52376	5537.75
3024.9391	5540.15
3027.35298	5511.55
3029.76539	5511.35
3032.17632	5504.15
3034.5858	5483.35
3036.9938	5490.75
3039.40034	5496.45
3041.80542	5467.15
3044.20903	5476.85
3046.61118	5468.45
3049.01187	5461.95
3051.4111	5458.45
3053.80888	5470.45
3056.20519	5435.25
3058.60005	5432.45
3060.99345	5430.75
3063.3854	5417.35
3065.7759	5423.55
3068.16494	5393.85
3070.55254	5385.25
3072.93868	5369.35
3075.32338	5354.95
3077.70662	5354.75
3080.08842	5326.45
3082.46878	5324.05
3084.84769	5325.75
3087.22515	5335.95
3089.60118	5339.25
3091.97576	5328.15
3094.3489	5327.05
3096.72061	5322.35
3099.09087	5327.15
3101.4597	5320.65
3103.82709	5341.05
3106.19305	5320.25
3108.55757	5339.55
3110.92066	5329.05
3113.28232	5331.45
3115.64255	5318.55
3118.00134	5299.85
3120.35871	5310.25
3122.71466	5293.55
3125.06917	5295.05
3127.42226	5296.55
3129.77393	5288.95
3132.12417	5276.95
3134.47299	5270.65
3136.82039	5270.75
3139.16636	5262.05
3141.51092	5264.25
3143.85406	5287.15
3146.19579	5285.45
3148.53609	5275.25
3150.87499	5285.45
3153.21246	5292.85
3155.54853	5305.85
3157.88318	5296.45
3160.21642	5311.65
3162.54826	5316.15
3164.87868	5309.85
3167.2077	5322.45
3169.5353	5318.45
3171.86151	5330.95
3174.18631	5317.75
3176.5097	5325.75
3178.83169	5306.05
3181.15228	5321.55
3183.47147	5284.65
3185.78926	5303.65
3188.10565	5296.35
3190.42065	5297.55
3192.73424	5295.85
3195.04645	5281.95
3197.35725	5292.85
3199.66667	5290.25
3201.97469	5295.45
3204.28132	5277.25
3206.58656	5294.95
3208.8904	5309.25
3211.19287	5310.25
3213.49394	5305.25
3215.79363	5311.95
3218.09193	5308.35
3220.38884	5300.45
3222.68438	5289.55
3224.97853	5291.15
3227.2713	5290.45
3229.56269	5287.15
3231.8527	5295.65
3234.14133	5273.15
3236.42858	5271.85
3238.71446	5256.85
3240.99896	5247.05
3243.28209	5236.15
3245.56384	5228.45
3247.84423	5252.25
3250.12324	5220.65
3252.40088	5220.35
3254.67715	5212.15
3256.95205	5227.65
3259.22558	5214.45
3261.49775	5223.25
3263.76855	5225.25
3266.03799	5209.85
3268.30606	5203.05
3270.57277	5192.35
3272.83812	5191.95
3275.10211	5177.15
3277.36474	5176.75
3279.62601	5164.85
3281.88593	5160.45
3284.14448	5152.25
3286.40168	5142.05
3288.65753	5149.35
3290.91202	5148.75
3293.16516	5128.95
3295.41695	5125.65
3297.66738	5091.85
3299.91647	5070.25
3302.16421	5037.35
3304.4106	5007.45
3306.65564	4982.95
3308.89933	4959.75
3311.14169	4915.65
3313.38269	4859.65
3315.62236	4847.85
3317.86068	4809.35
3320.09766	4767.35
3322.3333	4742.25
3324.5676	4722.35
3326.80056	4619.35
3329.03219	4610.35
3331.26248	1.95
3333.49143	-2.05
3335.71905	1.35
