Data from AgNPs_FTO_APTES_UA_50uM_CRN_1000uM_R6G_10uM_NaF_0.1M_Addition_RamanShift__10__17-37-53-585.txt Node

Date: Mon Feb 21 17:37:53 GMT 2022
User: TCL
Spectrometer: QEP01345
Trigger mode: 4
Integration Time (sec): 7.000000E0
Scans to average: 10
Electric dark correction enabled: true
Nonlinearity correction enabled: false
Boxcar width: 0
XAxis mode: Raman Shifts
Number of Pixels in Spectrum: 1044
>>>>>Begin Spectral Data<<<<<
46.04893	-1.35
50.45542	0.05
54.85868	0.95
59.25871	-1.45
63.6555	40.45
68.04907	43.55
72.43941	48.25
76.82654	48.55
81.21044	53.45
85.59113	50.75
89.96862	56.85
94.34289	54.15
98.71396	57.75
103.08183	59.75
107.4465	61.65
111.80798	64.75
116.16626	62.75
120.52136	67.75
124.87327	62.35
129.222	70.55
133.56755	71.55
137.90993	74.95
142.24913	78.65
146.58517	86.45
150.91804	95.25
155.24774	109.45
159.57429	129.85
163.89768	167.95
168.21792	212.25
172.53501	292.45
176.84895	404.35
181.15975	567.25
185.46741	791.55
189.77193	1086.25
194.07331	1471.65
198.37157	1899.35
202.6667	2354.95
206.9587	2811.45
211.24758	3273.05
215.53334	3714.45
219.81599	4180.85
224.09553	4675.05
228.37195	5259.85
232.64527	5853.15
236.91549	6527.05
241.18261	7153.95
245.44663	7780.85
249.70755	8324.85
253.96539	8764.95
258.22014	9143.75
262.4718	9441.45
266.72039	9618.15
270.96589	9685.55
275.20832	9676.05
279.44768	9552.75
283.68397	9380.75
287.91719	9227.95
292.14735	9130.95
296.37445	9081.55
300.59849	9069.15
304.81948	9103.65
309.03742	9087.65
313.25231	9046.95
317.46415	8979.75
321.67296	8764.15
325.87872	8625.55
330.08145	8541.85
334.28114	8563.95
338.47781	8609.75
342.67145	8705.05
346.86207	8828.85
351.04966	8974.15
355.23424	9146.65
359.4158	9304.55
363.59435	9421.85
367.76989	9509.65
371.94243	9554.45
376.11196	9615.15
380.27849	9668.75
384.44203	9726.55
388.60257	9802.95
392.76012	9861.65
396.91468	9946.05
401.06626	10059.85
405.21485	10123.15
409.36047	10121.55
413.50311	9990.15
417.64277	9855.65
421.77947	9771.85
425.9132	9774.15
430.04396	9842.25
434.17176	9863.65
438.2966	9920.45
442.41849	10021.45
446.53742	10157.25
450.6534	10286.15
454.76644	10419.25
458.87653	10476.85
462.98368	10482.95
467.08789	10497.95
471.18916	10420.55
475.2875	10332.95
479.38291	10254.95
483.4754	10210.75
487.56496	10149.85
491.6516	10123.85
495.73531	10076.45
499.81612	10070.05
503.89401	10101.15
507.96899	10156.95
512.04106	10205.95
516.11023	10224.05
520.1765	10219.25
524.23987	10194.45
528.30034	10156.65
532.35792	10103.95
536.41261	10040.75
540.46441	9972.55
544.51333	9975.65
548.55936	10030.25
552.60252	10127.25
556.64279	10234.55
560.6802	10295.85
564.71473	10321.85
568.7464	10394.95
572.7752	10493.85
576.80114	10557.95
580.82422	10593.95
584.84444	10666.05
588.86181	10755.45
592.87633	10821.05
596.888	10893.35
600.89682	10944.45
604.9028	11228.85
608.90594	12075.15
612.90624	13104.85
616.90371	12738.45
620.89834	11177.75
624.89015	10388.35
628.87913	10250.95
632.86528	10319.15
636.84862	10390.75
640.82913	10343.75
644.80683	10236.85
648.78172	10109.25
652.75379	10116.35
656.72306	10204.75
660.68952	10343.05
664.65319	10348.55
668.61405	10290.85
672.57211	10301.55
676.52738	10383.15
680.47986	10435.95
684.42955	10454.25
688.37646	10401.35
692.32058	10375.15
696.26192	10363.65
700.20048	10384.15
704.13626	10370.55
708.06928	10322.75
711.99952	10273.05
715.927	10211.05
719.85171	10206.55
723.77365	10186.85
727.69284	10148.05
731.60928	10100.35
735.52295	10067.35
739.43388	10063.25
743.34206	10079.45
747.24749	10142.55
751.15017	10147.75
755.05012	10237.05
758.94733	10377.35
762.8418	10713.15
766.73354	11329.55
770.62254	11939.35
774.50882	12241.25
778.39237	11954.55
782.27321	11311.55
786.15132	10703.65
790.02671	10328.95
793.89938	10129.85
797.76935	10053.65
801.6366	9980.05
805.50115	9918.35
809.36299	9892.85
813.22213	9836.85
817.07857	9863.35
820.93231	9815.45
824.78336	9829.65
828.63172	9820.05
832.47738	9806.35
836.32036	9785.25
840.16066	9761.75
843.99827	9758.95
847.8332	9745.95
851.66546	9770.65
855.49504	9785.35
859.32195	9790.65
863.1462	9775.95
866.96777	9761.35
870.78668	9774.55
874.60293	9784.75
878.41652	9783.65
882.22745	9794.75
886.03573	9836.15
889.84136	9863.25
893.64433	9827.05
897.44466	9813.35
901.24235	9797.85
905.0374	9797.75
908.8298	9766.05
912.61957	9713.05
916.40671	9745.75
920.19121	9799.95
923.97308	9809.95
927.75233	9800.25
931.52895	9775.05
935.30295	9729.85
939.07433	9626.15
942.84309	9536.45
946.60924	9462.95
950.37278	9420.35
954.13371	9383.05
957.89203	9376.95
961.64774	9353.05
965.40086	9351.85
969.15137	9321.95
972.89929	9313.25
976.64461	9254.75
980.38733	9261.45
984.12747	9245.35
987.86502	9264.95
991.59999	9272.35
995.33237	9303.45
999.06217	9349.75
1002.78939	9398.85
1006.51404	9470.65
1010.23611	9565.35
1013.95561	9633.85
1017.67255	9674.35
1021.38692	9625.45
1025.09872	9583.75
1028.80796	9534.05
1032.51465	9479.55
1036.21877	9449.85
1039.92035	9490.35
1043.61937	9508.45
1047.31584	9555.75
1051.00976	9593.25
1054.70114	9591.05
1058.38998	9624.15
1062.07627	9644.45
1065.76003	9688.15
1069.44126	9733.85
1073.11995	9804.75
1076.79611	9841.95
1080.46974	9897.85
1084.14085	9944.95
1087.80943	9984.55
1091.47549	10008.35
1095.13903	10000.05
1098.80005	9937.65
1102.45857	9857.55
1106.11456	9789.55
1109.76805	9707.95
1113.41903	9750.55
1117.06751	9822.25
1120.71348	9931.85
1124.35696	10051.55
1127.99793	10179.75
1131.63641	10268.65
1135.2724	10171.65
1138.90589	10078.55
1142.5369	9979.85
1146.16542	9906.05
1149.79145	9899.95
1153.415	9915.25
1157.03607	9928.65
1160.65467	10029.25
1164.27079	10173.85
1167.88443	10414.25
1171.49561	10740.95
1175.10432	11176.75
1178.71056	11777.75
1182.31434	12365.95
1185.91565	12663.15
1189.51451	12724.55
1193.11091	12573.45
1196.70485	12295.05
1200.29634	11920.35
1203.88538	11626.35
1207.47197	11272.65
1211.05612	10945.45
1214.63782	10729.05
1218.21708	10578.45
1221.79391	10485.55
1225.36829	10434.85
1228.94024	10407.55
1232.50976	10411.25
1236.07685	10392.65
1239.6415	10441.55
1243.20374	10397.45
1246.76355	10418.15
1250.32093	10467.95
1253.8759	10502.05
1257.42845	10641.95
1260.97859	10761.25
1264.52631	10940.05
1268.07163	11063.85
1271.61453	11199.85
1275.15503	11283.25
1278.69312	11386.05
1282.22882	11449.95
1285.76211	11556.65
1289.29301	11741.85
1292.82151	11946.95
1296.34761	12213.35
1299.87133	12573.25
1303.39266	12981.15
1306.9116	13503.55
1310.42815	14025.15
1313.94233	14339.15
1317.45412	14235.95
1320.96354	13919.55
1324.47058	13578.85
1327.97525	13250.45
1331.47754	13020.55
1334.97747	12939.85
1338.47502	12981.05
1341.97022	13172.45
1345.46305	13504.35
1348.95352	13883.35
1352.44163	14278.95
1355.92738	14750.75
1359.41078	15378.35
1362.89183	15980.65
1366.37053	15816.85
1369.84688	14667.15
1373.32088	13289.45
1376.79254	12289.95
1380.26186	11776.15
1383.72883	11546.55
1387.19347	11371.85
1390.65578	11177.85
1394.11575	11008.75
1397.57339	10878.95
1401.0287	10840.25
1404.48168	10805.45
1407.93234	10743.45
1411.38068	10715.85
1414.82669	10642.95
1418.27039	10533.75
1421.71177	10408.05
1425.15083	10231.45
1428.58758	10101.75
1432.02203	10051.55
1435.45416	10053.85
1438.88399	10093.65
1442.31151	10141.85
1445.73673	10177.05
1449.15965	10203.55
1452.58027	10251.35
1455.9986	10275.75
1459.41463	10324.25
1462.82837	10433.45
1466.23982	10511.05
1469.64898	10661.55
1473.05586	10768.85
1476.46045	10848.15
1479.86276	10910.55
1483.26279	10977.35
1486.66054	11064.75
1490.05602	11190.25
1493.44922	11420.35
1496.84016	11770.85
1500.22882	12350.75
1503.61521	13105.95
1506.99934	13883.85
1510.38121	14402.15
1513.76081	14422.85
1517.13816	13886.05
1520.51324	13067.75
1523.88607	12362.75
1527.25665	11913.35
1530.62498	11697.45
1533.99105	11539.05
1537.35488	11435.95
1540.71647	11293.75
1544.07581	11203.05
1547.4329	11048.35
1550.78776	10955.85
1554.14038	10858.65
1557.49077	10878.85
1560.83892	10889.65
1564.18484	10966.65
1567.52853	11099.65
1570.86999	11231.75
1574.20922	11366.75
1577.54624	11381.85
1580.88103	11178.75
1584.2136	10908.85
1587.54395	10720.45
1590.87208	10726.25
1594.19801	10909.45
1597.52172	11224.45
1600.84321	11384.85
1604.16251	11283.25
1607.47959	11038.05
1610.79447	10710.05
1614.10715	10293.75
1617.41763	9922.25
1620.7259	9605.55
1624.03199	9403.95
1627.33587	9296.25
1630.63757	9308.65
1633.93707	9465.45
1637.23439	9759.85
1640.52951	10254.45
1643.82246	10934.05
1647.11321	11667.45
1650.40179	12141.05
1653.68819	11996.25
1656.97241	11274.25
1660.25446	10337.95
1663.53433	9595.55
1666.81203	9071.65
1670.08756	8725.95
1673.36092	8510.75
1676.63211	8353.45
1679.90115	8258.85
1683.16801	8193.05
1686.43272	8119.75
1689.69527	8057.05
1692.95567	7989.05
1696.2139	7937.55
1699.46999	7899.85
1702.72392	7869.45
1705.97571	7877.35
1709.22535	7864.35
1712.47284	7832.25
1715.71819	7826.05
1718.96139	7818.55
1722.20246	7784.05
1725.44139	7770.65
1728.67818	7702.55
1731.91284	7666.45
1735.14537	7636.35
1738.37576	7606.85
1741.60403	7562.35
1744.83017	7545.55
1748.05418	7530.05
1751.27607	7552.05
1754.49584	7530.65
1757.71349	7564.25
1760.92903	7553.15
1764.14244	7536.15
1767.35375	7509.05
1770.56294	7464.85
1773.77002	7424.75
1776.97499	7421.95
1780.17785	7381.25
1783.37861	7342.45
1786.57727	7349.95
1789.77382	7290.85
1792.96828	7270.45
1796.16064	7238.35
1799.3509	7221.15
1802.53907	7198.55
1805.72514	7158.35
1808.90913	7132.45
1812.09102	7115.75
1815.27083	7091.95
1818.44856	7089.75
1821.6242	7063.65
1824.79776	7056.25
1827.96924	7028.35
1831.13864	7015.75
1834.30597	7023.45
1837.47122	7007.55
1840.6344	6978.35
1843.7955	6965.85
1846.95454	6960.35
1850.11151	6956.15
1853.26642	6931.95
1856.41926	6933.45
1859.57004	6936.75
1862.71876	6927.55
1865.86542	6897.35
1869.01003	6904.85
1872.15258	6879.45
1875.29308	6884.75
1878.43152	6875.35
1881.56792	6868.35
1884.70227	6841.15
1887.83457	6855.65
1890.96482	6823.75
1894.09304	6801.65
1897.21921	6813.75
1900.34335	6793.55
1903.46544	6797.45
1906.58551	6767.45
1909.70353	6762.55
1912.81953	6751.85
1915.93349	6729.65
1919.04543	6706.05
1922.15534	6701.25
1925.26322	6674.35
1928.36908	6647.95
1931.47292	6643.85
1934.57473	6627.05
1937.67453	6609.75
1940.77232	6595.35
1943.86808	6579.15
1946.96184	6561.25
1950.05358	6556.65
1953.14331	6521.95
1956.23103	6503.05
1959.31675	6469.55
1962.40046	6464.05
1965.48217	6416.65
1968.56188	6419.05
1971.63959	6387.45
1974.7153	6357.65
1977.78901	6338.05
1980.86073	6338.05
1983.93046	6314.15
1986.99819	6282.05
1990.06394	6269.55
1993.1277	6247.55
1996.18947	6227.05
1999.24925	6209.95
2002.30706	6180.45
2005.36288	6151.35
2008.41672	6152.35
2011.46859	6125.85
2014.51848	6097.55
2017.56639	6087.75
2020.61233	6065.25
2023.6563	6063.95
2026.6983	6018.15
2029.73833	5984.35
2032.7764	5993.95
2035.8125	5974.05
2038.84664	5946.95
2041.87881	5926.75
2044.90903	5934.45
2047.93729	5901.65
2050.96359	5900.35
2053.98794	5881.25
2057.01034	5887.95
2060.03078	5872.05
2063.04927	5866.55
2066.06582	5860.95
2069.08042	5850.95
2072.09307	5835.35
2075.10378	5816.25
2078.11255	5828.05
2081.11938	5824.05
2084.12426	5823.35
2087.12722	5818.45
2090.12824	5816.05
2093.12732	5814.65
2096.12447	5820.35
2099.11969	5812.25
2102.11299	5803.55
2105.10435	5807.35
2108.09379	5805.05
2111.08131	5833.45
2114.0669	5799.85
2117.05057	5807.05
2120.03233	5801.15
2123.01216	5806.75
2125.99008	5810.25
2128.96609	5809.15
2131.94018	5826.35
2134.91236	5826.05
2137.88263	5809.15
2140.851	5814.35
2143.81746	5841.35
2146.78201	5812.55
2149.74466	5804.65
2152.7054	5814.55
2155.66425	5809.45
2158.6212	5795.95
2161.57625	5789.55
2164.52941	5783.65
2167.48067	5801.35
2170.43004	5775.55
2173.37752	5775.45
2176.32311	5761.25
2179.26681	5760.45
2182.20863	5762.35
2185.14856	5755.25
2188.08661	5742.85
2191.02278	5747.05
2193.95707	5752.95
2196.88948	5727.05
2199.82001	5746.05
2202.74867	5715.65
2205.67545	5704.65
2208.60037	5701.05
2211.52341	5681.85
2214.44458	5680.05
2217.36388	5648.05
2220.28132	5647.95
2223.1969	5632.05
2226.11061	5606.65
2229.02246	5604.15
2231.93245	5577.15
2234.84058	5575.15
2237.74686	5556.55
2240.65128	5559.95
2243.55385	5539.05
2246.45456	5532.85
2249.35343	5524.25
2252.25044	5504.75
2255.14561	5504.65
2258.03893	5511.95
2260.93041	5484.85
2263.82004	5485.35
2266.70783	5452.25
2269.59378	5451.55
2272.4779	5440.05
2275.36017	5410.15
2278.24061	5412.05
2281.11922	5391.75
2283.996	5384.65
2286.87094	5365.25
2289.74405	5332.35
2292.61534	5342.75
2295.4848	5338.75
2298.35243	5330.85
2301.21824	5319.15
2304.08223	5311.75
2306.94439	5305.45
2309.80474	5295.05
2312.66327	5294.45
2315.51999	5275.05
2318.37489	5287.25
2321.22797	5259.25
2324.07925	5249.55
2326.92871	5246.35
2329.77637	5227.15
2332.62222	5225.35
2335.46626	5209.15
2338.3085	5194.25
2341.14893	5184.15
2343.98756	5184.25
2346.8244	5174.35
2349.65943	5160.85
2352.49267	5142.75
2355.32411	5152.75
2358.15376	5145.85
2360.98161	5165.75
2363.80768	5149.05
2366.63195	5129.15
2369.45444	5130.45
2372.27514	5133.75
2375.09405	5119.75
2377.91118	5098.45
2380.72652	5093.45
2383.54009	5078.35
2386.35187	5079.05
2389.16188	5042.95
2391.97011	5033.55
2394.77657	5027.15
2397.58125	5015.45
2400.38416	4996.05
2403.18529	4973.75
2405.98466	4967.85
2408.78226	4985.75
2411.57809	4963.75
2414.37216	4953.05
2417.16446	4946.85
2419.955	4940.75
2422.74378	4948.95
2425.5308	4924.95
2428.31606	4920.25
2431.09956	4924.05
2433.88131	4897.65
2436.6613	4903.55
2439.43954	4901.05
2442.21603	4877.05
2444.99077	4872.05
2447.76377	4881.05
2450.53501	4865.45
2453.30451	4860.95
2456.07226	4868.35
2458.83827	4855.75
2461.60254	4859.95
2464.36507	4853.35
2467.12586	4815.55
2469.88492	4831.55
2472.64224	4828.95
2475.39782	4821.05
2478.15167	4799.15
2480.90379	4809.65
2483.65417	4809.05
2486.40283	4806.25
2489.14976	4797.45
2491.89497	4804.85
2494.63845	4798.95
2497.3802	4790.65
2500.12024	4792.25
2502.85855	4796.55
2505.59514	4795.05
2508.33002	4755.75
2511.06318	4752.45
2513.79462	4725.45
2516.52435	4728.85
2519.25237	4701.55
2521.97867	4716.45
2524.70327	4708.15
2527.42616	4705.25
2530.14734	4698.25
2532.86681	4670.15
2535.58458	4661.55
2538.30065	4662.95
2541.01501	4647.85
2543.72768	4665.15
2546.43864	4638.35
2549.14791	4628.25
2551.85548	4624.85
2554.56136	4606.65
2557.26554	4586.65
2559.96803	4586.85
2562.66883	4566.85
2565.36794	4571.65
2568.06536	4572.15
2570.7611	4533.15
2573.45514	4548.75
2576.14751	4528.25
2578.83819	4526.75
2581.52719	4527.25
2584.21451	4501.85
2586.90015	4492.25
2589.58411	4479.15
2592.2664	4469.05
2594.94701	4455.15
2597.62594	4448.05
2600.30321	4430.25
2602.9788	4439.35
2605.65273	4403.95
2608.32498	4413.65
2610.99557	4410.95
2613.66449	4424.35
2616.33175	4393.25
2618.99734	4394.35
2621.66128	4388.95
2624.32355	4367.95
2626.98416	4367.05
2629.64311	4350.75
2632.30041	4352.25
2634.95605	4337.65
2637.61004	4328.95
2640.26238	4329.95
2642.91306	4335.75
2645.56209	4311.45
2648.20948	4314.85
2650.85521	4319.15
2653.4993	4320.75
2656.14175	4299.55
2658.78255	4316.45
2661.42171	4315.25
2664.05923	4316.65
2666.6951	4306.45
2669.32934	4302.05
2671.96194	4293.95
2674.59291	4294.85
2677.22224	4284.85
2679.84993	4299.85
2682.476	4294.85
2685.10043	4292.35
2687.72324	4288.45
2690.34441	4271.65
2692.96396	4275.65
2695.58188	4282.45
2698.19818	4260.45
2700.81285	4277.75
2703.4259	4257.05
2706.03733	4243.75
2708.64714	4263.45
2711.25533	4273.75
2713.86191	4273.55
2716.46687	4275.35
2719.07021	4260.05
2721.67194	4266.15
2724.27206	4267.65
2726.87057	4260.75
2729.46747	4254.95
2732.06276	4260.65
2734.65644	4255.55
2737.24852	4237.85
2739.83899	4254.75
2742.42786	4225.35
2745.01513	4224.35
2747.60079	4210.35
2750.18486	4209.35
2752.76733	4211.95
2755.3482	4192.85
2757.92747	4181.05
2760.50515	4153.95
2763.08123	4184.85
2765.65573	4162.95
2768.22863	4161.35
2770.79994	4143.25
2773.36967	4129.45
2775.9378	4137.85
2778.50435	4141.25
2781.06932	4135.15
2783.6327	4125.95
2786.1945	4122.35
2788.75471	4116.95
2791.31335	4097.25
2793.87041	4096.35
2796.42589	4073.25
2798.97979	4074.35
2801.53212	4061.35
2804.08288	4056.35
2806.63206	4038.35
2809.17967	4031.05
2811.72571	4027.85
2814.27018	4022.55
2816.81308	4005.55
2819.35442	3998.95
2821.89419	3993.25
2824.43239	4006.35
2826.96904	3997.15
2829.50412	3983.15
2832.03763	3984.05
2834.56959	3978.25
2837.1	3977.45
2839.62884	3992.45
2842.15613	3991.55
2844.68186	4005.75
2847.20604	4006.85
2849.72867	4027.05
2852.24974	4040.45
2854.76927	4027.35
2857.28724	4017.25
2859.80367	4004.65
2862.31855	4000.05
2864.83189	3997.15
2867.34368	3986.95
2869.85393	3986.05
2872.36264	3987.15
2874.8698	3971.75
2877.37543	3960.65
2879.87952	3963.25
2882.38207	3952.65
2884.88308	3967.85
2887.38256	3955.15
2889.88051	3963.85
2892.37692	3981.05
2894.8718	3965.45
2897.36515	3961.25
2899.85698	3955.65
2902.34727	3965.65
2904.83604	3974.45
2907.32328	3972.15
2909.809	3980.95
2912.29319	3982.45
2914.77587	3989.55
2917.25702	3983.25
2919.73665	3984.55
2922.21476	4001.35
2924.69136	3998.35
2927.16644	3988.85
2929.64	3983.15
2932.11205	3983.75
2934.58258	3984.35
2937.05161	3983.55
2939.51912	3978.15
2941.98513	3963.85
2944.44962	3959.15
2946.91261	3934.55
2949.37409	3945.15
2951.83407	3937.85
2954.29254	3934.35
2956.74951	3927.05
2959.20498	3914.45
2961.65895	3905.95
2964.11142	3908.95
2966.56239	3884.65
2969.01186	3878.85
2971.45984	3858.05
2973.90632	3841.75
2976.35131	3826.25
2978.7948	3828.95
2981.23681	3836.25
2983.67732	3800.65
2986.11635	3798.65
2988.55388	3788.75
2990.98993	3777.25
2993.4245	3755.75
2995.85758	3748.35
2998.28917	3743.55
3000.71928	3736.95
3003.14791	3737.45
3005.57506	3729.35
3008.00073	3728.85
3010.42493	3705.15
3012.84764	3697.75
3015.26888	3702.35
3017.68865	3689.65
3020.10694	3693.15
3022.52376	3676.75
3024.9391	3665.65
3027.35298	3662.55
3029.76539	3658.65
3032.17632	3646.25
3034.5858	3646.95
3036.9938	3630.15
3039.40034	3635.25
3041.80542	3632.65
3044.20903	3623.35
3046.61118	3637.45
3049.01187	3611.65
3051.4111	3607.25
3053.80888	3607.75
3056.20519	3601.45
3058.60005	3605.15
3060.99345	3593.55
3063.3854	3595.65
3065.7759	3582.05
3068.16494	3593.45
3070.55254	3573.15
3072.93868	3554.05
3075.32338	3541.15
3077.70662	3550.65
3080.08842	3525.45
3082.46878	3544.55
3084.84769	3535.65
3087.22515	3548.15
3089.60118	3544.45
3091.97576	3532.05
3094.3489	3542.55
3096.72061	3541.45
3099.09087	3548.75
3101.4597	3541.25
3103.82709	3533.55
3106.19305	3538.55
3108.55757	3550.75
3110.92066	3530.25
3113.28232	3527.75
3115.64255	3528.25
3118.00134	3520.85
3120.35871	3524.35
3122.71466	3513.45
3125.06917	3507.05
3127.42226	3498.25
3129.77393	3504.75
3132.12417	3522.35
3134.47299	3510.65
3136.82039	3513.55
3139.16636	3509.85
3141.51092	3512.95
3143.85406	3523.45
3146.19579	3530.05
3148.53609	3517.35
3150.87499	3530.35
3153.21246	3535.85
3155.54853	3543.55
3157.88318	3532.75
3160.21642	3556.25
3162.54826	3566.55
3164.87868	3575.15
3167.2077	3562.05
3169.5353	3558.15
3171.86151	3564.35
3174.18631	3553.25
3176.5097	3561.05
3178.83169	3565.05
3181.15228	3554.65
3183.47147	3543.35
3185.78926	3547.75
3188.10565	3538.45
3190.42065	3541.35
3192.73424	3539.45
3195.04645	3544.45
3197.35725	3558.15
3199.66667	3555.55
3201.97469	3556.95
3204.28132	3560.65
3206.58656	3573.95
3208.8904	3570.05
3211.19287	3553.35
3213.49394	3568.55
3215.79363	3570.25
3218.09193	3562.35
3220.38884	3566.45
3222.68438	3574.85
3224.97853	3572.45
3227.2713	3579.65
3229.56269	3563.35
3231.8527	3567.05
3234.14133	3561.35
3236.42858	3540.95
3238.71446	3545.65
3240.99896	3525.95
3243.28209	3547.15
3245.56384	3527.85
3247.84423	3530.05
3250.12324	3522.55
3252.40088	3538.15
3254.67715	3526.95
3256.95205	3528.35
3259.22558	3515.45
3261.49775	3515.15
3263.76855	3515.65
3266.03799	3501.05
3268.30606	3510.55
3270.57277	3495.15
3272.83812	3485.05
3275.10211	3490.45
3277.36474	3469.45
3279.62601	3486.25
3281.88593	3476.35
3284.14448	3467.55
3286.40168	3474.85
3288.65753	3473.45
3290.91202	3453.15
3293.16516	3438.85
3295.41695	3448.45
3297.66738	3437.75
3299.91647	3411.05
3302.16421	3392.05
3304.4106	3372.95
3306.65564	3373.35
3308.89933	3342.05
3311.14169	3318.65
3313.38269	3285.45
3315.62236	3282.05
3317.86068	3242.85
3320.09766	3226.35
3322.3333	3212.85
3324.5676	3189.55
3326.80056	3147.75
3329.03219	3129.65
3331.26248	1.75
3333.49143	-0.35
3335.71905	-1.05
