Data from AgNPs_FTO_APTES_UA_50uM_CRN_100uM_R6G_10uM_NaF_0.1M_Addition_RamanShift__27__15-47-25-051.txt Node

Date: Mon Feb 21 15:47:25 GMT 2022
User: TCL
Spectrometer: QEP01345
Trigger mode: 4
Integration Time (sec): 7.000000E0
Scans to average: 10
Electric dark correction enabled: true
Nonlinearity correction enabled: false
Boxcar width: 0
XAxis mode: Raman Shifts
Number of Pixels in Spectrum: 1044
>>>>>Begin Spectral Data<<<<<
46.04893	0.55
50.45542	-0.25
54.85868	0.15
59.25871	-2.65
63.6555	53.75
68.04907	59.85
72.43941	62.25
76.82654	65.85
81.21044	69.85
85.59113	72.35
89.96862	73.05
94.34289	75.85
98.71396	75.35
103.08183	81.35
107.4465	82.05
111.80798	83.85
116.16626	82.65
120.52136	87.05
124.87327	95.75
129.222	96.35
133.56755	100.25
137.90993	110.05
142.24913	113.55
146.58517	129.25
150.91804	144.05
155.24774	173.75
159.57429	217.75
163.89768	280.75
168.21792	373.85
172.53501	497.95
176.84895	704.15
181.15975	984.55
185.46741	1381.65
189.77193	1907.95
194.07331	2542.85
198.37157	3291.15
202.6667	4076.45
206.9587	4882.35
211.24758	5677.95
215.53334	6523.55
219.81599	7460.15
224.09553	8564.25
228.37195	9748.85
232.64527	11041.65
236.91549	12321.85
241.18261	13501.95
245.44663	14457.05
249.70755	15235.75
253.96539	15918.85
258.22014	16517.75
262.4718	16955.85
266.72039	17212.75
270.96589	17247.35
275.20832	17034.65
279.44768	16621.25
283.68397	16193.05
287.91719	15919.25
292.14735	15963.15
296.37445	16383.95
300.59849	17258.25
304.81948	18254.25
309.03742	18988.25
313.25231	18979.15
317.46415	17941.15
321.67296	16344.35
325.87872	15020.05
330.08145	14433.35
334.28114	14412.65
338.47781	14765.05
342.67145	15276.25
346.86207	16060.15
351.04966	17198.85
355.23424	18565.65
359.4158	19560.05
363.59435	19968.15
367.76989	20076.75
371.94243	20003.05
376.11196	19823.55
380.27849	19690.05
384.44203	19374.85
388.60257	19006.95
392.76012	18754.95
396.91468	18827.55
401.06626	19322.85
405.21485	19668.05
409.36047	19145.25
413.50311	17917.55
417.64277	16683.45
421.77947	15979.75
425.9132	15597.15
430.04396	15510.95
434.17176	15567.85
438.2966	15817.25
442.41849	16274.05
446.53742	16826.55
450.6534	17334.45
454.76644	17663.05
458.87653	17717.65
462.98368	17502.55
467.08789	17146.95
471.18916	16770.45
475.2875	16314.05
479.38291	15904.75
483.4754	15602.35
487.56496	15372.15
491.6516	15151.45
495.73531	15098.05
499.81612	15135.05
503.89401	15397.25
507.96899	15663.55
512.04106	16037.45
516.11023	16445.35
520.1765	16758.85
524.23987	16680.65
528.30034	16395.15
532.35792	16073.85
536.41261	15701.95
540.46441	15336.85
544.51333	15116.55
548.55936	15155.05
552.60252	15514.95
556.64279	15962.95
560.6802	16203.65
564.71473	16503.85
568.7464	17315.55
572.7752	17678.05
576.80114	16893.65
580.82422	15993.85
584.84444	15663.25
588.86181	15668.15
592.87633	15930.65
596.888	16232.85
600.89682	16905.15
604.9028	19326.15
608.90594	26077.65
612.90624	35002.55
616.90371	33188.75
620.89834	22082.95
624.89015	16980.95
628.87913	16102.25
632.86528	16272.65
636.84862	16583.45
640.82913	16209.35
644.80683	15308.55
648.78172	14632.95
652.75379	14662.25
656.72306	15399.25
660.68952	16303.95
664.65319	16024.55
668.61405	15061.35
672.57211	14634.95
676.52738	14635.35
680.47986	14625.65
684.42955	14449.55
688.37646	14308.75
692.32058	14295.55
696.26192	14410.25
700.20048	14636.45
704.13626	14720.35
708.06928	14637.55
711.99952	14514.35
715.927	14484.25
719.85171	14573.35
723.77365	14670.75
727.69284	14624.85
731.60928	14481.15
735.52295	14466.55
739.43388	14514.35
743.34206	14619.85
747.24749	14643.75
751.15017	14673.85
755.05012	14958.95
758.94733	15789.75
762.8418	17924.15
766.73354	21608.25
770.62254	25372.25
774.50882	27496.05
778.39237	26269.15
782.27321	22151.45
786.15132	18185.05
790.02671	15987.25
793.89938	15036.25
797.76935	14626.45
801.6366	14472.55
805.50115	14385.15
809.36299	14344.25
813.22213	14270.15
817.07857	14208.85
820.93231	14216.75
824.78336	14247.35
828.63172	14301.05
832.47738	14330.15
836.32036	14260.75
840.16066	14219.35
843.99827	14189.75
847.8332	14149.35
851.66546	14101.65
855.49504	14078.45
859.32195	14060.45
863.1462	13988.75
866.96777	13950.35
870.78668	13973.35
874.60293	13998.95
878.41652	14056.05
882.22745	14162.05
886.03573	14263.45
889.84136	14209.15
893.64433	14096.55
897.44466	14077.15
901.24235	14042.45
905.0374	13985.25
908.8298	13865.15
912.61957	13791.95
916.40671	13824.85
920.19121	13903.95
923.97308	14088.85
927.75233	14388.85
931.52895	14668.35
935.30295	14587.55
939.07433	14065.25
942.84309	13607.75
946.60924	13362.55
950.37278	13208.05
954.13371	13146.95
957.89203	13058.45
961.64774	13002.35
965.40086	12961.65
969.15137	12885.85
972.89929	12879.55
976.64461	12861.15
980.38733	12861.15
984.12747	12900.25
987.86502	12978.85
991.59999	13142.05
995.33237	13379.85
999.06217	13815.05
1002.78939	14276.85
1006.51404	14621.05
1010.23611	14910.65
1013.95561	15083.95
1017.67255	15052.35
1021.38692	14855.95
1025.09872	14668.15
1028.80796	14726.35
1032.51465	15030.65
1036.21877	15382.05
1039.92035	15491.45
1043.61937	15350.45
1047.31584	15077.45
1051.00976	14737.45
1054.70114	14471.75
1058.38998	14321.55
1062.07627	14344.95
1065.76003	14312.55
1069.44126	14282.15
1073.11995	14402.05
1076.79611	14653.25
1080.46974	15034.15
1084.14085	15636.25
1087.80943	16209.25
1091.47549	16346.15
1095.13903	15968.15
1098.80005	15317.65
1102.45857	14890.65
1106.11456	14828.55
1109.76805	15116.85
1113.41903	15646.65
1117.06751	16517.75
1120.71348	17534.05
1124.35696	18608.75
1127.99793	19314.95
1131.63641	18869.25
1135.2724	17626.05
1138.90589	16539.15
1142.5369	15867.55
1146.16542	15395.35
1149.79145	15068.55
1153.415	15016.95
1157.03607	15165.45
1160.65467	15494.05
1164.27079	16114.85
1167.88443	17080.65
1171.49561	18689.15
1175.10432	21237.05
1178.71056	24795.35
1182.31434	27772.65
1185.91565	28515.05
1189.51451	27290.35
1193.11091	24953.35
1196.70485	22605.95
1200.29634	21037.15
1203.88538	19976.45
1207.47197	18662.05
1211.05612	17442.55
1214.63782	16783.45
1218.21708	16547.45
1221.79391	16519.95
1225.36829	16583.85
1228.94024	16500.35
1232.50976	16311.05
1236.07685	16178.75
1239.6415	16218.55
1243.20374	16364.05
1246.76355	16550.95
1250.32093	16851.25
1253.8759	17264.75
1257.42845	17884.85
1260.97859	18569.45
1264.52631	19231.15
1268.07163	19917.35
1271.61453	20552.15
1275.15503	21045.35
1278.69312	21290.25
1282.22882	21539.95
1285.76211	22098.05
1289.29301	22838.55
1292.82151	23710.85
1296.34761	24756.85
1299.87133	26456.25
1303.39266	29452.45
1306.9116	34006.55
1310.42815	38553.05
1313.94233	40113.45
1317.45412	37717.25
1320.96354	33665.35
1324.47058	29767.15
1327.97525	26749.35
1331.47754	25008.95
1334.97747	24490.55
1338.47502	24935.15
1341.97022	26112.25
1345.46305	27955.45
1348.95352	30278.35
1352.44163	33263.65
1355.92738	37812.75
1359.41078	44927.05
1362.89183	50839.85
1366.37053	47857.55
1369.84688	38472.65
1373.32088	30473.75
1376.79254	25639.95
1380.26186	23150.25
1383.72883	21793.65
1387.19347	20846.65
1390.65578	19893.05
1394.11575	19227.15
1397.57339	18996.65
1401.0287	19037.65
1404.48168	19247.15
1407.93234	19468.95
1411.38068	19808.85
1414.82669	19948.45
1418.27039	19873.05
1421.71177	19559.65
1425.15083	19066.65
1428.58758	18909.15
1432.02203	19145.35
1435.45416	19394.55
1438.88399	19456.05
1442.31151	19452.25
1445.73673	19587.85
1449.15965	19749.15
1452.58027	19746.45
1455.9986	19490.45
1459.41463	19430.85
1462.82837	19667.65
1466.23982	20177.75
1469.64898	20729.65
1473.05586	21061.15
1476.46045	21262.15
1479.86276	21583.55
1483.26279	22043.65
1486.66054	22696.05
1490.05602	23658.25
1493.44922	25023.95
1496.84016	27177.45
1500.22882	30723.85
1503.61521	35942.25
1506.99934	42145.15
1510.38121	47078.85
1513.76081	47787.05
1517.13816	43231.95
1520.51324	36109.55
1523.88607	29880.25
1527.25665	25930.95
1530.62498	23769.75
1533.99105	22491.15
1537.35488	21708.15
1540.71647	21389.95
1544.07581	21329.85
1547.4329	21419.75
1550.78776	21608.85
1554.14038	21841.95
1557.49077	22143.45
1560.83892	22665.65
1564.18484	23416.35
1567.52853	24385.35
1570.86999	25099.85
1574.20922	25435.55
1577.54624	25068.05
1580.88103	23477.35
1584.2136	21506.55
1587.54395	20515.95
1590.87208	20754.35
1594.19801	22205.75
1597.52172	24130.35
1600.84321	24973.75
1604.16251	24140.45
1607.47959	22416.05
1610.79447	20523.45
1614.10715	18779.75
1617.41763	17408.25
1620.7259	16552.75
1624.03199	16255.45
1627.33587	16345.25
1630.63757	16881.15
1633.93707	17892.15
1637.23439	19501.55
1640.52951	21885.65
1643.82246	25474.65
1647.11321	29700.85
1650.40179	32406.05
1653.68819	30861.65
1656.97241	25792.75
1660.25446	20786.35
1663.53433	17448.55
1666.81203	15608.55
1670.08756	14552.65
1673.36092	13905.45
1676.63211	13493.95
1679.90115	13212.45
1683.16801	12995.75
1686.43272	12857.05
1689.69527	12743.95
1692.95567	12562.75
1696.2139	12420.85
1699.46999	12288.15
1702.72392	12270.95
1705.97571	12329.75
1709.22535	12401.15
1712.47284	12461.65
1715.71819	12499.85
1718.96139	12527.45
1722.20246	12439.05
1725.44139	12374.45
1728.67818	12304.65
1731.91284	12182.15
1735.14537	12125.35
1738.37576	12068.55
1741.60403	11998.55
1744.83017	11963.55
1748.05418	11907.85
1751.27607	11871.05
1754.49584	11816.35
1757.71349	11701.65
1760.92903	11639.95
1764.14244	11619.75
1767.35375	11616.05
1770.56294	11548.75
1773.77002	11531.95
1776.97499	11566.65
1780.17785	11557.45
1783.37861	11591.55
1786.57727	11577.45
1789.77382	11582.85
1792.96828	11576.35
1796.16064	11544.45
1799.3509	11515.65
1802.53907	11528.25
1805.72514	11472.55
1808.90913	11453.15
1812.09102	11401.85
1815.27083	11405.75
1818.44856	11370.35
1821.6242	11350.75
1824.79776	11329.75
1827.96924	11314.85
1831.13864	11268.15
1834.30597	11272.05
1837.47122	11261.85
1840.6344	11269.25
1843.7955	11226.75
1846.95454	11215.85
1850.11151	11235.55
1853.26642	11212.45
1856.41926	11194.65
1859.57004	11231.85
1862.71876	11199.35
1865.86542	11217.55
1869.01003	11202.85
1872.15258	11205.95
1875.29308	11191.05
1878.43152	11210.65
1881.56792	11215.45
1884.70227	11207.95
1887.83457	11173.05
1890.96482	11161.35
1894.09304	11185.85
1897.21921	11175.65
1900.34335	11151.85
1903.46544	11146.75
1906.58551	11157.95
1909.70353	11135.65
1912.81953	11151.95
1915.93349	11129.05
1919.04543	11095.25
1922.15534	11094.65
1925.26322	11060.85
1928.36908	11084.35
1931.47292	11031.15
1934.57473	10965.55
1937.67453	10970.55
1940.77232	10919.85
1943.86808	10880.35
1946.96184	10837.85
1950.05358	10826.15
1953.14331	10798.65
1956.23103	10757.45
1959.31675	10748.05
1962.40046	10710.65
1965.48217	10704.15
1968.56188	10709.35
1971.63959	10675.45
1974.7153	10630.25
1977.78901	10640.35
1980.86073	10562.25
1983.93046	10516.15
1986.99819	10439.05
1990.06394	10422.65
1993.1277	10396.05
1996.18947	10359.35
1999.24925	10338.85
2002.30706	10296.75
2005.36288	10252.85
2008.41672	10232.85
2011.46859	10194.15
2014.51848	10173.35
2017.56639	10143.25
2020.61233	10119.55
2023.6563	10105.25
2026.6983	10106.85
2029.73833	10050.45
2032.7764	10022.05
2035.8125	10001.75
2038.84664	10044.05
2041.87881	9995.45
2044.90903	9989.65
2047.93729	9977.15
2050.96359	9965.75
2053.98794	9947.75
2057.01034	9956.35
2060.03078	9946.05
2063.04927	9911.55
2066.06582	9913.65
2069.08042	9888.85
2072.09307	9846.15
2075.10378	9829.45
2078.11255	9856.35
2081.11938	9834.15
2084.12426	9851.15
2087.12722	9834.75
2090.12824	9832.35
2093.12732	9813.35
2096.12447	9819.45
2099.11969	9837.65
2102.11299	9827.25
2105.10435	9834.05
2108.09379	9820.15
2111.08131	9854.05
2114.0669	9829.55
2117.05057	9845.05
2120.03233	9872.25
2123.01216	9898.75
2125.99008	9905.05
2128.96609	9924.55
2131.94018	9912.15
2134.91236	9937.15
2137.88263	9928.95
2140.851	9910.45
2143.81746	9931.85
2146.78201	9914.05
2149.74466	9918.05
2152.7054	9922.75
2155.66425	9900.55
2158.6212	9905.55
2161.57625	9882.85
2164.52941	9874.35
2167.48067	9847.85
2170.43004	9872.85
2173.37752	9877.45
2176.32311	9892.85
2179.26681	9849.95
2182.20863	9860.05
2185.14856	9901.25
2188.08661	9895.65
2191.02278	9891.05
2193.95707	9859.75
2196.88948	9862.95
2199.82001	9879.05
2202.74867	9873.05
2205.67545	9883.95
2208.60037	9853.65
2211.52341	9854.45
2214.44458	9851.75
2217.36388	9813.55
2220.28132	9837.05
2223.1969	9796.85
2226.11061	9759.85
2229.02246	9750.45
2231.93245	9736.75
2234.84058	9705.35
2237.74686	9677.55
2240.65128	9694.95
2243.55385	9664.65
2246.45456	9662.35
2249.35343	9663.95
2252.25044	9673.05
2255.14561	9678.15
2258.03893	9677.55
2260.93041	9659.95
2263.82004	9660.75
2266.70783	9624.75
2269.59378	9604.95
2272.4779	9588.35
2275.36017	9561.75
2278.24061	9549.15
2281.11922	9516.15
2283.996	9517.65
2286.87094	9498.35
2289.74405	9464.25
2292.61534	9446.05
2295.4848	9416.55
2298.35243	9441.15
2301.21824	9445.95
2304.08223	9446.25
2306.94439	9461.35
2309.80474	9452.95
2312.66327	9467.25
2315.51999	9455.15
2318.37489	9422.75
2321.22797	9435.85
2324.07925	9443.75
2326.92871	9421.65
2329.77637	9423.65
2332.62222	9416.45
2335.46626	9404.15
2338.3085	9413.25
2341.14893	9410.55
2343.98756	9427.95
2346.8244	9441.95
2349.65943	9440.55
2352.49267	9483.25
2355.32411	9467.25
2358.15376	9477.25
2360.98161	9494.15
2363.80768	9497.45
2366.63195	9499.35
2369.45444	9494.85
2372.27514	9466.35
2375.09405	9438.75
2377.91118	9430.15
2380.72652	9396.45
2383.54009	9356.75
2386.35187	9315.25
2389.16188	9278.45
2391.97011	9237.75
2394.77657	9229.15
2397.58125	9204.85
2400.38416	9190.55
2403.18529	9147.75
2405.98466	9156.55
2408.78226	9112.85
2411.57809	9092.45
2414.37216	9075.45
2417.16446	9065.35
2419.955	9022.65
2422.74378	9052.95
2425.5308	9062.05
2428.31606	9076.65
2431.09956	9055.15
2433.88131	9060.75
2436.6613	9076.35
2439.43954	9063.15
2442.21603	9046.45
2444.99077	9050.45
2447.76377	9083.95
2450.53501	9074.85
2453.30451	9079.35
2456.07226	9054.45
2458.83827	9061.55
2461.60254	9071.15
2464.36507	9051.75
2467.12586	9054.15
2469.88492	9049.75
2472.64224	9060.55
2475.39782	9091.75
2478.15167	9082.05
2480.90379	9105.35
2483.65417	9155.85
2486.40283	9160.65
2489.14976	9183.25
2491.89497	9178.45
2494.63845	9180.15
2497.3802	9166.95
2500.12024	9185.95
2502.85855	9147.35
2505.59514	9110.55
2508.33002	9074.15
2511.06318	9055.35
2513.79462	9010.15
2516.52435	8956.55
2519.25237	8924.55
2521.97867	8910.15
2524.70327	8926.05
2527.42616	8877.55
2530.14734	8883.95
2532.86681	8873.75
2535.58458	8904.75
2538.30065	8889.65
2541.01501	8906.55
2543.72768	8887.95
2546.43864	8887.75
2549.14791	8878.15
2551.85548	8879.95
2554.56136	8870.55
2557.26554	8856.95
2559.96803	8869.55
2562.66883	8856.35
2565.36794	8841.85
2568.06536	8843.45
2570.7611	8807.45
2573.45514	8798.75
2576.14751	8805.35
2578.83819	8782.95
2581.52719	8796.15
2584.21451	8792.35
2586.90015	8750.55
2589.58411	8729.55
2592.2664	8748.35
2594.94701	8718.25
2597.62594	8734.45
2600.30321	8726.25
2602.9788	8738.65
2605.65273	8734.35
2608.32498	8736.65
2610.99557	8729.55
2613.66449	8754.55
2616.33175	8750.15
2618.99734	8776.55
2621.66128	8753.25
2624.32355	8765.05
2626.98416	8742.25
2629.64311	8714.45
2632.30041	8706.85
2634.95605	8673.75
2637.61004	8669.15
2640.26238	8650.05
2642.91306	8652.55
2645.56209	8629.95
2648.20948	8613.05
2650.85521	8599.55
2653.4993	8602.25
2656.14175	8605.55
2658.78255	8609.65
2661.42171	8622.85
2664.05923	8659.25
2666.6951	8643.55
2669.32934	8685.65
2671.96194	8685.95
2674.59291	8683.05
2677.22224	8706.05
2679.84993	8679.95
2682.476	8682.55
2685.10043	8663.95
2687.72324	8658.05
2690.34441	8652.15
2692.96396	8657.85
2695.58188	8653.85
2698.19818	8643.15
2700.81285	8615.65
2703.4259	8597.75
2706.03733	8543.45
2708.64714	8589.15
2711.25533	8616.85
2713.86191	8617.15
2716.46687	8654.05
2719.07021	8657.05
2721.67194	8665.15
2724.27206	8663.55
2726.87057	8664.45
2729.46747	8657.85
2732.06276	8678.15
2734.65644	8663.15
2737.24852	8651.15
2739.83899	8641.05
2742.42786	8619.45
2745.01513	8583.45
2747.60079	8603.25
2750.18486	8580.65
2752.76733	8598.75
2755.3482	8564.75
2757.92747	8591.75
2760.50515	8574.55
2763.08123	8568.95
2765.65573	8543.15
2768.22863	8541.35
2770.79994	8525.25
2773.36967	8528.35
2775.9378	8528.75
2778.50435	8547.15
2781.06932	8505.25
2783.6327	8559.25
2786.1945	8534.35
2788.75471	8524.65
2791.31335	8519.35
2793.87041	8496.05
2796.42589	8487.95
2798.97979	8495.85
2801.53212	8466.15
2804.08288	8480.05
2806.63206	8461.25
2809.17967	8474.35
2811.72571	8460.05
2814.27018	8447.85
2816.81308	8471.05
2819.35442	8493.55
2821.89419	8482.25
2824.43239	8514.45
2826.96904	8486.45
2829.50412	8511.35
2832.03763	8486.95
2834.56959	8478.75
2837.1	8483.65
2839.62884	8468.15
2842.15613	8482.75
2844.68186	8505.35
2847.20604	8516.75
2849.72867	8512.75
2852.24974	8523.15
2854.76927	8514.25
2857.28724	8486.05
2859.80367	8490.75
2862.31855	8494.25
2864.83189	8518.15
2867.34368	8507.05
2869.85393	8536.05
2872.36264	8561.95
2874.8698	8543.75
2877.37543	8543.35
2879.87952	8524.65
2882.38207	8523.15
2884.88308	8516.55
2887.38256	8504.65
2889.88051	8489.25
2892.37692	8492.05
2894.8718	8501.65
2897.36515	8515.75
2899.85698	8497.15
2902.34727	8515.45
2904.83604	8527.05
2907.32328	8557.65
2909.809	8531.85
2912.29319	8542.25
2914.77587	8555.05
2917.25702	8554.75
2919.73665	8523.75
2922.21476	8512.95
2924.69136	8500.55
2927.16644	8482.05
2929.64	8476.35
2932.11205	8450.05
2934.58258	8411.65
2937.05161	8430.85
2939.51912	8391.65
2941.98513	8408.85
2944.44962	8386.95
2946.91261	8339.35
2949.37409	8377.35
2951.83407	8353.35
2954.29254	8335.05
2956.74951	8326.55
2959.20498	8338.35
2961.65895	8308.05
2964.11142	8287.15
2966.56239	8274.75
2969.01186	8267.05
2971.45984	8234.65
2973.90632	8202.15
2976.35131	8208.75
2978.7948	8196.65
2981.23681	8180.35
2983.67732	8157.35
2986.11635	8131.15
2988.55388	8122.05
2990.98993	8104.55
2993.4245	8117.95
2995.85758	8097.05
2998.28917	8072.25
3000.71928	8093.65
3003.14791	8046.85
3005.57506	8071.05
3008.00073	8053.25
3010.42493	8039.35
3012.84764	8023.25
3015.26888	8046.15
3017.68865	8016.75
3020.10694	7996.05
3022.52376	7977.55
3024.9391	7965.85
3027.35298	7957.15
3029.76539	7928.25
3032.17632	7906.85
3034.5858	7897.45
3036.9938	7876.75
3039.40034	7874.05
3041.80542	7878.75
3044.20903	7839.75
3046.61118	7837.65
3049.01187	7828.45
3051.4111	7802.95
3053.80888	7810.85
3056.20519	7775.45
3058.60005	7759.05
3060.99345	7740.05
3063.3854	7737.75
3065.7759	7720.55
3068.16494	7695.35
3070.55254	7661.75
3072.93868	7633.75
3075.32338	7618.95
3077.70662	7585.65
3080.08842	7588.05
3082.46878	7581.95
3084.84769	7550.95
3087.22515	7552.85
3089.60118	7533.45
3091.97576	7525.25
3094.3489	7538.65
3096.72061	7531.55
3099.09087	7550.55
3101.4597	7540.95
3103.82709	7520.25
3106.19305	7525.75
3108.55757	7530.65
3110.92066	7501.55
3113.28232	7489.25
3115.64255	7467.65
3118.00134	7479.25
3120.35871	7457.35
3122.71466	7457.05
3125.06917	7451.35
3127.42226	7439.75
3129.77393	7435.85
3132.12417	7430.45
3134.47299	7434.55
3136.82039	7429.55
3139.16636	7436.05
3141.51092	7433.45
3143.85406	7414.55
3146.19579	7400.05
3148.53609	7435.05
3150.87499	7436.25
3153.21246	7442.55
3155.54853	7454.85
3157.88318	7465.35
3160.21642	7484.95
3162.54826	7476.05
3164.87868	7457.45
3167.2077	7452.05
3169.5353	7465.15
3171.86151	7474.55
3174.18631	7455.55
3176.5097	7466.25
3178.83169	7447.35
3181.15228	7444.75
3183.47147	7421.05
3185.78926	7440.75
3188.10565	7443.15
3190.42065	7430.15
3192.73424	7445.15
3195.04645	7457.25
3197.35725	7442.45
3199.66667	7445.65
3201.97469	7454.95
3204.28132	7430.85
3206.58656	7468.65
3208.8904	7467.95
3211.19287	7465.45
3213.49394	7477.65
3215.79363	7497.45
3218.09193	7516.45
3220.38884	7496.95
3222.68438	7497.85
3224.97853	7506.85
3227.2713	7493.05
3229.56269	7475.45
3231.8527	7473.35
3234.14133	7477.05
3236.42858	7476.65
3238.71446	7465.65
3240.99896	7443.55
3243.28209	7434.15
3245.56384	7432.15
3247.84423	7441.45
3250.12324	7432.15
3252.40088	7441.45
3254.67715	7434.25
3256.95205	7438.65
3259.22558	7432.85
3261.49775	7415.15
3263.76855	7442.45
3266.03799	7421.75
3268.30606	7400.05
3270.57277	7397.15
3272.83812	7380.95
3275.10211	7371.95
3277.36474	7372.65
3279.62601	7364.25
3281.88593	7351.25
3284.14448	7389.85
3286.40168	7361.95
3288.65753	7362.25
3290.91202	7363.75
3293.16516	7368.35
3295.41695	7340.95
3297.66738	7305.35
3299.91647	7260.75
3302.16421	7203.05
3304.4106	7177.85
3306.65564	7135.15
3308.89933	7101.35
3311.14169	7021.95
3313.38269	6975.35
3315.62236	6923.35
3317.86068	6847.95
3320.09766	6798.35
3322.3333	6805.15
3324.5676	6742.25
3326.80056	6610.95
3329.03219	6579.35
3331.26248	2.85
3333.49143	-0.95
3335.71905	0.55
