Data from AgNPs_FTO_APTES_UA_50uM_CRN_1uM_R6G_10uM_NaF_0.1M_Addition_RamanShift__24__11-43-34-740.txt Node

Date: Mon Feb 21 11:43:34 GMT 2022
User: TCL
Spectrometer: QEP01345
Trigger mode: 4
Integration Time (sec): 7.000000E0
Scans to average: 10
Electric dark correction enabled: true
Nonlinearity correction enabled: false
Boxcar width: 0
XAxis mode: Raman Shifts
Number of Pixels in Spectrum: 1044
>>>>>Begin Spectral Data<<<<<
46.04893	-1.35
50.45542	-1.15
54.85868	-0.65
59.25871	-1.75
63.6555	68.25
68.04907	70.65
72.43941	75.15
76.82654	82.75
81.21044	83.35
85.59113	83.95
89.96862	91.95
94.34289	94.65
98.71396	92.85
103.08183	102.95
107.4465	98.65
111.80798	100.25
116.16626	99.75
120.52136	105.25
124.87327	110.95
129.222	111.75
133.56755	115.35
137.90993	130.65
142.24913	130.85
146.58517	152.45
150.91804	172.95
155.24774	202.15
159.57429	250.05
163.89768	323.55
168.21792	426.45
172.53501	574.75
176.84895	801.45
181.15975	1116.45
185.46741	1574.85
189.77193	2160.15
194.07331	2899.55
198.37157	3759.35
202.6667	4628.45
206.9587	5515.55
211.24758	6386.45
215.53334	7280.15
219.81599	8215.15
224.09553	9322.85
228.37195	10515.65
232.64527	11850.55
236.91549	13219.25
241.18261	14542.15
245.44663	15728.25
249.70755	16753.35
253.96539	17673.05
258.22014	18442.05
262.4718	19072.65
266.72039	19481.65
270.96589	19691.55
275.20832	19682.05
279.44768	19564.65
283.68397	19329.85
287.91719	19151.25
292.14735	19129.35
296.37445	19244.25
300.59849	19516.35
304.81948	19877.95
309.03742	20149.05
313.25231	20020.25
317.46415	19440.45
321.67296	18554.65
325.87872	17823.85
330.08145	17509.05
334.28114	17483.85
338.47781	17707.65
342.67145	18068.55
346.86207	18571.35
351.04966	19305.25
355.23424	20083.05
359.4158	20765.05
363.59435	21152.05
367.76989	21373.75
371.94243	21369.05
376.11196	21325.45
380.27849	21345.45
384.44203	21338.15
388.60257	21257.05
392.76012	21320.75
396.91468	21602.35
401.06626	21995.45
405.21485	22363.75
409.36047	22263.35
413.50311	21659.45
417.64277	21164.85
421.77947	20874.05
425.9132	20799.45
430.04396	20850.15
434.17176	20928.55
438.2966	21236.35
442.41849	21636.05
446.53742	22229.55
450.6534	22886.35
454.76644	23417.65
458.87653	23596.45
462.98368	23503.55
467.08789	23193.15
471.18916	22708.85
475.2875	22244.05
479.38291	21913.45
483.4754	21669.75
487.56496	21462.95
491.6516	21195.85
495.73531	21004.05
499.81612	20950.15
503.89401	21054.05
507.96899	21176.85
512.04106	21227.05
516.11023	21286.95
520.1765	21295.35
524.23987	21297.45
528.30034	21073.95
532.35792	20833.35
536.41261	20572.05
540.46441	20305.95
544.51333	20227.85
548.55936	20387.35
552.60252	20747.85
556.64279	21212.15
560.6802	21515.05
564.71473	21740.25
568.7464	22296.35
572.7752	22771.45
576.80114	22689.85
580.82422	22574.15
584.84444	22599.45
588.86181	22731.65
592.87633	22944.45
596.888	23268.25
600.89682	23624.95
604.9028	25105.55
608.90594	29162.85
612.90624	34084.75
616.90371	32602.35
620.89834	25726.85
624.89015	22502.75
628.87913	21999.65
632.86528	22018.35
636.84862	21942.65
640.82913	21516.35
644.80683	20797.25
648.78172	20262.75
652.75379	20203.05
656.72306	20675.55
660.68952	21328.05
664.65319	21329.25
668.61405	20747.55
672.57211	20522.15
676.52738	20498.65
680.47986	20431.05
684.42955	20350.85
688.37646	20318.15
692.32058	20458.55
696.26192	20679.25
700.20048	20906.75
704.13626	20954.65
708.06928	20885.15
711.99952	20711.45
715.927	20663.45
719.85171	20745.05
723.77365	20702.75
727.69284	20539.85
731.60928	20295.25
735.52295	20239.95
739.43388	20316.55
743.34206	20410.15
747.24749	20566.15
751.15017	20737.25
755.05012	21120.45
758.94733	21826.45
762.8418	23373.35
766.73354	25837.35
770.62254	28263.65
774.50882	29236.25
778.39237	28069.05
782.27321	25481.15
786.15132	22960.35
790.02671	21480.65
793.89938	20810.25
797.76935	20556.95
801.6366	20457.75
805.50115	20393.25
809.36299	20329.15
813.22213	20229.85
817.07857	20223.35
820.93231	20186.05
824.78336	20178.85
828.63172	20190.05
832.47738	20233.85
836.32036	20249.65
840.16066	20318.55
843.99827	20397.45
847.8332	20360.65
851.66546	20225.95
855.49504	20153.65
859.32195	20129.25
863.1462	20034.75
866.96777	19957.45
870.78668	19907.45
874.60293	19964.45
878.41652	19989.85
882.22745	20114.95
886.03573	20172.35
889.84136	20150.35
893.64433	20057.65
897.44466	19994.05
901.24235	19929.05
905.0374	19859.45
908.8298	19815.35
912.61957	19759.35
916.40671	19897.85
920.19121	20118.35
923.97308	20359.55
927.75233	20576.65
931.52895	20650.15
935.30295	20476.75
939.07433	20046.95
942.84309	19692.35
946.60924	19538.15
950.37278	19450.45
954.13371	19326.65
957.89203	19203.05
961.64774	19133.55
965.40086	19068.35
969.15137	19022.55
972.89929	18956.45
976.64461	18935.05
980.38733	18982.55
984.12747	19007.75
987.86502	19207.45
991.59999	19467.85
995.33237	19884.85
999.06217	20617.25
1002.78939	21481.85
1006.51404	22034.35
1010.23611	22399.45
1013.95561	22632.45
1017.67255	22730.85
1021.38692	22535.55
1025.09872	22335.25
1028.80796	22578.95
1032.51465	23259.45
1036.21877	23854.25
1039.92035	23911.55
1043.61937	23550.55
1047.31584	22828.45
1051.00976	22072.45
1054.70114	21642.55
1058.38998	21491.55
1062.07627	21542.75
1065.76003	21623.65
1069.44126	21714.65
1073.11995	21899.35
1076.79611	22155.85
1080.46974	22349.55
1084.14085	22617.95
1087.80943	22981.85
1091.47549	23117.65
1095.13903	22907.45
1098.80005	22443.35
1102.45857	21925.25
1106.11456	21703.75
1109.76805	21743.15
1113.41903	21997.15
1117.06751	22352.55
1120.71348	22957.25
1124.35696	23492.45
1127.99793	24000.35
1131.63641	23939.45
1135.2724	23417.45
1138.90589	22912.65
1142.5369	22522.55
1146.16542	22308.75
1149.79145	22158.25
1153.415	22230.85
1157.03607	22482.95
1160.65467	22876.65
1164.27079	23589.95
1167.88443	24691.95
1171.49561	26296.75
1175.10432	28631.25
1178.71056	31731.05
1182.31434	34522.25
1185.91565	35919.45
1189.51451	35799.65
1193.11091	34335.85
1196.70485	32442.85
1200.29634	30745.25
1203.88538	29311.15
1207.47197	28031.05
1211.05612	26976.65
1214.63782	26376.55
1218.21708	26270.35
1221.79391	26447.45
1225.36829	26544.85
1228.94024	26472.55
1232.50976	26208.75
1236.07685	25977.75
1239.6415	25818.35
1243.20374	25802.35
1246.76355	25889.15
1250.32093	26211.95
1253.8759	26843.95
1257.42845	27705.35
1260.97859	28477.85
1264.52631	29224.95
1268.07163	29948.05
1271.61453	30779.35
1275.15503	31604.85
1278.69312	32457.55
1282.22882	33254.45
1285.76211	33992.15
1289.29301	34777.75
1292.82151	35600.15
1296.34761	36698.35
1299.87133	38463.35
1303.39266	41065.05
1306.9116	44700.75
1310.42815	48459.05
1313.94233	50595.35
1317.45412	50125.85
1320.96354	47934.85
1324.47058	45419.45
1327.97525	43303.05
1331.47754	42170.25
1334.97747	41869.75
1338.47502	42335.15
1341.97022	43030.05
1345.46305	43483.75
1348.95352	43763.05
1352.44163	44329.15
1355.92738	46157.45
1359.41078	49865.75
1362.89183	53375.35
1366.37053	51930.05
1369.84688	45963.95
1373.32088	40051.15
1376.79254	36226.35
1380.26186	34296.95
1383.72883	33347.95
1387.19347	32704.45
1390.65578	32033.45
1394.11575	31765.15
1397.57339	31951.65
1401.0287	32610.05
1404.48168	33337.75
1407.93234	33964.05
1411.38068	34457.25
1414.82669	34355.05
1418.27039	33581.45
1421.71177	32409.45
1425.15083	31410.25
1428.58758	30918.85
1432.02203	30908.55
1435.45416	31090.45
1438.88399	31384.55
1442.31151	31537.85
1445.73673	31792.35
1449.15965	32129.15
1452.58027	32244.45
1455.9986	32168.85
1459.41463	32264.95
1462.82837	32535.85
1466.23982	33148.45
1469.64898	33755.15
1473.05586	34170.55
1476.46045	34415.35
1479.86276	34674.05
1483.26279	35033.75
1486.66054	35567.25
1490.05602	36285.55
1493.44922	37202.15
1496.84016	38296.75
1500.22882	39942.75
1503.61521	42271.75
1506.99934	45119.95
1510.38121	47414.75
1513.76081	47717.35
1517.13816	45526.15
1520.51324	41840.75
1523.88607	38601.55
1527.25665	36361.75
1530.62498	35164.45
1533.99105	34499.25
1537.35488	34042.65
1540.71647	33776.35
1544.07581	33600.95
1547.4329	33350.65
1550.78776	33021.35
1554.14038	32835.25
1557.49077	32778.85
1560.83892	32896.75
1564.18484	33163.65
1567.52853	33365.45
1570.86999	33579.65
1574.20922	33695.85
1577.54624	33655.65
1580.88103	32993.85
1584.2136	32294.65
1587.54395	32539.55
1590.87208	33951.45
1594.19801	36397.95
1597.52172	39058.65
1600.84321	40184.75
1604.16251	38987.65
1607.47959	36281.05
1610.79447	33158.35
1614.10715	30325.65
1617.41763	28135.55
1620.7259	26732.25
1624.03199	26076.75
1627.33587	26188.45
1630.63757	26976.25
1633.93707	28464.75
1637.23439	30672.35
1640.52951	33497.55
1643.82246	36585.05
1647.11321	39338.55
1650.40179	40311.25
1653.68819	38117.25
1656.97241	33482.55
1660.25446	28860.45
1663.53433	25548.45
1666.81203	23518.65
1670.08756	22283.35
1673.36092	21544.55
1676.63211	21072.75
1679.90115	20704.85
1683.16801	20405.05
1686.43272	20198.15
1689.69527	20017.05
1692.95567	19851.15
1696.2139	19720.65
1699.46999	19523.45
1702.72392	19472.05
1705.97571	19544.75
1709.22535	19616.45
1712.47284	19701.05
1715.71819	19691.85
1718.96139	19669.35
1722.20246	19651.65
1725.44139	19564.45
1728.67818	19471.45
1731.91284	19343.75
1735.14537	19208.65
1738.37576	19156.65
1741.60403	19090.15
1744.83017	19046.55
1748.05418	18980.95
1751.27607	18945.55
1754.49584	18830.65
1757.71349	18804.95
1760.92903	18738.55
1764.14244	18698.25
1767.35375	18710.15
1770.56294	18713.55
1773.77002	18688.45
1776.97499	18737.25
1780.17785	18771.15
1783.37861	18782.25
1786.57727	18752.75
1789.77382	18766.85
1792.96828	18775.55
1796.16064	18784.05
1799.3509	18726.15
1802.53907	18704.15
1805.72514	18683.05
1808.90913	18640.55
1812.09102	18603.75
1815.27083	18588.15
1818.44856	18559.25
1821.6242	18561.35
1824.79776	18541.35
1827.96924	18530.65
1831.13864	18520.25
1834.30597	18531.85
1837.47122	18520.75
1840.6344	18509.05
1843.7955	18506.05
1846.95454	18518.35
1850.11151	18496.75
1853.26642	18483.05
1856.41926	18508.55
1859.57004	18508.05
1862.71876	18521.55
1865.86542	18568.05
1869.01003	18541.05
1872.15258	18562.45
1875.29308	18571.25
1878.43152	18566.35
1881.56792	18588.15
1884.70227	18585.25
1887.83457	18595.65
1890.96482	18562.35
1894.09304	18578.75
1897.21921	18580.65
1900.34335	18547.45
1903.46544	18594.35
1906.58551	18625.85
1909.70353	18637.15
1912.81953	18604.35
1915.93349	18570.35
1919.04543	18541.25
1922.15534	18539.85
1925.26322	18484.65
1928.36908	18412.25
1931.47292	18337.25
1934.57473	18275.15
1937.67453	18249.35
1940.77232	18241.05
1943.86808	18095.15
1946.96184	18083.55
1950.05358	17993.35
1953.14331	17950.45
1956.23103	17874.95
1959.31675	17826.45
1962.40046	17794.15
1965.48217	17722.05
1968.56188	17698.75
1971.63959	17686.55
1974.7153	17614.85
1977.78901	17606.15
1980.86073	17504.05
1983.93046	17451.65
1986.99819	17377.55
1990.06394	17353.85
1993.1277	17312.35
1996.18947	17273.15
1999.24925	17209.75
2002.30706	17171.55
2005.36288	17138.85
2008.41672	17099.35
2011.46859	17066.85
2014.51848	16967.95
2017.56639	16949.05
2020.61233	16913.25
2023.6563	16898.35
2026.6983	16857.55
2029.73833	16798.85
2032.7764	16775.45
2035.8125	16757.25
2038.84664	16772.95
2041.87881	16759.85
2044.90903	16731.35
2047.93729	16684.85
2050.96359	16671.95
2053.98794	16633.35
2057.01034	16655.25
2060.03078	16647.15
2063.04927	16588.25
2066.06582	16618.95
2069.08042	16573.35
2072.09307	16574.35
2075.10378	16525.95
2078.11255	16537.45
2081.11938	16551.65
2084.12426	16549.95
2087.12722	16540.35
2090.12824	16513.75
2093.12732	16505.35
2096.12447	16511.75
2099.11969	16496.75
2102.11299	16492.05
2105.10435	16536.35
2108.09379	16533.95
2111.08131	16526.65
2114.0669	16539.95
2117.05057	16562.25
2120.03233	16601.85
2123.01216	16604.25
2125.99008	16647.95
2128.96609	16638.15
2131.94018	16636.95
2134.91236	16628.05
2137.88263	16657.75
2140.851	16718.25
2143.81746	16728.55
2146.78201	16689.35
2149.74466	16705.95
2152.7054	16712.25
2155.66425	16708.25
2158.6212	16735.45
2161.57625	16708.95
2164.52941	16697.45
2167.48067	16711.25
2170.43004	16700.55
2173.37752	16680.25
2176.32311	16679.35
2179.26681	16701.55
2182.20863	16690.05
2185.14856	16705.55
2188.08661	16724.55
2191.02278	16701.75
2193.95707	16704.15
2196.88948	16729.15
2199.82001	16724.65
2202.74867	16705.35
2205.67545	16691.15
2208.60037	16685.25
2211.52341	16690.35
2214.44458	16653.85
2217.36388	16667.55
2220.28132	16657.75
2223.1969	16605.35
2226.11061	16597.35
2229.02246	16571.15
2231.93245	16542.85
2234.84058	16500.45
2237.74686	16445.35
2240.65128	16450.45
2243.55385	16451.05
2246.45456	16446.85
2249.35343	16390.35
2252.25044	16406.15
2255.14561	16411.55
2258.03893	16386.65
2260.93041	16327.05
2263.82004	16313.85
2266.70783	16294.15
2269.59378	16253.45
2272.4779	16227.35
2275.36017	16194.45
2278.24061	16188.75
2281.11922	16151.35
2283.996	16138.15
2286.87094	16095.15
2289.74405	16052.05
2292.61534	16080.25
2295.4848	16065.65
2298.35243	16071.95
2301.21824	16053.35
2304.08223	16079.65
2306.94439	16102.35
2309.80474	16072.85
2312.66327	16094.85
2315.51999	16094.35
2318.37489	16087.05
2321.22797	16122.25
2324.07925	16130.05
2326.92871	16064.85
2329.77637	16085.15
2332.62222	16063.15
2335.46626	16055.75
2338.3085	16081.35
2341.14893	16076.75
2343.98756	16122.25
2346.8244	16129.95
2349.65943	16138.05
2352.49267	16110.85
2355.32411	16113.95
2358.15376	16119.35
2360.98161	16107.65
2363.80768	16052.15
2366.63195	16070.85
2369.45444	16005.05
2372.27514	15997.65
2375.09405	15990.35
2377.91118	15939.35
2380.72652	15901.75
2383.54009	15827.05
2386.35187	15832.05
2389.16188	15812.95
2391.97011	15802.05
2394.77657	15780.45
2397.58125	15750.55
2400.38416	15734.85
2403.18529	15683.95
2405.98466	15687.65
2408.78226	15653.95
2411.57809	15636.95
2414.37216	15587.55
2417.16446	15576.35
2419.955	15552.25
2422.74378	15557.05
2425.5308	15495.85
2428.31606	15491.25
2431.09956	15515.15
2433.88131	15495.95
2436.6613	15498.65
2439.43954	15524.45
2442.21603	15506.75
2444.99077	15482.35
2447.76377	15524.85
2450.53501	15492.45
2453.30451	15483.15
2456.07226	15461.15
2458.83827	15485.55
2461.60254	15461.65
2464.36507	15442.05
2467.12586	15423.15
2469.88492	15444.05
2472.64224	15471.85
2475.39782	15445.35
2478.15167	15483.55
2480.90379	15465.95
2483.65417	15577.05
2486.40283	15542.45
2489.14976	15591.85
2491.89497	15593.55
2494.63845	15567.05
2497.3802	15572.35
2500.12024	15604.95
2502.85855	15602.95
2505.59514	15562.65
2508.33002	15559.85
2511.06318	15534.35
2513.79462	15512.05
2516.52435	15475.95
2519.25237	15430.85
2521.97867	15416.15
2524.70327	15385.55
2527.42616	15379.25
2530.14734	15421.55
2532.86681	15420.95
2535.58458	15438.25
2538.30065	15444.15
2541.01501	15428.35
2543.72768	15392.15
2546.43864	15385.95
2549.14791	15397.35
2551.85548	15423.75
2554.56136	15380.95
2557.26554	15350.05
2559.96803	15312.35
2562.66883	15288.95
2565.36794	15242.55
2568.06536	15238.05
2570.7611	15230.15
2573.45514	15246.15
2576.14751	15269.45
2578.83819	15262.45
2581.52719	15258.65
2584.21451	15215.85
2586.90015	15231.35
2589.58411	15231.95
2592.2664	15249.35
2594.94701	15257.45
2597.62594	15244.05
2600.30321	15222.85
2602.9788	15241.35
2605.65273	15239.45
2608.32498	15250.75
2610.99557	15226.95
2613.66449	15223.35
2616.33175	15222.45
2618.99734	15276.45
2621.66128	15277.85
2624.32355	15228.65
2626.98416	15258.65
2629.64311	15259.95
2632.30041	15275.35
2634.95605	15255.75
2637.61004	15224.15
2640.26238	15233.05
2642.91306	15185.85
2645.56209	15174.95
2648.20948	15143.95
2650.85521	15114.95
2653.4993	15125.05
2656.14175	15124.55
2658.78255	15139.45
2661.42171	15159.75
2664.05923	15181.85
2666.6951	15200.35
2669.32934	15248.45
2671.96194	15227.55
2674.59291	15244.65
2677.22224	15237.65
2679.84993	15231.65
2682.476	15243.65
2685.10043	15256.55
2687.72324	15261.45
2690.34441	15230.05
2692.96396	15221.85
2695.58188	15191.05
2698.19818	15160.05
2700.81285	15146.05
2703.4259	15117.55
2706.03733	15051.25
2708.64714	15070.15
2711.25533	15163.85
2713.86191	15156.95
2716.46687	15269.05
2719.07021	15248.05
2721.67194	15302.95
2724.27206	15289.85
2726.87057	15286.15
2729.46747	15289.55
2732.06276	15297.55
2734.65644	15298.75
2737.24852	15293.05
2739.83899	15269.85
2742.42786	15317.35
2745.01513	15293.65
2747.60079	15269.65
2750.18486	15275.75
2752.76733	15257.15
2755.3482	15209.85
2757.92747	15228.45
2760.50515	15193.05
2763.08123	15185.95
2765.65573	15151.45
2768.22863	15197.45
2770.79994	15163.15
2773.36967	15152.75
2775.9378	15174.75
2778.50435	15156.95
2781.06932	15168.05
2783.6327	15171.25
2786.1945	15203.45
2788.75471	15195.05
2791.31335	15144.15
2793.87041	15141.05
2796.42589	15103.75
2798.97979	15075.95
2801.53212	15050.75
2804.08288	15032.95
2806.63206	15031.15
2809.17967	15010.25
2811.72571	14984.75
2814.27018	14993.95
2816.81308	14957.65
2819.35442	14949.65
2821.89419	14930.15
2824.43239	14957.25
2826.96904	14955.65
2829.50412	14974.35
2832.03763	14928.25
2834.56959	14908.65
2837.1	14898.25
2839.62884	14911.65
2842.15613	14880.85
2844.68186	14916.25
2847.20604	14890.55
2849.72867	14874.25
2852.24974	14858.95
2854.76927	14853.45
2857.28724	14802.65
2859.80367	14797.55
2862.31855	14795.85
2864.83189	14769.05
2867.34368	14776.35
2869.85393	14783.25
2872.36264	14794.45
2874.8698	14809.35
2877.37543	14788.15
2879.87952	14794.35
2882.38207	14803.25
2884.88308	14784.95
2887.38256	14819.15
2889.88051	14797.85
2892.37692	14814.05
2894.8718	14800.55
2897.36515	14851.05
2899.85698	14858.65
2902.34727	14853.95
2904.83604	14856.05
2907.32328	14893.85
2909.809	14904.15
2912.29319	14915.25
2914.77587	14921.45
2917.25702	14881.35
2919.73665	14868.05
2922.21476	14857.55
2924.69136	14827.65
2927.16644	14825.55
2929.64	14794.45
2932.11205	14782.25
2934.58258	14752.55
2937.05161	14776.45
2939.51912	14733.85
2941.98513	14727.55
2944.44962	14768.65
2946.91261	14726.15
2949.37409	14722.85
2951.83407	14729.25
2954.29254	14729.65
2956.74951	14705.65
2959.20498	14707.25
2961.65895	14675.45
2964.11142	14677.65
2966.56239	14647.35
2969.01186	14643.75
2971.45984	14621.75
2973.90632	14597.15
2976.35131	14554.75
2978.7948	14518.45
2981.23681	14510.55
2983.67732	14483.55
2986.11635	14486.15
2988.55388	14450.65
2990.98993	14403.45
2993.4245	14369.95
2995.85758	14349.75
2998.28917	14332.05
3000.71928	14326.05
3003.14791	14270.35
3005.57506	14252.35
3008.00073	14233.95
3010.42493	14222.55
3012.84764	14174.55
3015.26888	14181.95
3017.68865	14129.25
3020.10694	14110.25
3022.52376	14091.75
3024.9391	14077.75
3027.35298	14052.25
3029.76539	14047.45
3032.17632	14047.15
3034.5858	14029.15
3036.9938	13997.45
3039.40034	13999.45
3041.80542	13990.45
3044.20903	13971.65
3046.61118	13945.65
3049.01187	13892.55
3051.4111	13881.25
3053.80888	13881.95
3056.20519	13843.45
3058.60005	13795.55
3060.99345	13778.85
3063.3854	13714.55
3065.7759	13698.75
3068.16494	13679.85
3070.55254	13619.35
3072.93868	13581.15
3075.32338	13551.05
3077.70662	13492.15
3080.08842	13458.95
3082.46878	13461.25
3084.84769	13468.95
3087.22515	13425.15
3089.60118	13420.75
3091.97576	13431.95
3094.3489	13406.55
3096.72061	13501.35
3099.09087	13460.05
3101.4597	13420.75
3103.82709	13414.55
3106.19305	13387.65
3108.55757	13389.25
3110.92066	13367.55
3113.28232	13364.15
3115.64255	13322.55
3118.00134	13288.35
3120.35871	13290.25
3122.71466	13249.35
3125.06917	13231.95
3127.42226	13183.75
3129.77393	13212.45
3132.12417	13177.45
3134.47299	13172.45
3136.82039	13169.15
3139.16636	13172.35
3141.51092	13160.45
3143.85406	13144.85
3146.19579	13148.75
3148.53609	13204.65
3150.87499	13169.05
3153.21246	13172.85
3155.54853	13159.15
3157.88318	13160.75
3160.21642	13176.55
3162.54826	13159.45
3164.87868	13152.25
3167.2077	13174.35
3169.5353	13154.15
3171.86151	13162.15
3174.18631	13111.95
3176.5097	13102.85
3178.83169	13084.85
3181.15228	13089.55
3183.47147	13065.25
3185.78926	13052.95
3188.10565	13014.65
3190.42065	13030.45
3192.73424	13041.25
3195.04645	12996.65
3197.35725	13026.05
3199.66667	13022.75
3201.97469	13038.15
3204.28132	13075.25
3206.58656	13059.65
3208.8904	13102.65
3211.19287	13067.45
3213.49394	13097.05
3215.79363	13092.55
3218.09193	13123.05
3220.38884	13058.15
3222.68438	13066.25
3224.97853	13051.95
3227.2713	13071.65
3229.56269	13073.45
3231.8527	13070.05
3234.14133	13065.95
3236.42858	13047.95
3238.71446	12992.15
3240.99896	12969.65
3243.28209	12982.75
3245.56384	12961.45
3247.84423	12948.75
3250.12324	12926.25
3252.40088	12899.15
3254.67715	12916.65
3256.95205	12930.05
3259.22558	12923.35
3261.49775	12880.35
3263.76855	12900.05
3266.03799	12857.55
3268.30606	12863.45
3270.57277	12829.75
3272.83812	12818.45
3275.10211	12810.85
3277.36474	12752.05
3279.62601	12759.35
3281.88593	12741.85
3284.14448	12767.35
3286.40168	12772.65
3288.65753	12778.75
3290.91202	12750.75
3293.16516	12720.95
3295.41695	12697.15
3297.66738	12622.65
3299.91647	12586.65
3302.16421	12496.05
3304.4106	12466.05
3306.65564	12371.35
3308.89933	12291.15
3311.14169	12212.15
3313.38269	12117.85
3315.62236	12071.05
3317.86068	11959.95
3320.09766	11891.45
3322.3333	11779.35
3324.5676	11753.25
3326.80056	11541.05
3329.03219	11482.75
3331.26248	3.65
3333.49143	0.05
3335.71905	1.15
