Data from AgNPs_FTO_APTES_UA_50uM_CRN_50uM_R6G_10uM_NaF_0.1M_Addition_RamanShift__33__15-11-15-006.txt Node

Date: Mon Feb 21 15:11:15 GMT 2022
User: TCL
Spectrometer: QEP01345
Trigger mode: 4
Integration Time (sec): 7.000000E0
Scans to average: 10
Electric dark correction enabled: true
Nonlinearity correction enabled: false
Boxcar width: 0
XAxis mode: Raman Shifts
Number of Pixels in Spectrum: 1044
>>>>>Begin Spectral Data<<<<<
46.04893	-0.65
50.45542	-0.65
54.85868	0.45
59.25871	-2.05
63.6555	51.05
68.04907	57.75
72.43941	58.95
76.82654	62.75
81.21044	65.45
85.59113	70.35
89.96862	70.75
94.34289	76.35
98.71396	80.45
103.08183	83.05
107.4465	82.15
111.80798	80.35
116.16626	81.05
120.52136	81.55
124.87327	92.35
129.222	89.55
133.56755	87.75
137.90993	97.05
142.24913	103.35
146.58517	113.25
150.91804	125.55
155.24774	145.35
159.57429	175.25
163.89768	219.75
168.21792	288.55
172.53501	386.65
176.84895	534.55
181.15975	745.55
185.46741	1027.85
189.77193	1431.35
194.07331	1899.95
198.37157	2459.65
202.6667	3018.75
206.9587	3598.65
211.24758	4179.15
215.53334	4795.55
219.81599	5456.25
224.09553	6208.75
228.37195	7048.95
232.64527	7963.05
236.91549	8894.55
241.18261	9740.05
245.44663	10437.85
249.70755	11017.95
253.96539	11529.25
258.22014	11988.25
262.4718	12379.35
266.72039	12672.35
270.96589	12758.65
275.20832	12633.45
279.44768	12396.55
283.68397	12123.15
287.91719	11903.55
292.14735	11841.25
296.37445	12092.85
300.59849	12576.55
304.81948	13120.85
309.03742	13530.75
313.25231	13546.35
317.46415	12971.05
321.67296	12060.35
325.87872	11328.05
330.08145	11012.75
334.28114	10965.75
338.47781	11178.35
342.67145	11473.35
346.86207	11910.45
351.04966	12616.55
355.23424	13365.95
359.4158	13993.75
363.59435	14304.75
367.76989	14403.15
371.94243	14423.55
376.11196	14409.05
380.27849	14363.85
384.44203	14254.55
388.60257	14084.35
392.76012	13928.25
396.91468	13999.25
401.06626	14305.95
405.21485	14524.15
409.36047	14215.75
413.50311	13423.35
417.64277	12670.25
421.77947	12240.15
425.9132	12036.35
430.04396	12028.85
434.17176	12089.95
438.2966	12355.55
442.41849	12798.15
446.53742	13316.65
450.6534	13843.25
454.76644	14145.25
458.87653	14125.65
462.98368	13866.65
467.08789	13494.15
471.18916	13144.65
475.2875	12757.05
479.38291	12418.75
483.4754	12168.55
487.56496	11989.35
491.6516	11856.95
495.73531	11811.05
499.81612	11855.75
503.89401	11987.65
507.96899	12173.15
512.04106	12374.75
516.11023	12601.65
520.1765	12751.55
524.23987	12743.85
528.30034	12612.45
532.35792	12393.65
536.41261	12146.15
540.46441	11865.45
544.51333	11706.55
548.55936	11768.55
552.60252	11980.35
556.64279	12304.75
560.6802	12494.25
564.71473	12650.55
568.7464	13080.45
572.7752	13359.45
576.80114	12978.45
580.82422	12573.65
584.84444	12490.05
588.86181	12750.15
592.87633	13280.65
596.888	13757.75
600.89682	14049.85
604.9028	15302.55
608.90594	19347.65
612.90624	24747.35
616.90371	23516.75
620.89834	16394.15
624.89015	13145.65
628.87913	12570.45
632.86528	12648.65
636.84862	12741.45
640.82913	12520.65
644.80683	11906.15
648.78172	11499.75
652.75379	11515.35
656.72306	11987.25
660.68952	12604.25
664.65319	12407.15
668.61405	11760.85
672.57211	11466.15
676.52738	11479.75
680.47986	11463.05
684.42955	11331.95
688.37646	11253.45
692.32058	11268.05
696.26192	11423.15
700.20048	11601.35
704.13626	11671.05
708.06928	11599.15
711.99952	11440.25
715.927	11456.25
719.85171	11560.25
723.77365	11625.55
727.69284	11503.15
731.60928	11414.05
735.52295	11426.15
739.43388	11489.65
743.34206	11545.45
747.24749	11553.75
751.15017	11589.75
755.05012	11750.85
758.94733	12277.25
762.8418	13548.05
766.73354	15804.95
770.62254	18304.35
774.50882	19799.95
778.39237	19121.75
782.27321	16587.05
786.15132	14026.15
790.02671	12525.25
793.89938	11907.95
797.76935	11619.95
801.6366	11503.65
805.50115	11463.15
809.36299	11405.15
813.22213	11364.05
817.07857	11341.45
820.93231	11285.75
824.78336	11294.55
828.63172	11353.15
832.47738	11358.25
836.32036	11368.05
840.16066	11347.55
843.99827	11327.45
847.8332	11289.05
851.66546	11252.55
855.49504	11246.15
859.32195	11237.05
863.1462	11187.85
866.96777	11133.35
870.78668	11137.55
874.60293	11179.25
878.41652	11206.65
882.22745	11301.15
886.03573	11373.25
889.84136	11342.85
893.64433	11268.85
897.44466	11242.05
901.24235	11211.45
905.0374	11163.05
908.8298	11107.85
912.61957	11027.85
916.40671	11045.35
920.19121	11148.35
923.97308	11277.55
927.75233	11442.45
931.52895	11634.85
935.30295	11555.85
939.07433	11211.85
942.84309	10936.35
946.60924	10770.05
950.37278	10654.95
954.13371	10616.45
957.89203	10575.05
961.64774	10512.25
965.40086	10497.45
969.15137	10458.25
972.89929	10431.45
976.64461	10421.25
980.38733	10471.55
984.12747	10543.65
987.86502	10639.35
991.59999	10791.25
995.33237	10996.15
999.06217	11331.55
1002.78939	11680.85
1006.51404	11873.85
1010.23611	12031.65
1013.95561	12172.85
1017.67255	12186.55
1021.38692	11989.95
1025.09872	11777.55
1028.80796	11789.75
1032.51465	12011.35
1036.21877	12254.55
1039.92035	12337.95
1043.61937	12218.65
1047.31584	12015.75
1051.00976	11787.15
1054.70114	11646.35
1058.38998	11566.25
1062.07627	11562.25
1065.76003	11580.75
1069.44126	11569.55
1073.11995	11685.55
1076.79611	11874.55
1080.46974	12168.75
1084.14085	12583.75
1087.80943	12969.25
1091.47549	13124.55
1095.13903	12884.75
1098.80005	12426.95
1102.45857	12112.95
1106.11456	12025.25
1109.76805	12183.45
1113.41903	12518.45
1117.06751	12989.05
1120.71348	13572.95
1124.35696	14190.45
1127.99793	14644.75
1131.63641	14507.45
1135.2724	13835.25
1138.90589	13129.85
1142.5369	12676.45
1146.16542	12419.75
1149.79145	12260.15
1153.415	12231.05
1157.03607	12293.25
1160.65467	12528.65
1164.27079	13002.95
1167.88443	13742.65
1171.49561	14957.35
1175.10432	16888.45
1178.71056	19520.75
1182.31434	21776.55
1185.91565	22509.45
1189.51451	21706.25
1193.11091	20023.25
1196.70485	18222.45
1200.29634	16943.05
1203.88538	16025.05
1207.47197	15021.15
1211.05612	14161.15
1214.63782	13730.35
1218.21708	13640.55
1221.79391	13744.15
1225.36829	13846.45
1228.94024	13791.55
1232.50976	13575.15
1236.07685	13360.15
1239.6415	13302.85
1243.20374	13411.05
1246.76355	13524.85
1250.32093	13709.45
1253.8759	14060.35
1257.42845	14479.55
1260.97859	14987.85
1264.52631	15583.85
1268.07163	16153.25
1271.61453	16600.65
1275.15503	16956.15
1278.69312	17137.55
1282.22882	17358.95
1285.76211	17760.85
1289.29301	18372.95
1292.82151	19073.85
1296.34761	19905.15
1299.87133	21125.75
1303.39266	23139.25
1306.9116	26060.25
1310.42815	29252.75
1313.94233	30860.85
1317.45412	29885.85
1320.96354	27345.15
1324.47058	24571.75
1327.97525	22220.65
1331.47754	20833.35
1334.97747	20313.45
1338.47502	20405.45
1341.97022	20864.95
1345.46305	21682.25
1348.95352	23027.65
1352.44163	25107.05
1355.92738	28313.85
1359.41078	32938.85
1362.89183	37118.25
1366.37053	35974.65
1369.84688	30157.25
1373.32088	24293.75
1376.79254	20688.15
1380.26186	18955.65
1383.72883	18161.65
1387.19347	17391.05
1390.65578	16529.05
1394.11575	15922.45
1397.57339	15793.55
1401.0287	15941.05
1404.48168	16132.65
1407.93234	16303.35
1411.38068	16400.25
1414.82669	16359.55
1418.27039	16148.15
1421.71177	15812.25
1425.15083	15447.35
1428.58758	15314.15
1432.02203	15522.85
1435.45416	15886.35
1438.88399	16105.85
1442.31151	16184.15
1445.73673	16261.55
1449.15965	16384.15
1452.58027	16292.55
1455.9986	16009.65
1459.41463	15845.45
1462.82837	15983.65
1466.23982	16440.55
1469.64898	16953.55
1473.05586	17360.05
1476.46045	17688.25
1479.86276	18012.25
1483.26279	18342.05
1486.66054	18667.55
1490.05602	19140.75
1493.44922	19864.55
1496.84016	20932.95
1500.22882	22793.75
1503.61521	25655.25
1506.99934	29137.55
1510.38121	32090.85
1513.76081	32845.75
1517.13816	30474.65
1520.51324	26259.65
1523.88607	22401.65
1527.25665	19942.05
1530.62498	18697.75
1533.99105	18016.45
1537.35488	17565.35
1540.71647	17304.95
1544.07581	17186.95
1547.4329	17103.85
1550.78776	17028.75
1554.14038	16921.65
1557.49077	16924.35
1560.83892	17074.85
1564.18484	17500.35
1567.52853	18102.15
1570.86999	18776.55
1574.20922	19197.45
1577.54624	19142.75
1580.88103	18188.95
1584.2136	16916.35
1587.54395	16352.35
1590.87208	16713.25
1594.19801	17988.85
1597.52172	19729.35
1600.84321	20730.25
1604.16251	20153.75
1607.47959	18605.35
1610.79447	16726.85
1614.10715	15053.85
1617.41763	13874.25
1620.7259	13199.75
1624.03199	12903.75
1627.33587	12954.65
1630.63757	13359.25
1633.93707	14104.55
1637.23439	15368.35
1640.52951	17311.85
1643.82246	20080.45
1647.11321	23160.15
1650.40179	24942.95
1653.68819	23648.95
1656.97241	20021.05
1660.25446	16333.65
1663.53433	13829.15
1666.81203	12440.15
1670.08756	11682.85
1673.36092	11218.45
1676.63211	10922.65
1679.90115	10682.55
1683.16801	10518.45
1686.43272	10448.15
1689.69527	10298.15
1692.95567	10217.95
1696.2139	10044.35
1699.46999	9918.25
1702.72392	9865.85
1705.97571	9938.85
1709.22535	10025.65
1712.47284	10100.25
1715.71819	10130.35
1718.96139	10128.45
1722.20246	10113.35
1725.44139	10067.55
1728.67818	9977.75
1731.91284	9918.65
1735.14537	9852.45
1738.37576	9826.25
1741.60403	9748.45
1744.83017	9715.05
1748.05418	9676.35
1751.27607	9645.95
1754.49584	9599.75
1757.71349	9520.35
1760.92903	9474.45
1764.14244	9461.85
1767.35375	9435.85
1770.56294	9395.25
1773.77002	9386.15
1776.97499	9410.45
1780.17785	9449.75
1783.37861	9443.55
1786.57727	9470.35
1789.77382	9455.45
1792.96828	9461.75
1796.16064	9434.55
1799.3509	9415.05
1802.53907	9383.95
1805.72514	9390.75
1808.90913	9349.85
1812.09102	9334.65
1815.27083	9304.75
1818.44856	9285.05
1821.6242	9278.45
1824.79776	9270.15
1827.96924	9246.25
1831.13864	9242.15
1834.30597	9206.15
1837.47122	9201.65
1840.6344	9207.35
1843.7955	9181.25
1846.95454	9179.65
1850.11151	9175.45
1853.26642	9159.95
1856.41926	9150.75
1859.57004	9167.65
1862.71876	9146.95
1865.86542	9134.55
1869.01003	9137.75
1872.15258	9146.15
1875.29308	9153.45
1878.43152	9151.55
1881.56792	9118.65
1884.70227	9116.55
1887.83457	9120.45
1890.96482	9107.15
1894.09304	9110.65
1897.21921	9104.25
1900.34335	9107.95
1903.46544	9096.15
1906.58551	9116.35
1909.70353	9090.25
1912.81953	9104.35
1915.93349	9078.85
1919.04543	9098.95
1922.15534	9079.85
1925.26322	9031.75
1928.36908	9014.75
1931.47292	8993.75
1934.57473	8997.05
1937.67453	8970.95
1940.77232	8925.85
1943.86808	8893.35
1946.96184	8882.45
1950.05358	8833.95
1953.14331	8830.45
1956.23103	8814.75
1959.31675	8774.55
1962.40046	8747.85
1965.48217	8755.65
1968.56188	8735.05
1971.63959	8712.75
1974.7153	8697.55
1977.78901	8675.05
1980.86073	8644.45
1983.93046	8581.85
1986.99819	8552.65
1990.06394	8536.55
1993.1277	8506.35
1996.18947	8457.55
1999.24925	8447.85
2002.30706	8417.85
2005.36288	8401.05
2008.41672	8383.35
2011.46859	8358.25
2014.51848	8316.65
2017.56639	8325.55
2020.61233	8289.55
2023.6563	8262.55
2026.6983	8255.75
2029.73833	8237.95
2032.7764	8219.05
2035.8125	8190.85
2038.84664	8204.35
2041.87881	8182.95
2044.90903	8196.55
2047.93729	8174.15
2050.96359	8166.65
2053.98794	8139.25
2057.01034	8138.55
2060.03078	8131.55
2063.04927	8116.65
2066.06582	8105.85
2069.08042	8108.65
2072.09307	8103.15
2075.10378	8075.65
2078.11255	8095.45
2081.11938	8079.75
2084.12426	8062.65
2087.12722	8090.95
2090.12824	8070.15
2093.12732	8057.45
2096.12447	8061.35
2099.11969	8096.75
2102.11299	8092.85
2105.10435	8080.65
2108.09379	8066.05
2111.08131	8111.25
2114.0669	8088.85
2117.05057	8091.25
2120.03233	8114.95
2123.01216	8110.55
2125.99008	8134.45
2128.96609	8136.75
2131.94018	8145.65
2134.91236	8135.15
2137.88263	8128.45
2140.851	8142.85
2143.81746	8139.75
2146.78201	8166.25
2149.74466	8147.25
2152.7054	8124.65
2155.66425	8134.95
2158.6212	8118.55
2161.57625	8134.05
2164.52941	8108.25
2167.48067	8107.05
2170.43004	8113.85
2173.37752	8110.85
2176.32311	8105.95
2179.26681	8121.25
2182.20863	8119.25
2185.14856	8118.65
2188.08661	8123.95
2191.02278	8146.25
2193.95707	8117.85
2196.88948	8091.85
2199.82001	8119.75
2202.74867	8119.95
2205.67545	8095.15
2208.60037	8096.35
2211.52341	8089.85
2214.44458	8096.45
2217.36388	8063.45
2220.28132	8060.15
2223.1969	8014.55
2226.11061	8035.85
2229.02246	8009.85
2231.93245	7992.55
2234.84058	7966.65
2237.74686	7985.35
2240.65128	7947.65
2243.55385	7955.05
2246.45456	7944.95
2249.35343	7956.35
2252.25044	7925.85
2255.14561	7909.85
2258.03893	7931.75
2260.93041	7895.35
2263.82004	7914.75
2266.70783	7891.05
2269.59378	7887.15
2272.4779	7869.45
2275.36017	7842.65
2278.24061	7811.55
2281.11922	7804.45
2283.996	7779.55
2286.87094	7781.95
2289.74405	7770.25
2292.61534	7746.15
2295.4848	7718.05
2298.35243	7743.45
2301.21824	7739.55
2304.08223	7732.05
2306.94439	7723.95
2309.80474	7743.85
2312.66327	7754.75
2315.51999	7737.35
2318.37489	7738.35
2321.22797	7720.75
2324.07925	7725.25
2326.92871	7713.45
2329.77637	7712.85
2332.62222	7698.75
2335.46626	7690.85
2338.3085	7688.95
2341.14893	7673.95
2343.98756	7692.35
2346.8244	7693.95
2349.65943	7700.35
2352.49267	7710.95
2355.32411	7713.25
2358.15376	7698.85
2360.98161	7720.75
2363.80768	7715.85
2366.63195	7711.25
2369.45444	7719.55
2372.27514	7716.95
2375.09405	7705.55
2377.91118	7698.85
2380.72652	7667.85
2383.54009	7636.55
2386.35187	7620.05
2389.16188	7562.65
2391.97011	7555.65
2394.77657	7538.25
2397.58125	7531.15
2400.38416	7527.05
2403.18529	7484.35
2405.98466	7465.45
2408.78226	7456.85
2411.57809	7444.65
2414.37216	7418.15
2417.16446	7424.55
2419.955	7418.05
2422.74378	7414.65
2425.5308	7396.65
2428.31606	7417.45
2431.09956	7410.65
2433.88131	7400.45
2436.6613	7419.65
2439.43954	7406.15
2442.21603	7415.95
2444.99077	7412.25
2447.76377	7438.85
2450.53501	7428.25
2453.30451	7426.55
2456.07226	7416.75
2458.83827	7407.65
2461.60254	7393.25
2464.36507	7398.85
2467.12586	7394.75
2469.88492	7407.95
2472.64224	7408.95
2475.39782	7419.95
2478.15167	7411.75
2480.90379	7426.45
2483.65417	7437.65
2486.40283	7452.75
2489.14976	7469.55
2491.89497	7474.55
2494.63845	7459.65
2497.3802	7443.75
2500.12024	7459.65
2502.85855	7435.75
2505.59514	7430.65
2508.33002	7407.85
2511.06318	7364.55
2513.79462	7358.45
2516.52435	7338.55
2519.25237	7313.85
2521.97867	7313.05
2524.70327	7288.35
2527.42616	7296.25
2530.14734	7278.65
2532.86681	7256.15
2535.58458	7280.65
2538.30065	7274.05
2541.01501	7261.75
2543.72768	7275.05
2546.43864	7233.45
2549.14791	7242.55
2551.85548	7237.75
2554.56136	7227.35
2557.26554	7230.95
2559.96803	7227.85
2562.66883	7226.65
2565.36794	7209.15
2568.06536	7208.55
2570.7611	7194.15
2573.45514	7190.15
2576.14751	7184.85
2578.83819	7164.75
2581.52719	7169.95
2584.21451	7155.55
2586.90015	7144.05
2589.58411	7132.65
2592.2664	7118.75
2594.94701	7109.85
2597.62594	7105.35
2600.30321	7107.95
2602.9788	7118.25
2605.65273	7129.35
2608.32498	7117.15
2610.99557	7101.15
2613.66449	7098.15
2616.33175	7115.35
2618.99734	7121.65
2621.66128	7114.25
2624.32355	7092.95
2626.98416	7098.65
2629.64311	7079.15
2632.30041	7073.35
2634.95605	7055.05
2637.61004	7039.75
2640.26238	7024.95
2642.91306	7023.85
2645.56209	7016.75
2648.20948	7000.35
2650.85521	6988.45
2653.4993	7017.25
2656.14175	7020.15
2658.78255	7008.35
2661.42171	6997.45
2664.05923	7036.05
2666.6951	7069.65
2669.32934	7091.65
2671.96194	7078.75
2674.59291	7050.25
2677.22224	7060.45
2679.84993	7045.65
2682.476	7045.85
2685.10043	7025.95
2687.72324	7035.55
2690.34441	7046.55
2692.96396	7024.35
2695.58188	7031.15
2698.19818	7008.05
2700.81285	7006.45
2703.4259	6976.85
2706.03733	6923.75
2708.64714	6986.05
2711.25533	7016.45
2713.86191	7012.75
2716.46687	7033.25
2719.07021	7051.45
2721.67194	7069.65
2724.27206	7052.45
2726.87057	7063.55
2729.46747	7059.95
2732.06276	7059.05
2734.65644	7039.25
2737.24852	7034.85
2739.83899	7012.55
2742.42786	7009.95
2745.01513	7006.05
2747.60079	6995.95
2750.18486	6989.35
2752.76733	6983.65
2755.3482	6972.85
2757.92747	6975.75
2760.50515	6981.75
2763.08123	6976.85
2765.65573	6941.75
2768.22863	6941.75
2770.79994	6932.75
2773.36967	6917.25
2775.9378	6936.05
2778.50435	6918.15
2781.06932	6917.15
2783.6327	6953.35
2786.1945	6959.95
2788.75471	6953.15
2791.31335	6917.45
2793.87041	6912.15
2796.42589	6898.85
2798.97979	6915.55
2801.53212	6914.85
2804.08288	6894.45
2806.63206	6865.55
2809.17967	6878.15
2811.72571	6862.65
2814.27018	6867.75
2816.81308	6863.85
2819.35442	6874.45
2821.89419	6872.35
2824.43239	6873.75
2826.96904	6880.15
2829.50412	6872.75
2832.03763	6873.95
2834.56959	6881.15
2837.1	6879.95
2839.62884	6910.25
2842.15613	6909.95
2844.68186	6914.55
2847.20604	6942.95
2849.72867	6963.85
2852.24974	6968.55
2854.76927	6960.05
2857.28724	6929.85
2859.80367	6951.95
2862.31855	6950.55
2864.83189	6945.65
2867.34368	6932.65
2869.85393	6945.25
2872.36264	6936.25
2874.8698	6955.85
2877.37543	6935.45
2879.87952	6959.35
2882.38207	6918.75
2884.88308	6907.65
2887.38256	6914.95
2889.88051	6924.55
2892.37692	6912.15
2894.8718	6899.15
2897.36515	6927.15
2899.85698	6929.85
2902.34727	6945.45
2904.83604	6946.15
2907.32328	6966.95
2909.809	6972.85
2912.29319	6969.65
2914.77587	6979.95
2917.25702	6978.25
2919.73665	6966.05
2922.21476	6958.85
2924.69136	6943.25
2927.16644	6948.25
2929.64	6936.55
2932.11205	6898.65
2934.58258	6895.95
2937.05161	6891.35
2939.51912	6891.65
2941.98513	6882.35
2944.44962	6840.85
2946.91261	6813.95
2949.37409	6809.35
2951.83407	6765.25
2954.29254	6777.95
2956.74951	6784.45
2959.20498	6746.85
2961.65895	6751.55
2964.11142	6750.55
2966.56239	6718.05
2969.01186	6697.45
2971.45984	6699.45
2973.90632	6692.65
2976.35131	6646.15
2978.7948	6667.85
2981.23681	6618.55
2983.67732	6620.85
2986.11635	6596.45
2988.55388	6574.45
2990.98993	6573.15
2993.4245	6560.75
2995.85758	6538.95
2998.28917	6542.05
3000.71928	6549.05
3003.14791	6515.65
3005.57506	6504.05
3008.00073	6506.65
3010.42493	6491.95
3012.84764	6502.35
3015.26888	6504.35
3017.68865	6477.85
3020.10694	6465.35
3022.52376	6443.35
3024.9391	6453.55
3027.35298	6431.45
3029.76539	6423.35
3032.17632	6417.65
3034.5858	6406.85
3036.9938	6390.05
3039.40034	6383.45
3041.80542	6397.05
3044.20903	6370.85
3046.61118	6384.45
3049.01187	6360.55
3051.4111	6370.55
3053.80888	6364.25
3056.20519	6345.75
3058.60005	6331.05
3060.99345	6323.75
3063.3854	6317.35
3065.7759	6297.25
3068.16494	6275.35
3070.55254	6259.75
3072.93868	6241.85
3075.32338	6239.25
3077.70662	6199.45
3080.08842	6209.55
3082.46878	6187.25
3084.84769	6182.55
3087.22515	6186.35
3089.60118	6178.05
3091.97576	6154.15
3094.3489	6162.35
3096.72061	6165.95
3099.09087	6168.95
3101.4597	6166.15
3103.82709	6166.45
3106.19305	6155.45
3108.55757	6153.15
3110.92066	6138.25
3113.28232	6130.95
3115.64255	6101.05
3118.00134	6116.15
3120.35871	6115.45
3122.71466	6115.75
3125.06917	6094.75
3127.42226	6091.55
3129.77393	6083.25
3132.12417	6103.25
3134.47299	6097.15
3136.82039	6104.75
3139.16636	6102.35
3141.51092	6097.65
3143.85406	6088.25
3146.19579	6098.65
3148.53609	6105.95
3150.87499	6099.95
3153.21246	6089.95
3155.54853	6112.15
3157.88318	6134.55
3160.21642	6126.05
3162.54826	6099.35
3164.87868	6118.25
3167.2077	6112.85
3169.5353	6109.95
3171.86151	6133.85
3174.18631	6124.85
3176.5097	6111.85
3178.83169	6114.05
3181.15228	6117.25
3183.47147	6126.75
3185.78926	6097.35
3188.10565	6140.15
3190.42065	6129.15
3192.73424	6140.05
3195.04645	6116.75
3197.35725	6120.45
3199.66667	6124.05
3201.97469	6107.95
3204.28132	6118.15
3206.58656	6130.85
3208.8904	6123.75
3211.19287	6136.55
3213.49394	6162.95
3215.79363	6143.65
3218.09193	6155.35
3220.38884	6135.95
3222.68438	6137.25
3224.97853	6138.55
3227.2713	6171.15
3229.56269	6131.35
3231.8527	6149.35
3234.14133	6139.75
3236.42858	6107.25
3238.71446	6118.75
3240.99896	6123.25
3243.28209	6106.85
3245.56384	6098.45
3247.84423	6124.45
3250.12324	6095.75
3252.40088	6115.25
3254.67715	6110.25
3256.95205	6083.85
3259.22558	6106.25
3261.49775	6094.85
3263.76855	6097.35
3266.03799	6095.45
3268.30606	6066.25
3270.57277	6076.25
3272.83812	6073.25
3275.10211	6043.45
3277.36474	6034.75
3279.62601	6048.45
3281.88593	6026.25
3284.14448	6053.75
3286.40168	6044.35
3288.65753	6054.25
3290.91202	6055.45
3293.16516	6049.35
3295.41695	6032.95
3297.66738	5997.05
3299.91647	5980.85
3302.16421	5932.65
3304.4106	5905.15
3306.65564	5867.85
3308.89933	5833.65
3311.14169	5789.75
3313.38269	5725.95
3315.62236	5703.05
3317.86068	5632.85
3320.09766	5612.65
3322.3333	5570.05
3324.5676	5572.85
3326.80056	5439.45
3329.03219	5436.45
3331.26248	2.65
3333.49143	-1.85
3335.71905	0.75
