Data from AgNPs_FTO_APTES_UA_50uM_CRN_20uM_R6G_10uM_NaF_0.1M_Addition_RamanShift__27__14-25-44-948.txt Node

Date: Mon Feb 21 14:25:44 GMT 2022
User: TCL
Spectrometer: QEP01345
Trigger mode: 4
Integration Time (sec): 7.000000E0
Scans to average: 10
Electric dark correction enabled: true
Nonlinearity correction enabled: false
Boxcar width: 0
XAxis mode: Raman Shifts
Number of Pixels in Spectrum: 1044
>>>>>Begin Spectral Data<<<<<
46.04893	0.85
50.45542	-1.35
54.85868	-0.85
59.25871	-1.25
63.6555	54.25
68.04907	64.65
72.43941	65.05
76.82654	69.15
81.21044	73.35
85.59113	76.15
89.96862	77.85
94.34289	82.45
98.71396	80.85
103.08183	87.45
107.4465	88.25
111.80798	89.25
116.16626	91.25
120.52136	91.15
124.87327	97.05
129.222	96.75
133.56755	99.15
137.90993	112.35
142.24913	115.65
146.58517	131.35
150.91804	144.35
155.24774	173.05
159.57429	211.95
163.89768	263.25
168.21792	353.85
172.53501	481.25
176.84895	664.85
181.15975	923.45
185.46741	1294.15
189.77193	1783.95
194.07331	2390.45
198.37157	3080.45
202.6667	3814.35
206.9587	4566.95
211.24758	5308.65
215.53334	6109.45
219.81599	7027.85
224.09553	8089.75
228.37195	9228.35
232.64527	10482.05
236.91549	11680.55
241.18261	12754.35
245.44663	13533.35
249.70755	14220.35
253.96539	14802.05
258.22014	15309.85
262.4718	15665.45
266.72039	15893.35
270.96589	15867.45
275.20832	15626.05
279.44768	15258.05
283.68397	14893.15
287.91719	14690.35
292.14735	14770.35
296.37445	15261.55
300.59849	16088.15
304.81948	17069.65
309.03742	17795.15
313.25231	17810.25
317.46415	16802.45
321.67296	15228.35
325.87872	13930.35
330.08145	13338.35
334.28114	13347.55
338.47781	13671.95
342.67145	14137.15
346.86207	14894.65
351.04966	16034.85
355.23424	17302.15
359.4158	18279.75
363.59435	18630.35
367.76989	18639.45
371.94243	18483.05
376.11196	18223.15
380.27849	18008.85
384.44203	17730.85
388.60257	17410.05
392.76012	17180.85
396.91468	17292.05
401.06626	17762.75
405.21485	18115.65
409.36047	17629.15
413.50311	16440.55
417.64277	15299.95
421.77947	14620.55
425.9132	14330.45
430.04396	14223.55
434.17176	14308.05
438.2966	14595.85
442.41849	15050.85
446.53742	15663.15
450.6534	16168.15
454.76644	16495.05
458.87653	16482.45
462.98368	16244.45
467.08789	15862.65
471.18916	15450.05
475.2875	14999.75
479.38291	14622.95
483.4754	14350.75
487.56496	14094.75
491.6516	13906.15
495.73531	13797.15
499.81612	13817.35
503.89401	14055.85
507.96899	14258.85
512.04106	14556.65
516.11023	14891.35
520.1765	15137.55
524.23987	15122.05
528.30034	14861.55
532.35792	14567.45
536.41261	14248.45
540.46441	13821.25
544.51333	13584.25
548.55936	13644.75
552.60252	14030.15
556.64279	14474.05
560.6802	14740.65
564.71473	15146.65
568.7464	16038.55
572.7752	16442.65
576.80114	15696.05
580.82422	14935.35
584.84444	14674.15
588.86181	14782.45
592.87633	15090.15
596.888	15422.05
600.89682	16014.85
604.9028	18296.25
608.90594	24905.55
612.90624	33368.25
616.90371	31361.95
620.89834	20540.45
624.89015	15586.95
628.87913	14811.35
632.86528	15013.85
636.84862	15270.75
640.82913	14846.05
644.80683	13829.85
648.78172	13094.25
652.75379	13079.85
656.72306	13800.05
660.68952	14701.65
664.65319	14465.35
668.61405	13495.85
672.57211	13088.35
676.52738	13099.15
680.47986	13044.05
684.42955	12846.15
688.37646	12741.65
692.32058	12753.35
696.26192	12874.45
700.20048	13096.65
704.13626	13231.55
708.06928	13121.85
711.99952	12963.65
715.927	12926.95
719.85171	13030.05
723.77365	13142.35
727.69284	13003.45
731.60928	12869.65
735.52295	12882.65
739.43388	12951.65
743.34206	13042.45
747.24749	13109.25
751.15017	13179.75
755.05012	13493.05
758.94733	14412.45
762.8418	16655.85
766.73354	20485.35
770.62254	24153.15
774.50882	25923.75
778.39237	24620.95
782.27321	20630.75
786.15132	16739.75
790.02671	14505.15
793.89938	13488.95
797.76935	13077.75
801.6366	12939.85
805.50115	12865.25
809.36299	12787.25
813.22213	12755.85
817.07857	12687.85
820.93231	12667.05
824.78336	12683.65
828.63172	12739.05
832.47738	12747.15
836.32036	12740.55
840.16066	12677.75
843.99827	12638.15
847.8332	12591.35
851.66546	12513.15
855.49504	12465.95
859.32195	12461.25
863.1462	12416.45
866.96777	12352.75
870.78668	12328.15
874.60293	12369.45
878.41652	12465.45
882.22745	12568.35
886.03573	12671.15
889.84136	12653.15
893.64433	12563.05
897.44466	12514.45
901.24235	12468.25
905.0374	12366.15
908.8298	12260.55
912.61957	12137.15
916.40671	12199.85
920.19121	12352.15
923.97308	12573.75
927.75233	12865.85
931.52895	13133.15
935.30295	12964.85
939.07433	12436.05
942.84309	11998.45
946.60924	11749.25
950.37278	11620.25
954.13371	11561.15
957.89203	11467.55
961.64774	11450.65
965.40086	11357.75
969.15137	11326.85
972.89929	11282.25
976.64461	11275.55
980.38733	11265.85
984.12747	11323.05
987.86502	11408.75
991.59999	11597.15
995.33237	11881.65
999.06217	12422.05
1002.78939	13020.95
1006.51404	13466.25
1010.23611	13741.25
1013.95561	13926.15
1017.67255	13893.85
1021.38692	13627.65
1025.09872	13396.35
1028.80796	13472.75
1032.51465	13881.85
1036.21877	14292.95
1039.92035	14382.95
1043.61937	14217.65
1047.31584	13864.85
1051.00976	13431.65
1054.70114	13150.65
1058.38998	13061.55
1062.07627	13009.55
1065.76003	13017.05
1069.44126	13070.45
1073.11995	13275.15
1076.79611	13531.15
1080.46974	13935.35
1084.14085	14488.95
1087.80943	15083.85
1091.47549	15183.75
1095.13903	14822.75
1098.80005	14119.65
1102.45857	13626.55
1106.11456	13492.95
1109.76805	13743.45
1113.41903	14281.15
1117.06751	15108.35
1120.71348	16177.85
1124.35696	17336.65
1127.99793	18083.35
1131.63641	17657.85
1135.2724	16424.95
1138.90589	15365.45
1142.5369	14708.55
1146.16542	14224.15
1149.79145	14003.55
1153.415	13924.85
1157.03607	14079.05
1160.65467	14463.55
1164.27079	15184.15
1167.88443	16335.65
1171.49561	18097.35
1175.10432	20891.25
1178.71056	24709.45
1182.31434	27786.65
1185.91565	28647.15
1189.51451	27447.85
1193.11091	25118.45
1196.70485	22698.75
1200.29634	21014.65
1203.88538	19696.85
1207.47197	18238.55
1211.05612	16990.45
1214.63782	16270.85
1218.21708	16081.35
1221.79391	16188.85
1225.36829	16278.75
1228.94024	16211.15
1232.50976	15967.95
1236.07685	15763.45
1239.6415	15673.95
1243.20374	15772.25
1246.76355	15914.95
1250.32093	16210.25
1253.8759	16702.75
1257.42845	17421.05
1260.97859	18167.55
1264.52631	18980.45
1268.07163	19776.85
1271.61453	20520.85
1275.15503	21149.05
1278.69312	21583.95
1282.22882	22082.15
1285.76211	22765.95
1289.29301	23707.65
1292.82151	24609.75
1296.34761	25827.35
1299.87133	27712.45
1303.39266	31058.35
1306.9116	35889.35
1310.42815	40788.35
1313.94233	42503.95
1317.45412	40083.55
1320.96354	35847.85
1324.47058	31810.45
1327.97525	28731.55
1331.47754	26979.45
1334.97747	26434.45
1338.47502	26795.95
1341.97022	27893.15
1345.46305	29531.45
1348.95352	31680.95
1352.44163	34565.05
1355.92738	39060.15
1359.41078	46087.95
1362.89183	51795.35
1366.37053	48567.05
1369.84688	39159.05
1373.32088	31094.15
1376.79254	26333.75
1380.26186	23820.65
1383.72883	22427.55
1387.19347	21343.95
1390.65578	20380.85
1394.11575	19819.95
1397.57339	19765.95
1401.0287	20039.85
1404.48168	20379.05
1407.93234	20617.45
1411.38068	20820.15
1414.82669	20748.55
1418.27039	20424.65
1421.71177	19839.15
1425.15083	19241.05
1428.58758	19039.05
1432.02203	19275.95
1435.45416	19619.55
1438.88399	19695.45
1442.31151	19740.55
1445.73673	19920.85
1449.15965	20105.75
1452.58027	20155.05
1455.9986	19967.85
1459.41463	19943.65
1462.82837	20267.35
1466.23982	20881.85
1469.64898	21450.65
1473.05586	21801.85
1476.46045	21924.55
1479.86276	22177.85
1483.26279	22675.65
1486.66054	23317.15
1490.05602	24335.35
1493.44922	25782.35
1496.84016	28064.85
1500.22882	31700.55
1503.61521	37026.45
1506.99934	43168.35
1510.38121	47753.65
1513.76081	47913.15
1517.13816	43062.25
1520.51324	35990.15
1523.88607	30014.95
1527.25665	26312.55
1530.62498	24305.45
1533.99105	23107.55
1537.35488	22411.85
1540.71647	22035.45
1544.07581	21885.35
1547.4329	21813.45
1550.78776	21858.15
1554.14038	21986.85
1557.49077	22198.25
1560.83892	22665.95
1564.18484	23418.65
1567.52853	24397.25
1570.86999	25073.35
1574.20922	25401.05
1577.54624	25071.25
1580.88103	23482.25
1584.2136	21619.85
1587.54395	20772.15
1590.87208	21394.55
1594.19801	23192.65
1597.52172	25440.45
1600.84321	26391.95
1604.16251	25299.75
1607.47959	23105.45
1610.79447	20743.15
1614.10715	18612.15
1617.41763	17055.15
1620.7259	16115.55
1624.03199	15767.85
1627.33587	15959.75
1630.63757	16629.55
1633.93707	17894.55
1637.23439	19854.05
1640.52951	22805.25
1643.82246	26734.95
1647.11321	31118.35
1650.40179	33509.55
1653.68819	31401.25
1656.97241	25884.05
1660.25446	20508.65
1663.53433	16921.75
1666.81203	14872.95
1670.08756	13756.65
1673.36092	13048.15
1676.63211	12634.05
1679.90115	12321.05
1683.16801	12056.95
1686.43272	11869.95
1689.69527	11742.35
1692.95567	11580.25
1696.2139	11441.25
1699.46999	11308.35
1702.72392	11225.05
1705.97571	11289.25
1709.22535	11331.75
1712.47284	11404.55
1715.71819	11432.75
1718.96139	11422.65
1722.20246	11368.35
1725.44139	11288.35
1728.67818	11181.75
1731.91284	11094.65
1735.14537	11016.75
1738.37576	10942.25
1741.60403	10904.05
1744.83017	10841.15
1748.05418	10794.25
1751.27607	10750.95
1754.49584	10663.25
1757.71349	10600.15
1760.92903	10569.75
1764.14244	10523.35
1767.35375	10511.35
1770.56294	10476.55
1773.77002	10416.15
1776.97499	10453.25
1780.17785	10476.55
1783.37861	10461.35
1786.57727	10454.95
1789.77382	10469.25
1792.96828	10463.75
1796.16064	10447.25
1799.3509	10437.45
1802.53907	10434.55
1805.72514	10369.05
1808.90913	10349.15
1812.09102	10332.45
1815.27083	10309.15
1818.44856	10272.95
1821.6242	10271.75
1824.79776	10254.75
1827.96924	10220.35
1831.13864	10221.85
1834.30597	10205.45
1837.47122	10177.15
1840.6344	10171.85
1843.7955	10169.05
1846.95454	10167.85
1850.11151	10158.95
1853.26642	10176.85
1856.41926	10153.75
1859.57004	10185.35
1862.71876	10153.65
1865.86542	10164.55
1869.01003	10196.95
1872.15258	10186.45
1875.29308	10166.75
1878.43152	10195.15
1881.56792	10189.75
1884.70227	10215.75
1887.83457	10202.45
1890.96482	10192.35
1894.09304	10183.75
1897.21921	10214.25
1900.34335	10195.25
1903.46544	10203.65
1906.58551	10192.05
1909.70353	10189.85
1912.81953	10201.95
1915.93349	10192.95
1919.04543	10151.95
1922.15534	10156.05
1925.26322	10123.45
1928.36908	10078.15
1931.47292	10021.65
1934.57473	10001.45
1937.67453	9964.15
1940.77232	9947.95
1943.86808	9910.95
1946.96184	9867.15
1950.05358	9823.95
1953.14331	9796.35
1956.23103	9771.85
1959.31675	9716.75
1962.40046	9738.35
1965.48217	9701.95
1968.56188	9697.45
1971.63959	9664.55
1974.7153	9670.35
1977.78901	9617.05
1980.86073	9584.55
1983.93046	9518.35
1986.99819	9479.95
1990.06394	9466.85
1993.1277	9442.95
1996.18947	9384.35
1999.24925	9361.85
2002.30706	9312.35
2005.36288	9300.35
2008.41672	9267.05
2011.46859	9236.25
2014.51848	9216.35
2017.56639	9205.55
2020.61233	9190.95
2023.6563	9179.35
2026.6983	9114.85
2029.73833	9117.85
2032.7764	9089.75
2035.8125	9067.85
2038.84664	9103.15
2041.87881	9076.35
2044.90903	9071.75
2047.93729	9024.45
2050.96359	9034.25
2053.98794	9039.15
2057.01034	9022.75
2060.03078	9003.05
2063.04927	8997.35
2066.06582	8995.05
2069.08042	8974.15
2072.09307	8928.95
2075.10378	8930.65
2078.11255	8931.95
2081.11938	8937.15
2084.12426	8916.85
2087.12722	8909.65
2090.12824	8893.15
2093.12732	8896.25
2096.12447	8894.15
2099.11969	8905.45
2102.11299	8907.75
2105.10435	8915.95
2108.09379	8902.55
2111.08131	8937.15
2114.0669	8912.45
2117.05057	8939.15
2120.03233	8952.65
2123.01216	8996.05
2125.99008	8975.35
2128.96609	9006.05
2131.94018	8969.45
2134.91236	8979.95
2137.88263	8980.85
2140.851	8977.85
2143.81746	8985.65
2146.78201	8955.85
2149.74466	8985.95
2152.7054	8974.15
2155.66425	8970.25
2158.6212	8960.35
2161.57625	8939.05
2164.52941	8934.05
2167.48067	8899.05
2170.43004	8935.55
2173.37752	8925.05
2176.32311	8950.05
2179.26681	8933.35
2182.20863	8957.25
2185.14856	8961.05
2188.08661	8976.55
2191.02278	8947.35
2193.95707	8952.65
2196.88948	8916.85
2199.82001	8941.65
2202.74867	8956.65
2205.67545	8968.25
2208.60037	8969.15
2211.52341	8928.25
2214.44458	8917.55
2217.36388	8920.25
2220.28132	8893.45
2223.1969	8905.25
2226.11061	8894.85
2229.02246	8844.45
2231.93245	8844.95
2234.84058	8817.15
2237.74686	8808.45
2240.65128	8798.15
2243.55385	8804.75
2246.45456	8801.65
2249.35343	8792.05
2252.25044	8773.45
2255.14561	8794.65
2258.03893	8801.05
2260.93041	8754.95
2263.82004	8772.05
2266.70783	8759.75
2269.59378	8721.75
2272.4779	8700.05
2275.36017	8669.05
2278.24061	8663.85
2281.11922	8637.75
2283.996	8614.45
2286.87094	8616.55
2289.74405	8597.95
2292.61534	8589.65
2295.4848	8568.55
2298.35243	8597.05
2301.21824	8591.75
2304.08223	8556.55
2306.94439	8594.55
2309.80474	8598.45
2312.66327	8612.45
2315.51999	8611.85
2318.37489	8608.15
2321.22797	8597.45
2324.07925	8606.55
2326.92871	8587.85
2329.77637	8578.15
2332.62222	8581.75
2335.46626	8581.45
2338.3085	8560.55
2341.14893	8594.35
2343.98756	8640.45
2346.8244	8629.05
2349.65943	8651.95
2352.49267	8674.55
2355.32411	8692.25
2358.15376	8685.25
2360.98161	8683.65
2363.80768	8698.95
2366.63195	8689.05
2369.45444	8695.85
2372.27514	8678.65
2375.09405	8633.65
2377.91118	8635.05
2380.72652	8584.25
2383.54009	8543.85
2386.35187	8515.75
2389.16188	8494.05
2391.97011	8463.05
2394.77657	8455.45
2397.58125	8426.25
2400.38416	8429.25
2403.18529	8373.45
2405.98466	8369.95
2408.78226	8337.75
2411.57809	8325.05
2414.37216	8300.15
2417.16446	8286.25
2419.955	8279.95
2422.74378	8285.95
2425.5308	8287.85
2428.31606	8294.25
2431.09956	8283.65
2433.88131	8268.75
2436.6613	8302.45
2439.43954	8288.65
2442.21603	8304.55
2444.99077	8312.95
2447.76377	8338.75
2450.53501	8331.25
2453.30451	8335.25
2456.07226	8311.75
2458.83827	8321.45
2461.60254	8331.55
2464.36507	8319.05
2467.12586	8329.25
2469.88492	8342.75
2472.64224	8339.05
2475.39782	8352.15
2478.15167	8353.35
2480.90379	8398.85
2483.65417	8433.55
2486.40283	8448.85
2489.14976	8475.05
2491.89497	8484.65
2494.63845	8504.85
2497.3802	8451.05
2500.12024	8485.35
2502.85855	8455.25
2505.59514	8405.95
2508.33002	8391.25
2511.06318	8336.85
2513.79462	8316.65
2516.52435	8292.45
2519.25237	8276.85
2521.97867	8232.05
2524.70327	8224.25
2527.42616	8202.25
2530.14734	8209.75
2532.86681	8223.05
2535.58458	8235.15
2538.30065	8212.55
2541.01501	8243.25
2543.72768	8253.95
2546.43864	8245.55
2549.14791	8243.25
2551.85548	8234.55
2554.56136	8224.95
2557.26554	8235.95
2559.96803	8223.75
2562.66883	8221.65
2565.36794	8201.45
2568.06536	8191.05
2570.7611	8177.95
2573.45514	8200.85
2576.14751	8200.45
2578.83819	8169.75
2581.52719	8150.45
2584.21451	8170.85
2586.90015	8190.65
2589.58411	8160.75
2592.2664	8159.85
2594.94701	8151.75
2597.62594	8175.35
2600.30321	8170.05
2602.9788	8176.05
2605.65273	8152.55
2608.32498	8186.35
2610.99557	8156.85
2613.66449	8185.75
2616.33175	8175.15
2618.99734	8188.35
2621.66128	8207.45
2624.32355	8204.05
2626.98416	8213.05
2629.64311	8192.15
2632.30041	8183.55
2634.95605	8163.75
2637.61004	8156.65
2640.26238	8133.85
2642.91306	8123.15
2645.56209	8096.65
2648.20948	8094.95
2650.85521	8077.25
2653.4993	8076.05
2656.14175	8091.45
2658.78255	8103.75
2661.42171	8100.95
2664.05923	8136.15
2666.6951	8150.15
2669.32934	8189.65
2671.96194	8208.15
2674.59291	8205.65
2677.22224	8193.85
2679.84993	8183.35
2682.476	8166.75
2685.10043	8170.25
2687.72324	8140.05
2690.34441	8151.35
2692.96396	8136.95
2695.58188	8126.95
2698.19818	8098.75
2700.81285	8111.25
2703.4259	8061.75
2706.03733	8036.15
2708.64714	8090.65
2711.25533	8125.15
2713.86191	8127.85
2716.46687	8125.85
2719.07021	8149.95
2721.67194	8156.45
2724.27206	8153.35
2726.87057	8160.25
2729.46747	8164.15
2732.06276	8169.15
2734.65644	8166.85
2737.24852	8120.25
2739.83899	8119.05
2742.42786	8126.55
2745.01513	8108.85
2747.60079	8134.65
2750.18486	8102.35
2752.76733	8101.45
2755.3482	8096.65
2757.92747	8090.05
2760.50515	8075.15
2763.08123	8075.15
2765.65573	8046.25
2768.22863	8054.15
2770.79994	8041.35
2773.36967	8062.35
2775.9378	8050.85
2778.50435	8053.95
2781.06932	8067.75
2783.6327	8090.25
2786.1945	8077.65
2788.75471	8085.55
2791.31335	8064.65
2793.87041	8063.55
2796.42589	8046.45
2798.97979	8066.85
2801.53212	8049.15
2804.08288	8043.35
2806.63206	8038.15
2809.17967	8032.95
2811.72571	8030.85
2814.27018	8028.95
2816.81308	8026.05
2819.35442	8051.05
2821.89419	8077.75
2824.43239	8082.45
2826.96904	8059.55
2829.50412	8072.35
2832.03763	8061.45
2834.56959	8068.75
2837.1	8048.75
2839.62884	8066.95
2842.15613	8061.55
2844.68186	8070.75
2847.20604	8075.15
2849.72867	8096.75
2852.24974	8096.25
2854.76927	8091.85
2857.28724	8086.35
2859.80367	8076.95
2862.31855	8088.85
2864.83189	8089.15
2867.34368	8113.55
2869.85393	8154.45
2872.36264	8140.55
2874.8698	8135.25
2877.37543	8127.25
2879.87952	8097.35
2882.38207	8102.25
2884.88308	8101.75
2887.38256	8095.55
2889.88051	8104.25
2892.37692	8096.95
2894.8718	8102.25
2897.36515	8142.15
2899.85698	8110.35
2902.34727	8152.15
2904.83604	8120.05
2907.32328	8152.45
2909.809	8149.15
2912.29319	8167.75
2914.77587	8154.85
2917.25702	8152.65
2919.73665	8129.25
2922.21476	8115.35
2924.69136	8093.95
2927.16644	8081.95
2929.64	8045.95
2932.11205	8026.25
2934.58258	8015.55
2937.05161	8025.75
2939.51912	8019.35
2941.98513	8000.85
2944.44962	7975.75
2946.91261	7965.75
2949.37409	7975.35
2951.83407	7976.05
2954.29254	7965.55
2956.74951	7946.85
2959.20498	7941.05
2961.65895	7884.45
2964.11142	7907.45
2966.56239	7878.95
2969.01186	7887.25
2971.45984	7857.15
2973.90632	7820.15
2976.35131	7798.05
2978.7948	7785.75
2981.23681	7772.15
2983.67732	7768.15
2986.11635	7726.15
2988.55388	7724.75
2990.98993	7718.95
2993.4245	7690.15
2995.85758	7690.15
2998.28917	7689.25
3000.71928	7668.45
3003.14791	7666.95
3005.57506	7662.15
3008.00073	7641.55
3010.42493	7644.65
3012.84764	7641.35
3015.26888	7649.25
3017.68865	7611.65
3020.10694	7611.45
3022.52376	7576.65
3024.9391	7551.35
3027.35298	7550.85
3029.76539	7535.85
3032.17632	7516.65
3034.5858	7517.55
3036.9938	7505.05
3039.40034	7488.65
3041.80542	7480.55
3044.20903	7468.15
3046.61118	7487.45
3049.01187	7454.55
3051.4111	7458.05
3053.80888	7429.35
3056.20519	7407.05
3058.60005	7405.15
3060.99345	7391.85
3063.3854	7365.65
3065.7759	7355.55
3068.16494	7311.75
3070.55254	7285.85
3072.93868	7255.85
3075.32338	7235.35
3077.70662	7213.75
3080.08842	7188.55
3082.46878	7191.95
3084.84769	7172.65
3087.22515	7194.45
3089.60118	7169.35
3091.97576	7192.75
3094.3489	7174.15
3096.72061	7175.75
3099.09087	7178.95
3101.4597	7164.35
3103.82709	7156.35
3106.19305	7152.85
3108.55757	7149.85
3110.92066	7123.65
3113.28232	7114.65
3115.64255	7111.15
3118.00134	7127.75
3120.35871	7123.95
3122.71466	7079.25
3125.06917	7085.95
3127.42226	7067.85
3129.77393	7066.65
3132.12417	7051.55
3134.47299	7065.15
3136.82039	7086.95
3139.16636	7062.95
3141.51092	7061.55
3143.85406	7049.95
3146.19579	7054.25
3148.53609	7075.55
3150.87499	7083.55
3153.21246	7062.65
3155.54853	7100.15
3157.88318	7090.45
3160.21642	7112.65
3162.54826	7086.65
3164.87868	7109.15
3167.2077	7109.15
3169.5353	7112.15
3171.86151	7111.35
3174.18631	7102.85
3176.5097	7098.65
3178.83169	7093.85
3181.15228	7101.95
3183.47147	7090.05
3185.78926	7086.65
3188.10565	7095.45
3190.42065	7114.25
3192.73424	7114.35
3195.04645	7102.85
3197.35725	7101.85
3199.66667	7112.45
3201.97469	7126.95
3204.28132	7107.25
3206.58656	7125.95
3208.8904	7129.15
3211.19287	7148.55
3213.49394	7175.95
3215.79363	7161.55
3218.09193	7180.45
3220.38884	7164.55
3222.68438	7142.05
3224.97853	7149.25
3227.2713	7184.35
3229.56269	7156.65
3231.8527	7171.35
3234.14133	7168.75
3236.42858	7158.35
3238.71446	7153.65
3240.99896	7126.15
3243.28209	7136.45
3245.56384	7125.05
3247.84423	7129.05
3250.12324	7115.35
3252.40088	7141.95
3254.67715	7128.55
3256.95205	7130.55
3259.22558	7140.45
3261.49775	7115.75
3263.76855	7115.15
3266.03799	7126.75
3268.30606	7099.45
3270.57277	7112.85
3272.83812	7101.05
3275.10211	7080.65
3277.36474	7072.35
3279.62601	7078.85
3281.88593	7070.55
3284.14448	7074.75
3286.40168	7096.85
3288.65753	7074.15
3290.91202	7092.25
3293.16516	7068.45
3295.41695	7065.35
3297.66738	7030.45
3299.91647	6975.75
3302.16421	6955.55
3304.4106	6924.55
3306.65564	6861.95
3308.89933	6833.15
3311.14169	6770.25
3313.38269	6698.45
3315.62236	6654.15
3317.86068	6583.05
3320.09766	6543.85
3322.3333	6496.05
3324.5676	6497.45
3326.80056	6353.75
3329.03219	6316.95
3331.26248	2.95
3333.49143	-1.45
3335.71905	0.35
