Data from AgNPs_FTO_APTES_UA_50uM_CRN_5uM_R6G_10uM_NaF_0.1M_Addition_RamanShift__9__12-43-04-818.txt Node

Date: Mon Feb 21 12:43:04 GMT 2022
User: TCL
Spectrometer: QEP01345
Trigger mode: 4
Integration Time (sec): 7.000000E0
Scans to average: 10
Electric dark correction enabled: true
Nonlinearity correction enabled: false
Boxcar width: 0
XAxis mode: Raman Shifts
Number of Pixels in Spectrum: 1044
>>>>>Begin Spectral Data<<<<<
46.04893	0.55
50.45542	-0.95
54.85868	0.35
59.25871	-1.75
63.6555	49.55
68.04907	56.25
72.43941	57.75
76.82654	60.95
81.21044	64.95
85.59113	65.35
89.96862	68.75
94.34289	68.05
98.71396	70.35
103.08183	76.85
107.4465	75.25
111.80798	77.15
116.16626	79.15
120.52136	79.35
124.87327	84.55
129.222	84.25
133.56755	85.25
137.90993	93.65
142.24913	100.45
146.58517	112.85
150.91804	124.75
155.24774	142.55
159.57429	176.75
163.89768	225.55
168.21792	294.95
172.53501	392.65
176.84895	548.65
181.15975	766.35
185.46741	1070.15
189.77193	1478.25
194.07331	1967.35
198.37157	2546.55
202.6667	3125.85
206.9587	3737.25
211.24758	4327.65
215.53334	4891.95
219.81599	5559.05
224.09553	6250.25
228.37195	7016.45
232.64527	7855.15
236.91549	8771.75
241.18261	9645.35
245.44663	10471.15
249.70755	11140.15
253.96539	11748.25
258.22014	12228.75
262.4718	12575.15
266.72039	12814.25
270.96589	12886.85
275.20832	12824.05
279.44768	12685.05
283.68397	12473.55
287.91719	12280.65
292.14735	12109.95
296.37445	12084.95
300.59849	12081.45
304.81948	12136.45
309.03742	12171.35
313.25231	12122.35
317.46415	11947.45
321.67296	11685.85
325.87872	11459.25
330.08145	11369.35
334.28114	11374.15
338.47781	11445.35
342.67145	11554.65
346.86207	11790.15
351.04966	12007.05
355.23424	12300.95
359.4158	12531.75
363.59435	12634.25
367.76989	12752.45
371.94243	12787.05
376.11196	12807.95
380.27849	12864.85
384.44203	12915.65
388.60257	12973.85
392.76012	13050.65
396.91468	13194.35
401.06626	13396.55
405.21485	13501.55
409.36047	13396.75
413.50311	13174.55
417.64277	12976.15
421.77947	12916.25
425.9132	12948.65
430.04396	12969.25
434.17176	13010.45
438.2966	13136.15
442.41849	13366.75
446.53742	13733.75
450.6534	14089.75
454.76644	14304.55
458.87653	14380.25
462.98368	14320.05
467.08789	14205.85
471.18916	14067.45
475.2875	13815.45
479.38291	13633.35
483.4754	13521.55
487.56496	13414.95
491.6516	13315.35
495.73531	13229.55
499.81612	13207.55
503.89401	13293.35
507.96899	13314.95
512.04106	13314.85
516.11023	13285.15
520.1765	13230.55
524.23987	13132.45
528.30034	13108.25
532.35792	13041.95
536.41261	12895.75
540.46441	12734.15
544.51333	12681.05
548.55936	12746.85
552.60252	12959.25
556.64279	13234.95
560.6802	13460.35
564.71473	13527.25
568.7464	13727.35
572.7752	14074.95
576.80114	14394.15
580.82422	14663.45
584.84444	15095.75
588.86181	15765.35
592.87633	16536.65
596.888	16859.05
600.89682	16379.25
604.9028	16145.55
608.90594	17199.25
612.90624	18646.85
616.90371	17556.65
620.89834	14713.35
624.89015	13431.95
628.87913	13274.55
632.86528	13371.95
636.84862	13453.85
640.82913	13254.85
644.80683	12919.15
648.78172	12670.45
652.75379	12691.95
656.72306	12872.65
660.68952	13112.05
664.65319	13063.85
668.61405	12790.55
672.57211	12791.15
676.52738	12896.85
680.47986	12956.65
684.42955	12887.75
688.37646	12854.35
692.32058	12902.75
696.26192	13000.05
700.20048	13127.45
704.13626	13174.85
708.06928	13151.35
711.99952	13055.85
715.927	13032.15
719.85171	13075.55
723.77365	13024.35
727.69284	12875.95
731.60928	12708.05
735.52295	12655.55
739.43388	12685.25
743.34206	12760.25
747.24749	12817.55
751.15017	12946.25
755.05012	13106.35
758.94733	13456.65
762.8418	14111.85
766.73354	15207.75
770.62254	16296.35
774.50882	16655.55
778.39237	15996.75
782.27321	14906.65
786.15132	13994.05
790.02671	13373.75
793.89938	13007.45
797.76935	12835.35
801.6366	12736.75
805.50115	12654.85
809.36299	12607.85
813.22213	12532.05
817.07857	12471.75
820.93231	12380.25
824.78336	12377.45
828.63172	12352.85
832.47738	12357.15
836.32036	12328.75
840.16066	12342.05
843.99827	12325.65
847.8332	12308.55
851.66546	12335.05
855.49504	12335.05
859.32195	12356.85
863.1462	12335.75
866.96777	12312.15
870.78668	12317.45
874.60293	12337.45
878.41652	12339.95
882.22745	12410.65
886.03573	12477.35
889.84136	12505.45
893.64433	12450.75
897.44466	12424.95
901.24235	12401.35
905.0374	12387.85
908.8298	12325.85
912.61957	12299.45
916.40671	12335.15
920.19121	12470.75
923.97308	12599.05
927.75233	12680.15
931.52895	12643.05
935.30295	12436.15
939.07433	12198.65
942.84309	12030.95
946.60924	11937.85
950.37278	11895.55
954.13371	11886.85
957.89203	11880.85
961.64774	11857.35
965.40086	11885.15
969.15137	11848.45
972.89929	11829.35
976.64461	11809.35
980.38733	11807.15
984.12747	11830.45
987.86502	11876.05
991.59999	11925.95
995.33237	12036.15
999.06217	12229.35
1002.78939	12476.45
1006.51404	12755.55
1010.23611	13000.85
1013.95561	13148.85
1017.67255	13157.15
1021.38692	13036.05
1025.09872	12840.85
1028.80796	12669.65
1032.51465	12637.55
1036.21877	12651.05
1039.92035	12725.25
1043.61937	12767.55
1047.31584	12743.55
1051.00976	12733.45
1054.70114	12727.85
1058.38998	12752.45
1062.07627	12846.35
1065.76003	12936.15
1069.44126	13108.15
1073.11995	13303.65
1076.79611	13586.25
1080.46974	13745.95
1084.14085	13870.85
1087.80943	14017.85
1091.47549	14132.45
1095.13903	14128.95
1098.80005	13892.35
1102.45857	13580.85
1106.11456	13365.35
1109.76805	13264.85
1113.41903	13312.85
1117.06751	13417.35
1120.71348	13588.15
1124.35696	13799.35
1127.99793	13961.65
1131.63641	14097.25
1135.2724	14022.55
1138.90589	13890.55
1142.5369	13835.85
1146.16542	13897.15
1149.79145	13945.65
1153.415	14031.05
1157.03607	14153.95
1160.65467	14394.05
1164.27079	14841.65
1167.88443	15487.35
1171.49561	16323.25
1175.10432	17494.25
1178.71056	18971.15
1182.31434	20278.55
1185.91565	20917.05
1189.51451	20808.35
1193.11091	20233.55
1196.70485	19449.95
1200.29634	18558.55
1203.88538	17904.85
1207.47197	17322.45
1211.05612	16934.75
1214.63782	16598.35
1218.21708	16320.25
1221.79391	16157.35
1225.36829	16120.15
1228.94024	16051.65
1232.50976	15842.85
1236.07685	15562.35
1239.6415	15350.15
1243.20374	15285.45
1246.76355	15310.65
1250.32093	15433.35
1253.8759	15678.05
1257.42845	16126.95
1260.97859	16623.65
1264.52631	17200.75
1268.07163	17739.55
1271.61453	18289.95
1275.15503	18721.95
1278.69312	19135.45
1282.22882	19658.75
1285.76211	20288.35
1289.29301	21040.85
1292.82151	21898.75
1296.34761	22819.15
1299.87133	23967.15
1303.39266	25208.15
1306.9116	26469.15
1310.42815	27554.75
1313.94233	28094.35
1317.45412	27779.55
1320.96354	26960.15
1324.47058	26067.55
1327.97525	25344.55
1331.47754	24835.85
1334.97747	24494.55
1338.47502	24243.95
1341.97022	24172.65
1345.46305	24142.25
1348.95352	24292.45
1352.44163	24749.05
1355.92738	25675.05
1359.41078	27163.95
1362.89183	28668.25
1366.37053	28707.75
1369.84688	26499.65
1373.32088	23463.25
1376.79254	21319.75
1380.26186	20305.95
1383.72883	19909.65
1387.19347	19638.35
1390.65578	19286.05
1394.11575	19032.45
1397.57339	19022.55
1401.0287	19113.75
1404.48168	19159.95
1407.93234	19085.75
1411.38068	18855.55
1414.82669	18522.85
1418.27039	18037.55
1421.71177	17617.35
1425.15083	17224.25
1428.58758	17046.35
1432.02203	17139.45
1435.45416	17389.65
1438.88399	17704.95
1442.31151	17899.75
1445.73673	18010.35
1449.15965	18105.45
1452.58027	18136.25
1455.9986	18110.45
1459.41463	18213.55
1462.82837	18481.25
1466.23982	18891.95
1469.64898	19271.65
1473.05586	19530.95
1476.46045	19654.75
1479.86276	19775.15
1483.26279	19834.95
1486.66054	19981.75
1490.05602	20292.85
1493.44922	20735.15
1496.84016	21217.15
1500.22882	21859.35
1503.61521	22712.95
1506.99934	23590.15
1510.38121	24206.05
1513.76081	24246.85
1517.13816	23526.85
1520.51324	22414.95
1523.88607	21495.05
1527.25665	20926.65
1530.62498	20589.05
1533.99105	20298.55
1537.35488	19869.15
1540.71647	19331.45
1544.07581	18779.65
1547.4329	18341.05
1550.78776	18026.95
1554.14038	17868.35
1557.49077	17825.05
1560.83892	17931.35
1564.18484	18043.75
1567.52853	18249.15
1570.86999	18458.45
1574.20922	18748.55
1577.54624	18940.25
1580.88103	18772.25
1584.2136	18641.95
1587.54395	18878.35
1590.87208	19523.85
1594.19801	20562.25
1597.52172	21615.55
1600.84321	21857.85
1604.16251	20921.05
1607.47959	19462.65
1610.79447	17929.25
1614.10715	16565.05
1617.41763	15491.15
1620.7259	14759.85
1624.03199	14422.95
1627.33587	14462.55
1630.63757	14848.85
1633.93707	15732.75
1637.23439	17260.55
1640.52951	19491.75
1643.82246	22252.35
1647.11321	24488.35
1650.40179	24918.45
1653.68819	23187.15
1656.97241	20115.75
1660.25446	17162.85
1663.53433	15074.05
1666.81203	13789.15
1670.08756	13016.65
1673.36092	12562.95
1676.63211	12260.75
1679.90115	12027.45
1683.16801	11856.45
1686.43272	11752.25
1689.69527	11614.65
1692.95567	11492.35
1696.2139	11295.85
1699.46999	11168.65
1702.72392	11122.35
1705.97571	11169.95
1709.22535	11227.65
1712.47284	11282.35
1715.71819	11307.95
1718.96139	11294.05
1722.20246	11255.25
1725.44139	11189.45
1728.67818	11105.35
1731.91284	11034.25
1735.14537	10982.65
1738.37576	10914.15
1741.60403	10880.15
1744.83017	10821.15
1748.05418	10757.65
1751.27607	10722.15
1754.49584	10638.65
1757.71349	10579.95
1760.92903	10568.85
1764.14244	10548.75
1767.35375	10548.75
1770.56294	10493.35
1773.77002	10501.35
1776.97499	10528.45
1780.17785	10555.85
1783.37861	10575.95
1786.57727	10573.55
1789.77382	10555.85
1792.96828	10552.15
1796.16064	10523.45
1799.3509	10520.65
1802.53907	10480.35
1805.72514	10481.65
1808.90913	10458.85
1812.09102	10433.25
1815.27083	10421.95
1818.44856	10421.85
1821.6242	10389.05
1824.79776	10398.35
1827.96924	10421.85
1831.13864	10423.15
1834.30597	10405.35
1837.47122	10407.25
1840.6344	10386.65
1843.7955	10406.15
1846.95454	10398.75
1850.11151	10384.85
1853.26642	10393.55
1856.41926	10376.85
1859.57004	10349.15
1862.71876	10366.65
1865.86542	10336.25
1869.01003	10301.15
1872.15258	10300.95
1875.29308	10290.45
1878.43152	10278.45
1881.56792	10278.85
1884.70227	10280.15
1887.83457	10290.25
1890.96482	10240.95
1894.09304	10218.05
1897.21921	10215.05
1900.34335	10201.25
1903.46544	10178.55
1906.58551	10178.05
1909.70353	10170.35
1912.81953	10146.55
1915.93349	10140.35
1919.04543	10106.05
1922.15534	10107.05
1925.26322	10073.65
1928.36908	10049.85
1931.47292	10038.55
1934.57473	10004.25
1937.67453	9946.95
1940.77232	9956.65
1943.86808	9933.85
1946.96184	9885.85
1950.05358	9886.25
1953.14331	9845.15
1956.23103	9813.15
1959.31675	9790.75
1962.40046	9759.45
1965.48217	9734.95
1968.56188	9708.65
1971.63959	9680.45
1974.7153	9671.05
1977.78901	9621.35
1980.86073	9576.05
1983.93046	9550.05
1986.99819	9516.55
1990.06394	9516.35
1993.1277	9478.75
1996.18947	9460.85
1999.24925	9402.65
2002.30706	9379.95
2005.36288	9354.25
2008.41672	9339.45
2011.46859	9306.85
2014.51848	9301.85
2017.56639	9275.45
2020.61233	9235.25
2023.6563	9213.95
2026.6983	9196.25
2029.73833	9196.65
2032.7764	9172.15
2035.8125	9144.95
2038.84664	9138.85
2041.87881	9126.85
2044.90903	9082.15
2047.93729	9087.85
2050.96359	9104.35
2053.98794	9051.65
2057.01034	9068.05
2060.03078	9066.25
2063.04927	9030.85
2066.06582	9053.95
2069.08042	9048.25
2072.09307	9068.35
2075.10378	9036.15
2078.11255	9054.95
2081.11938	9063.45
2084.12426	9083.05
2087.12722	9066.45
2090.12824	9050.85
2093.12732	9070.25
2096.12447	9073.45
2099.11969	9082.55
2102.11299	9096.95
2105.10435	9092.65
2108.09379	9081.35
2111.08131	9096.15
2114.0669	9122.65
2117.05057	9107.65
2120.03233	9125.45
2123.01216	9133.75
2125.99008	9132.65
2128.96609	9157.25
2131.94018	9161.45
2134.91236	9162.45
2137.88263	9141.75
2140.851	9163.15
2143.81746	9168.95
2146.78201	9151.25
2149.74466	9170.75
2152.7054	9134.15
2155.66425	9146.65
2158.6212	9139.15
2161.57625	9122.15
2164.52941	9161.05
2167.48067	9124.75
2170.43004	9122.85
2173.37752	9107.45
2176.32311	9118.75
2179.26681	9104.15
2182.20863	9114.25
2185.14856	9106.65
2188.08661	9099.05
2191.02278	9101.65
2193.95707	9089.05
2196.88948	9080.35
2199.82001	9076.45
2202.74867	9077.85
2205.67545	9071.25
2208.60037	9040.15
2211.52341	9025.75
2214.44458	9031.65
2217.36388	8992.35
2220.28132	8979.65
2223.1969	8959.65
2226.11061	8939.15
2229.02246	8957.75
2231.93245	8928.75
2234.84058	8918.65
2237.74686	8930.35
2240.65128	8925.95
2243.55385	8887.95
2246.45456	8881.05
2249.35343	8906.65
2252.25044	8876.85
2255.14561	8854.95
2258.03893	8832.45
2260.93041	8817.05
2263.82004	8793.05
2266.70783	8800.95
2269.59378	8756.65
2272.4779	8742.75
2275.36017	8737.95
2278.24061	8723.85
2281.11922	8717.35
2283.996	8695.75
2286.87094	8682.65
2289.74405	8683.95
2292.61534	8668.75
2295.4848	8636.45
2298.35243	8645.85
2301.21824	8632.55
2304.08223	8647.95
2306.94439	8639.85
2309.80474	8627.35
2312.66327	8615.55
2315.51999	8613.75
2318.37489	8620.95
2321.22797	8583.75
2324.07925	8595.75
2326.92871	8568.95
2329.77637	8567.25
2332.62222	8540.15
2335.46626	8541.35
2338.3085	8538.55
2341.14893	8559.15
2343.98756	8531.85
2346.8244	8523.95
2349.65943	8541.45
2352.49267	8528.85
2355.32411	8536.45
2358.15376	8523.65
2360.98161	8522.15
2363.80768	8531.95
2366.63195	8519.65
2369.45444	8528.55
2372.27514	8514.85
2375.09405	8510.95
2377.91118	8490.15
2380.72652	8478.35
2383.54009	8458.35
2386.35187	8462.25
2389.16188	8431.75
2391.97011	8420.45
2394.77657	8391.05
2397.58125	8367.45
2400.38416	8377.15
2403.18529	8354.05
2405.98466	8339.55
2408.78226	8350.25
2411.57809	8320.65
2414.37216	8296.75
2417.16446	8311.25
2419.955	8299.15
2422.74378	8325.35
2425.5308	8311.85
2428.31606	8298.35
2431.09956	8283.65
2433.88131	8293.05
2436.6613	8275.95
2439.43954	8262.05
2442.21603	8281.25
2444.99077	8268.65
2447.76377	8273.45
2450.53501	8282.05
2453.30451	8267.25
2456.07226	8275.25
2458.83827	8276.45
2461.60254	8261.85
2464.36507	8258.75
2467.12586	8248.85
2469.88492	8251.15
2472.64224	8249.15
2475.39782	8248.35
2478.15167	8235.35
2480.90379	8238.35
2483.65417	8240.25
2486.40283	8251.75
2489.14976	8282.95
2491.89497	8254.65
2494.63845	8255.75
2497.3802	8241.75
2500.12024	8230.15
2502.85855	8211.95
2505.59514	8222.85
2508.33002	8204.35
2511.06318	8204.25
2513.79462	8195.05
2516.52435	8164.85
2519.25237	8174.85
2521.97867	8179.85
2524.70327	8152.05
2527.42616	8157.25
2530.14734	8184.05
2532.86681	8162.05
2535.58458	8147.85
2538.30065	8135.35
2541.01501	8150.35
2543.72768	8099.45
2546.43864	8120.75
2549.14791	8084.65
2551.85548	8089.95
2554.56136	8067.95
2557.26554	8098.15
2559.96803	8071.75
2562.66883	8098.65
2565.36794	8074.65
2568.06536	8073.05
2570.7611	8055.15
2573.45514	8050.15
2576.14751	8057.65
2578.83819	8025.85
2581.52719	7999.85
2584.21451	8000.85
2586.90015	7984.75
2589.58411	7969.05
2592.2664	7978.05
2594.94701	7975.15
2597.62594	7972.45
2600.30321	7964.05
2602.9788	7932.45
2605.65273	7946.95
2608.32498	7941.75
2610.99557	7914.85
2613.66449	7945.65
2616.33175	7937.65
2618.99734	7927.75
2621.66128	7915.25
2624.32355	7895.25
2626.98416	7899.05
2629.64311	7884.05
2632.30041	7858.65
2634.95605	7836.85
2637.61004	7867.15
2640.26238	7885.85
2642.91306	7846.65
2645.56209	7843.55
2648.20948	7829.15
2650.85521	7839.95
2653.4993	7856.05
2656.14175	7836.25
2658.78255	7859.95
2661.42171	7868.55
2664.05923	7875.55
2666.6951	7883.75
2669.32934	7884.45
2671.96194	7885.15
2674.59291	7916.15
2677.22224	7904.05
2679.84993	7894.75
2682.476	7877.55
2685.10043	7884.35
2687.72324	7870.25
2690.34441	7872.55
2692.96396	7874.85
2695.58188	7870.85
2698.19818	7865.25
2700.81285	7878.05
2703.4259	7858.45
2706.03733	7781.65
2708.64714	7821.85
2711.25533	7859.55
2713.86191	7879.95
2716.46687	7906.25
2719.07021	7893.05
2721.67194	7916.55
2724.27206	7897.45
2726.87057	7915.55
2729.46747	7919.85
2732.06276	7947.35
2734.65644	7942.35
2737.24852	7932.75
2739.83899	7909.15
2742.42786	7911.85
2745.01513	7914.05
2747.60079	7915.45
2750.18486	7890.85
2752.76733	7886.35
2755.3482	7861.45
2757.92747	7885.65
2760.50515	7871.95
2763.08123	7841.95
2765.65573	7870.75
2768.22863	7851.25
2770.79994	7845.95
2773.36967	7842.55
2775.9378	7848.85
2778.50435	7851.95
2781.06932	7828.05
2783.6327	7832.65
2786.1945	7834.15
2788.75471	7820.35
2791.31335	7829.85
2793.87041	7798.05
2796.42589	7791.05
2798.97979	7790.85
2801.53212	7767.65
2804.08288	7740.45
2806.63206	7742.45
2809.17967	7737.75
2811.72571	7707.85
2814.27018	7689.25
2816.81308	7692.45
2819.35442	7677.75
2821.89419	7654.15
2824.43239	7672.35
2826.96904	7651.35
2829.50412	7660.05
2832.03763	7649.75
2834.56959	7644.15
2837.1	7644.75
2839.62884	7633.75
2842.15613	7630.35
2844.68186	7644.75
2847.20604	7636.95
2849.72867	7652.95
2852.24974	7626.95
2854.76927	7640.85
2857.28724	7597.75
2859.80367	7617.95
2862.31855	7615.95
2864.83189	7614.85
2867.34368	7625.15
2869.85393	7631.45
2872.36264	7645.05
2874.8698	7649.75
2877.37543	7625.75
2879.87952	7628.45
2882.38207	7661.85
2884.88308	7626.55
2887.38256	7663.15
2889.88051	7636.45
2892.37692	7642.75
2894.8718	7640.15
2897.36515	7657.75
2899.85698	7671.85
2902.34727	7659.05
2904.83604	7688.95
2907.32328	7702.55
2909.809	7683.95
2912.29319	7684.25
2914.77587	7711.55
2917.25702	7679.25
2919.73665	7688.65
2922.21476	7691.75
2924.69136	7681.45
2927.16644	7703.65
2929.64	7675.35
2932.11205	7668.65
2934.58258	7630.05
2937.05161	7656.35
2939.51912	7634.25
2941.98513	7636.85
2944.44962	7608.75
2946.91261	7582.95
2949.37409	7606.05
2951.83407	7587.25
2954.29254	7585.65
2956.74951	7586.45
2959.20498	7549.45
2961.65895	7547.75
2964.11142	7548.85
2966.56239	7534.15
2969.01186	7537.35
2971.45984	7507.25
2973.90632	7517.95
2976.35131	7488.35
2978.7948	7495.85
2981.23681	7493.35
2983.67732	7451.55
2986.11635	7439.85
2988.55388	7415.55
2990.98993	7412.85
2993.4245	7367.35
2995.85758	7369.55
2998.28917	7346.25
3000.71928	7338.55
3003.14791	7329.65
3005.57506	7333.95
3008.00073	7311.05
3010.42493	7278.25
3012.84764	7297.85
3015.26888	7277.85
3017.68865	7258.75
3020.10694	7268.55
3022.52376	7250.75
3024.9391	7242.65
3027.35298	7219.85
3029.76539	7237.75
3032.17632	7225.25
3034.5858	7212.95
3036.9938	7205.65
3039.40034	7198.55
3041.80542	7202.05
3044.20903	7186.25
3046.61118	7168.35
3049.01187	7178.45
3051.4111	7173.75
3053.80888	7169.25
3056.20519	7139.75
3058.60005	7125.25
3060.99345	7111.05
3063.3854	7120.05
3065.7759	7113.75
3068.16494	7091.35
3070.55254	7074.55
3072.93868	7051.25
3075.32338	7035.55
3077.70662	7015.65
3080.08842	7002.25
3082.46878	6990.35
3084.84769	7002.65
3087.22515	6994.05
3089.60118	7002.25
3091.97576	7008.15
3094.3489	7004.65
3096.72061	7017.95
3099.09087	7003.85
3101.4597	7013.15
3103.82709	7017.55
3106.19305	6993.85
3108.55757	7005.55
3110.92066	6995.75
3113.28232	6980.55
3115.64255	6959.85
3118.00134	6959.65
3120.35871	6936.25
3122.71466	6952.15
3125.06917	6928.15
3127.42226	6923.75
3129.77393	6912.75
3132.12417	6936.55
3134.47299	6925.05
3136.82039	6928.05
3139.16636	6935.75
3141.51092	6933.15
3143.85406	6922.65
3146.19579	6912.85
3148.53609	6927.35
3150.87499	6952.45
3153.21246	6958.85
3155.54853	6976.95
3157.88318	6969.05
3160.21642	6965.55
3162.54826	6959.35
3164.87868	6982.75
3167.2077	6972.35
3169.5353	6974.25
3171.86151	6976.55
3174.18631	6968.35
3176.5097	6969.75
3178.83169	6961.35
3181.15228	6967.75
3183.47147	6947.65
3185.78926	6934.05
3188.10565	6927.45
3190.42065	6929.65
3192.73424	6944.35
3195.04645	6947.85
3197.35725	6935.35
3199.66667	6933.55
3201.97469	6942.65
3204.28132	6949.55
3206.58656	6975.15
3208.8904	6941.95
3211.19287	6946.15
3213.49394	6961.55
3215.79363	6955.55
3218.09193	6954.15
3220.38884	6954.65
3222.68438	6934.25
3224.97853	6940.55
3227.2713	6954.05
3229.56269	6946.55
3231.8527	6969.95
3234.14133	6962.85
3236.42858	6949.65
3238.71446	6922.75
3240.99896	6910.05
3243.28209	6909.25
3245.56384	6905.15
3247.84423	6902.55
3250.12324	6889.15
3252.40088	6905.85
3254.67715	6897.65
3256.95205	6884.95
3259.22558	6903.15
3261.49775	6901.55
3263.76855	6876.15
3266.03799	6874.85
3268.30606	6847.25
3270.57277	6867.95
3272.83812	6840.05
3275.10211	6819.15
3277.36474	6800.25
3279.62601	6808.75
3281.88593	6820.45
3284.14448	6819.45
3286.40168	6836.85
3288.65753	6809.75
3290.91202	6840.95
3293.16516	6797.55
3295.41695	6793.45
3297.66738	6765.45
3299.91647	6718.55
3302.16421	6699.65
3304.4106	6659.85
3306.65564	6617.75
3308.89933	6573.55
3311.14169	6520.35
3313.38269	6447.95
3315.62236	6424.25
3317.86068	6369.75
3320.09766	6326.05
3322.3333	6294.55
3324.5676	6273.15
3326.80056	6164.35
3329.03219	6110.55
3331.26248	2.25
3333.49143	-1.65
3335.71905	-0.05
