Data from AgNPs_FTO_APTES_UA_50uM_CRN_2uM_R6G_10uM_NaF_0.1M_Addition_RamanShift__29__12-27-54-798.txt Node

Date: Mon Feb 21 12:27:54 GMT 2022
User: TCL
Spectrometer: QEP01345
Trigger mode: 4
Integration Time (sec): 7.000000E0
Scans to average: 10
Electric dark correction enabled: true
Nonlinearity correction enabled: false
Boxcar width: 0
XAxis mode: Raman Shifts
Number of Pixels in Spectrum: 1044
>>>>>Begin Spectral Data<<<<<
46.04893	0.75
50.45542	-1.25
54.85868	0.55
59.25871	-1.65
63.6555	48.65
68.04907	56.45
72.43941	59.65
76.82654	65.35
81.21044	65.35
85.59113	68.35
89.96862	69.05
94.34289	75.25
98.71396	73.35
103.08183	79.25
107.4465	78.55
111.80798	78.05
116.16626	79.85
120.52136	79.15
124.87327	85.45
129.222	83.35
133.56755	89.05
137.90993	94.95
142.24913	97.95
146.58517	108.75
150.91804	121.25
155.24774	139.55
159.57429	164.25
163.89768	206.45
168.21792	279.25
172.53501	372.45
176.84895	507.25
181.15975	711.35
185.46741	986.45
189.77193	1352.75
194.07331	1813.95
198.37157	2325.35
202.6667	2858.55
206.9587	3407.05
211.24758	3950.65
215.53334	4517.75
219.81599	5149.35
224.09553	5851.15
228.37195	6660.85
232.64527	7554.75
236.91549	8410.75
241.18261	9256.95
245.44663	9972.05
249.70755	10570.35
253.96539	11020.65
258.22014	11408.35
262.4718	11735.25
266.72039	11939.55
270.96589	12045.05
275.20832	12008.75
279.44768	11892.15
283.68397	11719.45
287.91719	11626.65
292.14735	11612.45
296.37445	11852.35
300.59849	12270.05
304.81948	12755.05
309.03742	13104.55
313.25231	13076.65
317.46415	12482.85
321.67296	11589.45
325.87872	10862.35
330.08145	10515.35
334.28114	10523.65
338.47781	10681.85
342.67145	11026.45
346.86207	11485.35
351.04966	12127.65
355.23424	12914.35
359.4158	13556.75
363.59435	13823.65
367.76989	13934.55
371.94243	13896.15
376.11196	13796.15
380.27849	13711.15
384.44203	13576.95
388.60257	13370.95
392.76012	13296.95
396.91468	13435.45
401.06626	13780.45
405.21485	14054.15
409.36047	13819.55
413.50311	13183.65
417.64277	12508.85
421.77947	12153.05
425.9132	11969.75
430.04396	11942.25
434.17176	12002.25
438.2966	12183.15
442.41849	12458.35
446.53742	12842.15
450.6534	13185.75
454.76644	13448.15
458.87653	13503.45
462.98368	13380.55
467.08789	13155.05
471.18916	12823.95
475.2875	12505.05
479.38291	12229.55
483.4754	12033.45
487.56496	11879.75
491.6516	11831.65
495.73531	11800.15
499.81612	11825.85
503.89401	11949.65
507.96899	12083.35
512.04106	12254.15
516.11023	12458.95
520.1765	12560.25
524.23987	12502.35
528.30034	12328.25
532.35792	12097.85
536.41261	11848.05
540.46441	11568.65
544.51333	11451.25
548.55936	11553.85
552.60252	11808.95
556.64279	12079.15
560.6802	12200.65
564.71473	12372.15
568.7464	12892.45
572.7752	13207.05
576.80114	12897.85
580.82422	12625.25
584.84444	12513.35
588.86181	12465.75
592.87633	12511.45
596.888	12621.85
600.89682	13080.95
604.9028	14613.95
608.90594	18593.35
612.90624	23687.15
616.90371	22610.15
620.89834	16086.75
624.89015	13038.25
628.87913	12537.25
632.86528	12601.75
636.84862	12773.95
640.82913	12545.85
644.80683	11987.75
648.78172	11582.95
652.75379	11599.05
656.72306	12101.35
660.68952	12702.55
664.65319	12577.65
668.61405	11939.35
672.57211	11631.25
676.52738	11610.65
680.47986	11583.45
684.42955	11457.65
688.37646	11447.15
692.32058	11530.95
696.26192	11631.55
700.20048	11825.05
704.13626	11947.45
708.06928	11919.85
711.99952	11818.45
715.927	11748.55
719.85171	11774.05
723.77365	11795.65
727.69284	11654.85
731.60928	11553.85
735.52295	11525.35
739.43388	11572.85
743.34206	11661.45
747.24749	11785.55
751.15017	11894.05
755.05012	12175.45
758.94733	12773.75
762.8418	14126.25
766.73354	16422.15
770.62254	18721.25
774.50882	19838.55
778.39237	19025.25
782.27321	16543.75
786.15132	14104.05
790.02671	12693.25
793.89938	12116.25
797.76935	11862.85
801.6366	11773.15
805.50115	11691.85
809.36299	11657.35
813.22213	11606.25
817.07857	11596.65
820.93231	11568.95
824.78336	11608.45
828.63172	11617.05
832.47738	11640.25
836.32036	11648.15
840.16066	11613.55
843.99827	11590.65
847.8332	11562.05
851.66546	11554.55
855.49504	11516.85
859.32195	11517.55
863.1462	11438.55
866.96777	11396.05
870.78668	11402.05
874.60293	11412.85
878.41652	11488.45
882.22745	11574.05
886.03573	11650.45
889.84136	11621.95
893.64433	11573.55
897.44466	11550.95
901.24235	11506.55
905.0374	11456.15
908.8298	11412.35
912.61957	11377.25
916.40671	11418.55
920.19121	11534.55
923.97308	11660.35
927.75233	11794.55
931.52895	11872.05
935.30295	11729.75
939.07433	11415.65
942.84309	11168.15
946.60924	11025.65
950.37278	10975.65
954.13371	10882.65
957.89203	10824.45
961.64774	10813.15
965.40086	10781.25
969.15137	10787.65
972.89929	10745.95
976.64461	10725.45
980.38733	10730.65
984.12747	10786.05
987.86502	10828.95
991.59999	10922.25
995.33237	11100.45
999.06217	11415.35
1002.78939	11777.25
1006.51404	12084.65
1010.23611	12333.75
1013.95561	12522.05
1017.67255	12522.35
1021.38692	12365.55
1025.09872	12210.95
1028.80796	12185.65
1032.51465	12378.75
1036.21877	12615.25
1039.92035	12729.75
1043.61937	12687.95
1047.31584	12521.05
1051.00976	12320.25
1054.70114	12175.85
1058.38998	12171.35
1062.07627	12229.55
1065.76003	12302.45
1069.44126	12420.05
1073.11995	12533.35
1076.79611	12679.25
1080.46974	12885.55
1084.14085	13200.05
1087.80943	13489.05
1091.47549	13608.25
1095.13903	13374.55
1098.80005	12925.05
1102.45857	12559.05
1106.11456	12390.85
1109.76805	12429.95
1113.41903	12743.35
1117.06751	13155.75
1120.71348	13730.65
1124.35696	14377.65
1127.99793	14865.15
1131.63641	14680.15
1135.2724	14023.75
1138.90589	13443.25
1142.5369	13047.55
1146.16542	12783.15
1149.79145	12644.65
1153.415	12633.95
1157.03607	12749.75
1160.65467	12982.75
1164.27079	13430.75
1167.88443	14106.65
1171.49561	15182.75
1175.10432	16944.25
1178.71056	19248.85
1182.31434	21078.15
1185.91565	21627.05
1189.51451	21145.65
1193.11091	19894.45
1196.70485	18412.65
1200.29634	17344.65
1203.88538	16500.35
1207.47197	15563.35
1211.05612	14748.55
1214.63782	14307.65
1218.21708	14112.35
1221.79391	14127.75
1225.36829	14188.25
1228.94024	14286.25
1232.50976	14334.25
1236.07685	14340.85
1239.6415	14422.15
1243.20374	14450.85
1246.76355	14517.75
1250.32093	14688.45
1253.8759	15003.95
1257.42845	15465.15
1260.97859	15948.55
1264.52631	16358.35
1268.07163	16774.95
1271.61453	17189.45
1275.15503	17570.65
1278.69312	17861.85
1282.22882	18184.25
1285.76211	18592.15
1289.29301	19173.85
1292.82151	19755.85
1296.34761	20360.75
1299.87133	21399.85
1303.39266	23093.75
1306.9116	25637.25
1310.42815	28278.55
1313.94233	29387.25
1317.45412	28420.35
1320.96354	26422.75
1324.47058	24465.45
1327.97525	22828.15
1331.47754	22057.75
1334.97747	21924.95
1338.47502	22343.85
1341.97022	23054.05
1345.46305	23983.05
1348.95352	25001.25
1352.44163	26398.95
1355.92738	28732.95
1359.41078	32462.15
1362.89183	35472.85
1366.37053	33877.95
1369.84688	28996.25
1373.32088	24379.15
1376.79254	21406.25
1380.26186	19734.85
1383.72883	18816.65
1387.19347	18071.85
1390.65578	17436.95
1394.11575	16962.35
1397.57339	16781.85
1401.0287	16867.55
1404.48168	17173.35
1407.93234	17521.25
1411.38068	17924.75
1414.82669	18066.45
1418.27039	17864.45
1421.71177	17402.95
1425.15083	17015.25
1428.58758	16836.05
1432.02203	16899.45
1435.45416	16991.95
1438.88399	17001.85
1442.31151	16970.75
1445.73673	17025.15
1449.15965	17154.65
1452.58027	17110.05
1455.9986	16976.05
1459.41463	16937.45
1462.82837	17084.85
1466.23982	17432.25
1469.64898	17808.25
1473.05586	18121.65
1476.46045	18358.35
1479.86276	18686.95
1483.26279	19171.05
1486.66054	19720.05
1490.05602	20586.35
1493.44922	21688.55
1496.84016	23246.35
1500.22882	25512.75
1503.61521	28488.45
1506.99934	31633.45
1510.38121	33897.55
1513.76081	34090.95
1517.13816	31558.75
1520.51324	27660.75
1523.88607	24234.45
1527.25665	22042.95
1530.62498	20813.55
1533.99105	20069.45
1537.35488	19606.55
1540.71647	19360.85
1544.07581	19241.75
1547.4329	19218.35
1550.78776	19085.95
1554.14038	19003.95
1557.49077	19058.85
1560.83892	19272.45
1564.18484	19734.85
1567.52853	20292.45
1570.86999	20673.55
1574.20922	20917.35
1577.54624	20697.75
1580.88103	19699.95
1584.2136	18508.85
1587.54395	18045.65
1590.87208	18487.75
1594.19801	19644.05
1597.52172	21096.35
1600.84321	21717.95
1604.16251	21016.65
1607.47959	19670.05
1610.79447	18117.95
1614.10715	16706.95
1617.41763	15618.95
1620.7259	14959.95
1624.03199	14687.25
1627.33587	14701.45
1630.63757	15089.45
1633.93707	15852.45
1637.23439	17019.05
1640.52951	18592.05
1643.82246	20610.15
1647.11321	22842.25
1650.40179	24161.45
1653.68819	23142.65
1656.97241	20118.25
1660.25446	16953.65
1663.53433	14788.55
1666.81203	13517.85
1670.08756	12757.25
1673.36092	12322.35
1676.63211	12036.25
1679.90115	11787.95
1683.16801	11622.45
1686.43272	11510.85
1689.69527	11424.65
1692.95567	11310.65
1696.2139	11199.85
1699.46999	11048.15
1702.72392	11000.55
1705.97571	11107.25
1709.22535	11183.35
1712.47284	11236.05
1715.71819	11290.45
1718.96139	11255.15
1722.20246	11246.65
1725.44139	11178.05
1728.67818	11123.25
1731.91284	11059.55
1735.14537	10993.55
1738.37576	10945.25
1741.60403	10862.45
1744.83017	10864.25
1748.05418	10792.85
1751.27607	10722.45
1754.49584	10673.25
1757.71349	10607.55
1760.92903	10582.75
1764.14244	10563.15
1767.35375	10578.85
1770.56294	10537.65
1773.77002	10542.95
1776.97499	10572.75
1780.17785	10621.75
1783.37861	10614.25
1786.57727	10615.35
1789.77382	10611.25
1792.96828	10616.05
1796.16064	10609.35
1799.3509	10616.95
1802.53907	10587.95
1805.72514	10578.85
1808.90913	10528.45
1812.09102	10482.85
1815.27083	10493.75
1818.44856	10484.75
1821.6242	10495.65
1824.79776	10463.95
1827.96924	10455.65
1831.13864	10445.65
1834.30597	10459.95
1837.47122	10435.05
1840.6344	10431.75
1843.7955	10414.55
1846.95454	10406.75
1850.11151	10423.85
1853.26642	10411.55
1856.41926	10401.65
1859.57004	10408.65
1862.71876	10439.55
1865.86542	10422.15
1869.01003	10412.35
1872.15258	10408.35
1875.29308	10426.15
1878.43152	10443.55
1881.56792	10463.25
1884.70227	10461.15
1887.83457	10465.45
1890.96482	10468.75
1894.09304	10426.65
1897.21921	10447.85
1900.34335	10449.45
1903.46544	10466.55
1906.58551	10451.25
1909.70353	10466.65
1912.81953	10475.55
1915.93349	10447.65
1919.04543	10443.95
1922.15534	10439.45
1925.26322	10411.95
1928.36908	10385.25
1931.47292	10365.45
1934.57473	10303.95
1937.67453	10296.25
1940.77232	10250.55
1943.86808	10210.35
1946.96184	10185.95
1950.05358	10131.95
1953.14331	10083.65
1956.23103	10058.05
1959.31675	10029.65
1962.40046	10010.75
1965.48217	9982.05
1968.56188	9992.55
1971.63959	9956.15
1974.7153	9914.55
1977.78901	9885.85
1980.86073	9865.95
1983.93046	9816.55
1986.99819	9769.45
1990.06394	9746.65
1993.1277	9719.55
1996.18947	9703.05
1999.24925	9680.05
2002.30706	9640.65
2005.36288	9611.95
2008.41672	9588.15
2011.46859	9534.25
2014.51848	9539.45
2017.56639	9518.75
2020.61233	9461.45
2023.6563	9458.15
2026.6983	9427.95
2029.73833	9411.95
2032.7764	9395.25
2035.8125	9398.85
2038.84664	9383.05
2041.87881	9350.15
2044.90903	9330.45
2047.93729	9324.45
2050.96359	9334.25
2053.98794	9321.45
2057.01034	9302.95
2060.03078	9285.65
2063.04927	9279.85
2066.06582	9258.15
2069.08042	9251.05
2072.09307	9244.55
2075.10378	9243.55
2078.11255	9235.15
2081.11938	9222.65
2084.12426	9229.05
2087.12722	9214.45
2090.12824	9228.05
2093.12732	9248.85
2096.12447	9233.25
2099.11969	9223.55
2102.11299	9217.85
2105.10435	9223.65
2108.09379	9224.65
2111.08131	9246.75
2114.0669	9247.25
2117.05057	9237.95
2120.03233	9252.65
2123.01216	9268.45
2125.99008	9276.35
2128.96609	9283.95
2131.94018	9297.85
2134.91236	9284.95
2137.88263	9292.15
2140.851	9296.25
2143.81746	9298.35
2146.78201	9304.25
2149.74466	9313.85
2152.7054	9321.95
2155.66425	9292.15
2158.6212	9287.55
2161.57625	9257.05
2164.52941	9301.55
2167.48067	9279.35
2170.43004	9281.25
2173.37752	9286.35
2176.32311	9274.95
2179.26681	9283.75
2182.20863	9278.65
2185.14856	9299.35
2188.08661	9278.45
2191.02278	9308.35
2193.95707	9273.35
2196.88948	9270.35
2199.82001	9259.95
2202.74867	9246.25
2205.67545	9256.45
2208.60037	9240.65
2211.52341	9259.15
2214.44458	9213.75
2217.36388	9206.15
2220.28132	9204.65
2223.1969	9185.35
2226.11061	9163.55
2229.02246	9138.85
2231.93245	9130.25
2234.84058	9098.75
2237.74686	9080.55
2240.65128	9098.15
2243.55385	9074.95
2246.45456	9067.25
2249.35343	9056.25
2252.25044	9070.35
2255.14561	9047.65
2258.03893	9079.35
2260.93041	9030.75
2263.82004	9016.35
2266.70783	9015.95
2269.59378	8982.85
2272.4779	8974.45
2275.36017	8960.55
2278.24061	8936.05
2281.11922	8901.25
2283.996	8892.85
2286.87094	8887.25
2289.74405	8869.75
2292.61534	8837.25
2295.4848	8831.95
2298.35243	8838.95
2301.21824	8818.75
2304.08223	8844.45
2306.94439	8820.45
2309.80474	8830.05
2312.66327	8849.95
2315.51999	8813.95
2318.37489	8824.65
2321.22797	8814.65
2324.07925	8814.05
2326.92871	8814.15
2329.77637	8801.25
2332.62222	8789.45
2335.46626	8780.95
2338.3085	8777.75
2341.14893	8777.75
2343.98756	8803.55
2346.8244	8812.15
2349.65943	8797.55
2352.49267	8784.55
2355.32411	8809.15
2358.15376	8827.55
2360.98161	8808.65
2363.80768	8838.25
2366.63195	8840.25
2369.45444	8797.05
2372.27514	8813.55
2375.09405	8791.35
2377.91118	8771.45
2380.72652	8733.95
2383.54009	8699.85
2386.35187	8680.15
2389.16188	8632.85
2391.97011	8637.95
2394.77657	8623.55
2397.58125	8612.25
2400.38416	8600.85
2403.18529	8547.45
2405.98466	8559.05
2408.78226	8543.15
2411.57809	8499.15
2414.37216	8509.95
2417.16446	8484.45
2419.955	8493.45
2422.74378	8485.55
2425.5308	8480.35
2428.31606	8456.95
2431.09956	8486.45
2433.88131	8425.85
2436.6613	8475.65
2439.43954	8478.95
2442.21603	8451.15
2444.99077	8454.75
2447.76377	8478.25
2450.53501	8455.85
2453.30451	8452.65
2456.07226	8450.85
2458.83827	8440.25
2461.60254	8447.25
2464.36507	8436.55
2467.12586	8438.25
2469.88492	8439.25
2472.64224	8395.65
2475.39782	8422.95
2478.15167	8428.95
2480.90379	8465.35
2483.65417	8471.55
2486.40283	8485.95
2489.14976	8490.05
2491.89497	8525.05
2494.63845	8497.35
2497.3802	8496.05
2500.12024	8493.35
2502.85855	8492.55
2505.59514	8473.45
2508.33002	8467.15
2511.06318	8419.45
2513.79462	8396.15
2516.52435	8384.95
2519.25237	8360.45
2521.97867	8341.25
2524.70327	8355.95
2527.42616	8356.05
2530.14734	8338.45
2532.86681	8337.35
2535.58458	8319.15
2538.30065	8325.45
2541.01501	8334.75
2543.72768	8322.05
2546.43864	8282.35
2549.14791	8291.15
2551.85548	8292.55
2554.56136	8280.65
2557.26554	8271.55
2559.96803	8258.25
2562.66883	8240.95
2565.36794	8239.15
2568.06536	8219.75
2570.7611	8220.35
2573.45514	8213.45
2576.14751	8201.95
2578.83819	8202.85
2581.52719	8191.55
2584.21451	8200.45
2586.90015	8190.65
2589.58411	8190.05
2592.2664	8162.15
2594.94701	8165.25
2597.62594	8142.85
2600.30321	8164.05
2602.9788	8150.55
2605.65273	8139.15
2608.32498	8136.15
2610.99557	8137.95
2613.66449	8133.95
2616.33175	8137.95
2618.99734	8170.95
2621.66128	8142.45
2624.32355	8124.55
2626.98416	8124.15
2629.64311	8116.65
2632.30041	8130.85
2634.95605	8112.75
2637.61004	8075.85
2640.26238	8070.05
2642.91306	8079.45
2645.56209	8032.85
2648.20948	8041.55
2650.85521	8032.95
2653.4993	8043.45
2656.14175	8048.05
2658.78255	8072.65
2661.42171	8053.85
2664.05923	8071.25
2666.6951	8070.65
2669.32934	8109.75
2671.96194	8113.45
2674.59291	8104.25
2677.22224	8112.05
2679.84993	8118.25
2682.476	8116.55
2685.10043	8135.15
2687.72324	8132.45
2690.34441	8106.85
2692.96396	8108.75
2695.58188	8114.15
2698.19818	8090.15
2700.81285	8102.35
2703.4259	8065.45
2706.03733	8004.65
2708.64714	8029.75
2711.25533	8084.15
2713.86191	8096.65
2716.46687	8107.95
2719.07021	8110.35
2721.67194	8123.15
2724.27206	8114.05
2726.87057	8151.85
2729.46747	8143.05
2732.06276	8153.95
2734.65644	8139.65
2737.24852	8135.95
2739.83899	8132.35
2742.42786	8146.25
2745.01513	8099.95
2747.60079	8110.95
2750.18486	8070.85
2752.76733	8086.25
2755.3482	8083.75
2757.92747	8089.35
2760.50515	8064.75
2763.08123	8061.55
2765.65573	8039.35
2768.22863	8046.95
2770.79994	8033.45
2773.36967	8038.05
2775.9378	8027.35
2778.50435	8050.25
2781.06932	8038.15
2783.6327	8040.95
2786.1945	8036.85
2788.75471	8024.15
2791.31335	8015.05
2793.87041	7990.65
2796.42589	8001.15
2798.97979	7983.05
2801.53212	7968.75
2804.08288	7994.15
2806.63206	7993.25
2809.17967	7979.05
2811.72571	7953.15
2814.27018	7953.65
2816.81308	7952.85
2819.35442	7956.85
2821.89419	7970.15
2824.43239	7942.35
2826.96904	7959.65
2829.50412	7942.35
2832.03763	7958.05
2834.56959	7951.05
2837.1	7955.65
2839.62884	7941.55
2842.15613	7941.05
2844.68186	7958.85
2847.20604	7982.75
2849.72867	7968.95
2852.24974	7961.65
2854.76927	7969.95
2857.28724	7940.75
2859.80367	7950.95
2862.31855	7933.15
2864.83189	7933.05
2867.34368	7922.85
2869.85393	7942.65
2872.36264	7917.85
2874.8698	7935.45
2877.37543	7927.35
2879.87952	7911.25
2882.38207	7901.15
2884.88308	7905.45
2887.38256	7907.35
2889.88051	7906.45
2892.37692	7887.25
2894.8718	7887.65
2897.36515	7911.05
2899.85698	7900.75
2902.34727	7904.95
2904.83604	7911.65
2907.32328	7917.65
2909.809	7930.25
2912.29319	7927.85
2914.77587	7923.95
2917.25702	7893.35
2919.73665	7901.75
2922.21476	7873.95
2924.69136	7877.25
2927.16644	7876.95
2929.64	7875.65
2932.11205	7849.35
2934.58258	7825.55
2937.05161	7842.05
2939.51912	7826.55
2941.98513	7821.05
2944.44962	7784.45
2946.91261	7746.35
2949.37409	7765.35
2951.83407	7752.75
2954.29254	7754.15
2956.74951	7729.05
2959.20498	7734.05
2961.65895	7744.15
2964.11142	7734.15
2966.56239	7698.85
2969.01186	7716.25
2971.45984	7697.65
2973.90632	7681.45
2976.35131	7646.05
2978.7948	7643.55
2981.23681	7637.25
2983.67732	7602.15
2986.11635	7577.75
2988.55388	7566.35
2990.98993	7559.35
2993.4245	7532.75
2995.85758	7500.05
2998.28917	7507.25
3000.71928	7496.15
3003.14791	7467.15
3005.57506	7460.75
3008.00073	7445.15
3010.42493	7443.25
3012.84764	7432.85
3015.26888	7422.35
3017.68865	7427.55
3020.10694	7410.65
3022.52376	7379.45
3024.9391	7374.65
3027.35298	7365.05
3029.76539	7349.85
3032.17632	7358.65
3034.5858	7337.85
3036.9938	7329.05
3039.40034	7300.15
3041.80542	7302.65
3044.20903	7290.45
3046.61118	7299.35
3049.01187	7268.25
3051.4111	7271.75
3053.80888	7260.45
3056.20519	7228.35
3058.60005	7204.25
3060.99345	7204.15
3063.3854	7182.15
3065.7759	7157.65
3068.16494	7133.85
3070.55254	7111.15
3072.93868	7081.25
3075.32338	7051.95
3077.70662	7035.25
3080.08842	7020.85
3082.46878	7021.25
3084.84769	6989.45
3087.22515	6989.65
3089.60118	6986.75
3091.97576	6982.25
3094.3489	6991.35
3096.72061	6970.45
3099.09087	6995.05
3101.4597	6991.25
3103.82709	6992.05
3106.19305	6982.45
3108.55757	6953.55
3110.92066	6917.55
3113.28232	6922.45
3115.64255	6914.65
3118.00134	6889.65
3120.35871	6890.25
3122.71466	6888.05
3125.06917	6862.85
3127.42226	6849.75
3129.77393	6871.15
3132.12417	6842.25
3134.47299	6848.25
3136.82039	6844.65
3139.16636	6821.65
3141.51092	6830.25
3143.85406	6839.75
3146.19579	6853.05
3148.53609	6853.65
3150.87499	6840.45
3153.21246	6856.45
3155.54853	6871.85
3157.88318	6857.25
3160.21642	6860.95
3162.54826	6851.15
3164.87868	6846.85
3167.2077	6857.25
3169.5353	6854.35
3171.86151	6842.25
3174.18631	6838.45
3176.5097	6828.25
3178.83169	6829.55
3181.15228	6836.45
3183.47147	6812.35
3185.78926	6818.05
3188.10565	6819.65
3190.42065	6840.65
3192.73424	6814.95
3195.04645	6813.75
3197.35725	6813.05
3199.66667	6809.55
3201.97469	6820.95
3204.28132	6816.45
3206.58656	6841.65
3208.8904	6834.25
3211.19287	6842.45
3213.49394	6839.95
3215.79363	6821.65
3218.09193	6859.95
3220.38884	6827.55
3222.68438	6800.05
3224.97853	6812.25
3227.2713	6823.75
3229.56269	6830.05
3231.8527	6812.05
3234.14133	6804.35
3236.42858	6795.65
3238.71446	6778.75
3240.99896	6759.75
3243.28209	6773.05
3245.56384	6740.25
3247.84423	6750.15
3250.12324	6745.55
3252.40088	6731.95
3254.67715	6718.75
3256.95205	6715.95
3259.22558	6732.75
3261.49775	6718.65
3263.76855	6728.25
3266.03799	6701.45
3268.30606	6710.65
3270.57277	6686.95
3272.83812	6680.65
3275.10211	6667.25
3277.36474	6657.05
3279.62601	6670.45
3281.88593	6653.25
3284.14448	6637.65
3286.40168	6629.35
3288.65753	6647.05
3290.91202	6637.25
3293.16516	6629.85
3295.41695	6596.75
3297.66738	6559.75
3299.91647	6519.75
3302.16421	6500.15
3304.4106	6481.05
3306.65564	6417.25
3308.89933	6377.15
3311.14169	6325.65
3313.38269	6261.15
3315.62236	6209.55
3317.86068	6193.15
3320.09766	6116.75
3322.3333	6089.05
3324.5676	6065.15
3326.80056	5951.05
3329.03219	5918.35
3331.26248	1.05
3333.49143	-1.75
3335.71905	0.65
