Data from AgNPs_FTO_APTES_UA_50uM_CRN_100uM_R6G_10uM_NaF_0.1M_Addition_RamanShift__14__15-32-15-033.txt Node

Date: Mon Feb 21 15:32:15 GMT 2022
User: TCL
Spectrometer: QEP01345
Trigger mode: 4
Integration Time (sec): 7.000000E0
Scans to average: 10
Electric dark correction enabled: true
Nonlinearity correction enabled: false
Boxcar width: 0
XAxis mode: Raman Shifts
Number of Pixels in Spectrum: 1044
>>>>>Begin Spectral Data<<<<<
46.04893	0.45
50.45542	-1.15
54.85868	-0.05
59.25871	-2.05
63.6555	48.25
68.04907	51.55
72.43941	55.75
76.82654	61.15
81.21044	59.65
85.59113	61.15
89.96862	62.15
94.34289	68.75
98.71396	71.15
103.08183	74.35
107.4465	72.95
111.80798	75.75
116.16626	75.05
120.52136	75.65
124.87327	82.65
129.222	80.95
133.56755	84.25
137.90993	90.85
142.24913	100.95
146.58517	109.15
150.91804	120.55
155.24774	146.35
159.57429	178.75
163.89768	220.75
168.21792	293.05
172.53501	400.45
176.84895	561.45
181.15975	778.85
185.46741	1091.25
189.77193	1508.85
194.07331	2026.75
198.37157	2624.15
202.6667	3247.35
206.9587	3880.45
211.24758	4477.25
215.53334	5089.05
219.81599	5732.75
224.09553	6428.45
228.37195	7207.65
232.64527	8052.15
236.91549	8991.15
241.18261	9885.15
245.44663	10719.45
249.70755	11493.95
253.96539	12134.85
258.22014	12637.35
262.4718	13094.65
266.72039	13364.85
270.96589	13563.35
275.20832	13585.65
279.44768	13470.95
283.68397	13277.85
287.91719	13111.45
292.14735	13020.25
296.37445	12975.55
300.59849	13042.35
304.81948	13137.25
309.03742	13184.15
313.25231	13093.95
317.46415	12825.45
321.67296	12499.85
325.87872	12213.45
330.08145	12123.65
334.28114	12133.95
338.47781	12249.75
342.67145	12423.55
346.86207	12679.25
351.04966	12934.05
355.23424	13275.05
359.4158	13565.15
363.59435	13751.45
367.76989	13900.45
371.94243	14011.45
376.11196	14100.05
380.27849	14138.25
384.44203	14154.55
388.60257	14220.05
392.76012	14280.85
396.91468	14376.95
401.06626	14548.05
405.21485	14683.55
409.36047	14597.15
413.50311	14335.45
417.64277	14034.25
421.77947	13882.15
425.9132	13821.65
430.04396	13845.05
434.17176	13902.55
438.2966	13999.15
442.41849	14193.65
446.53742	14380.55
450.6534	14630.65
454.76644	14789.75
458.87653	14890.35
462.98368	14893.55
467.08789	14832.05
471.18916	14785.95
475.2875	14658.65
479.38291	14506.55
483.4754	14380.65
487.56496	14334.25
491.6516	14223.15
495.73531	14207.15
499.81612	14208.75
503.89401	14350.85
507.96899	14435.35
512.04106	14465.55
516.11023	14560.75
520.1765	14568.05
524.23987	14547.45
528.30034	14466.25
532.35792	14387.75
536.41261	14317.65
540.46441	14220.45
544.51333	14143.55
548.55936	14229.25
552.60252	14333.25
556.64279	14531.15
560.6802	14589.15
564.71473	14584.55
568.7464	14687.95
572.7752	14830.55
576.80114	14872.35
580.82422	14847.05
584.84444	14915.15
588.86181	14956.25
592.87633	15005.35
596.888	15056.05
600.89682	15232.55
604.9028	15953.55
608.90594	17678.15
612.90624	19766.35
616.90371	19005.25
620.89834	16070.05
624.89015	14705.45
628.87913	14446.45
632.86528	14576.05
636.84862	14719.05
640.82913	14664.65
644.80683	14413.55
648.78172	14187.35
652.75379	14151.75
656.72306	14358.25
660.68952	14613.35
664.65319	14602.75
668.61405	14397.35
672.57211	14374.45
676.52738	14513.65
680.47986	14567.85
684.42955	14466.35
688.37646	14351.25
692.32058	14290.45
696.26192	14345.25
700.20048	14421.85
704.13626	14444.85
708.06928	14415.25
711.99952	14364.75
715.927	14305.05
719.85171	14321.15
723.77365	14343.85
727.69284	14297.45
731.60928	14201.75
735.52295	14191.25
739.43388	14177.85
743.34206	14192.15
747.24749	14223.95
751.15017	14249.35
755.05012	14314.05
758.94733	14567.05
762.8418	15132.05
766.73354	16125.35
770.62254	17335.75
774.50882	17906.05
778.39237	17498.95
782.27321	16328.75
786.15132	15302.85
790.02671	14617.45
793.89938	14286.85
797.76935	14115.25
801.6366	14047.15
805.50115	13996.25
809.36299	13916.65
813.22213	13857.95
817.07857	13864.05
820.93231	13815.05
824.78336	13821.25
828.63172	13825.35
832.47738	13783.05
836.32036	13783.15
840.16066	13756.55
843.99827	13765.55
847.8332	13754.35
851.66546	13740.15
855.49504	13730.35
859.32195	13786.35
863.1462	13788.45
866.96777	13795.05
870.78668	13819.45
874.60293	13823.95
878.41652	13831.75
882.22745	13895.95
886.03573	13951.85
889.84136	13916.25
893.64433	13870.65
897.44466	13809.95
901.24235	13754.15
905.0374	13736.95
908.8298	13647.05
912.61957	13669.75
916.40671	13657.65
920.19121	13717.95
923.97308	13790.05
927.75233	13797.15
931.52895	13801.25
935.30295	13734.15
939.07433	13612.25
942.84309	13451.85
946.60924	13371.85
950.37278	13309.45
954.13371	13312.65
957.89203	13240.35
961.64774	13243.85
965.40086	13200.35
969.15137	13183.95
972.89929	13167.65
976.64461	13134.45
980.38733	13129.45
984.12747	13155.35
987.86502	13176.15
991.59999	13254.05
995.33237	13313.55
999.06217	13412.35
1002.78939	13523.15
1006.51404	13660.25
1010.23611	13797.75
1013.95561	13906.05
1017.67255	13933.15
1021.38692	13880.45
1025.09872	13793.55
1028.80796	13711.05
1032.51465	13691.65
1036.21877	13715.85
1039.92035	13769.05
1043.61937	13799.35
1047.31584	13789.15
1051.00976	13818.65
1054.70114	13823.45
1058.38998	13816.35
1062.07627	13881.45
1065.76003	13959.45
1069.44126	14033.75
1073.11995	14143.95
1076.79611	14286.55
1080.46974	14346.75
1084.14085	14485.05
1087.80943	14598.25
1091.47549	14651.35
1095.13903	14620.35
1098.80005	14494.75
1102.45857	14341.95
1106.11456	14217.45
1109.76805	14207.05
1113.41903	14244.35
1117.06751	14357.85
1120.71348	14507.85
1124.35696	14686.35
1127.99793	14896.65
1131.63641	14958.45
1135.2724	14787.55
1138.90589	14594.65
1142.5369	14467.65
1146.16542	14295.45
1149.79145	14208.65
1153.415	14210.05
1157.03607	14220.95
1160.65467	14362.85
1164.27079	14638.65
1167.88443	15067.35
1171.49561	15613.55
1175.10432	16407.75
1178.71056	17461.45
1182.31434	18483.75
1185.91565	18968.45
1189.51451	19019.25
1193.11091	18630.75
1196.70485	17966.15
1200.29634	17353.55
1203.88538	16817.75
1207.47197	16254.05
1211.05612	15711.05
1214.63782	15362.05
1218.21708	15103.75
1221.79391	15010.35
1225.36829	14973.85
1228.94024	14937.45
1232.50976	14875.05
1236.07685	14896.55
1239.6415	14864.15
1243.20374	14870.45
1246.76355	14943.15
1250.32093	15030.85
1253.8759	15133.75
1257.42845	15376.05
1260.97859	15661.45
1264.52631	15931.75
1268.07163	16186.75
1271.61453	16493.45
1275.15503	16728.85
1278.69312	16871.25
1282.22882	17012.05
1285.76211	17157.95
1289.29301	17432.15
1292.82151	17779.65
1296.34761	18156.15
1299.87133	18672.35
1303.39266	19402.75
1306.9116	20400.75
1310.42815	21455.05
1313.94233	21992.35
1317.45412	21845.15
1320.96354	21244.75
1324.47058	20565.35
1327.97525	19871.45
1331.47754	19505.65
1334.97747	19316.15
1338.47502	19333.75
1341.97022	19620.05
1345.46305	20108.95
1348.95352	20718.25
1352.44163	21438.65
1355.92738	22352.85
1359.41078	23530.55
1362.89183	24720.15
1366.37053	24333.95
1369.84688	22185.75
1373.32088	19762.35
1376.79254	18118.35
1380.26186	17241.55
1383.72883	16774.75
1387.19347	16433.35
1390.65578	16110.65
1394.11575	15783.35
1397.57339	15626.45
1401.0287	15605.05
1404.48168	15569.55
1407.93234	15557.35
1411.38068	15572.25
1414.82669	15514.15
1418.27039	15400.15
1421.71177	15269.65
1425.15083	15084.25
1428.58758	14936.35
1432.02203	14912.65
1435.45416	14987.15
1438.88399	15104.95
1442.31151	15174.85
1445.73673	15246.25
1449.15965	15331.45
1452.58027	15415.25
1455.9986	15391.05
1459.41463	15483.55
1462.82837	15620.05
1466.23982	15869.45
1469.64898	16099.85
1473.05586	16282.75
1476.46045	16426.65
1479.86276	16553.75
1483.26279	16627.25
1486.66054	16714.15
1490.05602	16939.85
1493.44922	17343.75
1496.84016	17918.45
1500.22882	18868.25
1503.61521	20124.05
1506.99934	21573.85
1510.38121	22649.15
1513.76081	22815.85
1517.13816	21860.15
1520.51324	20329.15
1523.88607	18874.45
1527.25665	17920.25
1530.62498	17383.65
1533.99105	17010.65
1537.35488	16751.05
1540.71647	16565.95
1544.07581	16412.65
1547.4329	16238.15
1550.78776	16189.65
1554.14038	16119.25
1557.49077	16165.75
1560.83892	16325.85
1564.18484	16480.25
1567.52853	16691.85
1570.86999	16915.45
1574.20922	17055.55
1577.54624	17060.65
1580.88103	16671.85
1584.2136	16128.85
1587.54395	15869.95
1590.87208	15915.65
1594.19801	16284.75
1597.52172	16834.45
1600.84321	17138.65
1604.16251	16932.25
1607.47959	16474.65
1610.79447	15934.75
1614.10715	15286.35
1617.41763	14638.75
1620.7259	14114.15
1624.03199	13850.15
1627.33587	13711.85
1630.63757	13778.85
1633.93707	14090.05
1637.23439	14661.25
1640.52951	15550.95
1643.82246	16713.05
1647.11321	17957.15
1650.40179	18706.65
1653.68819	18354.85
1656.97241	16929.55
1660.25446	15298.45
1663.53433	14043.95
1666.81203	13261.75
1670.08756	12766.45
1673.36092	12497.55
1676.63211	12292.05
1679.90115	12144.35
1683.16801	12024.05
1686.43272	11971.15
1689.69527	11845.95
1692.95567	11741.85
1696.2139	11609.45
1699.46999	11487.05
1702.72392	11443.45
1705.97571	11492.05
1709.22535	11562.15
1712.47284	11625.15
1715.71819	11645.25
1718.96139	11640.15
1722.20246	11630.75
1725.44139	11586.85
1728.67818	11550.75
1731.91284	11497.55
1735.14537	11441.35
1738.37576	11396.45
1741.60403	11378.15
1744.83017	11324.15
1748.05418	11314.65
1751.27607	11274.15
1754.49584	11254.75
1757.71349	11184.15
1760.92903	11158.55
1764.14244	11127.55
1767.35375	11090.25
1770.56294	11060.55
1773.77002	11007.35
1776.97499	11062.55
1780.17785	11083.65
1783.37861	11094.75
1786.57727	11068.35
1789.77382	11058.75
1792.96828	11068.85
1796.16064	10995.05
1799.3509	10977.95
1802.53907	10969.15
1805.72514	10953.25
1808.90913	10897.75
1812.09102	10880.85
1815.27083	10865.35
1818.44856	10859.25
1821.6242	10838.95
1824.79776	10840.45
1827.96924	10824.85
1831.13864	10798.05
1834.30597	10790.55
1837.47122	10774.55
1840.6344	10770.15
1843.7955	10721.25
1846.95454	10737.95
1850.11151	10734.75
1853.26642	10715.55
1856.41926	10724.85
1859.57004	10706.95
1862.71876	10685.05
1865.86542	10670.65
1869.01003	10659.85
1872.15258	10614.95
1875.29308	10624.45
1878.43152	10625.45
1881.56792	10611.95
1884.70227	10595.55
1887.83457	10577.85
1890.96482	10573.95
1894.09304	10534.05
1897.21921	10541.25
1900.34335	10516.95
1903.46544	10513.95
1906.58551	10484.25
1909.70353	10474.75
1912.81953	10468.85
1915.93349	10466.25
1919.04543	10432.25
1922.15534	10411.85
1925.26322	10388.75
1928.36908	10360.05
1931.47292	10361.65
1934.57473	10335.65
1937.67453	10305.55
1940.77232	10275.65
1943.86808	10248.55
1946.96184	10219.55
1950.05358	10180.65
1953.14331	10145.45
1956.23103	10131.05
1959.31675	10095.15
1962.40046	10057.35
1965.48217	10066.05
1968.56188	10049.45
1971.63959	10004.35
1974.7153	9980.15
1977.78901	9977.65
1980.86073	9897.85
1983.93046	9859.25
1986.99819	9825.85
1990.06394	9820.95
1993.1277	9810.45
1996.18947	9770.55
1999.24925	9725.95
2002.30706	9703.25
2005.36288	9661.75
2008.41672	9623.65
2011.46859	9610.45
2014.51848	9569.85
2017.56639	9557.45
2020.61233	9532.75
2023.6563	9519.95
2026.6983	9476.55
2029.73833	9453.75
2032.7764	9419.25
2035.8125	9405.95
2038.84664	9383.45
2041.87881	9390.65
2044.90903	9358.15
2047.93729	9337.65
2050.96359	9320.55
2053.98794	9324.35
2057.01034	9318.05
2060.03078	9313.55
2063.04927	9289.55
2066.06582	9266.15
2069.08042	9267.85
2072.09307	9247.15
2075.10378	9237.05
2078.11255	9253.15
2081.11938	9267.75
2084.12426	9234.35
2087.12722	9238.45
2090.12824	9223.35
2093.12732	9237.35
2096.12447	9209.05
2099.11969	9230.35
2102.11299	9231.15
2105.10435	9214.75
2108.09379	9219.05
2111.08131	9216.85
2114.0669	9227.95
2117.05057	9220.75
2120.03233	9247.05
2123.01216	9258.35
2125.99008	9252.15
2128.96609	9257.75
2131.94018	9270.45
2134.91236	9286.95
2137.88263	9287.65
2140.851	9295.25
2143.81746	9311.05
2146.78201	9317.25
2149.74466	9307.25
2152.7054	9282.85
2155.66425	9298.65
2158.6212	9287.65
2161.57625	9271.85
2164.52941	9287.05
2167.48067	9264.05
2170.43004	9262.55
2173.37752	9245.65
2176.32311	9246.65
2179.26681	9253.65
2182.20863	9243.15
2185.14856	9270.05
2188.08661	9245.75
2191.02278	9245.85
2193.95707	9237.45
2196.88948	9228.85
2199.82001	9234.15
2202.74867	9209.15
2205.67545	9201.65
2208.60037	9193.05
2211.52341	9180.45
2214.44458	9159.05
2217.36388	9155.05
2220.28132	9128.35
2223.1969	9100.75
2226.11061	9094.05
2229.02246	9054.15
2231.93245	9035.45
2234.84058	9030.85
2237.74686	9012.75
2240.65128	8987.55
2243.55385	9009.25
2246.45456	8994.45
2249.35343	8972.75
2252.25044	8957.95
2255.14561	8933.45
2258.03893	8953.85
2260.93041	8918.85
2263.82004	8899.05
2266.70783	8869.85
2269.59378	8856.35
2272.4779	8848.75
2275.36017	8822.95
2278.24061	8790.55
2281.11922	8776.25
2283.996	8763.75
2286.87094	8732.45
2289.74405	8733.45
2292.61534	8747.75
2295.4848	8706.75
2298.35243	8703.65
2301.21824	8704.85
2304.08223	8692.05
2306.94439	8691.95
2309.80474	8652.45
2312.66327	8659.85
2315.51999	8645.85
2318.37489	8641.75
2321.22797	8638.75
2324.07925	8644.45
2326.92871	8635.15
2329.77637	8586.85
2332.62222	8594.45
2335.46626	8559.05
2338.3085	8553.25
2341.14893	8541.45
2343.98756	8545.35
2346.8244	8535.25
2349.65943	8520.35
2352.49267	8520.65
2355.32411	8511.55
2358.15376	8505.35
2360.98161	8504.65
2363.80768	8492.35
2366.63195	8503.35
2369.45444	8479.65
2372.27514	8465.35
2375.09405	8471.65
2377.91118	8447.55
2380.72652	8430.65
2383.54009	8407.45
2386.35187	8409.05
2389.16188	8363.55
2391.97011	8368.05
2394.77657	8334.15
2397.58125	8315.55
2400.38416	8292.15
2403.18529	8308.15
2405.98466	8287.25
2408.78226	8243.35
2411.57809	8243.45
2414.37216	8226.45
2417.16446	8214.45
2419.955	8221.95
2422.74378	8219.25
2425.5308	8201.75
2428.31606	8193.15
2431.09956	8200.85
2433.88131	8178.55
2436.6613	8183.25
2439.43954	8162.45
2442.21603	8170.65
2444.99077	8171.65
2447.76377	8168.35
2450.53501	8172.25
2453.30451	8160.65
2456.07226	8135.65
2458.83827	8123.15
2461.60254	8115.65
2464.36507	8119.05
2467.12586	8126.15
2469.88492	8111.45
2472.64224	8121.05
2475.39782	8092.75
2478.15167	8090.55
2480.90379	8081.25
2483.65417	8094.35
2486.40283	8081.25
2489.14976	8087.15
2491.89497	8062.15
2494.63845	8054.95
2497.3802	8035.05
2500.12024	8048.15
2502.85855	8053.85
2505.59514	8034.55
2508.33002	8024.25
2511.06318	8005.25
2513.79462	8006.75
2516.52435	7983.15
2519.25237	7961.05
2521.97867	7951.75
2524.70327	7936.65
2527.42616	7906.05
2530.14734	7931.85
2532.86681	7901.55
2535.58458	7913.35
2538.30065	7916.25
2541.01501	7900.25
2543.72768	7874.45
2546.43864	7853.65
2549.14791	7863.35
2551.85548	7844.75
2554.56136	7828.85
2557.26554	7810.05
2559.96803	7791.75
2562.66883	7825.45
2565.36794	7780.25
2568.06536	7767.95
2570.7611	7745.85
2573.45514	7738.65
2576.14751	7757.25
2578.83819	7706.05
2581.52719	7698.35
2584.21451	7673.95
2586.90015	7682.65
2589.58411	7658.85
2592.2664	7648.15
2594.94701	7600.75
2597.62594	7617.95
2600.30321	7614.25
2602.9788	7596.85
2605.65273	7600.75
2608.32498	7580.85
2610.99557	7547.85
2613.66449	7566.05
2616.33175	7564.45
2618.99734	7581.25
2621.66128	7565.15
2624.32355	7536.95
2626.98416	7527.85
2629.64311	7532.85
2632.30041	7505.75
2634.95605	7494.05
2637.61004	7475.05
2640.26238	7452.25
2642.91306	7475.95
2645.56209	7442.05
2648.20948	7447.95
2650.85521	7434.75
2653.4993	7440.45
2656.14175	7444.35
2658.78255	7432.25
2661.42171	7423.05
2664.05923	7418.05
2666.6951	7438.15
2669.32934	7450.55
2671.96194	7428.75
2674.59291	7450.95
2677.22224	7428.25
2679.84993	7422.15
2682.476	7409.95
2685.10043	7403.35
2687.72324	7406.15
2690.34441	7429.05
2692.96396	7414.35
2695.58188	7409.15
2698.19818	7393.85
2700.81285	7389.85
2703.4259	7378.85
2706.03733	7324.35
2708.64714	7333.25
2711.25533	7357.85
2713.86191	7365.65
2716.46687	7387.75
2719.07021	7393.85
2721.67194	7413.25
2724.27206	7390.35
2726.87057	7415.05
2729.46747	7408.35
2732.06276	7398.95
2734.65644	7403.35
2737.24852	7390.15
2739.83899	7371.45
2742.42786	7377.65
2745.01513	7346.25
2747.60079	7352.45
2750.18486	7346.75
2752.76733	7333.75
2755.3482	7343.35
2757.92747	7329.15
2760.50515	7329.95
2763.08123	7298.65
2765.65573	7303.45
2768.22863	7273.15
2770.79994	7262.65
2773.36967	7265.05
2775.9378	7234.45
2778.50435	7235.65
2781.06932	7232.05
2783.6327	7246.35
2786.1945	7229.35
2788.75471	7225.25
2791.31335	7175.85
2793.87041	7173.45
2796.42589	7144.05
2798.97979	7139.65
2801.53212	7144.65
2804.08288	7130.75
2806.63206	7114.55
2809.17967	7107.95
2811.72571	7082.85
2814.27018	7066.55
2816.81308	7058.25
2819.35442	7059.65
2821.89419	7067.35
2824.43239	7066.75
2826.96904	7033.85
2829.50412	7032.95
2832.03763	7003.35
2834.56959	7012.65
2837.1	7026.25
2839.62884	7031.55
2842.15613	7014.25
2844.68186	7013.45
2847.20604	7016.15
2849.72867	7031.25
2852.24974	7025.15
2854.76927	6994.05
2857.28724	6973.35
2859.80367	6969.25
2862.31855	6970.75
2864.83189	6958.25
2867.34368	6941.85
2869.85393	6948.65
2872.36264	6961.95
2874.8698	6965.25
2877.37543	6958.35
2879.87952	6953.15
2882.38207	6938.75
2884.88308	6929.85
2887.38256	6936.15
2889.88051	6925.95
2892.37692	6936.75
2894.8718	6919.05
2897.36515	6967.25
2899.85698	6941.75
2902.34727	6965.65
2904.83604	6970.15
2907.32328	6962.75
2909.809	6935.85
2912.29319	6966.85
2914.77587	6982.95
2917.25702	6972.55
2919.73665	6961.65
2922.21476	6971.05
2924.69136	6970.85
2927.16644	6982.75
2929.64	6957.75
2932.11205	6948.65
2934.58258	6910.35
2937.05161	6933.45
2939.51912	6936.55
2941.98513	6898.85
2944.44962	6912.45
2946.91261	6901.15
2949.37409	6915.75
2951.83407	6908.35
2954.29254	6922.65
2956.74951	6865.75
2959.20498	6865.95
2961.65895	6860.25
2964.11142	6865.45
2966.56239	6810.25
2969.01186	6830.75
2971.45984	6811.65
2973.90632	6791.85
2976.35131	6786.65
2978.7948	6772.95
2981.23681	6745.85
2983.67732	6763.55
2986.11635	6722.95
2988.55388	6714.45
2990.98993	6724.35
2993.4245	6688.85
2995.85758	6698.35
2998.28917	6682.45
3000.71928	6652.15
3003.14791	6651.45
3005.57506	6636.05
3008.00073	6636.65
3010.42493	6625.05
3012.84764	6623.75
3015.26888	6619.15
3017.68865	6590.45
3020.10694	6591.45
3022.52376	6579.25
3024.9391	6551.95
3027.35298	6559.95
3029.76539	6534.95
3032.17632	6548.55
3034.5858	6535.85
3036.9938	6521.95
3039.40034	6518.45
3041.80542	6492.15
3044.20903	6492.85
3046.61118	6492.65
3049.01187	6493.45
3051.4111	6485.05
3053.80888	6465.05
3056.20519	6446.15
3058.60005	6428.45
3060.99345	6412.15
3063.3854	6417.05
3065.7759	6412.15
3068.16494	6400.55
3070.55254	6377.35
3072.93868	6358.45
3075.32338	6338.05
3077.70662	6328.95
3080.08842	6329.65
3082.46878	6310.25
3084.84769	6318.45
3087.22515	6323.75
3089.60118	6303.75
3091.97576	6298.35
3094.3489	6297.05
3096.72061	6303.25
3099.09087	6321.65
3101.4597	6319.25
3103.82709	6327.85
3106.19305	6317.25
3108.55757	6321.35
3110.92066	6295.45
3113.28232	6285.95
3115.64255	6277.05
3118.00134	6263.65
3120.35871	6276.75
3122.71466	6255.05
3125.06917	6247.15
3127.42226	6248.45
3129.77393	6235.15
3132.12417	6232.45
3134.47299	6239.15
3136.82039	6240.85
3139.16636	6237.65
3141.51092	6223.55
3143.85406	6231.85
3146.19579	6230.25
3148.53609	6238.95
3150.87499	6245.95
3153.21246	6243.35
3155.54853	6261.45
3157.88318	6272.55
3160.21642	6257.85
3162.54826	6252.15
3164.87868	6276.75
3167.2077	6259.65
3169.5353	6262.65
3171.86151	6275.15
3174.18631	6255.55
3176.5097	6268.45
3178.83169	6247.15
3181.15228	6245.55
3183.47147	6252.75
3185.78926	6234.25
3188.10565	6238.55
3190.42065	6243.05
3192.73424	6235.15
3195.04645	6225.75
3197.35725	6220.55
3199.66667	6226.25
3201.97469	6230.05
3204.28132	6226.45
3206.58656	6233.25
3208.8904	6237.85
3211.19287	6242.75
3213.49394	6242.05
3215.79363	6255.05
3218.09193	6252.85
3220.38884	6230.25
3222.68438	6219.05
3224.97853	6236.55
3227.2713	6245.25
3229.56269	6220.85
3231.8527	6208.95
3234.14133	6208.15
3236.42858	6200.85
3238.71446	6198.75
3240.99896	6189.85
3243.28209	6172.65
3245.56384	6155.65
3247.84423	6162.05
3250.12324	6166.55
3252.40088	6157.95
3254.67715	6154.55
3256.95205	6162.95
3259.22558	6161.75
3261.49775	6129.65
3263.76855	6142.65
3266.03799	6130.55
3268.30606	6112.85
3270.57277	6120.35
3272.83812	6111.45
3275.10211	6099.15
3277.36474	6091.05
3279.62601	6090.35
3281.88593	6067.95
3284.14448	6079.65
3286.40168	6072.55
3288.65753	6060.55
3290.91202	6070.65
3293.16516	6057.15
3295.41695	6059.55
3297.66738	6023.25
3299.91647	5981.45
3302.16421	5939.15
3304.4106	5904.25
3306.65564	5873.25
3308.89933	5837.65
3311.14169	5801.15
3313.38269	5728.35
3315.62236	5710.75
3317.86068	5662.15
3320.09766	5620.65
3322.3333	5603.65
3324.5676	5575.65
3326.80056	5470.95
3329.03219	5432.85
3331.26248	3.45
3333.49143	-1.05
3335.71905	-0.35
