Data from AgNPs_FTO_APTES_UA_50uM_CRN_1000uM_R6G_10uM_NaF_0.1M_Addition_RamanShift__2__17-28-33-573.txt Node

Date: Mon Feb 21 17:28:33 GMT 2022
User: TCL
Spectrometer: QEP01345
Trigger mode: 4
Integration Time (sec): 7.000000E0
Scans to average: 10
Electric dark correction enabled: true
Nonlinearity correction enabled: false
Boxcar width: 0
XAxis mode: Raman Shifts
Number of Pixels in Spectrum: 1044
>>>>>Begin Spectral Data<<<<<
46.04893	-0.45
50.45542	-0.85
54.85868	-0.45
59.25871	-0.95
63.6555	50.95
68.04907	53.55
72.43941	60.55
76.82654	61.35
81.21044	65.05
85.59113	62.85
89.96862	72.85
94.34289	70.85
98.71396	74.65
103.08183	78.15
107.4465	78.85
111.80798	80.55
116.16626	80.35
120.52136	81.85
124.87327	85.65
129.222	86.85
133.56755	93.85
137.90993	95.75
142.24913	101.75
146.58517	113.15
150.91804	117.25
155.24774	142.95
159.57429	174.45
163.89768	220.45
168.21792	290.95
172.53501	386.35
176.84895	540.55
181.15975	758.95
185.46741	1058.55
189.77193	1466.75
194.07331	1969.35
198.37157	2531.55
202.6667	3125.15
206.9587	3742.45
211.24758	4334.35
215.53334	4925.45
219.81599	5570.25
224.09553	6262.35
228.37195	7071.25
232.64527	7903.25
236.91549	8800.15
241.18261	9656.35
245.44663	10413.15
249.70755	11089.25
253.96539	11629.55
258.22014	12094.75
262.4718	12481.45
266.72039	12733.55
270.96589	12847.85
275.20832	12815.65
279.44768	12698.35
283.68397	12480.35
287.91719	12267.75
292.14735	12211.45
296.37445	12223.35
300.59849	12335.85
304.81948	12482.15
309.03742	12603.65
313.25231	12621.35
317.46415	12453.65
321.67296	12098.85
325.87872	11806.35
330.08145	11618.65
334.28114	11612.25
338.47781	11687.25
342.67145	11855.75
346.86207	12059.55
351.04966	12386.55
355.23424	12705.95
359.4158	12970.85
363.59435	13147.15
367.76989	13250.45
371.94243	13299.25
376.11196	13317.95
380.27849	13376.55
384.44203	13405.45
388.60257	13449.45
392.76012	13504.45
396.91468	13592.15
401.06626	13803.35
405.21485	13864.15
409.36047	13731.55
413.50311	13465.25
417.64277	13175.05
421.77947	13049.55
425.9132	13037.25
430.04396	13046.55
434.17176	13160.05
438.2966	13304.95
442.41849	13537.15
446.53742	13909.65
450.6534	14242.85
454.76644	14468.35
458.87653	14447.45
462.98368	14325.35
467.08789	14170.25
471.18916	13967.45
475.2875	13757.35
479.38291	13558.55
483.4754	13412.35
487.56496	13280.25
491.6516	13163.55
495.73531	13123.95
499.81612	13106.55
503.89401	13162.85
507.96899	13237.25
512.04106	13290.75
516.11023	13321.55
520.1765	13361.45
524.23987	13354.35
528.30034	13328.45
532.35792	13223.85
536.41261	13129.65
540.46441	12945.45
544.51333	12872.05
548.55936	12923.75
552.60252	13131.05
556.64279	13396.45
560.6802	13533.55
564.71473	13589.65
568.7464	13706.45
572.7752	13922.95
576.80114	13931.75
580.82422	13935.65
584.84444	14123.85
588.86181	14561.45
592.87633	15080.35
596.888	15299.45
600.89682	15139.45
604.9028	15304.35
608.90594	16916.65
612.90624	19058.35
616.90371	18338.85
620.89834	15104.75
624.89015	13545.15
628.87913	13321.15
632.86528	13441.95
636.84862	13549.05
640.82913	13460.05
644.80683	13125.35
648.78172	12876.15
652.75379	12825.25
656.72306	12969.55
660.68952	13240.55
664.65319	13121.75
668.61405	12822.05
672.57211	12739.65
676.52738	12842.55
680.47986	12866.25
684.42955	12806.25
688.37646	12718.65
692.32058	12673.85
696.26192	12736.75
700.20048	12857.85
704.13626	12900.15
708.06928	12853.05
711.99952	12797.85
715.927	12783.35
719.85171	12844.75
723.77365	12840.65
727.69284	12768.85
731.60928	12671.05
735.52295	12645.95
739.43388	12641.65
743.34206	12686.65
747.24749	12717.85
751.15017	12744.95
755.05012	12858.05
758.94733	13177.85
762.8418	13848.15
766.73354	14983.15
770.62254	16209.75
774.50882	16751.25
778.39237	16228.35
782.27321	14955.65
786.15132	13774.05
790.02671	13078.05
793.89938	12740.05
797.76935	12591.95
801.6366	12489.65
805.50115	12454.55
809.36299	12424.75
813.22213	12389.05
817.07857	12297.65
820.93231	12280.45
824.78336	12246.65
828.63172	12215.95
832.47738	12203.35
836.32036	12204.15
840.16066	12199.55
843.99827	12214.25
847.8332	12194.65
851.66546	12165.75
855.49504	12159.85
859.32195	12190.55
863.1462	12177.65
866.96777	12174.55
870.78668	12144.45
874.60293	12152.85
878.41652	12190.75
882.22745	12218.65
886.03573	12273.55
889.84136	12273.55
893.64433	12226.95
897.44466	12132.15
901.24235	12096.25
905.0374	12031.75
908.8298	11971.65
912.61957	11900.15
916.40671	11976.25
920.19121	12073.35
923.97308	12172.95
927.75233	12241.15
931.52895	12242.95
935.30295	12106.85
939.07433	11934.75
942.84309	11747.55
946.60924	11655.95
950.37278	11573.25
954.13371	11541.75
957.89203	11497.85
961.64774	11466.35
965.40086	11435.15
969.15137	11414.45
972.89929	11395.95
976.64461	11376.35
980.38733	11352.65
984.12747	11367.75
987.86502	11461.15
991.59999	11493.55
995.33237	11625.65
999.06217	11822.25
1002.78939	12024.25
1006.51404	12192.45
1010.23611	12340.35
1013.95561	12438.55
1017.67255	12491.55
1021.38692	12384.65
1025.09872	12236.45
1028.80796	12201.15
1032.51465	12200.45
1036.21877	12364.25
1039.92035	12428.95
1043.61937	12416.55
1047.31584	12355.65
1051.00976	12230.55
1054.70114	12104.95
1058.38998	12092.25
1062.07627	12098.15
1065.76003	12113.35
1069.44126	12162.55
1073.11995	12267.85
1076.79611	12352.75
1080.46974	12504.15
1084.14085	12599.15
1087.80943	12727.15
1091.47549	12839.95
1095.13903	12803.05
1098.80005	12599.15
1102.45857	12423.65
1106.11456	12297.45
1109.76805	12288.65
1113.41903	12399.75
1117.06751	12597.65
1120.71348	12825.55
1124.35696	13098.45
1127.99793	13389.75
1131.63641	13505.35
1135.2724	13297.15
1138.90589	13031.55
1142.5369	12856.75
1146.16542	12743.45
1149.79145	12685.25
1153.415	12651.65
1157.03607	12714.05
1160.65467	12945.35
1164.27079	13277.55
1167.88443	13821.25
1171.49561	14544.65
1175.10432	15582.65
1178.71056	16958.65
1182.31434	18203.05
1185.91565	18730.05
1189.51451	18540.75
1193.11091	17798.05
1196.70485	17016.25
1200.29634	16326.55
1203.88538	15721.65
1207.47197	15133.65
1211.05612	14593.75
1214.63782	14234.95
1218.21708	14123.85
1221.79391	14061.75
1225.36829	14074.95
1228.94024	14022.65
1232.50976	13883.45
1236.07685	13711.05
1239.6415	13588.15
1243.20374	13591.05
1246.76355	13609.45
1250.32093	13748.25
1253.8759	13932.35
1257.42845	14208.45
1260.97859	14520.85
1264.52631	14812.95
1268.07163	15157.65
1271.61453	15489.95
1275.15503	15826.85
1278.69312	16085.45
1282.22882	16293.25
1285.76211	16609.15
1289.29301	17074.65
1292.82151	17680.25
1296.34761	18389.35
1299.87133	19331.65
1303.39266	20475.35
1306.9116	21904.85
1310.42815	23342.15
1313.94233	24204.95
1317.45412	23861.35
1320.96354	22783.45
1324.47058	21565.65
1327.97525	20412.05
1331.47754	19654.45
1334.97747	19253.65
1338.47502	19089.85
1341.97022	19212.25
1345.46305	19542.85
1348.95352	20091.45
1352.44163	21044.45
1355.92738	22383.55
1359.41078	24216.35
1362.89183	25904.75
1366.37053	25569.95
1369.84688	22830.35
1373.32088	19677.35
1376.79254	17724.95
1380.26186	16823.25
1383.72883	16451.95
1387.19347	16198.25
1390.65578	15842.85
1394.11575	15645.55
1397.57339	15588.85
1401.0287	15622.45
1404.48168	15651.65
1407.93234	15572.05
1411.38068	15456.45
1414.82669	15248.35
1418.27039	15006.85
1421.71177	14751.15
1425.15083	14422.75
1428.58758	14279.45
1432.02203	14268.35
1435.45416	14493.35
1438.88399	14695.45
1442.31151	14813.95
1445.73673	14856.05
1449.15965	14921.55
1452.58027	14902.65
1455.9986	14805.65
1459.41463	14844.65
1462.82837	14988.55
1466.23982	15186.15
1469.64898	15441.25
1473.05586	15628.95
1476.46045	15759.55
1479.86276	15840.55
1483.26279	15892.75
1486.66054	15990.85
1490.05602	16244.75
1493.44922	16583.55
1496.84016	17163.75
1500.22882	18040.35
1503.61521	19353.35
1506.99934	20777.35
1510.38121	22018.15
1513.76081	22264.15
1517.13816	21349.05
1520.51324	19662.85
1523.88607	18126.45
1527.25665	17181.35
1530.62498	16739.15
1533.99105	16476.65
1537.35488	16233.75
1540.71647	15958.55
1544.07581	15701.05
1547.4329	15396.05
1550.78776	15172.25
1554.14038	15070.25
1557.49077	15041.65
1560.83892	15068.65
1564.18484	15190.55
1567.52853	15454.05
1570.86999	15761.65
1574.20922	16030.75
1577.54624	16112.95
1580.88103	15808.15
1584.2136	15345.35
1587.54395	15215.95
1590.87208	15500.85
1594.19801	16203.75
1597.52172	17092.95
1600.84321	17573.45
1604.16251	17195.75
1607.47959	16294.35
1610.79447	15188.15
1614.10715	14153.25
1617.41763	13331.25
1620.7259	12787.45
1624.03199	12485.55
1627.33587	12452.75
1630.63757	12678.35
1633.93707	13203.25
1637.23439	14114.65
1640.52951	15516.35
1643.82246	17356.55
1647.11321	19137.15
1650.40179	19904.65
1653.68819	18994.05
1656.97241	16796.45
1660.25446	14545.15
1663.53433	12982.85
1666.81203	12021.45
1670.08756	11439.35
1673.36092	11062.85
1676.63211	10802.85
1679.90115	10646.45
1683.16801	10505.95
1686.43272	10399.85
1689.69527	10280.75
1692.95567	10193.55
1696.2139	10121.95
1699.46999	10026.85
1702.72392	10005.35
1705.97571	9958.75
1709.22535	9964.95
1712.47284	9947.15
1715.71819	9911.05
1718.96139	9905.85
1722.20246	9877.95
1725.44139	9830.35
1728.67818	9803.55
1731.91284	9709.15
1735.14537	9679.45
1738.37576	9631.85
1741.60403	9596.75
1744.83017	9582.55
1748.05418	9559.65
1751.27607	9563.15
1754.49584	9563.15
1757.71349	9514.75
1760.92903	9488.45
1764.14244	9476.75
1767.35375	9439.15
1770.56294	9415.25
1773.77002	9386.45
1776.97499	9363.05
1780.17785	9333.55
1783.37861	9330.85
1786.57727	9312.15
1789.77382	9269.65
1792.96828	9278.05
1796.16064	9253.15
1799.3509	9242.15
1802.53907	9213.85
1805.72514	9178.05
1808.90913	9157.65
1812.09102	9135.75
1815.27083	9107.35
1818.44856	9096.65
1821.6242	9081.25
1824.79776	9064.75
1827.96924	9064.65
1831.13864	9032.05
1834.30597	9031.65
1837.47122	9040.95
1840.6344	8988.55
1843.7955	8977.55
1846.95454	8981.65
1850.11151	8970.35
1853.26642	8961.05
1856.41926	8960.05
1859.57004	8940.35
1862.71876	8931.75
1865.86542	8930.75
1869.01003	8927.45
1872.15258	8919.25
1875.29308	8909.95
1878.43152	8920.85
1881.56792	8903.55
1884.70227	8880.85
1887.83457	8862.95
1890.96482	8877.65
1894.09304	8869.45
1897.21921	8835.85
1900.34335	8844.05
1903.46544	8832.85
1906.58551	8829.55
1909.70353	8797.95
1912.81953	8809.55
1915.93349	8796.95
1919.04543	8738.45
1922.15534	8746.75
1925.26322	8710.75
1928.36908	8680.25
1931.47292	8675.25
1934.57473	8641.95
1937.67453	8634.85
1940.77232	8639.25
1943.86808	8598.85
1946.96184	8572.65
1950.05358	8529.95
1953.14331	8518.75
1956.23103	8478.55
1959.31675	8469.15
1962.40046	8446.65
1965.48217	8415.75
1968.56188	8406.35
1971.63959	8375.95
1974.7153	8341.65
1977.78901	8315.45
1980.86073	8300.15
1983.93046	8300.35
1986.99819	8255.35
1990.06394	8232.45
1993.1277	8201.05
1996.18947	8187.05
1999.24925	8163.95
2002.30706	8148.45
2005.36288	8099.25
2008.41672	8056.85
2011.46859	8057.85
2014.51848	8029.55
2017.56639	8006.95
2020.61233	7975.75
2023.6563	7976.35
2026.6983	7940.75
2029.73833	7930.65
2032.7764	7905.15
2035.8125	7891.95
2038.84664	7877.95
2041.87881	7862.15
2044.90903	7842.35
2047.93729	7825.55
2050.96359	7828.55
2053.98794	7808.95
2057.01034	7798.75
2060.03078	7797.75
2063.04927	7793.65
2066.06582	7784.45
2069.08042	7781.15
2072.09307	7773.55
2075.10378	7748.15
2078.11255	7745.75
2081.11938	7749.75
2084.12426	7753.45
2087.12722	7731.85
2090.12824	7733.55
2093.12732	7738.55
2096.12447	7728.75
2099.11969	7730.55
2102.11299	7740.95
2105.10435	7748.65
2108.09379	7751.15
2111.08131	7755.65
2114.0669	7739.65
2117.05057	7756.75
2120.03233	7763.55
2123.01216	7741.05
2125.99008	7772.35
2128.96609	7779.85
2131.94018	7777.75
2134.91236	7785.75
2137.88263	7783.65
2140.851	7772.45
2143.81746	7795.55
2146.78201	7789.05
2149.74466	7800.85
2152.7054	7787.75
2155.66425	7778.65
2158.6212	7761.85
2161.57625	7778.45
2164.52941	7768.55
2167.48067	7770.85
2170.43004	7744.45
2173.37752	7761.25
2176.32311	7732.75
2179.26681	7766.25
2182.20863	7748.45
2185.14856	7769.85
2188.08661	7746.25
2191.02278	7747.05
2193.95707	7741.65
2196.88948	7745.05
2199.82001	7772.85
2202.74867	7718.55
2205.67545	7716.65
2208.60037	7712.15
2211.52341	7689.95
2214.44458	7678.55
2217.36388	7634.95
2220.28132	7664.55
2223.1969	7641.25
2226.11061	7634.45
2229.02246	7612.15
2231.93245	7612.05
2234.84058	7586.55
2237.74686	7585.95
2240.65128	7559.05
2243.55385	7542.35
2246.45456	7547.45
2249.35343	7505.65
2252.25044	7499.35
2255.14561	7509.25
2258.03893	7501.45
2260.93041	7477.65
2263.82004	7481.15
2266.70783	7459.85
2269.59378	7444.65
2272.4779	7423.45
2275.36017	7428.65
2278.24061	7387.95
2281.11922	7370.55
2283.996	7341.85
2286.87094	7356.95
2289.74405	7335.65
2292.61534	7344.85
2295.4848	7332.55
2298.35243	7333.45
2301.21824	7316.45
2304.08223	7327.95
2306.94439	7305.45
2309.80474	7289.55
2312.66327	7296.45
2315.51999	7285.05
2318.37489	7282.75
2321.22797	7260.25
2324.07925	7257.35
2326.92871	7270.25
2329.77637	7232.15
2332.62222	7236.45
2335.46626	7223.95
2338.3085	7215.75
2341.14893	7217.05
2343.98756	7204.95
2346.8244	7199.55
2349.65943	7186.55
2352.49267	7184.95
2355.32411	7201.45
2358.15376	7192.85
2360.98161	7195.55
2363.80768	7191.55
2366.63195	7185.25
2369.45444	7162.55
2372.27514	7173.25
2375.09405	7154.55
2377.91118	7126.95
2380.72652	7135.35
2383.54009	7111.85
2386.35187	7082.05
2389.16188	7065.75
2391.97011	7067.45
2394.77657	7053.35
2397.58125	7009.25
2400.38416	7002.25
2403.18529	6974.55
2405.98466	6990.95
2408.78226	6970.15
2411.57809	6957.25
2414.37216	6956.55
2417.16446	6933.95
2419.955	6935.55
2422.74378	6937.65
2425.5308	6919.55
2428.31606	6930.25
2431.09956	6927.35
2433.88131	6912.05
2436.6613	6915.65
2439.43954	6909.25
2442.21603	6904.65
2444.99077	6902.35
2447.76377	6877.45
2450.53501	6892.85
2453.30451	6880.45
2456.07226	6893.45
2458.83827	6860.85
2461.60254	6875.35
2464.36507	6876.15
2467.12586	6852.65
2469.88492	6850.95
2472.64224	6857.95
2475.39782	6853.75
2478.15167	6864.15
2480.90379	6851.95
2483.65417	6866.65
2486.40283	6871.55
2489.14976	6865.45
2491.89497	6883.15
2494.63845	6872.55
2497.3802	6874.05
2500.12024	6855.85
2502.85855	6862.95
2505.59514	6839.25
2508.33002	6807.25
2511.06318	6803.25
2513.79462	6776.75
2516.52435	6772.15
2519.25237	6767.45
2521.97867	6771.35
2524.70327	6770.55
2527.42616	6738.25
2530.14734	6737.65
2532.86681	6726.65
2535.58458	6747.35
2538.30065	6729.35
2541.01501	6732.75
2543.72768	6712.85
2546.43864	6696.65
2549.14791	6712.75
2551.85548	6686.25
2554.56136	6653.85
2557.26554	6655.85
2559.96803	6664.25
2562.66883	6647.05
2565.36794	6643.45
2568.06536	6650.45
2570.7611	6627.95
2573.45514	6625.35
2576.14751	6615.75
2578.83819	6590.75
2581.52719	6595.55
2584.21451	6582.05
2586.90015	6567.65
2589.58411	6554.65
2592.2664	6556.35
2594.94701	6537.35
2597.62594	6532.05
2600.30321	6519.75
2602.9788	6499.05
2605.65273	6493.95
2608.32498	6511.15
2610.99557	6513.15
2613.66449	6527.65
2616.33175	6518.15
2618.99734	6488.55
2621.66128	6483.45
2624.32355	6477.85
2626.98416	6452.45
2629.64311	6448.45
2632.30041	6459.25
2634.95605	6434.65
2637.61004	6424.35
2640.26238	6422.35
2642.91306	6437.45
2645.56209	6431.75
2648.20948	6423.85
2650.85521	6398.95
2653.4993	6389.45
2656.14175	6414.35
2658.78255	6407.05
2661.42171	6410.25
2664.05923	6412.55
2666.6951	6434.75
2669.32934	6423.55
2671.96194	6418.55
2674.59291	6412.15
2677.22224	6407.75
2679.84993	6429.95
2682.476	6413.55
2685.10043	6412.65
2687.72324	6405.35
2690.34441	6390.55
2692.96396	6385.65
2695.58188	6406.05
2698.19818	6404.55
2700.81285	6406.35
2703.4259	6380.85
2706.03733	6360.45
2708.64714	6392.15
2711.25533	6392.55
2713.86191	6399.35
2716.46687	6391.05
2719.07021	6411.25
2721.67194	6395.65
2724.27206	6395.65
2726.87057	6410.25
2729.46747	6419.75
2732.06276	6421.25
2734.65644	6423.15
2737.24852	6425.15
2739.83899	6411.25
2742.42786	6412.45
2745.01513	6374.65
2747.60079	6367.55
2750.18486	6367.95
2752.76733	6364.45
2755.3482	6344.25
2757.92747	6352.25
2760.50515	6313.75
2763.08123	6338.35
2765.65573	6333.35
2768.22863	6319.85
2770.79994	6295.95
2773.36967	6301.45
2775.9378	6309.95
2778.50435	6315.55
2781.06932	6301.65
2783.6327	6272.15
2786.1945	6310.55
2788.75471	6290.75
2791.31335	6276.35
2793.87041	6270.05
2796.42589	6257.55
2798.97979	6228.75
2801.53212	6217.45
2804.08288	6229.25
2806.63206	6219.25
2809.17967	6192.35
2811.72571	6182.25
2814.27018	6201.75
2816.81308	6182.75
2819.35442	6171.55
2821.89419	6167.95
2824.43239	6161.05
2826.96904	6161.25
2829.50412	6158.25
2832.03763	6151.25
2834.56959	6156.05
2837.1	6157.25
2839.62884	6148.05
2842.15613	6172.15
2844.68186	6191.05
2847.20604	6200.15
2849.72867	6225.95
2852.24974	6223.75
2854.76927	6199.25
2857.28724	6195.15
2859.80367	6211.65
2862.31855	6205.15
2864.83189	6191.85
2867.34368	6179.75
2869.85393	6182.45
2872.36264	6153.95
2874.8698	6171.15
2877.37543	6184.15
2879.87952	6160.15
2882.38207	6175.55
2884.88308	6176.05
2887.38256	6172.25
2889.88051	6156.55
2892.37692	6183.65
2894.8718	6204.75
2897.36515	6191.75
2899.85698	6194.15
2902.34727	6211.25
2904.83604	6210.75
2907.32328	6224.25
2909.809	6240.95
2912.29319	6235.75
2914.77587	6246.15
2917.25702	6249.85
2919.73665	6252.25
2922.21476	6261.75
2924.69136	6242.85
2927.16644	6242.25
2929.64	6235.05
2932.11205	6216.25
2934.58258	6221.25
2937.05161	6219.35
2939.51912	6215.55
2941.98513	6203.05
2944.44962	6198.95
2946.91261	6161.55
2949.37409	6165.45
2951.83407	6141.45
2954.29254	6141.15
2956.74951	6151.65
2959.20498	6139.75
2961.65895	6117.55
2964.11142	6106.35
2966.56239	6095.15
2969.01186	6071.45
2971.45984	6049.95
2973.90632	6042.15
2976.35131	6040.85
2978.7948	6014.25
2981.23681	6003.55
2983.67732	5986.05
2986.11635	5969.45
2988.55388	5976.45
2990.98993	5960.25
2993.4245	5946.95
2995.85758	5949.35
2998.28917	5922.15
3000.71928	5914.55
3003.14791	5907.75
3005.57506	5893.25
3008.00073	5877.75
3010.42493	5866.45
3012.84764	5873.65
3015.26888	5852.05
3017.68865	5842.65
3020.10694	5850.35
3022.52376	5835.75
3024.9391	5834.05
3027.35298	5805.95
3029.76539	5794.95
3032.17632	5794.15
3034.5858	5803.85
3036.9938	5773.45
3039.40034	5767.45
3041.80542	5770.95
3044.20903	5750.25
3046.61118	5775.15
3049.01187	5764.75
3051.4111	5757.15
3053.80888	5748.75
3056.20519	5744.15
3058.60005	5713.25
3060.99345	5703.35
3063.3854	5709.85
3065.7759	5689.45
3068.16494	5686.25
3070.55254	5672.05
3072.93868	5666.95
3075.32338	5652.55
3077.70662	5629.45
3080.08842	5631.15
3082.46878	5621.85
3084.84769	5620.15
3087.22515	5622.65
3089.60118	5624.35
3091.97576	5632.35
3094.3489	5626.35
3096.72061	5618.25
3099.09087	5621.45
3101.4597	5614.75
3103.82709	5612.55
3106.19305	5624.05
3108.55757	5637.25
3110.92066	5619.25
3113.28232	5594.55
3115.64255	5573.95
3118.00134	5590.95
3120.35871	5567.45
3122.71466	5544.45
3125.06917	5560.75
3127.42226	5547.15
3129.77393	5556.55
3132.12417	5554.55
3134.47299	5555.15
3136.82039	5573.15
3139.16636	5565.05
3141.51092	5556.35
3143.85406	5558.05
3146.19579	5562.45
3148.53609	5590.85
3150.87499	5574.85
3153.21246	5598.25
3155.54853	5594.05
3157.88318	5614.95
3160.21642	5598.65
3162.54826	5613.25
3164.87868	5619.85
3167.2077	5611.35
3169.5353	5600.95
3171.86151	5616.55
3174.18631	5614.05
3176.5097	5590.35
3178.83169	5601.85
3181.15228	5604.95
3183.47147	5603.65
3185.78926	5583.05
3188.10565	5589.45
3190.42065	5573.95
3192.73424	5578.85
3195.04645	5578.95
3197.35725	5603.35
3199.66667	5588.75
3201.97469	5615.75
3204.28132	5612.05
3206.58656	5610.15
3208.8904	5603.75
3211.19287	5599.85
3213.49394	5607.25
3215.79363	5611.85
3218.09193	5619.65
3220.38884	5618.85
3222.68438	5626.95
3224.97853	5625.75
3227.2713	5630.55
3229.56269	5613.55
3231.8527	5623.65
3234.14133	5616.05
3236.42858	5588.85
3238.71446	5601.55
3240.99896	5572.35
3243.28209	5586.05
3245.56384	5560.75
3247.84423	5558.85
3250.12324	5568.15
3252.40088	5574.75
3254.67715	5559.95
3256.95205	5549.65
3259.22558	5558.35
3261.49775	5542.45
3263.76855	5546.65
3266.03799	5543.15
3268.30606	5523.75
3270.57277	5527.55
3272.83812	5500.55
3275.10211	5495.85
3277.36474	5498.15
3279.62601	5499.65
3281.88593	5501.85
3284.14448	5495.35
3286.40168	5493.35
3288.65753	5499.65
3290.91202	5481.55
3293.16516	5479.35
3295.41695	5440.55
3297.66738	5448.35
3299.91647	5411.05
3302.16421	5383.05
3304.4106	5369.95
3306.65564	5353.95
3308.89933	5308.45
3311.14169	5290.55
3313.38269	5215.55
3315.62236	5205.25
3317.86068	5155.05
3320.09766	5132.35
3322.3333	5095.85
3324.5676	5082.45
3326.80056	5008.95
3329.03219	4972.95
3331.26248	2.95
3333.49143	-0.55
3335.71905	-0.55
