Data from AgNPs_FTO_APTES_UA_50uM_CRN_1uM_R6G_10uM_NaF_0.1M_Addition_RamanShift__1__11-16-44-704.txt Node

Date: Mon Feb 21 11:16:44 GMT 2022
User: TCL
Spectrometer: QEP01345
Trigger mode: 4
Integration Time (sec): 7.000000E0
Scans to average: 10
Electric dark correction enabled: true
Nonlinearity correction enabled: false
Boxcar width: 0
XAxis mode: Raman Shifts
Number of Pixels in Spectrum: 1044
>>>>>Begin Spectral Data<<<<<
46.04893	-0.25
50.45542	-0.65
54.85868	-0.35
59.25871	-1.95
63.6555	63.65
68.04907	69.25
72.43941	70.55
76.82654	72.55
81.21044	76.55
85.59113	79.85
89.96862	81.35
94.34289	87.15
98.71396	85.45
103.08183	92.05
107.4465	91.65
111.80798	94.25
116.16626	93.75
120.52136	93.75
124.87327	106.35
129.222	100.05
133.56755	110.85
137.90993	120.25
142.24913	126.25
146.58517	141.85
150.91804	161.85
155.24774	192.35
159.57429	240.35
163.89768	294.65
168.21792	395.05
172.53501	541.85
176.84895	758.05
181.15975	1056.55
185.46741	1484.85
189.77193	2034.65
194.07331	2731.05
198.37157	3533.85
202.6667	4357.75
206.9587	5171.75
211.24758	6006.85
215.53334	6821.35
219.81599	7677.85
224.09553	8630.35
228.37195	9710.25
232.64527	10894.25
236.91549	12111.15
241.18261	13322.45
245.44663	14468.95
249.70755	15485.45
253.96539	16339.35
258.22014	17127.25
262.4718	17683.15
266.72039	18090.85
270.96589	18313.75
275.20832	18308.65
279.44768	18135.95
283.68397	17863.15
287.91719	17663.25
292.14735	17552.55
296.37445	17506.35
300.59849	17538.65
304.81948	17647.45
309.03742	17757.55
313.25231	17705.35
317.46415	17516.65
321.67296	17242.45
325.87872	16973.15
330.08145	16871.75
334.28114	16850.65
338.47781	16982.65
342.67145	17148.05
346.86207	17453.85
351.04966	17815.15
355.23424	18218.85
359.4158	18564.65
363.59435	18852.95
367.76989	19014.75
371.94243	19145.95
376.11196	19247.85
380.27849	19326.75
384.44203	19412.55
388.60257	19534.85
392.76012	19713.45
396.91468	19941.75
401.06626	20172.25
405.21485	20431.65
409.36047	20371.85
413.50311	20171.15
417.64277	20021.55
421.77947	20014.25
425.9132	20052.35
430.04396	20111.65
434.17176	20241.15
438.2966	20398.85
442.41849	20790.35
446.53742	21377.35
450.6534	22027.25
454.76644	22474.25
458.87653	22558.05
462.98368	22370.65
467.08789	22007.55
471.18916	21642.45
475.2875	21203.85
479.38291	20858.05
483.4754	20724.25
487.56496	20540.95
491.6516	20415.15
495.73531	20246.35
499.81612	20216.15
503.89401	20335.65
507.96899	20392.45
512.04106	20311.25
516.11023	20198.95
520.1765	20155.75
524.23987	20099.25
528.30034	20034.75
532.35792	19955.55
536.41261	19731.95
540.46441	19454.65
544.51333	19353.75
548.55936	19472.25
552.60252	19795.65
556.64279	20275.75
560.6802	20646.95
564.71473	20840.35
568.7464	21100.45
572.7752	21521.65
576.80114	21936.45
580.82422	22455.95
584.84444	23187.65
588.86181	24317.05
592.87633	25444.05
596.888	25673.55
600.89682	24728.55
604.9028	24259.05
608.90594	25798.55
612.90624	27783.25
616.90371	26460.25
620.89834	22606.85
624.89015	20750.95
628.87913	20473.05
632.86528	20502.05
636.84862	20446.05
640.82913	20126.65
644.80683	19687.05
648.78172	19396.55
652.75379	19392.05
656.72306	19667.25
660.68952	20067.05
664.65319	19986.35
668.61405	19687.05
672.57211	19683.55
676.52738	19768.35
680.47986	19738.25
684.42955	19541.65
688.37646	19502.55
692.32058	19663.65
696.26192	19960.65
700.20048	20310.65
704.13626	20385.55
708.06928	20277.25
711.99952	20178.55
715.927	20216.55
719.85171	20359.35
723.77365	20340.15
727.69284	20079.65
731.60928	19809.65
735.52295	19722.85
739.43388	19735.85
743.34206	19767.45
747.24749	19901.65
751.15017	20073.55
755.05012	20285.95
758.94733	20719.35
762.8418	21539.35
766.73354	22852.75
770.62254	24092.15
774.50882	24523.85
778.39237	23758.35
782.27321	22418.95
786.15132	21274.35
790.02671	20477.95
793.89938	20115.05
797.76935	19944.05
801.6366	19889.55
805.50115	19866.55
809.36299	19778.85
813.22213	19641.05
817.07857	19540.75
820.93231	19472.45
824.78336	19409.85
828.63172	19386.65
832.47738	19378.75
836.32036	19414.25
840.16066	19484.25
843.99827	19532.35
847.8332	19514.75
851.66546	19467.15
855.49504	19460.65
859.32195	19479.25
863.1462	19419.55
866.96777	19383.75
870.78668	19345.75
874.60293	19385.45
878.41652	19474.95
882.22745	19524.15
886.03573	19635.95
889.84136	19597.75
893.64433	19535.05
897.44466	19447.05
901.24235	19349.15
905.0374	19260.25
908.8298	19214.05
912.61957	19197.05
916.40671	19307.75
920.19121	19489.95
923.97308	19727.05
927.75233	19860.85
931.52895	19834.75
935.30295	19617.35
939.07433	19338.05
942.84309	19087.15
946.60924	19035.95
950.37278	18992.75
954.13371	18994.15
957.89203	18908.05
961.64774	18881.05
965.40086	18858.65
969.15137	18872.35
972.89929	18867.05
976.64461	18836.15
980.38733	18877.85
984.12747	18948.45
987.86502	19127.75
991.59999	19326.15
995.33237	19631.55
999.06217	20047.85
1002.78939	20589.75
1006.51404	21001.45
1010.23611	21312.25
1013.95561	21513.95
1017.67255	21517.25
1021.38692	21302.35
1025.09872	20999.25
1028.80796	20902.15
1032.51465	21188.25
1036.21877	21514.05
1039.92035	21633.45
1043.61937	21549.35
1047.31584	21259.45
1051.00976	20895.55
1054.70114	20664.35
1058.38998	20585.25
1062.07627	20628.25
1065.76003	20762.25
1069.44126	20936.35
1073.11995	21253.85
1076.79611	21636.35
1080.46974	21836.75
1084.14085	22088.45
1087.80943	22333.75
1091.47549	22483.25
1095.13903	22441.95
1098.80005	22075.55
1102.45857	21653.45
1106.11456	21365.15
1109.76805	21245.65
1113.41903	21283.75
1117.06751	21381.45
1120.71348	21556.45
1124.35696	21735.35
1127.99793	21946.65
1131.63641	22095.45
1135.2724	22015.85
1138.90589	21876.55
1142.5369	21839.15
1146.16542	21898.35
1149.79145	21972.05
1153.415	22102.05
1157.03607	22278.35
1160.65467	22718.25
1164.27079	23579.35
1167.88443	24636.15
1171.49561	25894.35
1175.10432	27485.15
1178.71056	29663.75
1182.31434	31728.65
1185.91565	32584.35
1189.51451	32300.95
1193.11091	31288.75
1196.70485	30081.75
1200.29634	28950.95
1203.88538	28140.15
1207.47197	27571.05
1211.05612	27116.75
1214.63782	26696.25
1218.21708	26277.35
1221.79391	26032.55
1225.36829	25884.15
1228.94024	25698.25
1232.50976	25291.75
1236.07685	24859.55
1239.6415	24492.65
1243.20374	24425.35
1246.76355	24582.75
1250.32093	24890.55
1253.8759	25414.75
1257.42845	26043.75
1260.97859	26756.45
1264.52631	27641.95
1268.07163	28509.55
1271.61453	29339.15
1275.15503	30115.25
1278.69312	30858.55
1282.22882	31578.05
1285.76211	32477.55
1289.29301	33575.45
1292.82151	34804.85
1296.34761	36309.05
1299.87133	38214.65
1303.39266	40385.85
1306.9116	42640.55
1310.42815	44519.75
1313.94233	45639.05
1317.45412	45282.25
1320.96354	43943.95
1324.47058	42436.75
1327.97525	41235.95
1331.47754	40465.15
1334.97747	39959.35
1338.47502	39362.65
1341.97022	38745.15
1345.46305	37958.65
1348.95352	37612.25
1352.44163	38264.95
1355.92738	39952.35
1359.41078	42516.65
1362.89183	44752.15
1366.37053	44554.65
1369.84688	41246.45
1373.32088	36610.95
1376.79254	33349.85
1380.26186	32029.55
1383.72883	31826.75
1387.19347	31636.55
1390.65578	31139.15
1394.11575	30788.55
1397.57339	30925.85
1401.0287	31377.25
1404.48168	31824.35
1407.93234	31883.35
1411.38068	31667.05
1414.82669	31100.15
1418.27039	30261.95
1421.71177	29359.55
1425.15083	28571.85
1428.58758	28295.25
1432.02203	28550.75
1435.45416	29244.75
1438.88399	29987.35
1442.31151	30363.65
1445.73673	30519.65
1449.15965	30568.75
1452.58027	30413.35
1455.9986	30139.95
1459.41463	30154.35
1462.82837	30492.45
1466.23982	31128.25
1469.64898	31794.45
1473.05586	32254.95
1476.46045	32465.85
1479.86276	32520.55
1483.26279	32468.25
1486.66054	32486.55
1490.05602	32713.65
1493.44922	33053.45
1496.84016	33333.55
1500.22882	33633.15
1503.61521	34236.95
1506.99934	35095.55
1510.38121	35795.05
1513.76081	35980.35
1517.13816	35233.95
1520.51324	33940.85
1523.88607	32767.55
1527.25665	32172.65
1530.62498	31986.65
1533.99105	31799.05
1537.35488	31460.15
1540.71647	30832.55
1544.07581	30181.15
1547.4329	29559.85
1550.78776	29003.65
1554.14038	28567.75
1557.49077	28375.35
1560.83892	28282.75
1564.18484	28304.65
1567.52853	28443.65
1570.86999	28694.15
1574.20922	29165.05
1577.54624	29413.15
1580.88103	29531.45
1584.2136	29656.45
1587.54395	30604.75
1590.87208	32306.15
1594.19801	34649.45
1597.52172	36826.35
1600.84321	37470.45
1604.16251	35932.85
1607.47959	33032.75
1610.79447	29876.85
1614.10715	27226.05
1617.41763	25296.55
1620.7259	24151.95
1624.03199	23675.65
1627.33587	23792.95
1630.63757	24500.65
1633.93707	25875.55
1637.23439	28254.45
1640.52951	31800.45
1643.82246	36064.45
1647.11321	39476.65
1650.40179	39876.85
1653.68819	36841.85
1656.97241	31777.45
1660.25446	27174.35
1663.53433	24004.75
1666.81203	22164.15
1670.08756	21094.35
1673.36092	20435.55
1676.63211	20033.55
1679.90115	19694.75
1683.16801	19471.15
1686.43272	19267.15
1689.69527	19123.55
1692.95567	18922.25
1696.2139	18819.75
1699.46999	18660.85
1702.72392	18597.75
1705.97571	18648.85
1709.22535	18724.45
1712.47284	18756.85
1715.71819	18826.65
1718.96139	18776.75
1722.20246	18767.55
1725.44139	18710.35
1728.67818	18592.95
1731.91284	18499.05
1735.14537	18428.55
1738.37576	18342.15
1741.60403	18287.65
1744.83017	18237.15
1748.05418	18200.25
1751.27607	18110.95
1754.49584	18036.75
1757.71349	17989.65
1760.92903	17925.35
1764.14244	17882.75
1767.35375	17905.35
1770.56294	17869.75
1773.77002	17914.55
1776.97499	17913.35
1780.17785	17950.45
1783.37861	18005.05
1786.57727	17975.15
1789.77382	17955.25
1792.96828	17971.85
1796.16064	17970.65
1799.3509	17898.45
1802.53907	17870.85
1805.72514	17822.55
1808.90913	17816.65
1812.09102	17763.55
1815.27083	17783.55
1818.44856	17761.65
1821.6242	17752.85
1824.79776	17723.25
1827.96924	17748.15
1831.13864	17717.45
1834.30597	17734.15
1837.47122	17745.05
1840.6344	17742.25
1843.7955	17745.85
1846.95454	17701.75
1850.11151	17680.15
1853.26642	17674.55
1856.41926	17654.85
1859.57004	17684.75
1862.71876	17680.35
1865.86542	17678.05
1869.01003	17656.75
1872.15258	17658.15
1875.29308	17619.25
1878.43152	17602.85
1881.56792	17601.25
1884.70227	17609.65
1887.83457	17612.35
1890.96482	17565.85
1894.09304	17527.85
1897.21921	17526.15
1900.34335	17486.95
1903.46544	17504.55
1906.58551	17511.55
1909.70353	17479.15
1912.81953	17441.05
1915.93349	17439.55
1919.04543	17418.65
1922.15534	17400.05
1925.26322	17320.95
1928.36908	17328.45
1931.47292	17232.05
1934.57473	17228.45
1937.67453	17205.55
1940.77232	17151.35
1943.86808	17121.75
1946.96184	17130.95
1950.05358	17051.85
1953.14331	17017.75
1956.23103	16926.55
1959.31675	16888.25
1962.40046	16873.55
1965.48217	16844.65
1968.56188	16817.75
1971.63959	16775.25
1974.7153	16783.35
1977.78901	16693.65
1980.86073	16642.45
1983.93046	16554.05
1986.99819	16543.35
1990.06394	16490.55
1993.1277	16483.85
1996.18947	16437.25
1999.24925	16388.55
2002.30706	16317.95
2005.36288	16287.55
2008.41672	16279.05
2011.46859	16246.45
2014.51848	16195.05
2017.56639	16139.95
2020.61233	16127.05
2023.6563	16122.45
2026.6983	16092.65
2029.73833	16028.95
2032.7764	15980.85
2035.8125	15972.65
2038.84664	15949.05
2041.87881	15974.65
2044.90903	15939.05
2047.93729	15885.05
2050.96359	15874.45
2053.98794	15844.25
2057.01034	15870.05
2060.03078	15840.35
2063.04927	15809.65
2066.06582	15824.35
2069.08042	15805.15
2072.09307	15841.95
2075.10378	15816.15
2078.11255	15845.45
2081.11938	15809.65
2084.12426	15827.75
2087.12722	15854.35
2090.12824	15818.75
2093.12732	15834.95
2096.12447	15832.55
2099.11969	15829.85
2102.11299	15836.05
2105.10435	15804.45
2108.09379	15831.15
2111.08131	15854.35
2114.0669	15888.45
2117.05057	15918.15
2120.03233	15914.55
2123.01216	15944.35
2125.99008	15949.35
2128.96609	15947.15
2131.94018	15972.15
2134.91236	15992.85
2137.88263	16018.05
2140.851	16031.35
2143.81746	16073.15
2146.78201	16042.45
2149.74466	16055.65
2152.7054	16073.85
2155.66425	16066.85
2158.6212	16053.65
2161.57625	16039.15
2164.52941	16080.75
2167.48067	16056.25
2170.43004	16054.55
2173.37752	16034.95
2176.32311	16016.05
2179.26681	16044.65
2182.20863	16056.35
2185.14856	16101.85
2188.08661	16073.15
2191.02278	16077.85
2193.95707	16064.15
2196.88948	16091.95
2199.82001	16076.95
2202.74867	16059.65
2205.67545	16037.15
2208.60037	16030.85
2211.52341	16037.65
2214.44458	16011.25
2217.36388	15972.15
2220.28132	15995.65
2223.1969	15925.35
2226.11061	15943.95
2229.02246	15938.05
2231.93245	15863.15
2234.84058	15874.55
2237.74686	15840.85
2240.65128	15822.05
2243.55385	15843.05
2246.45456	15826.95
2249.35343	15797.95
2252.25044	15757.95
2255.14561	15715.65
2258.03893	15712.25
2260.93041	15657.85
2263.82004	15663.95
2266.70783	15662.35
2269.59378	15615.15
2272.4779	15624.05
2275.36017	15569.25
2278.24061	15555.05
2281.11922	15536.65
2283.996	15521.45
2286.87094	15473.95
2289.74405	15481.75
2292.61534	15489.65
2295.4848	15467.45
2298.35243	15495.35
2301.21824	15433.55
2304.08223	15470.05
2306.94439	15468.15
2309.80474	15482.55
2312.66327	15492.15
2315.51999	15441.85
2318.37489	15468.55
2321.22797	15460.05
2324.07925	15415.25
2326.92871	15392.75
2329.77637	15394.85
2332.62222	15388.95
2335.46626	15354.25
2338.3085	15363.75
2341.14893	15351.25
2343.98756	15367.65
2346.8244	15393.65
2349.65943	15364.45
2352.49267	15342.85
2355.32411	15361.05
2358.15376	15337.45
2360.98161	15323.05
2363.80768	15321.65
2366.63195	15281.45
2369.45444	15276.45
2372.27514	15250.55
2375.09405	15245.25
2377.91118	15238.95
2380.72652	15227.35
2383.54009	15185.45
2386.35187	15158.95
2389.16188	15132.85
2391.97011	15142.75
2394.77657	15141.75
2397.58125	15092.85
2400.38416	15088.45
2403.18529	15093.65
2405.98466	15080.65
2408.78226	15053.75
2411.57809	15006.95
2414.37216	15000.85
2417.16446	15014.55
2419.955	14974.55
2422.74378	14983.55
2425.5308	14952.25
2428.31606	14937.85
2431.09956	14968.95
2433.88131	14941.25
2436.6613	14944.45
2439.43954	14962.15
2442.21603	14946.45
2444.99077	14902.15
2447.76377	14983.35
2450.53501	14940.05
2453.30451	14947.05
2456.07226	14939.05
2458.83827	14958.95
2461.60254	14910.55
2464.36507	14898.45
2467.12586	14903.55
2469.88492	14906.35
2472.64224	14912.25
2475.39782	14905.15
2478.15167	14896.05
2480.90379	14907.65
2483.65417	14949.85
2486.40283	14923.95
2489.14976	14982.55
2491.89497	14932.05
2494.63845	14917.25
2497.3802	14922.85
2500.12024	14918.95
2502.85855	14942.45
2505.59514	14906.35
2508.33002	14884.55
2511.06318	14891.45
2513.79462	14864.85
2516.52435	14854.85
2519.25237	14827.75
2521.97867	14830.65
2524.70327	14814.15
2527.42616	14833.25
2530.14734	14819.75
2532.86681	14829.55
2535.58458	14850.85
2538.30065	14826.65
2541.01501	14836.95
2543.72768	14790.35
2546.43864	14793.75
2549.14791	14797.05
2551.85548	14821.25
2554.56136	14784.05
2557.26554	14743.45
2559.96803	14710.25
2562.66883	14707.25
2565.36794	14674.55
2568.06536	14650.15
2570.7611	14643.75
2573.45514	14659.85
2576.14751	14691.35
2578.83819	14631.55
2581.52719	14627.75
2584.21451	14632.45
2586.90015	14610.05
2589.58411	14609.25
2592.2664	14611.35
2594.94701	14597.85
2597.62594	14600.25
2600.30321	14577.65
2602.9788	14563.95
2605.65273	14548.05
2608.32498	14600.15
2610.99557	14538.25
2613.66449	14576.55
2616.33175	14574.45
2618.99734	14550.45
2621.66128	14526.55
2624.32355	14508.95
2626.98416	14502.05
2629.64311	14480.65
2632.30041	14506.05
2634.95605	14463.05
2637.61004	14451.35
2640.26238	14436.65
2642.91306	14417.75
2645.56209	14418.45
2648.20948	14424.45
2650.85521	14419.85
2653.4993	14398.15
2656.14175	14430.45
2658.78255	14451.55
2661.42171	14466.95
2664.05923	14492.05
2666.6951	14499.85
2669.32934	14528.65
2671.96194	14516.25
2674.59291	14523.85
2677.22224	14497.35
2679.84993	14496.85
2682.476	14495.45
2685.10043	14493.95
2687.72324	14515.85
2690.34441	14491.65
2692.96396	14479.85
2695.58188	14471.25
2698.19818	14466.75
2700.81285	14475.45
2703.4259	14417.85
2706.03733	14371.15
2708.64714	14422.45
2711.25533	14488.95
2713.86191	14541.45
2716.46687	14568.95
2719.07021	14585.05
2721.67194	14600.05
2724.27206	14615.25
2726.87057	14586.35
2729.46747	14605.15
2732.06276	14620.55
2734.65644	14610.15
2737.24852	14608.25
2739.83899	14623.95
2742.42786	14628.55
2745.01513	14609.35
2747.60079	14613.95
2750.18486	14603.85
2752.76733	14551.65
2755.3482	14525.65
2757.92747	14552.95
2760.50515	14514.85
2763.08123	14524.65
2765.65573	14504.55
2768.22863	14504.25
2770.79994	14474.55
2773.36967	14483.55
2775.9378	14478.25
2778.50435	14507.55
2781.06932	14471.15
2783.6327	14482.55
2786.1945	14493.15
2788.75471	14483.85
2791.31335	14437.85
2793.87041	14453.95
2796.42589	14398.15
2798.97979	14390.95
2801.53212	14345.65
2804.08288	14350.95
2806.63206	14348.25
2809.17967	14312.85
2811.72571	14274.65
2814.27018	14245.65
2816.81308	14235.35
2819.35442	14199.15
2821.89419	14185.35
2824.43239	14165.05
2826.96904	14154.25
2829.50412	14176.65
2832.03763	14118.75
2834.56959	14112.05
2837.1	14160.15
2839.62884	14125.75
2842.15613	14121.85
2844.68186	14150.25
2847.20604	14118.45
2849.72867	14099.45
2852.24974	14112.15
2854.76927	14084.85
2857.28724	14031.55
2859.80367	14028.85
2862.31855	14014.85
2864.83189	14016.45
2867.34368	13994.75
2869.85393	14024.85
2872.36264	14010.95
2874.8698	14015.65
2877.37543	14068.35
2879.87952	14022.25
2882.38207	14027.05
2884.88308	14060.45
2887.38256	14063.35
2889.88051	14047.05
2892.37692	14078.25
2894.8718	14063.85
2897.36515	14079.55
2899.85698	14089.65
2902.34727	14118.95
2904.83604	14129.45
2907.32328	14093.25
2909.809	14101.85
2912.29319	14130.35
2914.77587	14174.25
2917.25702	14166.55
2919.73665	14131.75
2922.21476	14110.95
2924.69136	14121.05
2927.16644	14144.85
2929.64	14090.95
2932.11205	14114.05
2934.58258	14042.85
2937.05161	14063.55
2939.51912	14056.65
2941.98513	14069.85
2944.44962	14042.55
2946.91261	14008.05
2949.37409	14054.65
2951.83407	14032.25
2954.29254	14042.85
2956.74951	14020.45
2959.20498	14045.35
2961.65895	14006.75
2964.11142	13998.85
2966.56239	13969.15
2969.01186	13972.15
2971.45984	13982.45
2973.90632	13952.45
2976.35131	13932.55
2978.7948	13909.95
2981.23681	13884.05
2983.67732	13894.45
2986.11635	13844.25
2988.55388	13798.05
2990.98993	13796.45
2993.4245	13789.35
2995.85758	13761.15
2998.28917	13753.55
3000.71928	13719.15
3003.14791	13681.65
3005.57506	13674.65
3008.00073	13600.45
3010.42493	13617.65
3012.84764	13605.75
3015.26888	13629.05
3017.68865	13591.55
3020.10694	13571.45
3022.52376	13531.35
3024.9391	13536.65
3027.35298	13516.75
3029.76539	13508.85
3032.17632	13527.55
3034.5858	13503.25
3036.9938	13491.95
3039.40034	13472.45
3041.80542	13458.85
3044.20903	13406.25
3046.61118	13431.35
3049.01187	13414.95
3051.4111	13411.55
3053.80888	13368.35
3056.20519	13373.35
3058.60005	13338.05
3060.99345	13302.95
3063.3854	13277.95
3065.7759	13271.65
3068.16494	13273.25
3070.55254	13189.05
3072.93868	13174.05
3075.32338	13134.85
3077.70662	13106.05
3080.08842	13088.05
3082.46878	13058.05
3084.84769	13066.65
3087.22515	13060.55
3089.60118	13059.85
3091.97576	13071.55
3094.3489	13067.45
3096.72061	13112.25
3099.09087	13105.75
3101.4597	13082.95
3103.82709	13067.95
3106.19305	13035.15
3108.55757	13073.65
3110.92066	13024.65
3113.28232	13011.25
3115.64255	12966.65
3118.00134	12995.45
3120.35871	12949.85
3122.71466	12915.05
3125.06917	12891.75
3127.42226	12843.35
3129.77393	12846.65
3132.12417	12852.85
3134.47299	12844.45
3136.82039	12862.05
3139.16636	12844.55
3141.51092	12822.15
3143.85406	12869.85
3146.19579	12867.25
3148.53609	12905.95
3150.87499	12875.75
3153.21246	12877.35
3155.54853	12861.85
3157.88318	12875.55
3160.21642	12909.55
3162.54826	12836.25
3164.87868	12867.25
3167.2077	12870.65
3169.5353	12904.05
3171.86151	12894.45
3174.18631	12863.55
3176.5097	12828.05
3178.83169	12854.75
3181.15228	12822.45
3183.47147	12824.95
3185.78926	12829.45
3188.10565	12774.45
3190.42065	12779.65
3192.73424	12735.15
3195.04645	12723.45
3197.35725	12733.05
3199.66667	12773.25
3201.97469	12778.65
3204.28132	12771.05
3206.58656	12790.85
3208.8904	12812.85
3211.19287	12795.75
3213.49394	12804.45
3215.79363	12824.25
3218.09193	12805.85
3220.38884	12788.15
3222.68438	12790.65
3224.97853	12783.55
3227.2713	12802.55
3229.56269	12817.25
3231.8527	12796.35
3234.14133	12761.05
3236.42858	12742.05
3238.71446	12713.45
3240.99896	12707.25
3243.28209	12692.85
3245.56384	12697.85
3247.84423	12704.15
3250.12324	12653.25
3252.40088	12655.55
3254.67715	12648.55
3256.95205	12639.05
3259.22558	12617.55
3261.49775	12613.75
3263.76855	12593.45
3266.03799	12573.35
3268.30606	12586.25
3270.57277	12555.95
3272.83812	12517.55
3275.10211	12515.25
3277.36474	12464.25
3279.62601	12482.85
3281.88593	12469.85
3284.14448	12480.55
3286.40168	12506.35
3288.65753	12502.25
3290.91202	12455.15
3293.16516	12455.65
3295.41695	12400.85
3297.66738	12357.65
3299.91647	12289.35
3302.16421	12250.35
3304.4106	12205.95
3306.65564	12131.35
3308.89933	12026.15
3311.14169	11939.45
3313.38269	11858.35
3315.62236	11817.05
3317.86068	11706.05
3320.09766	11614.55
3322.3333	11548.05
3324.5676	11506.15
3326.80056	11310.45
3329.03219	11259.55
3331.26248	3.15
3333.49143	-0.45
3335.71905	0.65
