Data from AgNPs_FTO_APTES_UA_50uM_CRN_20uM_R6G_10uM_NaF_0.1M_Addition_RamanShift__18__14-15-14-935.txt Node

Date: Mon Feb 21 14:15:14 GMT 2022
User: TCL
Spectrometer: QEP01345
Trigger mode: 4
Integration Time (sec): 7.000000E0
Scans to average: 10
Electric dark correction enabled: true
Nonlinearity correction enabled: false
Boxcar width: 0
XAxis mode: Raman Shifts
Number of Pixels in Spectrum: 1044
>>>>>Begin Spectral Data<<<<<
46.04893	0.55
50.45542	-0.25
54.85868	-0.35
59.25871	-0.95
63.6555	51.55
68.04907	57.65
72.43941	58.25
76.82654	61.85
81.21044	65.65
85.59113	68.65
89.96862	69.65
94.34289	76.55
98.71396	77.65
103.08183	78.25
107.4465	80.45
111.80798	81.45
116.16626	80.65
120.52136	82.45
124.87327	92.05
129.222	89.55
133.56755	90.25
137.90993	100.55
142.24913	109.65
146.58517	116.05
150.91804	139.95
155.24774	159.15
159.57429	197.15
163.89768	248.75
168.21792	326.65
172.53501	440.55
176.84895	609.15
181.15975	852.95
185.46741	1198.45
189.77193	1644.85
194.07331	2191.35
198.37157	2840.65
202.6667	3489.95
206.9587	4171.05
211.24758	4818.35
215.53334	5513.95
219.81599	6245.65
224.09553	7093.95
228.37195	8017.05
232.64527	9026.55
236.91549	10060.15
241.18261	11009.15
245.44663	11853.85
249.70755	12561.55
253.96539	13103.55
258.22014	13589.45
262.4718	13971.45
266.72039	14243.35
270.96589	14395.05
275.20832	14333.15
279.44768	14110.55
283.68397	13894.95
287.91719	13731.65
292.14735	13705.75
296.37445	13815.65
300.59849	14069.75
304.81948	14391.35
309.03742	14578.15
313.25231	14480.25
317.46415	13993.75
321.67296	13346.95
325.87872	12784.65
330.08145	12517.05
334.28114	12481.45
338.47781	12590.15
342.67145	12780.35
346.86207	13133.85
351.04966	13603.95
355.23424	14102.75
359.4158	14570.65
363.59435	14793.05
367.76989	14901.75
371.94243	14900.45
376.11196	14944.55
380.27849	14917.25
384.44203	14946.25
388.60257	14919.05
392.76012	14975.65
396.91468	15069.55
401.06626	15296.45
405.21485	15480.95
409.36047	15265.65
413.50311	14762.65
417.64277	14304.05
421.77947	14049.35
425.9132	13990.35
430.04396	14023.45
434.17176	14042.25
438.2966	14172.45
442.41849	14544.05
446.53742	14971.75
450.6534	15450.55
454.76644	15779.25
458.87653	15846.85
462.98368	15686.35
467.08789	15444.65
471.18916	15195.75
475.2875	14906.35
479.38291	14713.05
483.4754	14521.35
487.56496	14334.65
491.6516	14142.95
495.73531	14008.05
499.81612	13974.95
503.89401	14126.75
507.96899	14242.05
512.04106	14282.65
516.11023	14291.35
520.1765	14307.55
524.23987	14268.15
528.30034	14174.45
532.35792	14046.65
536.41261	13893.15
540.46441	13659.05
544.51333	13511.35
548.55936	13549.85
552.60252	13814.25
556.64279	14161.25
560.6802	14393.05
564.71473	14544.15
568.7464	14924.55
572.7752	15329.25
576.80114	15384.75
580.82422	15389.95
584.84444	15572.95
588.86181	15863.85
592.87633	16254.35
596.888	16448.05
600.89682	16383.75
604.9028	17242.95
608.90594	20163.15
612.90624	23666.85
616.90371	22012.65
620.89834	16710.85
624.89015	14360.85
628.87913	14060.05
632.86528	14170.65
636.84862	14252.05
640.82913	14019.75
644.80683	13427.35
648.78172	13011.25
652.75379	12949.75
656.72306	13233.15
660.68952	13695.35
664.65319	13564.85
668.61405	13136.95
672.57211	13047.15
676.52738	13164.25
680.47986	13175.15
684.42955	13072.55
688.37646	12879.35
692.32058	12866.65
696.26192	12921.45
700.20048	13066.95
704.13626	13142.85
708.06928	13072.15
711.99952	12947.35
715.927	12894.25
719.85171	12960.15
723.77365	12957.85
727.69284	12861.05
731.60928	12745.25
735.52295	12725.25
739.43388	12794.55
743.34206	12828.25
747.24749	12905.85
751.15017	12923.05
755.05012	13132.85
758.94733	13636.65
762.8418	14787.45
766.73354	16788.15
770.62254	18894.65
774.50882	19690.65
778.39237	18746.55
782.27321	16682.65
786.15132	14787.95
790.02671	13593.85
793.89938	12969.45
797.76935	12758.75
801.6366	12650.85
805.50115	12579.65
809.36299	12450.15
813.22213	12290.35
817.07857	12217.45
820.93231	12129.05
824.78336	12137.55
828.63172	12096.55
832.47738	12094.75
836.32036	12124.15
840.16066	12120.15
843.99827	12131.35
847.8332	12106.85
851.66546	12058.75
855.49504	12042.35
859.32195	12025.95
863.1462	12043.35
866.96777	12018.35
870.78668	11997.25
874.60293	11983.05
878.41652	12027.25
882.22745	12082.55
886.03573	12164.25
889.84136	12164.75
893.64433	12086.05
897.44466	12028.15
901.24235	11978.15
905.0374	11855.75
908.8298	11755.95
912.61957	11717.75
916.40671	11785.85
920.19121	11924.55
923.97308	12087.85
927.75233	12264.25
931.52895	12332.05
935.30295	12162.75
939.07433	11814.95
942.84309	11530.75
946.60924	11394.85
950.37278	11346.25
954.13371	11280.95
957.89203	11237.75
961.64774	11168.55
965.40086	11128.35
969.15137	11073.95
972.89929	11015.85
976.64461	11014.35
980.38733	10999.15
984.12747	11014.55
987.86502	11110.95
991.59999	11247.75
995.33237	11508.55
999.06217	11945.75
1002.78939	12406.85
1006.51404	12712.15
1010.23611	12916.55
1013.95561	13066.15
1017.67255	13110.65
1021.38692	12955.15
1025.09872	12712.95
1028.80796	12685.45
1032.51465	12983.15
1036.21877	13305.25
1039.92035	13384.15
1043.61937	13222.35
1047.31584	12957.95
1051.00976	12667.95
1054.70114	12503.05
1058.38998	12452.35
1062.07627	12465.55
1065.76003	12510.25
1069.44126	12582.15
1073.11995	12754.25
1076.79611	12989.05
1080.46974	13192.75
1084.14085	13418.95
1087.80943	13719.75
1091.47549	13855.35
1095.13903	13770.75
1098.80005	13443.55
1102.45857	13057.45
1106.11456	12872.15
1109.76805	12882.45
1113.41903	13030.45
1117.06751	13348.65
1120.71348	13699.15
1124.35696	14117.55
1127.99793	14539.25
1131.63641	14624.95
1135.2724	14367.05
1138.90589	13984.35
1142.5369	13731.05
1146.16542	13548.45
1149.79145	13392.85
1153.415	13433.15
1157.03607	13617.85
1160.65467	14006.15
1164.27079	14651.35
1167.88443	15624.05
1171.49561	17024.25
1175.10432	18913.05
1178.71056	21311.35
1182.31434	23554.15
1185.91565	24499.35
1189.51451	24097.15
1193.11091	22856.95
1196.70485	21363.55
1200.29634	19910.05
1203.88538	18775.05
1207.47197	17695.85
1211.05612	16822.55
1214.63782	16332.15
1218.21708	16178.25
1221.79391	16249.15
1225.36829	16374.85
1228.94024	16313.75
1232.50976	15923.25
1236.07685	15553.35
1239.6415	15323.85
1243.20374	15267.55
1246.76355	15315.55
1250.32093	15557.35
1253.8759	15930.15
1257.42845	16518.35
1260.97859	17134.75
1264.52631	17836.15
1268.07163	18571.95
1271.61453	19300.55
1275.15503	20010.75
1278.69312	20607.35
1282.22882	21140.35
1285.76211	21729.95
1289.29301	22406.45
1292.82151	23286.75
1296.34761	24377.75
1299.87133	25910.05
1303.39266	28023.75
1306.9116	30725.95
1310.42815	33451.65
1313.94233	35019.65
1317.45412	34515.65
1320.96354	32791.85
1324.47058	30870.35
1327.97525	29128.65
1331.47754	27982.85
1334.97747	27334.15
1338.47502	27034.75
1341.97022	27182.15
1345.46305	27509.25
1348.95352	28059.85
1352.44163	29085.25
1355.92738	30981.55
1359.41078	33856.75
1362.89183	36519.05
1366.37053	35600.25
1369.84688	31165.75
1373.32088	26310.15
1376.79254	23137.15
1380.26186	21638.45
1383.72883	20933.55
1387.19347	20449.75
1390.65578	19985.25
1394.11575	19735.45
1397.57339	19870.15
1401.0287	20177.95
1404.48168	20422.95
1407.93234	20394.95
1411.38068	20182.05
1414.82669	19698.95
1418.27039	19107.05
1421.71177	18534.85
1425.15083	17953.95
1428.58758	17667.25
1432.02203	17837.45
1435.45416	18207.55
1438.88399	18614.65
1442.31151	18916.85
1445.73673	19144.45
1449.15965	19410.65
1452.58027	19584.05
1455.9986	19682.35
1459.41463	19845.05
1462.82837	20219.35
1466.23982	20674.75
1469.64898	21073.55
1473.05586	21309.15
1476.46045	21322.55
1479.86276	21227.85
1483.26279	21198.95
1486.66054	21285.35
1490.05602	21608.85
1493.44922	22182.25
1496.84016	23092.65
1500.22882	24498.85
1503.61521	26646.55
1506.99934	29161.45
1510.38121	31134.65
1513.76081	31394.35
1517.13816	29569.85
1520.51324	26721.35
1523.88607	24149.25
1527.25665	22517.35
1530.62498	21649.55
1533.99105	21136.55
1537.35488	20713.35
1540.71647	20327.15
1544.07581	19933.15
1547.4329	19531.25
1550.78776	19295.05
1554.14038	19171.65
1557.49077	19182.15
1560.83892	19374.45
1564.18484	19688.75
1567.52853	20009.55
1570.86999	20458.75
1574.20922	20785.55
1577.54624	20835.95
1580.88103	20227.55
1584.2136	19506.85
1587.54395	19471.45
1590.87208	20191.45
1594.19801	21682.45
1597.52172	23327.95
1600.84321	23911.85
1604.16251	22889.15
1607.47959	21058.55
1610.79447	19023.55
1614.10715	17238.75
1617.41763	15771.75
1620.7259	14808.45
1624.03199	14318.25
1627.33587	14368.25
1630.63757	14874.75
1633.93707	15989.15
1637.23439	17817.15
1640.52951	20406.05
1643.82246	23575.45
1647.11321	26384.05
1650.40179	27394.75
1653.68819	25533.25
1656.97241	21654.55
1660.25446	17736.55
1663.53433	14917.65
1666.81203	13245.25
1670.08756	12285.75
1673.36092	11669.75
1676.63211	11290.35
1679.90115	11001.05
1683.16801	10797.25
1686.43272	10634.15
1689.69527	10490.25
1692.95567	10344.95
1696.2139	10189.55
1699.46999	10059.25
1702.72392	9963.05
1705.97571	10024.45
1709.22535	10073.35
1712.47284	10129.15
1715.71819	10122.55
1718.96139	10076.35
1722.20246	10024.45
1725.44139	9961.75
1728.67818	9895.55
1731.91284	9828.65
1735.14537	9728.95
1738.37576	9718.75
1741.60403	9645.85
1744.83017	9606.85
1748.05418	9586.95
1751.27607	9558.15
1754.49584	9463.95
1757.71349	9393.15
1760.92903	9359.85
1764.14244	9336.15
1767.35375	9322.95
1770.56294	9275.35
1773.77002	9237.05
1776.97499	9242.05
1780.17785	9272.05
1783.37861	9281.05
1786.57727	9300.65
1789.77382	9277.25
1792.96828	9250.25
1796.16064	9235.25
1799.3509	9218.45
1802.53907	9178.95
1805.72514	9177.85
1808.90913	9127.55
1812.09102	9133.85
1815.27083	9120.95
1818.44856	9074.65
1821.6242	9062.55
1824.79776	9072.85
1827.96924	9041.35
1831.13864	9048.25
1834.30597	9034.55
1837.47122	9047.65
1840.6344	9048.75
1843.7955	9059.15
1846.95454	9042.95
1850.11151	9046.55
1853.26642	9014.25
1856.41926	9033.35
1859.57004	9017.15
1862.71876	8981.55
1865.86542	8983.05
1869.01003	8984.35
1872.15258	8972.05
1875.29308	8991.05
1878.43152	8991.65
1881.56792	8977.55
1884.70227	8954.35
1887.83457	8946.35
1890.96482	8955.65
1894.09304	8932.45
1897.21921	8952.45
1900.34335	8925.45
1903.46544	8909.85
1906.58551	8899.25
1909.70353	8886.85
1912.81953	8870.75
1915.93349	8866.25
1919.04543	8819.45
1922.15534	8813.35
1925.26322	8749.55
1928.36908	8739.55
1931.47292	8731.55
1934.57473	8684.05
1937.67453	8671.75
1940.77232	8632.75
1943.86808	8616.85
1946.96184	8578.55
1950.05358	8537.15
1953.14331	8526.45
1956.23103	8480.15
1959.31675	8456.95
1962.40046	8461.25
1965.48217	8437.35
1968.56188	8412.55
1971.63959	8399.25
1974.7153	8382.35
1977.78901	8329.65
1980.86073	8309.05
1983.93046	8270.45
1986.99819	8243.95
1990.06394	8229.05
1993.1277	8215.45
1996.18947	8172.45
1999.24925	8169.85
2002.30706	8110.25
2005.36288	8079.45
2008.41672	8070.15
2011.46859	8062.45
2014.51848	8025.65
2017.56639	8010.35
2020.61233	8000.35
2023.6563	7977.75
2026.6983	7944.15
2029.73833	7930.65
2032.7764	7897.45
2035.8125	7875.55
2038.84664	7908.35
2041.87881	7903.55
2044.90903	7866.15
2047.93729	7857.45
2050.96359	7858.45
2053.98794	7861.95
2057.01034	7856.95
2060.03078	7846.55
2063.04927	7827.35
2066.06582	7821.55
2069.08042	7809.85
2072.09307	7798.75
2075.10378	7780.85
2078.11255	7768.75
2081.11938	7784.95
2084.12426	7738.95
2087.12722	7750.05
2090.12824	7751.45
2093.12732	7751.75
2096.12447	7772.25
2099.11969	7760.65
2102.11299	7762.25
2105.10435	7778.75
2108.09379	7753.85
2111.08131	7767.55
2114.0669	7756.35
2117.05057	7775.05
2120.03233	7799.35
2123.01216	7805.55
2125.99008	7807.85
2128.96609	7814.15
2131.94018	7810.35
2134.91236	7807.65
2137.88263	7790.45
2140.851	7800.85
2143.81746	7840.25
2146.78201	7806.05
2149.74466	7812.85
2152.7054	7804.65
2155.66425	7812.05
2158.6212	7790.95
2161.57625	7792.55
2164.52941	7767.85
2167.48067	7775.55
2170.43004	7770.25
2173.37752	7772.55
2176.32311	7776.95
2179.26681	7773.85
2182.20863	7745.05
2185.14856	7794.05
2188.08661	7797.65
2191.02278	7788.85
2193.95707	7781.95
2196.88948	7764.25
2199.82001	7750.05
2202.74867	7759.05
2205.67545	7756.15
2208.60037	7747.75
2211.52341	7725.65
2214.44458	7732.35
2217.36388	7717.75
2220.28132	7709.35
2223.1969	7694.45
2226.11061	7689.15
2229.02246	7672.55
2231.93245	7659.85
2234.84058	7641.35
2237.74686	7625.55
2240.65128	7611.75
2243.55385	7601.55
2246.45456	7617.05
2249.35343	7600.85
2252.25044	7579.25
2255.14561	7571.15
2258.03893	7576.75
2260.93041	7539.35
2263.82004	7544.35
2266.70783	7529.25
2269.59378	7500.75
2272.4779	7474.45
2275.36017	7470.45
2278.24061	7426.25
2281.11922	7444.65
2283.996	7423.85
2286.87094	7419.05
2289.74405	7409.45
2292.61534	7395.35
2295.4848	7403.95
2298.35243	7388.75
2301.21824	7399.85
2304.08223	7405.75
2306.94439	7380.25
2309.80474	7398.05
2312.66327	7422.85
2315.51999	7389.05
2318.37489	7394.05
2321.22797	7395.55
2324.07925	7381.75
2326.92871	7367.65
2329.77637	7373.95
2332.62222	7372.75
2335.46626	7361.35
2338.3085	7352.85
2341.14893	7353.15
2343.98756	7376.45
2346.8244	7389.45
2349.65943	7414.05
2352.49267	7401.25
2355.32411	7388.65
2358.15376	7412.75
2360.98161	7401.85
2363.80768	7394.65
2366.63195	7399.35
2369.45444	7387.05
2372.27514	7372.05
2375.09405	7359.35
2377.91118	7342.95
2380.72652	7326.55
2383.54009	7304.65
2386.35187	7265.65
2389.16188	7219.95
2391.97011	7238.55
2394.77657	7221.95
2397.58125	7222.55
2400.38416	7204.35
2403.18529	7183.45
2405.98466	7156.75
2408.78226	7145.35
2411.57809	7135.75
2414.37216	7126.55
2417.16446	7124.55
2419.955	7107.15
2422.74378	7102.05
2425.5308	7107.95
2428.31606	7104.15
2431.09956	7097.35
2433.88131	7095.05
2436.6613	7096.55
2439.43954	7109.25
2442.21603	7118.75
2444.99077	7121.35
2447.76377	7121.65
2450.53501	7114.95
2453.30451	7108.75
2456.07226	7107.65
2458.83827	7108.15
2461.60254	7130.85
2464.36507	7116.75
2467.12586	7110.95
2469.88492	7127.65
2472.64224	7134.65
2475.39782	7115.65
2478.15167	7106.55
2480.90379	7145.15
2483.65417	7143.65
2486.40283	7155.65
2489.14976	7180.65
2491.89497	7166.45
2494.63845	7178.65
2497.3802	7161.35
2500.12024	7174.65
2502.85855	7182.25
2505.59514	7146.15
2508.33002	7121.35
2511.06318	7114.65
2513.79462	7097.35
2516.52435	7078.35
2519.25237	7055.45
2521.97867	7051.55
2524.70327	7068.85
2527.42616	7049.95
2530.14734	7045.25
2532.86681	7058.45
2535.58458	7055.15
2538.30065	7048.05
2541.01501	7051.75
2543.72768	7043.25
2546.43864	7061.85
2549.14791	7054.85
2551.85548	7039.75
2554.56136	7011.85
2557.26554	7025.75
2559.96803	7027.85
2562.66883	7025.15
2565.36794	7020.45
2568.06536	7006.15
2570.7611	6988.45
2573.45514	6999.05
2576.14751	6994.15
2578.83819	6992.15
2581.52719	6992.15
2584.21451	6972.65
2586.90015	6984.85
2589.58411	6969.95
2592.2664	6946.85
2594.94701	6952.95
2597.62594	6964.95
2600.30321	6968.55
2602.9788	6967.25
2605.65273	6971.35
2608.32498	6965.65
2610.99557	6949.65
2613.66449	6944.15
2616.33175	6968.15
2618.99734	6976.55
2621.66128	6979.95
2624.32355	6975.45
2626.98416	6983.35
2629.64311	6980.95
2632.30041	6969.55
2634.95605	6952.05
2637.61004	6941.85
2640.26238	6921.35
2642.91306	6933.65
2645.56209	6917.65
2648.20948	6896.15
2650.85521	6892.65
2653.4993	6920.65
2656.14175	6905.05
2658.78255	6905.15
2661.42171	6903.35
2664.05923	6940.05
2666.6951	6950.75
2669.32934	6978.35
2671.96194	6964.85
2674.59291	6977.85
2677.22224	6939.15
2679.84993	6943.55
2682.476	6936.95
2685.10043	6916.45
2687.72324	6906.65
2690.34441	6939.05
2692.96396	6931.75
2695.58188	6910.75
2698.19818	6878.45
2700.81285	6903.65
2703.4259	6858.45
2706.03733	6826.75
2708.64714	6857.05
2711.25533	6881.15
2713.86191	6873.25
2716.46687	6909.85
2719.07021	6931.75
2721.67194	6932.05
2724.27206	6939.95
2726.87057	6944.15
2729.46747	6954.05
2732.06276	6957.75
2734.65644	6934.25
2737.24852	6923.35
2739.83899	6932.85
2742.42786	6929.65
2745.01513	6909.85
2747.60079	6909.65
2750.18486	6937.75
2752.76733	6916.15
2755.3482	6924.65
2757.92747	6908.65
2760.50515	6914.65
2763.08123	6901.85
2765.65573	6898.75
2768.22863	6886.25
2770.79994	6867.45
2773.36967	6874.25
2775.9378	6863.05
2778.50435	6863.35
2781.06932	6884.15
2783.6327	6887.65
2786.1945	6885.65
2788.75471	6891.95
2791.31335	6889.65
2793.87041	6872.25
2796.42589	6833.45
2798.97979	6844.45
2801.53212	6822.25
2804.08288	6839.35
2806.63206	6817.35
2809.17967	6810.65
2811.72571	6803.35
2814.27018	6820.05
2816.81308	6806.05
2819.35442	6796.75
2821.89419	6802.15
2824.43239	6818.85
2826.96904	6794.45
2829.50412	6817.15
2832.03763	6785.15
2834.56959	6800.95
2837.1	6781.55
2839.62884	6773.35
2842.15613	6762.15
2844.68186	6768.35
2847.20604	6788.45
2849.72867	6776.65
2852.24974	6770.65
2854.76927	6771.15
2857.28724	6764.05
2859.80367	6753.35
2862.31855	6773.65
2864.83189	6759.65
2867.34368	6784.05
2869.85393	6796.15
2872.36264	6788.65
2874.8698	6787.95
2877.37543	6798.95
2879.87952	6795.15
2882.38207	6802.45
2884.88308	6793.95
2887.38256	6806.15
2889.88051	6816.55
2892.37692	6803.25
2894.8718	6819.15
2897.36515	6806.85
2899.85698	6843.35
2902.34727	6850.05
2904.83604	6862.25
2907.32328	6875.15
2909.809	6891.45
2912.29319	6918.65
2914.77587	6901.55
2917.25702	6887.25
2919.73665	6900.45
2922.21476	6889.25
2924.69136	6871.55
2927.16644	6870.35
2929.64	6873.95
2932.11205	6853.75
2934.58258	6838.55
2937.05161	6823.65
2939.51912	6826.25
2941.98513	6806.25
2944.44962	6788.75
2946.91261	6788.65
2949.37409	6773.35
2951.83407	6802.35
2954.29254	6782.55
2956.74951	6768.45
2959.20498	6755.05
2961.65895	6731.15
2964.11142	6719.85
2966.56239	6688.15
2969.01186	6701.05
2971.45984	6644.85
2973.90632	6651.35
2976.35131	6642.45
2978.7948	6637.15
2981.23681	6608.35
2983.67732	6614.45
2986.11635	6583.45
2988.55388	6563.05
2990.98993	6534.35
2993.4245	6547.55
2995.85758	6511.25
2998.28917	6509.85
3000.71928	6525.95
3003.14791	6495.95
3005.57506	6497.55
3008.00073	6474.15
3010.42493	6471.15
3012.84764	6464.45
3015.26888	6444.95
3017.68865	6449.35
3020.10694	6432.95
3022.52376	6406.75
3024.9391	6427.75
3027.35298	6389.25
3029.76539	6397.75
3032.17632	6394.35
3034.5858	6377.75
3036.9938	6365.55
3039.40034	6372.95
3041.80542	6364.55
3044.20903	6334.45
3046.61118	6351.05
3049.01187	6321.45
3051.4111	6335.55
3053.80888	6324.15
3056.20519	6311.25
3058.60005	6314.65
3060.99345	6295.55
3063.3854	6298.35
3065.7759	6258.65
3068.16494	6255.25
3070.55254	6247.45
3072.93868	6232.15
3075.32338	6197.75
3077.70662	6178.05
3080.08842	6167.55
3082.46878	6172.05
3084.84769	6155.05
3087.22515	6147.35
3089.60118	6166.35
3091.97576	6180.45
3094.3489	6159.95
3096.72061	6140.95
3099.09087	6144.45
3101.4597	6164.15
3103.82709	6153.95
3106.19305	6138.25
3108.55757	6136.45
3110.92066	6123.75
3113.28232	6116.85
3115.64255	6100.15
3118.00134	6102.15
3120.35871	6108.35
3122.71466	6094.55
3125.06917	6124.05
3127.42226	6081.85
3129.77393	6090.55
3132.12417	6070.65
3134.47299	6068.15
3136.82039	6090.15
3139.16636	6072.95
3141.51092	6077.45
3143.85406	6086.45
3146.19579	6086.45
3148.53609	6090.15
3150.87499	6093.85
3153.21246	6083.55
3155.54853	6118.05
3157.88318	6132.35
3160.21642	6113.55
3162.54826	6120.45
3164.87868	6126.75
3167.2077	6129.25
3169.5353	6149.05
3171.86151	6139.45
3174.18631	6133.25
3176.5097	6125.65
3178.83169	6131.05
3181.15228	6106.95
3183.47147	6120.65
3185.78926	6129.55
3188.10565	6123.75
3190.42065	6140.85
3192.73424	6129.45
3195.04645	6124.15
3197.35725	6114.65
3199.66667	6112.35
3201.97469	6131.05
3204.28132	6128.65
3206.58656	6147.45
3208.8904	6134.05
3211.19287	6127.35
3213.49394	6148.45
3215.79363	6148.35
3218.09193	6160.85
3220.38884	6137.25
3222.68438	6144.35
3224.97853	6138.85
3227.2713	6144.95
3229.56269	6152.55
3231.8527	6153.45
3234.14133	6145.65
3236.42858	6141.45
3238.71446	6126.85
3240.99896	6111.55
3243.28209	6107.05
3245.56384	6107.85
3247.84423	6103.45
3250.12324	6097.65
3252.40088	6118.45
3254.67715	6093.55
3256.95205	6088.95
3259.22558	6090.25
3261.49775	6086.05
3263.76855	6067.45
3266.03799	6083.05
3268.30606	6062.95
3270.57277	6075.55
3272.83812	6059.85
3275.10211	6061.05
3277.36474	6045.85
3279.62601	6048.15
3281.88593	6027.35
3284.14448	6037.95
3286.40168	6046.95
3288.65753	6056.05
3290.91202	6050.25
3293.16516	6044.75
3295.41695	6040.35
3297.66738	5982.25
3299.91647	5973.55
3302.16421	5942.85
3304.4106	5920.75
3306.65564	5872.55
3308.89933	5837.65
3311.14169	5802.85
3313.38269	5758.35
3315.62236	5699.95
3317.86068	5660.35
3320.09766	5618.65
3322.3333	5600.15
3324.5676	5568.35
3326.80056	5465.05
3329.03219	5441.75
3331.26248	1.75
3333.49143	-2.05
3335.71905	0.85
