Data from AgNPs_FTO_APTES_UA_50uM_CRN_10uM_R6G_10uM_NaF_0.1M_Addition_RamanShift__20__13-36-44-886.txt Node

Date: Mon Feb 21 13:36:44 GMT 2022
User: TCL
Spectrometer: QEP01345
Trigger mode: 4
Integration Time (sec): 7.000000E0
Scans to average: 10
Electric dark correction enabled: true
Nonlinearity correction enabled: false
Boxcar width: 0
XAxis mode: Raman Shifts
Number of Pixels in Spectrum: 1044
>>>>>Begin Spectral Data<<<<<
46.04893	0.95
50.45542	-1.25
54.85868	0.25
59.25871	-1.05
63.6555	75.65
68.04907	82.35
72.43941	79.15
76.82654	84.75
81.21044	88.55
85.59113	95.35
89.96862	95.65
94.34289	94.95
98.71396	100.15
103.08183	108.75
107.4465	110.05
111.80798	109.25
116.16626	114.05
120.52136	116.85
124.87327	128.15
129.222	127.25
133.56755	135.15
137.90993	150.15
142.24913	157.55
146.58517	179.35
150.91804	206.95
155.24774	250.95
159.57429	313.75
163.89768	396.75
168.21792	539.45
172.53501	733.35
176.84895	1020.75
181.15975	1430.55
185.46741	2006.65
189.77193	2775.05
194.07331	3706.85
198.37157	4768.25
202.6667	5911.65
206.9587	7061.65
211.24758	8212.95
215.53334	9437.55
219.81599	10774.75
224.09553	12297.95
228.37195	13991.35
232.64527	15857.95
236.91549	17682.35
241.18261	19366.45
245.44663	20707.35
249.70755	21732.45
253.96539	22654.85
258.22014	23406.05
262.4718	24035.05
266.72039	24557.55
270.96589	24713.25
275.20832	24554.95
279.44768	24201.25
283.68397	23723.05
287.91719	23419.55
292.14735	23438.15
296.37445	23846.15
300.59849	24595.15
304.81948	25522.45
309.03742	26104.95
313.25231	25967.25
317.46415	24927.15
321.67296	23313.35
325.87872	21929.95
330.08145	21253.25
334.28114	21243.95
338.47781	21529.45
342.67145	22095.75
346.86207	22935.55
351.04966	24100.75
355.23424	25398.15
359.4158	26407.15
363.59435	26968.15
367.76989	27166.85
371.94243	27107.65
376.11196	26998.05
380.27849	26940.85
384.44203	26759.85
388.60257	26499.65
392.76012	26387.25
396.91468	26588.35
401.06626	27162.65
405.21485	27537.35
409.36047	27047.35
413.50311	25780.75
417.64277	24601.95
421.77947	23970.55
425.9132	23732.75
430.04396	23686.75
434.17176	23850.95
438.2966	24179.95
442.41849	24834.15
446.53742	25717.75
450.6534	26590.45
454.76644	27079.05
458.87653	27159.75
462.98368	26951.25
467.08789	26479.15
471.18916	25948.55
475.2875	25301.65
479.38291	24829.05
483.4754	24428.55
487.56496	24045.35
491.6516	23698.65
495.73531	23471.65
499.81612	23525.55
503.89401	23809.25
507.96899	24048.35
512.04106	24268.15
516.11023	24437.55
520.1765	24544.15
524.23987	24445.45
528.30034	24232.55
532.35792	23932.25
536.41261	23556.75
540.46441	23148.75
544.51333	22889.05
548.55936	23028.95
552.60252	23548.35
556.64279	24247.55
560.6802	24672.25
564.71473	25086.85
568.7464	26056.45
572.7752	26761.05
576.80114	26349.85
580.82422	25840.55
584.84444	25742.45
588.86181	26110.85
592.87633	26767.55
596.888	27185.65
600.89682	27485.35
604.9028	29847.75
608.90594	37102.75
612.90624	45846.55
616.90371	42676.35
620.89834	30476.75
624.89015	24918.45
628.87913	23972.45
632.86528	24239.05
636.84862	24606.45
640.82913	24142.65
644.80683	22961.45
648.78172	22023.85
652.75379	21952.95
656.72306	22768.45
660.68952	23870.45
664.65319	23535.65
668.61405	22490.95
672.57211	22197.15
676.52738	22342.95
680.47986	22309.45
684.42955	22055.05
688.37646	21833.25
692.32058	21885.55
696.26192	22062.15
700.20048	22376.95
704.13626	22533.55
708.06928	22389.45
711.99952	22105.15
715.927	21995.25
719.85171	22143.65
723.77365	22167.35
727.69284	21963.65
731.60928	21733.75
735.52295	21699.45
739.43388	21807.95
743.34206	21975.25
747.24749	22093.65
751.15017	22187.55
755.05012	22557.25
758.94733	23744.75
762.8418	26410.25
766.73354	31093.35
770.62254	35732.45
774.50882	37604.85
778.39237	35582.15
782.27321	30863.25
786.15132	26437.65
790.02671	23726.05
793.89938	22403.75
797.76935	21857.75
801.6366	21624.25
805.50115	21499.15
809.36299	21304.65
813.22213	21076.65
817.07857	20965.15
820.93231	20868.25
824.78336	20892.65
828.63172	20931.65
832.47738	20915.55
836.32036	20852.05
840.16066	20798.75
843.99827	20800.75
847.8332	20736.35
851.66546	20716.45
855.49504	20714.75
859.32195	20750.75
863.1462	20671.35
866.96777	20643.15
870.78668	20590.25
874.60293	20608.85
878.41652	20665.25
882.22745	20807.55
886.03573	20922.65
889.84136	20951.45
893.64433	20839.25
897.44466	20774.75
901.24235	20661.85
905.0374	20526.25
908.8298	20307.35
912.61957	20193.55
916.40671	20266.95
920.19121	20532.25
923.97308	20813.75
927.75233	21053.55
931.52895	21223.35
935.30295	20962.25
939.07433	20375.25
942.84309	19856.45
946.60924	19626.25
950.37278	19505.65
954.13371	19430.45
957.89203	19323.15
961.64774	19224.85
965.40086	19160.15
969.15137	19065.75
972.89929	19009.35
976.64461	18966.05
980.38733	18969.25
984.12747	19045.95
987.86502	19222.25
991.59999	19509.55
995.33237	19940.25
999.06217	20607.35
1002.78939	21503.55
1006.51404	22228.35
1010.23611	22762.65
1013.95561	23023.95
1017.67255	22988.35
1021.38692	22712.15
1025.09872	22249.05
1028.80796	22103.45
1032.51465	22418.65
1036.21877	22889.45
1039.92035	22989.85
1043.61937	22909.55
1047.31584	22506.25
1051.00976	22067.45
1054.70114	21737.95
1058.38998	21676.95
1062.07627	21768.65
1065.76003	21816.35
1069.44126	21960.45
1073.11995	22292.55
1076.79611	22691.95
1080.46974	23226.55
1084.14085	23898.05
1087.80943	24569.05
1091.47549	24863.95
1095.13903	24569.45
1098.80005	23815.25
1102.45857	23158.55
1106.11456	22841.95
1109.76805	23005.05
1113.41903	23523.65
1117.06751	24346.55
1120.71348	25315.25
1124.35696	26419.65
1127.99793	27300.35
1131.63641	27175.05
1135.2724	26134.75
1138.90589	25041.55
1142.5369	24416.15
1146.16542	23922.05
1149.79145	23677.95
1153.415	23687.65
1157.03607	23961.65
1160.65467	24625.75
1164.27079	25776.45
1167.88443	27601.25
1171.49561	30108.35
1175.10432	33806.55
1178.71056	38822.35
1182.31434	43324.95
1185.91565	45063.95
1189.51451	44067.95
1193.11091	41479.65
1196.70485	38547.85
1200.29634	36030.25
1203.88538	33853.55
1207.47197	31691.65
1211.05612	29893.65
1214.63782	28780.75
1218.21708	28460.25
1221.79391	28607.35
1225.36829	28743.25
1228.94024	28524.65
1232.50976	27967.25
1236.07685	27513.85
1239.6415	27203.75
1243.20374	27176.85
1246.76355	27306.75
1250.32093	27675.15
1253.8759	28405.85
1257.42845	29473.95
1260.97859	30707.75
1264.52631	32073.75
1268.07163	33399.15
1271.61453	34660.35
1275.15503	35849.05
1278.69312	36713.55
1282.22882	37460.25
1285.76211	38431.95
1289.29301	39779.05
1292.82151	41391.55
1296.34761	43415.45
1299.87133	46405.75
1303.39266	50711.25
1306.9116	56502.45
1310.42815	62463.05
1313.94233	65169.75
1317.45412	63366.35
1320.96354	59285.75
1324.47058	55104.15
1327.97525	51642.95
1331.47754	49464.35
1334.97747	48621.75
1338.47502	48868.15
1341.97022	49740.45
1345.46305	51134.95
1348.95352	52893.45
1352.44163	55449.55
1355.92738	59751.65
1359.41078	66730.85
1362.89183	73126.15
1366.37053	70266.15
1369.84688	59275.75
1373.32088	49008.65
1376.79254	42885.55
1380.26186	39865.35
1383.72883	38340.15
1387.19347	37244.15
1390.65578	36271.75
1394.11575	35848.75
1397.57339	35946.55
1401.0287	36425.75
1404.48168	36913.85
1407.93234	37170.45
1411.38068	37151.55
1414.82669	36705.05
1418.27039	35767.65
1421.71177	34561.35
1425.15083	33503.65
1428.58758	33010.05
1432.02203	33330.35
1435.45416	33984.65
1438.88399	34554.65
1442.31151	34843.65
1445.73673	35168.15
1449.15965	35598.95
1452.58027	35771.25
1455.9986	35878.45
1459.41463	36168.15
1462.82837	36832.25
1466.23982	37744.05
1469.64898	38477.65
1473.05586	38883.15
1476.46045	38879.15
1479.86276	38848.65
1483.26279	38934.85
1486.66054	39461.75
1490.05602	40309.85
1493.44922	41722.95
1496.84016	43872.35
1500.22882	47573.65
1503.61521	52989.55
1506.99934	59469.95
1510.38121	64140.85
1513.76081	64302.35
1517.13816	59214.75
1520.51324	51887.95
1523.88607	45699.45
1527.25665	41868.55
1530.62498	39843.95
1533.99105	38802.75
1537.35488	37942.65
1540.71647	37200.75
1544.07581	36668.75
1547.4329	36186.65
1550.78776	35930.35
1554.14038	35895.15
1557.49077	36095.85
1560.83892	36573.75
1564.18484	37362.65
1567.52853	38300.65
1570.86999	39101.25
1574.20922	39669.45
1577.54624	39506.65
1580.88103	37879.35
1584.2136	36106.85
1587.54395	35604.65
1590.87208	36962.85
1594.19801	39706.75
1597.52172	42875.15
1600.84321	43936.45
1604.16251	42043.75
1607.47959	38645.05
1610.79447	35089.25
1614.10715	31677.55
1617.41763	28981.85
1620.7259	27132.85
1624.03199	26303.65
1627.33587	26394.25
1630.63757	27441.65
1633.93707	29549.95
1637.23439	32979.75
1640.52951	37892.45
1643.82246	44072.75
1647.11321	49878.65
1650.40179	52298.25
1653.68819	48778.55
1656.97241	40809.55
1660.25446	32997.85
1663.53433	27551.85
1666.81203	24251.55
1670.08756	22414.75
1673.36092	21258.85
1676.63211	20524.75
1679.90115	19995.75
1683.16801	19606.65
1686.43272	19296.95
1689.69527	19096.25
1692.95567	18800.95
1696.2139	18614.95
1699.46999	18466.95
1702.72392	18410.25
1705.97571	18394.45
1709.22535	18455.25
1712.47284	18467.45
1715.71819	18459.15
1718.96139	18410.65
1722.20246	18321.35
1725.44139	18177.05
1728.67818	17992.35
1731.91284	17841.85
1735.14537	17740.05
1738.37576	17659.85
1741.60403	17580.65
1744.83017	17527.45
1748.05418	17441.95
1751.27607	17361.25
1754.49584	17251.65
1757.71349	17186.55
1760.92903	17135.85
1764.14244	17073.55
1767.35375	17037.65
1770.56294	16985.55
1773.77002	16931.85
1776.97499	16921.15
1780.17785	16902.75
1783.37861	16880.45
1786.57727	16862.75
1789.77382	16833.95
1792.96828	16834.85
1796.16064	16800.05
1799.3509	16748.95
1802.53907	16731.95
1805.72514	16678.45
1808.90913	16656.25
1812.09102	16582.25
1815.27083	16503.75
1818.44856	16495.05
1821.6242	16508.25
1824.79776	16494.85
1827.96924	16470.05
1831.13864	16463.45
1834.30597	16429.95
1837.47122	16440.35
1840.6344	16421.15
1843.7955	16394.35
1846.95454	16412.95
1850.11151	16451.45
1853.26642	16410.85
1856.41926	16400.15
1859.57004	16405.05
1862.71876	16405.05
1865.86542	16391.45
1869.01003	16366.85
1872.15258	16385.05
1875.29308	16396.85
1878.43152	16380.45
1881.56792	16397.95
1884.70227	16400.85
1887.83457	16419.65
1890.96482	16406.35
1894.09304	16384.35
1897.21921	16358.95
1900.34335	16370.25
1903.46544	16406.75
1906.58551	16353.45
1909.70353	16355.15
1912.81953	16320.85
1915.93349	16309.15
1919.04543	16230.35
1922.15534	16162.65
1925.26322	16107.35
1928.36908	16016.05
1931.47292	15954.35
1934.57473	15887.45
1937.67453	15822.35
1940.77232	15732.15
1943.86808	15687.55
1946.96184	15663.05
1950.05358	15616.75
1953.14331	15538.45
1956.23103	15488.85
1959.31675	15466.15
1962.40046	15463.35
1965.48217	15396.15
1968.56188	15359.45
1971.63959	15320.65
1974.7153	15283.35
1977.78901	15238.35
1980.86073	15179.05
1983.93046	15135.75
1986.99819	15040.35
1990.06394	14991.55
1993.1277	14929.95
1996.18947	14899.95
1999.24925	14845.15
2002.30706	14791.55
2005.36288	14743.05
2008.41672	14708.05
2011.46859	14664.35
2014.51848	14615.05
2017.56639	14557.95
2020.61233	14569.25
2023.6563	14495.45
2026.6983	14463.55
2029.73833	14466.55
2032.7764	14468.15
2035.8125	14401.15
2038.84664	14396.05
2041.87881	14372.25
2044.90903	14376.85
2047.93729	14356.05
2050.96359	14338.45
2053.98794	14304.65
2057.01034	14303.75
2060.03078	14263.55
2063.04927	14254.15
2066.06582	14199.65
2069.08042	14182.75
2072.09307	14194.95
2075.10378	14170.35
2078.11255	14177.55
2081.11938	14185.55
2084.12426	14162.75
2087.12722	14131.75
2090.12824	14099.55
2093.12732	14153.05
2096.12447	14124.65
2099.11969	14110.55
2102.11299	14152.05
2105.10435	14156.55
2108.09379	14162.45
2111.08131	14166.25
2114.0669	14166.35
2117.05057	14164.65
2120.03233	14217.25
2123.01216	14200.85
2125.99008	14211.95
2128.96609	14235.45
2131.94018	14248.85
2134.91236	14218.65
2137.88263	14258.65
2140.851	14239.05
2143.81746	14247.85
2146.78201	14236.75
2149.74466	14235.55
2152.7054	14210.25
2155.66425	14180.95
2158.6212	14189.65
2161.57625	14184.65
2164.52941	14170.65
2167.48067	14155.95
2170.43004	14136.05
2173.37752	14172.85
2176.32311	14161.65
2179.26681	14162.25
2182.20863	14166.25
2185.14856	14196.75
2188.08661	14181.95
2191.02278	14171.65
2193.95707	14184.65
2196.88948	14150.05
2199.82001	14133.15
2202.74867	14162.15
2205.67545	14133.15
2208.60037	14130.35
2211.52341	14077.95
2214.44458	14062.95
2217.36388	14056.35
2220.28132	14045.45
2223.1969	14040.15
2226.11061	14018.95
2229.02246	13969.85
2231.93245	13959.15
2234.84058	13926.95
2237.74686	13905.15
2240.65128	13902.85
2243.55385	13883.65
2246.45456	13875.05
2249.35343	13870.85
2252.25044	13856.05
2255.14561	13825.65
2258.03893	13845.35
2260.93041	13790.05
2263.82004	13771.95
2266.70783	13766.45
2269.59378	13702.65
2272.4779	13660.75
2275.36017	13615.15
2278.24061	13609.75
2281.11922	13586.65
2283.996	13560.65
2286.87094	13520.55
2289.74405	13492.55
2292.61534	13492.55
2295.4848	13480.75
2298.35243	13502.05
2301.21824	13446.55
2304.08223	13488.15
2306.94439	13522.45
2309.80474	13501.35
2312.66327	13513.55
2315.51999	13511.15
2318.37489	13500.75
2321.22797	13484.15
2324.07925	13453.85
2326.92871	13448.05
2329.77637	13429.45
2332.62222	13440.55
2335.46626	13435.55
2338.3085	13427.95
2341.14893	13437.15
2343.98756	13444.85
2346.8244	13436.15
2349.65943	13470.25
2352.49267	13482.45
2355.32411	13504.15
2358.15376	13528.35
2360.98161	13539.55
2363.80768	13521.65
2366.63195	13502.35
2369.45444	13535.35
2372.27514	13525.75
2375.09405	13474.45
2377.91118	13456.65
2380.72652	13404.65
2383.54009	13368.45
2386.35187	13313.05
2389.16188	13261.65
2391.97011	13242.05
2394.77657	13200.05
2397.58125	13160.25
2400.38416	13152.95
2403.18529	13153.55
2405.98466	13133.05
2408.78226	13076.55
2411.57809	13060.45
2414.37216	13055.45
2417.16446	13020.65
2419.955	12976.65
2422.74378	12995.05
2425.5308	12983.05
2428.31606	13018.85
2431.09956	13019.25
2433.88131	13006.35
2436.6613	12988.45
2439.43954	13025.45
2442.21603	13012.75
2444.99077	12996.45
2447.76377	13009.25
2450.53501	13020.45
2453.30451	13062.85
2456.07226	13042.65
2458.83827	13040.15
2461.60254	13053.15
2464.36507	13029.55
2467.12586	13058.45
2469.88492	13034.45
2472.64224	13056.35
2475.39782	13023.55
2478.15167	13050.65
2480.90379	13078.95
2483.65417	13126.85
2486.40283	13178.15
2489.14976	13146.75
2491.89497	13181.25
2494.63845	13170.25
2497.3802	13183.65
2500.12024	13163.55
2502.85855	13155.05
2505.59514	13110.65
2508.33002	13128.85
2511.06318	13100.35
2513.79462	13036.85
2516.52435	12995.05
2519.25237	12978.15
2521.97867	12941.75
2524.70327	12933.65
2527.42616	12916.15
2530.14734	12895.65
2532.86681	12904.95
2535.58458	12932.85
2538.30065	12942.75
2541.01501	12924.15
2543.72768	12907.35
2546.43864	12928.55
2549.14791	12886.85
2551.85548	12915.25
2554.56136	12876.05
2557.26554	12860.15
2559.96803	12855.65
2562.66883	12841.75
2565.36794	12845.85
2568.06536	12845.95
2570.7611	12823.15
2573.45514	12784.75
2576.14751	12784.75
2578.83819	12803.05
2581.52719	12825.55
2584.21451	12783.75
2586.90015	12791.35
2589.58411	12779.45
2592.2664	12771.95
2594.94701	12781.55
2597.62594	12781.15
2600.30321	12774.35
2602.9788	12756.85
2605.65273	12761.35
2608.32498	12760.35
2610.99557	12748.95
2613.66449	12786.25
2616.33175	12806.45
2618.99734	12784.35
2621.66128	12806.55
2624.32355	12799.05
2626.98416	12742.55
2629.64311	12766.15
2632.30041	12758.55
2634.95605	12750.75
2637.61004	12735.35
2640.26238	12760.45
2642.91306	12725.25
2645.56209	12690.35
2648.20948	12701.15
2650.85521	12666.95
2653.4993	12689.65
2656.14175	12696.05
2658.78255	12751.75
2661.42171	12718.25
2664.05923	12754.25
2666.6951	12754.95
2669.32934	12784.55
2671.96194	12790.45
2674.59291	12791.45
2677.22224	12777.25
2679.84993	12804.05
2682.476	12764.85
2685.10043	12772.95
2687.72324	12761.85
2690.34441	12728.95
2692.96396	12711.25
2695.58188	12721.75
2698.19818	12669.75
2700.81285	12695.45
2703.4259	12701.55
2706.03733	12621.05
2708.64714	12666.05
2711.25533	12679.95
2713.86191	12721.55
2716.46687	12772.65
2719.07021	12766.95
2721.67194	12763.75
2724.27206	12784.05
2726.87057	12815.45
2729.46747	12781.05
2732.06276	12816.85
2734.65644	12803.65
2737.24852	12797.55
2739.83899	12785.95
2742.42786	12788.95
2745.01513	12751.75
2747.60079	12749.15
2750.18486	12722.75
2752.76733	12710.75
2755.3482	12710.95
2757.92747	12751.65
2760.50515	12719.95
2763.08123	12710.25
2765.65573	12676.45
2768.22863	12690.95
2770.79994	12682.05
2773.36967	12692.05
2775.9378	12683.65
2778.50435	12686.75
2781.06932	12666.35
2783.6327	12715.45
2786.1945	12712.95
2788.75471	12731.65
2791.31335	12688.45
2793.87041	12662.65
2796.42589	12649.55
2798.97979	12627.15
2801.53212	12612.75
2804.08288	12598.45
2806.63206	12574.25
2809.17967	12588.45
2811.72571	12557.85
2814.27018	12587.45
2816.81308	12541.35
2819.35442	12519.05
2821.89419	12559.45
2824.43239	12539.25
2826.96904	12524.95
2829.50412	12543.05
2832.03763	12509.65
2834.56959	12521.75
2837.1	12501.85
2839.62884	12457.05
2842.15613	12434.05
2844.68186	12462.25
2847.20604	12490.95
2849.72867	12473.15
2852.24974	12473.85
2854.76927	12466.85
2857.28724	12434.65
2859.80367	12459.15
2862.31855	12469.95
2864.83189	12454.85
2867.34368	12452.15
2869.85393	12462.15
2872.36264	12503.95
2874.8698	12531.25
2877.37543	12541.55
2879.87952	12507.45
2882.38207	12496.25
2884.88308	12502.35
2887.38256	12486.25
2889.88051	12478.65
2892.37692	12508.95
2894.8718	12484.25
2897.36515	12548.75
2899.85698	12534.55
2902.34727	12569.65
2904.83604	12549.45
2907.32328	12556.15
2909.809	12573.45
2912.29319	12593.25
2914.77587	12579.75
2917.25702	12571.45
2919.73665	12566.85
2922.21476	12558.55
2924.69136	12549.25
2927.16644	12548.05
2929.64	12503.25
2932.11205	12483.05
2934.58258	12425.85
2937.05161	12390.15
2939.51912	12404.65
2941.98513	12388.05
2944.44962	12371.65
2946.91261	12328.25
2949.37409	12388.75
2951.83407	12331.45
2954.29254	12323.95
2956.74951	12314.05
2959.20498	12301.75
2961.65895	12262.85
2964.11142	12263.65
2966.56239	12238.65
2969.01186	12213.95
2971.45984	12179.25
2973.90632	12172.75
2976.35131	12126.25
2978.7948	12099.25
2981.23681	12091.65
2983.67732	12064.35
2986.11635	12040.55
2988.55388	11968.15
2990.98993	11969.65
2993.4245	11955.85
2995.85758	11930.85
2998.28917	11897.85
3000.71928	11892.55
3003.14791	11876.05
3005.57506	11886.35
3008.00073	11822.75
3010.42493	11800.25
3012.84764	11802.75
3015.26888	11780.25
3017.68865	11738.55
3020.10694	11731.85
3022.52376	11689.05
3024.9391	11673.75
3027.35298	11647.35
3029.76539	11662.35
3032.17632	11623.35
3034.5858	11599.15
3036.9938	11597.45
3039.40034	11552.15
3041.80542	11533.35
3044.20903	11541.05
3046.61118	11522.95
3049.01187	11501.55
3051.4111	11485.65
3053.80888	11441.25
3056.20519	11442.05
3058.60005	11390.15
3060.99345	11380.05
3063.3854	11350.85
3065.7759	11304.35
3068.16494	11299.55
3070.55254	11277.35
3072.93868	11200.45
3075.32338	11152.45
3077.70662	11140.15
3080.08842	11109.35
3082.46878	11112.35
3084.84769	11073.35
3087.22515	11039.35
3089.60118	11053.15
3091.97576	11037.85
3094.3489	11043.75
3096.72061	11061.45
3099.09087	11052.85
3101.4597	11030.15
3103.82709	11024.65
3106.19305	11015.65
3108.55757	10975.45
3110.92066	10973.05
3113.28232	10934.95
3115.64255	10917.75
3118.00134	10887.05
3120.35871	10891.85
3122.71466	10872.45
3125.06917	10829.75
3127.42226	10809.05
3129.77393	10831.45
3132.12417	10820.75
3134.47299	10829.75
3136.82039	10795.05
3139.16636	10784.75
3141.51092	10768.95
3143.85406	10799.25
3146.19579	10791.65
3148.53609	10771.55
3150.87499	10771.25
3153.21246	10787.35
3155.54853	10789.25
3157.88318	10774.65
3160.21642	10811.05
3162.54826	10804.45
3164.87868	10797.75
3167.2077	10785.45
3169.5353	10764.45
3171.86151	10790.65
3174.18631	10774.25
3176.5097	10735.25
3178.83169	10724.25
3181.15228	10728.95
3183.47147	10712.45
3185.78926	10711.65
3188.10565	10692.95
3190.42065	10690.55
3192.73424	10699.75
3195.04645	10693.35
3197.35725	10700.65
3199.66667	10690.25
3201.97469	10706.05
3204.28132	10701.75
3206.58656	10709.85
3208.8904	10715.35
3211.19287	10682.55
3213.49394	10726.65
3215.79363	10728.55
3218.09193	10718.75
3220.38884	10722.15
3222.68438	10689.15
3224.97853	10728.75
3227.2713	10734.75
3229.56269	10737.85
3231.8527	10745.35
3234.14133	10700.75
3236.42858	10674.15
3238.71446	10679.95
3240.99896	10636.65
3243.28209	10651.25
3245.56384	10612.45
3247.84423	10633.15
3250.12324	10611.35
3252.40088	10625.45
3254.67715	10611.25
3256.95205	10579.55
3259.22558	10580.65
3261.49775	10577.05
3263.76855	10598.55
3266.03799	10577.85
3268.30606	10562.55
3270.57277	10569.75
3272.83812	10556.45
3275.10211	10520.55
3277.36474	10531.75
3279.62601	10523.05
3281.88593	10485.75
3284.14448	10515.35
3286.40168	10510.25
3288.65753	10531.95
3290.91202	10515.55
3293.16516	10475.65
3295.41695	10486.15
3297.66738	10429.35
3299.91647	10351.95
3302.16421	10320.25
3304.4106	10264.85
3306.65564	10221.25
3308.89933	10133.35
3311.14169	10037.45
3313.38269	9972.35
3315.62236	9922.95
3317.86068	9798.45
3320.09766	9715.65
3322.3333	9667.15
3324.5676	9610.05
3326.80056	9467.05
3329.03219	9414.75
3331.26248	1.65
3333.49143	-0.85
3335.71905	0.35
