Data from AgNPs_FTO_APTES_UA_50uM_CRN_0uM_R6G_10uM_NaF_0.1M_Addition_RamanShift__9__10-20-44-628.txt Node

Date: Mon Feb 21 10:20:44 GMT 2022
User: TCL
Spectrometer: QEP01345
Trigger mode: 4
Integration Time (sec): 7.000000E0
Scans to average: 10
Electric dark correction enabled: true
Nonlinearity correction enabled: false
Boxcar width: 0
XAxis mode: Raman Shifts
Number of Pixels in Spectrum: 1044
>>>>>Begin Spectral Data<<<<<
46.04893	1.55
50.45542	-0.45
54.85868	-0.15
59.25871	-0.75
63.6555	25.55
68.04907	28.35
72.43941	30.35
76.82654	32.75
81.21044	33.85
85.59113	37.65
89.96862	40.15
94.34289	40.65
98.71396	41.65
103.08183	43.55
107.4465	46.35
111.80798	42.95
116.16626	39.95
120.52136	44.65
124.87327	49.25
129.222	42.75
133.56755	46.55
137.90993	50.55
142.24913	52.55
146.58517	53.95
150.91804	60.25
155.24774	74.15
159.57429	88.55
163.89768	109.35
168.21792	141.65
172.53501	189.05
176.84895	261.65
181.15975	354.85
185.46741	502.75
189.77193	689.95
194.07331	916.05
198.37157	1186.35
202.6667	1458.95
206.9587	1747.65
211.24758	2031.45
215.53334	2322.05
219.81599	2639.75
224.09553	2996.55
228.37195	3395.65
232.64527	3840.25
236.91549	4254.45
241.18261	4679.55
245.44663	4954.75
249.70755	5221.45
253.96539	5432.45
258.22014	5614.85
262.4718	5776.95
266.72039	5880.65
270.96589	5909.55
275.20832	5877.35
279.44768	5778.25
283.68397	5645.65
287.91719	5545.75
292.14735	5524.35
296.37445	5600.15
300.59849	5804.05
304.81948	6066.55
309.03742	6332.35
313.25231	6415.85
317.46415	6221.55
321.67296	5811.65
325.87872	5441.55
330.08145	5230.65
334.28114	5205.15
338.47781	5251.35
342.67145	5381.25
346.86207	5594.25
351.04966	5894.25
355.23424	6256.85
359.4158	6548.85
363.59435	6659.05
367.76989	6673.85
371.94243	6636.05
376.11196	6582.85
380.27849	6545.95
384.44203	6465.45
388.60257	6354.05
392.76012	6315.05
396.91468	6331.05
401.06626	6458.55
405.21485	6542.45
409.36047	6438.55
413.50311	6095.35
417.64277	5759.45
421.77947	5558.35
425.9132	5464.55
430.04396	5438.35
434.17176	5473.65
438.2966	5568.85
442.41849	5764.95
446.53742	5968.35
450.6534	6144.85
454.76644	6257.35
458.87653	6212.05
462.98368	6061.15
467.08789	5913.95
471.18916	5764.55
475.2875	5633.15
479.38291	5489.65
483.4754	5401.45
487.56496	5354.15
491.6516	5297.25
495.73531	5303.95
499.81612	5321.75
503.89401	5390.35
507.96899	5486.75
512.04106	5584.45
516.11023	5701.85
520.1765	5780.65
524.23987	5811.15
528.30034	5755.15
532.35792	5663.55
536.41261	5548.15
540.46441	5412.15
544.51333	5333.45
548.55936	5317.05
552.60252	5391.25
556.64279	5550.55
560.6802	5647.95
564.71473	5745.35
568.7464	5960.95
572.7752	6087.15
576.80114	5895.85
580.82422	5648.35
584.84444	5584.05
588.86181	5701.85
592.87633	5993.65
596.888	6181.55
600.89682	6114.25
604.9028	6478.55
608.90594	8105.35
612.90624	10654.75
616.90371	10653.25
620.89834	7509.05
624.89015	5837.35
628.87913	5482.45
632.86528	5513.55
636.84862	5623.15
640.82913	5580.25
644.80683	5333.45
648.78172	5171.65
652.75379	5137.65
656.72306	5328.35
660.68952	5594.25
664.65319	5557.35
668.61405	5268.65
672.57211	5124.25
676.52738	5105.95
680.47986	5123.85
684.42955	5069.65
688.37646	5026.55
692.32058	5018.05
696.26192	5035.85
700.20048	5105.85
704.13626	5115.85
708.06928	5105.55
711.99952	5075.75
715.927	5094.95
719.85171	5158.45
723.77365	5174.95
727.69284	5141.15
731.60928	5096.25
735.52295	5093.25
739.43388	5097.55
743.34206	5142.35
747.24749	5155.55
751.15017	5146.15
755.05012	5191.15
758.94733	5380.35
762.8418	5930.15
766.73354	6931.35
770.62254	8095.25
774.50882	8760.95
778.39237	8498.65
782.27321	7450.25
786.15132	6299.25
790.02671	5590.25
793.89938	5234.45
797.76935	5116.75
801.6366	5047.45
805.50115	5024.75
809.36299	5005.55
813.22213	4970.65
817.07857	4963.85
820.93231	4946.65
824.78336	4924.35
828.63172	4950.65
832.47738	4970.35
836.32036	4938.45
840.16066	4922.95
843.99827	4890.15
847.8332	4891.45
851.66546	4887.95
855.49504	4884.55
859.32195	4855.95
863.1462	4850.85
866.96777	4836.45
870.78668	4831.25
874.60293	4835.05
878.41652	4859.45
882.22745	4876.85
886.03573	4913.25
889.84136	4900.05
893.64433	4868.15
897.44466	4869.65
901.24235	4845.55
905.0374	4829.65
908.8298	4791.05
912.61957	4763.05
916.40671	4777.95
920.19121	4808.75
923.97308	4867.05
927.75233	4945.95
931.52895	4996.25
935.30295	4960.05
939.07433	4839.35
942.84309	4689.95
946.60924	4581.75
950.37278	4541.85
954.13371	4507.05
957.89203	4471.05
961.64774	4444.95
965.40086	4449.75
969.15137	4426.75
972.89929	4402.55
976.64461	4396.35
980.38733	4387.85
984.12747	4407.15
987.86502	4403.45
991.59999	4423.35
995.33237	4455.35
999.06217	4557.55
1002.78939	4637.55
1006.51404	4726.25
1010.23611	4804.85
1013.95561	4843.65
1017.67255	4823.75
1021.38692	4748.25
1025.09872	4620.25
1028.80796	4534.35
1032.51465	4503.35
1036.21877	4515.65
1039.92035	4529.55
1043.61937	4569.25
1047.31584	4605.45
1051.00976	4620.45
1054.70114	4636.25
1058.38998	4646.85
1062.07627	4645.45
1065.76003	4628.65
1069.44126	4622.95
1073.11995	4635.55
1076.79611	4709.55
1080.46974	4801.65
1084.14085	4962.85
1087.80943	5131.05
1091.47549	5166.65
1095.13903	5094.85
1098.80005	4878.65
1102.45857	4715.15
1106.11456	4646.45
1109.76805	4709.85
1113.41903	4815.05
1117.06751	4983.55
1120.71348	5233.55
1124.35696	5516.05
1127.99793	5782.45
1131.63641	5786.65
1135.2724	5478.65
1138.90589	5152.15
1142.5369	4949.65
1146.16542	4787.25
1149.79145	4709.75
1153.415	4668.75
1157.03607	4656.15
1160.65467	4737.55
1164.27079	4897.85
1167.88443	5180.75
1171.49561	5691.15
1175.10432	6483.35
1178.71056	7588.25
1182.31434	8448.85
1185.91565	8646.55
1189.51451	8267.25
1193.11091	7641.95
1196.70485	6998.75
1200.29634	6506.65
1203.88538	6094.05
1207.47197	5617.85
1211.05612	5238.25
1214.63782	5024.95
1218.21708	5025.25
1221.79391	5071.15
1225.36829	5120.45
1228.94024	5043.65
1232.50976	4956.25
1236.07685	4870.05
1239.6415	4825.65
1243.20374	4833.95
1246.76355	4816.65
1250.32093	4811.15
1253.8759	4893.55
1257.42845	5019.75
1260.97859	5207.35
1264.52631	5420.95
1268.07163	5631.15
1271.61453	5846.65
1275.15503	5979.55
1278.69312	5994.85
1282.22882	6046.95
1285.76211	6175.25
1289.29301	6460.65
1292.82151	6758.95
1296.34761	7094.15
1299.87133	7505.55
1303.39266	8186.65
1306.9116	9264.45
1310.42815	10593.85
1313.94233	11478.25
1317.45412	11250.85
1320.96354	10161.35
1324.47058	8881.55
1327.97525	7841.85
1331.47754	7205.95
1334.97747	6983.05
1338.47502	6981.25
1341.97022	7084.65
1345.46305	7387.55
1348.95352	7998.75
1352.44163	8938.65
1355.92738	10273.65
1359.41078	12197.45
1362.89183	14162.25
1366.37053	14147.75
1369.84688	11795.55
1373.32088	9260.55
1376.79254	7641.25
1380.26186	6844.55
1383.72883	6417.85
1387.19347	6078.35
1390.65578	5760.95
1394.11575	5558.75
1397.57339	5483.35
1401.0287	5502.95
1404.48168	5514.15
1407.93234	5521.65
1411.38068	5502.35
1414.82669	5462.45
1418.27039	5410.65
1421.71177	5322.45
1425.15083	5231.25
1428.58758	5178.05
1432.02203	5234.75
1435.45416	5330.05
1438.88399	5389.75
1442.31151	5386.15
1445.73673	5367.95
1449.15965	5378.35
1452.58027	5356.35
1455.9986	5265.55
1459.41463	5209.35
1462.82837	5255.95
1466.23982	5382.85
1469.64898	5548.15
1473.05586	5676.65
1476.46045	5732.55
1479.86276	5807.35
1483.26279	5912.65
1486.66054	6042.95
1490.05602	6257.95
1493.44922	6524.15
1496.84016	7007.25
1500.22882	7792.35
1503.61521	8964.15
1506.99934	10421.05
1510.38121	11823.65
1513.76081	12560.65
1517.13816	11910.85
1520.51324	10149.05
1523.88607	8333.75
1527.25665	7147.75
1530.62498	6531.95
1533.99105	6170.95
1537.35488	5943.95
1540.71647	5766.55
1544.07581	5629.25
1547.4329	5563.15
1550.78776	5523.45
1554.14038	5546.95
1557.49077	5585.75
1560.83892	5732.85
1564.18484	5936.25
1567.52853	6201.25
1570.86999	6488.65
1574.20922	6659.55
1577.54624	6653.65
1580.88103	6286.25
1584.2136	5703.75
1587.54395	5320.65
1590.87208	5309.85
1594.19801	5644.95
1597.52172	6192.55
1600.84321	6522.85
1604.16251	6346.75
1607.47959	5862.95
1610.79447	5290.65
1614.10715	4798.35
1617.41763	4422.85
1620.7259	4208.75
1624.03199	4104.95
1627.33587	4102.35
1630.63757	4193.45
1633.93707	4403.25
1637.23439	4809.35
1640.52951	5512.05
1643.82246	6559.55
1647.11321	7792.15
1650.40179	8595.65
1653.68819	8336.05
1656.97241	6995.05
1660.25446	5546.45
1663.53433	4495.95
1666.81203	3924.65
1670.08756	3640.55
1673.36092	3497.95
1676.63211	3394.05
1679.90115	3312.85
1683.16801	3275.65
1686.43272	3222.65
1689.69527	3141.65
1692.95567	3056.15
1696.2139	2941.65
1699.46999	2847.65
1702.72392	2807.55
1705.97571	2873.25
1709.22535	2972.35
1712.47284	3046.35
1715.71819	3076.45
1718.96139	3085.35
1722.20246	3086.75
1725.44139	3062.25
1728.67818	3041.25
1731.91284	3006.55
1735.14537	2993.25
1738.37576	2961.05
1741.60403	2953.15
1744.83017	2917.85
1748.05418	2891.65
1751.27607	2841.35
1754.49584	2789.25
1757.71349	2716.35
1760.92903	2677.35
1764.14244	2670.15
1767.35375	2657.35
1770.56294	2659.65
1773.77002	2655.55
1776.97499	2711.35
1780.17785	2764.55
1783.37861	2790.55
1786.57727	2798.25
1789.77382	2808.55
1792.96828	2815.45
1796.16064	2800.45
1799.3509	2795.25
1802.53907	2784.75
1805.72514	2788.05
1808.90913	2768.45
1812.09102	2757.75
1815.27083	2759.05
1818.44856	2738.45
1821.6242	2736.35
1824.79776	2724.75
1827.96924	2721.95
1831.13864	2723.85
1834.30597	2702.45
1837.47122	2703.95
1840.6344	2706.15
1843.7955	2684.25
1846.95454	2678.25
1850.11151	2679.15
1853.26642	2664.05
1856.41926	2665.25
1859.57004	2658.45
1862.71876	2650.25
1865.86542	2644.85
1869.01003	2635.85
1872.15258	2646.95
1875.29308	2623.25
1878.43152	2632.65
1881.56792	2618.25
1884.70227	2625.05
1887.83457	2611.45
1890.96482	2611.25
1894.09304	2606.05
1897.21921	2605.95
1900.34335	2606.35
1903.46544	2606.85
1906.58551	2589.25
1909.70353	2590.95
1912.81953	2583.25
1915.93349	2574.35
1919.04543	2572.05
1922.15534	2563.25
1925.26322	2552.05
1928.36908	2542.25
1931.47292	2526.35
1934.57473	2517.55
1937.67453	2492.95
1940.77232	2480.55
1943.86808	2479.05
1946.96184	2472.35
1950.05358	2455.65
1953.14331	2450.05
1956.23103	2438.45
1959.31675	2420.95
1962.40046	2423.55
1965.48217	2426.05
1968.56188	2411.05
1971.63959	2402.55
1974.7153	2404.75
1977.78901	2396.35
1980.86073	2381.75
1983.93046	2362.35
1986.99819	2352.85
1990.06394	2344.95
1993.1277	2340.15
1996.18947	2330.35
1999.24925	2320.35
2002.30706	2311.35
2005.36288	2305.45
2008.41672	2297.25
2011.46859	2273.75
2014.51848	2261.65
2017.56639	2257.45
2020.61233	2248.75
2023.6563	2249.45
2026.6983	2220.05
2029.73833	2220.45
2032.7764	2214.65
2035.8125	2211.25
2038.84664	2201.35
2041.87881	2194.65
2044.90903	2178.65
2047.93729	2188.55
2050.96359	2172.35
2053.98794	2160.75
2057.01034	2165.15
2060.03078	2163.85
2063.04927	2157.25
2066.06582	2164.45
2069.08042	2154.15
2072.09307	2153.55
2075.10378	2144.45
2078.11255	2139.95
2081.11938	2141.75
2084.12426	2140.25
2087.12722	2147.05
2090.12824	2140.75
2093.12732	2133.65
2096.12447	2132.35
2099.11969	2134.75
2102.11299	2131.55
2105.10435	2137.55
2108.09379	2136.75
2111.08131	2138.05
2114.0669	2139.45
2117.05057	2125.95
2120.03233	2126.75
2123.01216	2127.05
2125.99008	2130.25
2128.96609	2124.55
2131.94018	2123.25
2134.91236	2130.55
2137.88263	2116.65
2140.851	2119.75
2143.81746	2117.45
2146.78201	2112.95
2149.74466	2101.55
2152.7054	2098.15
2155.66425	2097.15
2158.6212	2080.35
2161.57625	2090.05
2164.52941	2086.65
2167.48067	2072.55
2170.43004	2079.05
2173.37752	2081.25
2176.32311	2064.75
2179.26681	2067.95
2182.20863	2066.35
2185.14856	2076.15
2188.08661	2071.15
2191.02278	2072.15
2193.95707	2058.65
2196.88948	2056.55
2199.82001	2060.55
2202.74867	2058.35
2205.67545	2047.55
2208.60037	2032.75
2211.52341	2038.35
2214.44458	2018.35
2217.36388	2030.25
2220.28132	2013.55
2223.1969	2007.25
2226.11061	1995.15
2229.02246	1987.55
2231.93245	1985.85
2234.84058	1982.65
2237.74686	1976.65
2240.65128	1976.35
2243.55385	1970.45
2246.45456	1976.55
2249.35343	1971.55
2252.25044	1959.35
2255.14561	1963.25
2258.03893	1947.45
2260.93041	1920.85
2263.82004	1944.65
2266.70783	1939.05
2269.59378	1942.85
2272.4779	1935.75
2275.36017	1920.35
2278.24061	1925.45
2281.11922	1925.75
2283.996	1914.05
2286.87094	1918.85
2289.74405	1899.65
2292.61534	1889.95
2295.4848	1889.55
2298.35243	1881.35
2301.21824	1879.95
2304.08223	1863.55
2306.94439	1877.25
2309.80474	1869.15
2312.66327	1872.15
2315.51999	1863.15
2318.37489	1862.35
2321.22797	1850.75
2324.07925	1856.85
2326.92871	1839.05
2329.77637	1847.35
2332.62222	1836.45
2335.46626	1829.75
2338.3085	1818.25
2341.14893	1825.05
2343.98756	1822.95
2346.8244	1820.55
2349.65943	1831.75
2352.49267	1818.85
2355.32411	1832.95
2358.15376	1837.85
2360.98161	1835.85
2363.80768	1842.35
2366.63195	1849.25
2369.45444	1848.25
2372.27514	1845.65
2375.09405	1841.35
2377.91118	1836.75
2380.72652	1830.05
2383.54009	1812.95
2386.35187	1802.25
2389.16188	1785.85
2391.97011	1795.05
2394.77657	1783.15
2397.58125	1766.75
2400.38416	1768.95
2403.18529	1758.15
2405.98466	1752.85
2408.78226	1753.05
2411.57809	1739.45
2414.37216	1737.25
2417.16446	1733.05
2419.955	1732.95
2422.74378	1735.05
2425.5308	1723.35
2428.31606	1725.65
2431.09956	1727.25
2433.88131	1718.95
2436.6613	1730.75
2439.43954	1724.35
2442.21603	1730.05
2444.99077	1730.35
2447.76377	1725.75
2450.53501	1713.55
2453.30451	1720.15
2456.07226	1719.15
2458.83827	1718.25
2461.60254	1727.55
2464.36507	1710.45
2467.12586	1707.65
2469.88492	1704.15
2472.64224	1695.55
2475.39782	1693.65
2478.15167	1684.45
2480.90379	1706.45
2483.65417	1707.75
2486.40283	1713.05
2489.14976	1726.35
2491.89497	1726.55
2494.63845	1709.25
2497.3802	1695.25
2500.12024	1715.15
2502.85855	1709.65
2505.59514	1697.25
2508.33002	1698.55
2511.06318	1682.65
2513.79462	1672.55
2516.52435	1665.95
2519.25237	1651.45
2521.97867	1641.45
2524.70327	1637.55
2527.42616	1634.25
2530.14734	1624.45
2532.86681	1633.45
2535.58458	1639.35
2538.30065	1629.95
2541.01501	1621.05
2543.72768	1613.75
2546.43864	1622.85
2549.14791	1628.45
2551.85548	1618.45
2554.56136	1612.65
2557.26554	1615.95
2559.96803	1609.15
2562.66883	1599.35
2565.36794	1613.35
2568.06536	1604.85
2570.7611	1596.75
2573.45514	1593.65
2576.14751	1602.05
2578.83819	1586.75
2581.52719	1575.25
2584.21451	1574.65
2586.90015	1570.55
2589.58411	1559.95
2592.2664	1565.95
2594.94701	1558.55
2597.62594	1564.85
2600.30321	1559.85
2602.9788	1551.95
2605.65273	1553.45
2608.32498	1550.75
2610.99557	1559.15
2613.66449	1542.55
2616.33175	1540.45
2618.99734	1552.05
2621.66128	1536.95
2624.32355	1531.95
2626.98416	1525.75
2629.64311	1525.95
2632.30041	1530.35
2634.95605	1524.65
2637.61004	1522.25
2640.26238	1504.45
2642.91306	1508.05
2645.56209	1506.05
2648.20948	1493.15
2650.85521	1489.35
2653.4993	1498.95
2656.14175	1496.95
2658.78255	1506.45
2661.42171	1495.05
2664.05923	1504.75
2666.6951	1512.25
2669.32934	1516.25
2671.96194	1512.85
2674.59291	1516.15
2677.22224	1519.65
2679.84993	1505.45
2682.476	1498.35
2685.10043	1509.05
2687.72324	1503.55
2690.34441	1507.95
2692.96396	1497.95
2695.58188	1508.75
2698.19818	1498.75
2700.81285	1493.55
2703.4259	1459.55
2706.03733	1368.45
2708.64714	1411.55
2711.25533	1459.35
2713.86191	1478.75
2716.46687	1483.55
2719.07021	1496.95
2721.67194	1512.45
2724.27206	1505.55
2726.87057	1506.25
2729.46747	1505.65
2732.06276	1505.85
2734.65644	1511.05
2737.24852	1494.45
2739.83899	1493.55
2742.42786	1499.55
2745.01513	1488.55
2747.60079	1487.25
2750.18486	1486.65
2752.76733	1489.65
2755.3482	1490.15
2757.92747	1475.65
2760.50515	1476.45
2763.08123	1476.35
2765.65573	1478.45
2768.22863	1469.15
2770.79994	1467.65
2773.36967	1467.65
2775.9378	1460.35
2778.50435	1462.65
2781.06932	1473.05
2783.6327	1477.95
2786.1945	1466.65
2788.75471	1472.85
2791.31335	1460.15
2793.87041	1466.75
2796.42589	1459.45
2798.97979	1462.65
2801.53212	1463.35
2804.08288	1462.65
2806.63206	1465.85
2809.17967	1454.45
2811.72571	1459.85
2814.27018	1470.45
2816.81308	1454.45
2819.35442	1461.95
2821.89419	1464.95
2824.43239	1471.95
2826.96904	1470.35
2829.50412	1478.35
2832.03763	1470.85
2834.56959	1469.25
2837.1	1470.85
2839.62884	1486.55
2842.15613	1500.65
2844.68186	1518.05
2847.20604	1535.55
2849.72867	1547.15
2852.24974	1542.25
2854.76927	1544.45
2857.28724	1527.65
2859.80367	1537.25
2862.31855	1556.25
2864.83189	1556.45
2867.34368	1560.75
2869.85393	1566.25
2872.36264	1569.35
2874.8698	1577.65
2877.37543	1578.05
2879.87952	1581.35
2882.38207	1580.55
2884.88308	1588.05
2887.38256	1587.15
2889.88051	1580.45
2892.37692	1580.15
2894.8718	1579.75
2897.36515	1586.35
2899.85698	1587.05
2902.34727	1587.65
2904.83604	1582.15
2907.32328	1586.35
2909.809	1584.05
2912.29319	1591.65
2914.77587	1585.45
2917.25702	1581.35
2919.73665	1581.85
2922.21476	1578.75
2924.69136	1577.45
2927.16644	1579.15
2929.64	1558.95
2932.11205	1551.85
2934.58258	1536.95
2937.05161	1536.05
2939.51912	1523.15
2941.98513	1517.75
2944.44962	1496.15
2946.91261	1483.45
2949.37409	1474.75
2951.83407	1466.75
2954.29254	1457.75
2956.74951	1449.95
2959.20498	1434.35
2961.65895	1431.05
2964.11142	1416.25
2966.56239	1417.55
2969.01186	1408.55
2971.45984	1390.55
2973.90632	1396.85
2976.35131	1384.85
2978.7948	1379.45
2981.23681	1371.05
2983.67732	1370.55
2986.11635	1354.85
2988.55388	1346.25
2990.98993	1349.15
2993.4245	1345.45
2995.85758	1336.35
2998.28917	1345.95
3000.71928	1335.45
3003.14791	1331.25
3005.57506	1332.75
3008.00073	1325.05
3010.42493	1327.85
3012.84764	1325.35
3015.26888	1327.35
3017.68865	1321.95
3020.10694	1320.65
3022.52376	1327.85
3024.9391	1312.55
3027.35298	1309.65
3029.76539	1311.45
3032.17632	1314.55
3034.5858	1301.75
3036.9938	1312.75
3039.40034	1300.85
3041.80542	1304.95
3044.20903	1298.75
3046.61118	1298.55
3049.01187	1298.55
3051.4111	1297.95
3053.80888	1297.55
3056.20519	1302.45
3058.60005	1299.15
3060.99345	1296.85
3063.3854	1294.25
3065.7759	1301.35
3068.16494	1297.35
3070.55254	1289.35
3072.93868	1290.25
3075.32338	1283.75
3077.70662	1285.65
3080.08842	1280.85
3082.46878	1282.45
3084.84769	1282.15
3087.22515	1281.15
3089.60118	1282.55
3091.97576	1275.45
3094.3489	1287.95
3096.72061	1296.75
3099.09087	1285.65
3101.4597	1295.95
3103.82709	1303.55
3106.19305	1286.15
3108.55757	1297.75
3110.92066	1288.25
3113.28232	1300.05
3115.64255	1301.55
3118.00134	1304.25
3120.35871	1308.75
3122.71466	1303.75
3125.06917	1306.15
3127.42226	1308.25
3129.77393	1305.55
3132.12417	1309.05
3134.47299	1322.15
3136.82039	1320.65
3139.16636	1322.05
3141.51092	1329.95
3143.85406	1330.85
3146.19579	1348.75
3148.53609	1339.65
3150.87499	1343.15
3153.21246	1351.35
3155.54853	1362.25
3157.88318	1353.65
3160.21642	1366.45
3162.54826	1369.75
3164.87868	1376.25
3167.2077	1367.45
3169.5353	1379.15
3171.86151	1382.45
3174.18631	1384.45
3176.5097	1390.05
3178.83169	1385.15
3181.15228	1396.35
3183.47147	1381.45
3185.78926	1395.95
3188.10565	1399.55
3190.42065	1406.55
3192.73424	1402.35
3195.04645	1401.85
3197.35725	1407.25
3199.66667	1411.35
3201.97469	1417.85
3204.28132	1421.75
3206.58656	1427.95
3208.8904	1424.45
3211.19287	1438.55
3213.49394	1442.85
3215.79363	1437.55
3218.09193	1444.85
3220.38884	1429.65
3222.68438	1409.95
3224.97853	1425.15
3227.2713	1433.15
3229.56269	1447.55
3231.8527	1455.35
3234.14133	1447.35
3236.42858	1455.45
3238.71446	1453.75
3240.99896	1437.95
3243.28209	1459.75
3245.56384	1447.75
3247.84423	1448.55
3250.12324	1451.85
3252.40088	1449.75
3254.67715	1449.85
3256.95205	1449.95
3259.22558	1453.15
3261.49775	1449.25
3263.76855	1446.15
3266.03799	1449.35
3268.30606	1449.15
3270.57277	1451.55
3272.83812	1446.05
3275.10211	1441.65
3277.36474	1449.35
3279.62601	1442.75
3281.88593	1443.85
3284.14448	1442.75
3286.40168	1446.05
3288.65753	1449.85
3290.91202	1459.95
3293.16516	1447.15
3295.41695	1436.25
3297.66738	1430.65
3299.91647	1425.85
3302.16421	1411.55
3304.4106	1410.75
3306.65564	1391.95
3308.89933	1393.85
3311.14169	1370.65
3313.38269	1353.45
3315.62236	1352.85
3317.86068	1349.55
3320.09766	1331.75
3322.3333	1325.35
3324.5676	1311.35
3326.80056	1259.55
3329.03219	1274.45
3331.26248	0.05
3333.49143	-0.25
3335.71905	-0.65
