Data from AgNPs_FTO_APTES_UA_50uM_CRN_10uM_R6G_10uM_NaF_0.1M_Addition_RamanShift__15__13-30-54-879.txt Node

Date: Mon Feb 21 13:30:54 GMT 2022
User: TCL
Spectrometer: QEP01345
Trigger mode: 4
Integration Time (sec): 7.000000E0
Scans to average: 10
Electric dark correction enabled: true
Nonlinearity correction enabled: false
Boxcar width: 0
XAxis mode: Raman Shifts
Number of Pixels in Spectrum: 1044
>>>>>Begin Spectral Data<<<<<
46.04893	0.85
50.45542	-0.95
54.85868	0.15
59.25871	-1.25
63.6555	65.05
68.04907	70.55
72.43941	71.55
76.82654	75.95
81.21044	74.35
85.59113	81.95
89.96862	86.25
94.34289	88.05
98.71396	86.15
103.08183	94.55
107.4465	95.25
111.80798	95.65
116.16626	95.45
120.52136	97.15
124.87327	109.95
129.222	108.45
133.56755	114.75
137.90993	123.95
142.24913	135.05
146.58517	154.35
150.91804	170.15
155.24774	203.75
159.57429	253.45
163.89768	322.95
168.21792	430.55
172.53501	588.25
176.84895	818.05
181.15975	1146.35
185.46741	1615.55
189.77193	2230.05
194.07331	2995.25
198.37157	3843.65
202.6667	4744.45
206.9587	5655.75
211.24758	6541.75
215.53334	7439.55
219.81599	8411.75
224.09553	9473.15
228.37195	10648.95
232.64527	11984.15
236.91549	13338.55
241.18261	14658.55
245.44663	15892.25
249.70755	16949.95
253.96539	17787.35
258.22014	18517.45
262.4718	19099.65
266.72039	19477.45
270.96589	19658.25
275.20832	19637.55
279.44768	19435.55
283.68397	19195.95
287.91719	18979.75
292.14735	18869.15
296.37445	18825.25
300.59849	18918.85
304.81948	19109.75
309.03742	19191.75
313.25231	19065.25
317.46415	18575.45
321.67296	18016.45
325.87872	17517.75
330.08145	17346.35
334.28114	17316.55
338.47781	17459.75
342.67145	17735.15
346.86207	18061.25
351.04966	18548.55
355.23424	19043.75
359.4158	19488.15
363.59435	19802.05
367.76989	19996.55
371.94243	20044.85
376.11196	20046.55
380.27849	20157.85
384.44203	20204.15
388.60257	20310.95
392.76012	20434.35
396.91468	20599.85
401.06626	20881.75
405.21485	21088.75
409.36047	20894.05
413.50311	20451.15
417.64277	20075.25
421.77947	19892.95
425.9132	19873.95
430.04396	19966.25
434.17176	20046.35
438.2966	20247.85
442.41849	20612.35
446.53742	21169.95
450.6534	21680.35
454.76644	22035.85
458.87653	22204.85
462.98368	22172.15
467.08789	22034.25
471.18916	21753.45
475.2875	21412.75
479.38291	21194.55
483.4754	20986.75
487.56496	20795.05
491.6516	20576.45
495.73531	20396.25
499.81612	20341.45
503.89401	20469.45
507.96899	20604.05
512.04106	20648.95
516.11023	20635.55
520.1765	20570.15
524.23987	20418.35
528.30034	20242.35
532.35792	20114.75
536.41261	19961.45
540.46441	19719.75
544.51333	19656.85
548.55936	19817.95
552.60252	20173.15
556.64279	20605.45
560.6802	20892.65
564.71473	21120.45
568.7464	21489.15
572.7752	22057.05
576.80114	22439.85
580.82422	22652.35
584.84444	22881.35
588.86181	23330.25
592.87633	23722.85
596.888	23802.15
600.89682	23629.55
604.9028	24273.75
608.90594	26836.35
612.90624	29750.75
616.90371	27939.55
620.89834	22899.25
624.89015	20587.85
628.87913	20266.15
632.86528	20478.15
636.84862	20671.25
640.82913	20442.95
644.80683	19914.45
648.78172	19458.95
652.75379	19387.65
656.72306	19688.95
660.68952	20200.05
664.65319	20059.15
668.61405	19688.95
672.57211	19655.85
676.52738	19825.75
680.47986	19864.45
684.42955	19734.45
688.37646	19591.95
692.32058	19600.95
696.26192	19742.95
700.20048	19966.65
704.13626	20038.45
708.06928	20036.65
711.99952	19869.65
715.927	19826.65
719.85171	19886.65
723.77365	19846.35
727.69284	19641.95
731.60928	19425.15
735.52295	19393.15
739.43388	19389.15
743.34206	19438.35
747.24749	19541.25
751.15017	19676.45
755.05012	19991.85
758.94733	20547.25
762.8418	21683.65
766.73354	23633.05
770.62254	25620.85
774.50882	26284.25
778.39237	25243.85
782.27321	23390.75
786.15132	21631.35
790.02671	20510.25
793.89938	19854.95
797.76935	19546.15
801.6366	19383.45
805.50115	19283.75
809.36299	19166.85
813.22213	19016.35
817.07857	18897.85
820.93231	18865.25
824.78336	18784.45
828.63172	18804.45
832.47738	18762.75
836.32036	18712.25
840.16066	18679.65
843.99827	18660.25
847.8332	18628.85
851.66546	18644.05
855.49504	18712.35
859.32195	18696.05
863.1462	18636.95
866.96777	18666.75
870.78668	18657.15
874.60293	18671.55
878.41652	18705.75
882.22745	18804.65
886.03573	18901.65
889.84136	18900.75
893.64433	18855.65
897.44466	18821.95
901.24235	18773.55
905.0374	18693.95
908.8298	18629.45
912.61957	18541.85
916.40671	18638.55
920.19121	18735.75
923.97308	18917.25
927.75233	19001.95
931.52895	18916.25
935.30295	18703.35
939.07433	18371.45
942.84309	18114.95
946.60924	17950.75
950.37278	17924.65
954.13371	17907.95
957.89203	17900.35
961.64774	17911.65
965.40086	17888.15
969.15137	17833.95
972.89929	17785.45
976.64461	17760.45
980.38733	17734.15
984.12747	17764.55
987.86502	17831.35
991.59999	17941.35
995.33237	18124.55
999.06217	18350.75
1002.78939	18728.65
1006.51404	19115.65
1010.23611	19488.05
1013.95561	19775.35
1017.67255	19806.05
1021.38692	19641.15
1025.09872	19299.55
1028.80796	18986.55
1032.51465	18850.95
1036.21877	18880.85
1039.92035	18929.25
1043.61937	19022.35
1047.31584	19055.65
1051.00976	19010.45
1054.70114	19044.65
1058.38998	19146.85
1062.07627	19319.05
1065.76003	19519.85
1069.44126	19733.95
1073.11995	20031.45
1076.79611	20352.35
1080.46974	20576.05
1084.14085	20815.45
1087.80943	21091.05
1091.47549	21300.75
1095.13903	21330.15
1098.80005	21096.35
1102.45857	20694.85
1106.11456	20441.05
1109.76805	20270.65
1113.41903	20325.65
1117.06751	20493.85
1120.71348	20788.15
1124.35696	21116.05
1127.99793	21459.25
1131.63641	21556.45
1135.2724	21387.25
1138.90589	21180.05
1142.5369	21019.85
1146.16542	20966.25
1149.79145	20992.25
1153.415	21107.25
1157.03607	21283.15
1160.65467	21751.85
1164.27079	22488.15
1167.88443	23580.55
1171.49561	25027.55
1175.10432	26885.65
1178.71056	29285.45
1182.31434	31547.25
1185.91565	32723.65
1189.51451	32732.85
1193.11091	31946.55
1196.70485	30741.95
1200.29634	29361.45
1203.88538	28043.35
1207.47197	26977.35
1211.05612	26092.35
1214.63782	25421.05
1218.21708	24961.65
1221.79391	24712.55
1225.36829	24602.25
1228.94024	24483.55
1232.50976	24175.45
1236.07685	23821.45
1239.6415	23655.05
1243.20374	23581.35
1246.76355	23648.15
1250.32093	23780.15
1253.8759	24243.65
1257.42845	24860.65
1260.97859	25593.05
1264.52631	26454.55
1268.07163	27264.25
1271.61453	28045.15
1275.15503	28725.25
1278.69312	29316.85
1282.22882	29910.05
1285.76211	30619.35
1289.29301	31597.85
1292.82151	32784.45
1296.34761	34146.65
1299.87133	35831.95
1303.39266	37753.85
1306.9116	39923.05
1310.42815	41998.35
1313.94233	43157.45
1317.45412	43021.95
1320.96354	42020.25
1324.47058	40939.85
1327.97525	39930.15
1331.47754	39182.95
1334.97747	38830.25
1338.47502	38764.55
1341.97022	38955.85
1345.46305	39305.65
1348.95352	39685.65
1352.44163	40180.95
1355.92738	41158.65
1359.41078	42856.15
1362.89183	44664.55
1366.37053	43905.35
1369.84688	39976.45
1373.32088	35491.65
1376.79254	32511.75
1380.26186	31094.15
1383.72883	30548.95
1387.19347	30189.65
1390.65578	29755.95
1394.11575	29490.35
1397.57339	29499.85
1401.0287	29624.15
1404.48168	29769.45
1407.93234	29724.85
1411.38068	29430.05
1414.82669	28837.65
1418.27039	28042.55
1421.71177	27276.75
1425.15083	26605.85
1428.58758	26277.85
1432.02203	26357.45
1435.45416	26810.45
1438.88399	27271.45
1442.31151	27691.65
1445.73673	27944.15
1449.15965	28232.85
1452.58027	28431.65
1455.9986	28565.95
1459.41463	28832.65
1462.82837	29288.45
1466.23982	29790.85
1469.64898	30155.25
1473.05586	30411.15
1476.46045	30384.25
1479.86276	30366.05
1483.26279	30369.05
1486.66054	30474.45
1490.05602	30809.65
1493.44922	31465.25
1496.84016	32354.45
1500.22882	33695.55
1503.61521	35566.95
1506.99934	37597.55
1510.38121	39159.95
1513.76081	39271.75
1517.13816	37763.95
1520.51324	35486.95
1523.88607	33494.05
1527.25665	32168.65
1530.62498	31454.75
1533.99105	31002.75
1537.35488	30511.55
1540.71647	29888.55
1544.07581	29168.25
1547.4329	28577.45
1550.78776	28149.95
1554.14038	27929.25
1557.49077	27939.65
1560.83892	28115.15
1564.18484	28352.55
1567.52853	28719.15
1570.86999	29144.35
1574.20922	29614.25
1577.54624	29793.25
1580.88103	29354.25
1584.2136	28872.05
1587.54395	28992.45
1590.87208	29879.35
1594.19801	31358.05
1597.52172	32895.45
1600.84321	33324.35
1604.16251	32096.15
1607.47959	30149.95
1610.79447	28047.95
1614.10715	25975.75
1617.41763	24181.75
1620.7259	22831.95
1624.03199	22130.55
1627.33587	22076.35
1630.63757	22604.35
1633.93707	23878.55
1637.23439	26134.05
1640.52951	29312.55
1643.82246	33068.35
1647.11321	36281.05
1650.40179	37251.95
1653.68819	35064.35
1656.97241	30723.75
1660.25446	26231.15
1663.53433	22917.05
1666.81203	20786.35
1670.08756	19462.75
1673.36092	18645.55
1676.63211	18118.35
1679.90115	17765.75
1683.16801	17518.15
1686.43272	17250.95
1689.69527	17054.15
1692.95567	16891.85
1696.2139	16737.25
1699.46999	16562.55
1702.72392	16511.95
1705.97571	16550.95
1709.22535	16572.95
1712.47284	16614.35
1715.71819	16593.95
1718.96139	16544.75
1722.20246	16487.15
1725.44139	16375.35
1728.67818	16304.75
1731.91284	16193.55
1735.14537	16098.65
1738.37576	16022.35
1741.60403	15965.15
1744.83017	15891.65
1748.05418	15837.25
1751.27607	15771.45
1754.49584	15715.95
1757.71349	15641.55
1760.92903	15601.05
1764.14244	15546.85
1767.35375	15541.65
1770.56294	15507.45
1773.77002	15467.55
1776.97499	15469.45
1780.17785	15474.05
1783.37861	15470.75
1786.57727	15461.05
1789.77382	15412.45
1792.96828	15411.15
1796.16064	15354.95
1799.3509	15347.65
1802.53907	15337.35
1805.72514	15262.85
1808.90913	15240.55
1812.09102	15242.15
1815.27083	15198.75
1818.44856	15169.35
1821.6242	15135.45
1824.79776	15119.55
1827.96924	15158.55
1831.13864	15133.65
1834.30597	15121.55
1837.47122	15106.45
1840.6344	15157.05
1843.7955	15154.25
1846.95454	15121.55
1850.11151	15147.85
1853.26642	15096.15
1856.41926	15091.95
1859.57004	15081.05
1862.71876	15056.35
1865.86542	15050.45
1869.01003	15002.55
1872.15258	14989.85
1875.29308	14977.65
1878.43152	14907.25
1881.56792	14900.25
1884.70227	14905.35
1887.83457	14885.45
1890.96482	14875.75
1894.09304	14805.35
1897.21921	14812.65
1900.34335	14765.65
1903.46544	14768.65
1906.58551	14740.75
1909.70353	14672.25
1912.81953	14635.35
1915.93349	14618.55
1919.04543	14609.95
1922.15534	14562.45
1925.26322	14543.45
1928.36908	14484.15
1931.47292	14462.45
1934.57473	14427.95
1937.67453	14389.75
1940.77232	14320.75
1943.86808	14308.85
1946.96184	14289.85
1950.05358	14231.65
1953.14331	14177.25
1956.23103	14138.65
1959.31675	14090.45
1962.40046	14038.05
1965.48217	13985.95
1968.56188	14007.35
1971.63959	13935.55
1974.7153	13895.35
1977.78901	13847.05
1980.86073	13826.05
1983.93046	13781.65
1986.99819	13712.65
1990.06394	13681.35
1993.1277	13662.75
1996.18947	13561.65
1999.24925	13552.45
2002.30706	13522.65
2005.36288	13483.45
2008.41672	13430.55
2011.46859	13389.35
2014.51848	13353.45
2017.56639	13310.75
2020.61233	13293.05
2023.6563	13284.35
2026.6983	13216.95
2029.73833	13212.85
2032.7764	13144.35
2035.8125	13110.25
2038.84664	13085.55
2041.87881	13042.05
2044.90903	13014.75
2047.93729	13032.75
2050.96359	13020.55
2053.98794	13015.65
2057.01034	12964.75
2060.03078	12990.85
2063.04927	12960.35
2066.06582	12974.05
2069.08042	12928.95
2072.09307	12949.55
2075.10378	12919.55
2078.11255	12917.05
2081.11938	12911.85
2084.12426	12919.85
2087.12722	12905.25
2090.12824	12899.25
2093.12732	12936.05
2096.12447	12937.45
2099.11969	12898.25
2102.11299	12908.05
2105.10435	12916.35
2108.09379	12921.45
2111.08131	12928.15
2114.0669	12914.95
2117.05057	12929.65
2120.03233	12938.75
2123.01216	12937.95
2125.99008	12946.85
2128.96609	12977.45
2131.94018	13006.05
2134.91236	13030.45
2137.88263	12995.85
2140.851	12997.05
2143.81746	13023.45
2146.78201	12984.85
2149.74466	13001.25
2152.7054	13011.65
2155.66425	12972.55
2158.6212	12976.05
2161.57625	12930.55
2164.52941	12929.15
2167.48067	12934.95
2170.43004	12926.35
2173.37752	12890.05
2176.32311	12901.95
2179.26681	12894.75
2182.20863	12895.25
2185.14856	12916.75
2188.08661	12902.65
2191.02278	12900.45
2193.95707	12862.35
2196.88948	12882.25
2199.82001	12853.75
2202.74867	12867.55
2205.67545	12853.05
2208.60037	12850.35
2211.52341	12794.45
2214.44458	12782.25
2217.36388	12724.25
2220.28132	12700.15
2223.1969	12676.55
2226.11061	12679.95
2229.02246	12622.75
2231.93245	12644.05
2234.84058	12597.75
2237.74686	12589.25
2240.65128	12570.25
2243.55385	12561.45
2246.45456	12541.75
2249.35343	12533.45
2252.25044	12480.05
2255.14561	12469.75
2258.03893	12459.75
2260.93041	12414.65
2263.82004	12407.15
2266.70783	12377.75
2269.59378	12344.65
2272.4779	12313.95
2275.36017	12302.95
2278.24061	12290.05
2281.11922	12236.35
2283.996	12230.75
2286.87094	12219.85
2289.74405	12221.25
2292.61534	12170.75
2295.4848	12142.95
2298.35243	12142.65
2301.21824	12116.45
2304.08223	12119.85
2306.94439	12117.95
2309.80474	12137.85
2312.66327	12106.85
2315.51999	12093.15
2318.37489	12065.75
2321.22797	12063.05
2324.07925	12041.05
2326.92871	12022.95
2329.77637	12023.65
2332.62222	11987.75
2335.46626	11991.85
2338.3085	11957.75
2341.14893	11949.65
2343.98756	11969.65
2346.8244	11949.95
2349.65943	11932.85
2352.49267	11941.65
2355.32411	11943.05
2358.15376	11943.55
2360.98161	11966.05
2363.80768	11949.85
2366.63195	11930.75
2369.45444	11921.05
2372.27514	11904.85
2375.09405	11898.85
2377.91118	11899.25
2380.72652	11865.15
2383.54009	11844.15
2386.35187	11813.95
2389.16188	11764.35
2391.97011	11746.75
2394.77657	11741.45
2397.58125	11716.25
2400.38416	11693.85
2403.18529	11673.85
2405.98466	11638.65
2408.78226	11631.35
2411.57809	11641.35
2414.37216	11577.45
2417.16446	11600.65
2419.955	11577.55
2422.74378	11569.05
2425.5308	11563.25
2428.31606	11554.65
2431.09956	11547.15
2433.88131	11553.75
2436.6613	11558.15
2439.43954	11538.05
2442.21603	11554.55
2444.99077	11532.75
2447.76377	11534.15
2450.53501	11502.45
2453.30451	11532.35
2456.07226	11517.65
2458.83827	11503.65
2461.60254	11500.25
2464.36507	11464.65
2467.12586	11499.25
2469.88492	11473.55
2472.64224	11450.25
2475.39782	11478.35
2478.15167	11484.75
2480.90379	11458.55
2483.65417	11449.45
2486.40283	11473.25
2489.14976	11475.75
2491.89497	11475.65
2494.63845	11473.15
2497.3802	11434.75
2500.12024	11433.05
2502.85855	11412.75
2505.59514	11450.35
2508.33002	11412.05
2511.06318	11395.95
2513.79462	11380.35
2516.52435	11386.85
2519.25237	11362.35
2521.97867	11325.25
2524.70327	11316.15
2527.42616	11323.55
2530.14734	11327.55
2532.86681	11275.05
2535.58458	11305.75
2538.30065	11273.45
2541.01501	11277.45
2543.72768	11258.85
2546.43864	11241.95
2549.14791	11237.95
2551.85548	11200.45
2554.56136	11185.65
2557.26554	11182.05
2559.96803	11184.25
2562.66883	11163.35
2565.36794	11181.65
2568.06536	11165.75
2570.7611	11145.75
2573.45514	11145.75
2576.14751	11106.75
2578.83819	11083.25
2581.52719	11086.95
2584.21451	11062.35
2586.90015	11044.15
2589.58411	11022.25
2592.2664	11021.65
2594.94701	11017.05
2597.62594	11008.25
2600.30321	11001.35
2602.9788	10979.15
2605.65273	10963.95
2608.32498	10967.45
2610.99557	10936.35
2613.66449	10943.15
2616.33175	10961.65
2618.99734	10953.25
2621.66128	10911.85
2624.32355	10928.05
2626.98416	10895.15
2629.64311	10885.35
2632.30041	10898.65
2634.95605	10848.75
2637.61004	10866.75
2640.26238	10837.45
2642.91306	10828.35
2645.56209	10805.65
2648.20948	10796.75
2650.85521	10833.15
2653.4993	10838.55
2656.14175	10842.25
2658.78255	10869.45
2661.42171	10854.95
2664.05923	10865.15
2666.6951	10898.35
2669.32934	10915.55
2671.96194	10887.95
2674.59291	10910.55
2677.22224	10888.75
2679.84993	10903.05
2682.476	10861.55
2685.10043	10872.75
2687.72324	10845.35
2690.34441	10864.65
2692.96396	10850.45
2695.58188	10845.15
2698.19818	10824.05
2700.81285	10857.95
2703.4259	10830.25
2706.03733	10745.55
2708.64714	10788.75
2711.25533	10847.65
2713.86191	10825.45
2716.46687	10854.65
2719.07021	10828.85
2721.67194	10858.35
2724.27206	10856.35
2726.87057	10862.65
2729.46747	10881.65
2732.06276	10891.25
2734.65644	10885.95
2737.24852	10886.45
2739.83899	10856.55
2742.42786	10855.45
2745.01513	10852.45
2747.60079	10843.55
2750.18486	10823.45
2752.76733	10815.25
2755.3482	10797.15
2757.92747	10799.55
2760.50515	10783.35
2763.08123	10789.55
2765.65573	10754.55
2768.22863	10724.35
2770.79994	10730.35
2773.36967	10723.45
2775.9378	10734.35
2778.50435	10735.45
2781.06932	10721.75
2783.6327	10753.65
2786.1945	10708.45
2788.75471	10716.75
2791.31335	10681.75
2793.87041	10686.05
2796.42589	10636.55
2798.97979	10640.75
2801.53212	10623.95
2804.08288	10588.15
2806.63206	10600.45
2809.17967	10567.35
2811.72571	10523.75
2814.27018	10513.55
2816.81308	10464.45
2819.35442	10442.15
2821.89419	10466.95
2824.43239	10475.65
2826.96904	10451.35
2829.50412	10439.35
2832.03763	10437.05
2834.56959	10428.65
2837.1	10420.75
2839.62884	10408.65
2842.15613	10388.55
2844.68186	10384.25
2847.20604	10366.15
2849.72867	10402.45
2852.24974	10364.65
2854.76927	10340.05
2857.28724	10302.95
2859.80367	10315.15
2862.31855	10313.95
2864.83189	10309.25
2867.34368	10274.55
2869.85393	10302.15
2872.36264	10302.15
2874.8698	10293.35
2877.37543	10284.35
2879.87952	10287.55
2882.38207	10299.45
2884.88308	10302.95
2887.38256	10285.45
2889.88051	10300.75
2892.37692	10264.25
2894.8718	10302.25
2897.36515	10323.15
2899.85698	10322.35
2902.34727	10322.05
2904.83604	10327.75
2907.32328	10340.95
2909.809	10354.95
2912.29319	10380.55
2914.77587	10342.95
2917.25702	10356.85
2919.73665	10352.45
2922.21476	10366.75
2924.69136	10386.85
2927.16644	10359.95
2929.64	10339.45
2932.11205	10314.55
2934.58258	10256.65
2937.05161	10272.55
2939.51912	10259.65
2941.98513	10255.35
2944.44962	10244.25
2946.91261	10182.95
2949.37409	10211.75
2951.83407	10188.65
2954.29254	10183.45
2956.74951	10178.15
2959.20498	10171.15
2961.65895	10123.35
2964.11142	10137.15
2966.56239	10118.95
2969.01186	10145.15
2971.45984	10081.55
2973.90632	10085.55
2976.35131	10049.15
2978.7948	10040.75
2981.23681	9996.55
2983.67732	9998.05
2986.11635	9981.55
2988.55388	9943.25
2990.98993	9929.95
2993.4245	9908.75
2995.85758	9920.75
2998.28917	9864.15
3000.71928	9869.55
3003.14791	9813.85
3005.57506	9770.35
3008.00073	9759.45
3010.42493	9768.75
3012.84764	9742.05
3015.26888	9746.95
3017.68865	9708.75
3020.10694	9692.35
3022.52376	9666.05
3024.9391	9661.45
3027.35298	9651.25
3029.76539	9657.85
3032.17632	9626.35
3034.5858	9614.95
3036.9938	9604.85
3039.40034	9595.45
3041.80542	9575.45
3044.20903	9576.85
3046.61118	9577.15
3049.01187	9545.55
3051.4111	9542.05
3053.80888	9524.05
3056.20519	9539.05
3058.60005	9506.65
3060.99345	9472.45
3063.3854	9463.95
3065.7759	9414.75
3068.16494	9399.45
3070.55254	9351.25
3072.93868	9316.15
3075.32338	9303.25
3077.70662	9270.35
3080.08842	9248.35
3082.46878	9249.55
3084.84769	9233.05
3087.22515	9238.05
3089.60118	9251.05
3091.97576	9234.65
3094.3489	9228.05
3096.72061	9226.45
3099.09087	9215.55
3101.4597	9212.05
3103.82709	9220.05
3106.19305	9203.75
3108.55757	9206.75
3110.92066	9185.15
3113.28232	9150.75
3115.64255	9124.15
3118.00134	9121.05
3120.35871	9091.45
3122.71466	9058.55
3125.06917	9033.55
3127.42226	9024.55
3129.77393	9034.25
3132.12417	9019.45
3134.47299	9002.65
3136.82039	8988.65
3139.16636	9004.65
3141.51092	9019.65
3143.85406	8994.25
3146.19579	9013.75
3148.53609	9004.05
3150.87499	9003.65
3153.21246	9004.35
3155.54853	9023.35
3157.88318	9030.85
3160.21642	9037.95
3162.54826	9032.65
3164.87868	9031.85
3167.2077	9036.45
3169.5353	9043.35
3171.86151	9056.15
3174.18631	9025.95
3176.5097	8995.65
3178.83169	8968.65
3181.15228	8985.85
3183.47147	8969.75
3185.78926	8938.45
3188.10565	8917.25
3190.42065	8939.65
3192.73424	8947.95
3195.04645	8955.25
3197.35725	8942.65
3199.66667	8929.65
3201.97469	8929.35
3204.28132	8938.45
3206.58656	8937.05
3208.8904	8924.45
3211.19287	8937.55
3213.49394	8941.05
3215.79363	8928.55
3218.09193	8946.45
3220.38884	8931.25
3222.68438	8897.05
3224.97853	8901.95
3227.2713	8918.45
3229.56269	8918.45
3231.8527	8891.85
3234.14133	8895.15
3236.42858	8890.15
3238.71446	8878.15
3240.99896	8828.15
3243.28209	8829.75
3245.56384	8812.25
3247.84423	8824.55
3250.12324	8801.85
3252.40088	8792.85
3254.67715	8813.85
3256.95205	8782.65
3259.22558	8766.85
3261.49775	8763.65
3263.76855	8779.65
3266.03799	8747.65
3268.30606	8752.05
3270.57277	8694.45
3272.83812	8688.25
3275.10211	8663.45
3277.36474	8681.05
3279.62601	8649.15
3281.88593	8627.05
3284.14448	8628.15
3286.40168	8637.75
3288.65753	8627.25
3290.91202	8624.35
3293.16516	8653.05
3295.41695	8630.35
3297.66738	8582.15
3299.91647	8510.65
3302.16421	8465.15
3304.4106	8427.45
3306.65564	8379.75
3308.89933	8340.15
3311.14169	8248.65
3313.38269	8200.85
3315.62236	8137.85
3317.86068	8075.75
3320.09766	8005.95
3322.3333	7948.55
3324.5676	7916.95
3326.80056	7775.15
3329.03219	7723.75
3331.26248	1.75
3333.49143	-0.15
3335.71905	-0.55
