Data from AgNPs_FTO_APTES_UA_5um_CRN_0.1mM_R6G_10uM_NaF_0.1M_Addition_RamanShift__15__13-14-29-097.txt Node

Date: Tue Dec 21 13:14:29 GMT 2021
User: TCL
Spectrometer: QEP01345
Trigger mode: 4
Integration Time (sec): 7.000000E0
Scans to average: 10
Electric dark correction enabled: true
Nonlinearity correction enabled: false
Boxcar width: 0
XAxis mode: Raman Shifts
Number of Pixels in Spectrum: 1044
>>>>>Begin Spectral Data<<<<<
46.04893	0.05
50.45542	-1.25
54.85868	0.05
59.25871	0.95
63.6555	44.05
68.04907	51.05
72.43941	52.85
76.82654	52.25
81.21044	56.65
85.59113	57.45
89.96862	59.45
94.34289	62.05
98.71396	59.45
103.08183	65.45
107.4465	69.35
111.80798	71.65
116.16626	72.15
120.52136	70.65
124.87327	77.15
129.222	77.35
133.56755	82.45
137.90993	93.85
142.24913	98.65
146.58517	111.45
150.91804	127.65
155.24774	151.35
159.57429	188.75
163.89768	241.25
168.21792	320.35
172.53501	430.85
176.84895	595.45
181.15975	839.05
185.46741	1168.05
189.77193	1629.25
194.07331	2180.25
198.37157	2826.05
202.6667	3487.85
206.9587	4175.85
211.24758	4859.55
215.53334	5548.15
219.81599	6244.25
224.09553	7024.15
228.37195	7874.15
232.64527	8799.35
236.91549	9769.05
241.18261	10782.05
245.44663	11687.35
249.70755	12492.35
253.96539	13161.25
258.22014	13747.85
262.4718	14203.15
266.72039	14466.95
270.96589	14610.15
275.20832	14586.15
279.44768	14505.15
283.68397	14350.45
287.91719	14263.55
292.14735	14156.05
296.37445	14171.15
300.59849	14231.95
304.81948	14272.75
309.03742	14258.95
313.25231	14101.55
317.46415	13757.85
321.67296	13292.25
325.87872	12944.05
330.08145	12727.35
334.28114	12662.25
338.47781	12749.25
342.67145	12903.85
346.86207	13126.15
351.04966	13354.55
355.23424	13630.55
359.4158	13877.05
363.59435	14012.15
367.76989	14090.35
371.94243	14159.45
376.11196	14212.55
380.27849	14268.85
384.44203	14388.25
388.60257	14513.95
392.76012	14676.25
396.91468	14848.75
401.06626	15103.15
405.21485	15281.45
409.36047	15243.75
413.50311	14977.75
417.64277	14746.05
421.77947	14637.35
425.9132	14624.95
430.04396	14693.45
434.17176	14782.05
438.2966	14884.15
442.41849	15035.95
446.53742	15425.75
450.6534	15841.05
454.76644	16176.45
458.87653	16306.55
462.98368	16239.75
467.08789	16157.35
471.18916	16008.05
475.2875	15869.95
479.38291	15876.25
483.4754	15816.15
487.56496	15710.05
491.6516	15443.75
495.73531	15220.95
499.81612	15102.15
503.89401	15132.45
507.96899	15131.45
512.04106	15067.05
516.11023	14897.25
520.1765	14738.25
524.23987	14621.55
528.30034	14569.35
532.35792	14497.85
536.41261	14386.55
540.46441	14255.95
544.51333	14201.75
548.55936	14292.45
552.60252	14522.95
556.64279	14842.75
560.6802	15037.95
564.71473	15176.35
568.7464	15431.85
572.7752	15817.05
576.80114	16148.55
580.82422	16417.35
584.84444	16726.55
588.86181	16907.25
592.87633	17091.05
596.888	17120.95
600.89682	17034.85
604.9028	17436.45
608.90594	18816.55
612.90624	20275.05
616.90371	19011.15
620.89834	15821.45
624.89015	14354.25
628.87913	14203.35
632.86528	14427.65
636.84862	14565.65
640.82913	14449.05
644.80683	14118.15
648.78172	13754.65
652.75379	13601.65
656.72306	13693.05
660.68952	13889.65
664.65319	13885.05
668.61405	13759.65
672.57211	13787.65
676.52738	13931.35
680.47986	14012.15
684.42955	13921.05
688.37646	13738.65
692.32058	13647.05
696.26192	13650.95
700.20048	13736.35
704.13626	13824.35
708.06928	13830.35
711.99952	13748.55
715.927	13691.15
719.85171	13695.65
723.77365	13680.85
727.69284	13567.05
731.60928	13513.85
735.52295	13506.45
739.43388	13443.05
743.34206	13481.85
747.24749	13502.75
751.15017	13545.75
755.05012	13709.15
758.94733	14091.85
762.8418	14856.55
766.73354	16068.75
770.62254	17352.65
774.50882	17759.15
778.39237	17075.85
782.27321	15694.25
786.15132	14487.95
790.02671	13708.15
793.89938	13260.45
797.76935	13131.35
801.6366	13059.75
805.50115	13022.45
809.36299	12968.25
813.22213	12832.45
817.07857	12731.15
820.93231	12700.85
824.78336	12617.05
828.63172	12578.95
832.47738	12534.85
836.32036	12515.45
840.16066	12474.45
843.99827	12476.25
847.8332	12432.05
851.66546	12398.15
855.49504	12409.15
859.32195	12438.25
863.1462	12471.05
866.96777	12435.75
870.78668	12434.65
874.60293	12447.95
878.41652	12449.75
882.22745	12471.55
886.03573	12515.05
889.84136	12531.65
893.64433	12487.55
897.44466	12444.15
901.24235	12325.35
905.0374	12218.15
908.8298	12122.35
912.61957	12102.25
916.40671	12165.95
920.19121	12312.15
923.97308	12457.45
927.75233	12485.75
931.52895	12437.35
935.30295	12266.65
939.07433	12036.05
942.84309	11845.05
946.60924	11724.15
950.37278	11668.35
954.13371	11627.85
957.89203	11591.45
961.64774	11584.95
965.40086	11526.25
969.15137	11479.25
972.89929	11394.15
976.64461	11338.25
980.38733	11329.55
984.12747	11340.85
987.86502	11368.65
991.59999	11484.25
995.33237	11613.85
999.06217	11834.65
1002.78939	12114.45
1006.51404	12348.55
1010.23611	12568.65
1013.95561	12704.95
1017.67255	12747.25
1021.38692	12667.85
1025.09872	12418.45
1028.80796	12259.85
1032.51465	12248.65
1036.21877	12418.95
1039.92035	12484.05
1043.61937	12493.25
1047.31584	12484.15
1051.00976	12439.15
1054.70114	12395.35
1058.38998	12422.95
1062.07627	12505.55
1065.76003	12635.45
1069.44126	12744.85
1073.11995	13001.75
1076.79611	13169.15
1080.46974	13242.75
1084.14085	13218.45
1087.80943	13330.15
1091.47549	13492.45
1095.13903	13562.75
1098.80005	13450.45
1102.45857	13128.75
1106.11456	12812.25
1109.76805	12650.75
1113.41903	12615.75
1117.06751	12715.25
1120.71348	12898.25
1124.35696	13127.45
1127.99793	13356.65
1131.63641	13529.75
1135.2724	13515.35
1138.90589	13364.95
1142.5369	13302.15
1146.16542	13274.15
1149.79145	13268.85
1153.415	13341.15
1157.03607	13482.35
1160.65467	13801.55
1164.27079	14386.85
1167.88443	15198.65
1171.49561	16164.65
1175.10432	17430.15
1178.71056	18964.95
1182.31434	20417.15
1185.91565	21152.85
1189.51451	21188.95
1193.11091	20696.05
1196.70485	19843.95
1200.29634	18802.45
1203.88538	17965.95
1207.47197	17324.55
1211.05612	16853.25
1214.63782	16426.35
1218.21708	16094.95
1221.79391	15896.45
1225.36829	15793.65
1228.94024	15651.45
1232.50976	15425.35
1236.07685	15151.65
1239.6415	14987.95
1243.20374	14938.25
1246.76355	14999.45
1250.32093	15166.95
1253.8759	15460.85
1257.42845	15915.35
1260.97859	16421.15
1264.52631	16939.25
1268.07163	17424.25
1271.61453	17948.25
1275.15503	18470.95
1278.69312	19022.35
1282.22882	19558.45
1285.76211	20195.15
1289.29301	20913.85
1292.82151	21799.65
1296.34761	22820.05
1299.87133	24017.45
1303.39266	25269.15
1306.9116	26587.45
1310.42815	27866.35
1313.94233	28766.95
1317.45412	28941.75
1320.96354	28588.25
1324.47058	28114.05
1327.97525	27655.95
1331.47754	27245.95
1334.97747	26946.15
1338.47502	26691.25
1341.97022	26455.75
1345.46305	26123.95
1348.95352	25875.05
1352.44163	25918.15
1355.92738	26288.75
1359.41078	27159.35
1362.89183	28018.45
1366.37053	27715.35
1369.84688	25743.55
1373.32088	23184.95
1376.79254	21195.55
1380.26186	20214.65
1383.72883	19905.45
1387.19347	19748.75
1390.65578	19560.65
1394.11575	19571.15
1397.57339	19768.55
1401.0287	20172.25
1404.48168	20518.65
1407.93234	20556.35
1411.38068	20209.35
1414.82669	19548.65
1418.27039	18667.95
1421.71177	17832.25
1425.15083	17104.85
1428.58758	16723.25
1432.02203	16671.15
1435.45416	16964.75
1438.88399	17426.45
1442.31151	17812.15
1445.73673	18242.85
1449.15965	18617.55
1452.58027	18958.65
1455.9986	19129.95
1459.41463	19376.55
1462.82837	19710.35
1466.23982	20110.05
1469.64898	20431.05
1473.05586	20540.55
1476.46045	20483.55
1479.86276	20366.95
1483.26279	20182.75
1486.66054	20091.55
1490.05602	20197.65
1493.44922	20413.15
1496.84016	20678.45
1500.22882	21215.85
1503.61521	22017.15
1506.99934	22929.35
1510.38121	23704.75
1513.76081	23809.85
1517.13816	23206.15
1520.51324	22042.85
1523.88607	21003.15
1527.25665	20276.85
1530.62498	19950.35
1533.99105	19753.45
1537.35488	19533.15
1540.71647	19196.55
1544.07581	18797.35
1547.4329	18298.35
1550.78776	17893.75
1554.14038	17661.25
1557.49077	17614.05
1560.83892	17646.75
1564.18484	17754.85
1567.52853	17947.45
1570.86999	18086.25
1574.20922	18362.15
1577.54624	18496.05
1580.88103	18452.05
1584.2136	18364.85
1587.54395	18581.95
1590.87208	19213.95
1594.19801	20249.15
1597.52172	21364.85
1600.84321	21826.85
1604.16251	21092.15
1607.47959	19596.35
1610.79447	17901.65
1614.10715	16353.65
1617.41763	15064.95
1620.7259	14145.05
1624.03199	13647.25
1627.33587	13496.95
1630.63757	13826.45
1633.93707	14613.95
1637.23439	16009.35
1640.52951	18045.75
1643.82246	20625.85
1647.11321	22917.75
1650.40179	23833.85
1653.68819	22678.35
1656.97241	20042.55
1660.25446	17011.35
1663.53433	14681.65
1666.81203	13077.35
1670.08756	12106.25
1673.36092	11447.95
1676.63211	11042.75
1679.90115	10757.85
1683.16801	10527.55
1686.43272	10392.95
1689.69527	10248.45
1692.95567	10153.55
1696.2139	10120.85
1699.46999	10068.35
1702.72392	10012.95
1705.97571	9969.15
1709.22535	9937.15
1712.47284	9874.65
1715.71819	9857.55
1718.96139	9801.25
1722.20246	9758.35
1725.44139	9692.25
1728.67818	9653.15
1731.91284	9604.55
1735.14537	9549.65
1738.37576	9509.45
1741.60403	9472.35
1744.83017	9444.75
1748.05418	9461.35
1751.27607	9453.05
1754.49584	9499.45
1757.71349	9487.15
1760.92903	9487.95
1764.14244	9391.65
1767.35375	9352.65
1770.56294	9306.65
1773.77002	9240.45
1776.97499	9200.85
1780.17785	9152.05
1783.37861	9134.15
1786.57727	9096.55
1789.77382	9023.55
1792.96828	9030.75
1796.16064	8990.25
1799.3509	8966.85
1802.53907	8917.05
1805.72514	8902.75
1808.90913	8864.85
1812.09102	8871.85
1815.27083	8838.75
1818.44856	8817.45
1821.6242	8787.25
1824.79776	8776.75
1827.96924	8770.25
1831.13864	8744.25
1834.30597	8745.45
1837.47122	8717.85
1840.6344	8743.15
1843.7955	8712.25
1846.95454	8730.05
1850.11151	8716.15
1853.26642	8719.95
1856.41926	8682.95
1859.57004	8695.45
1862.71876	8674.05
1865.86542	8679.35
1869.01003	8664.45
1872.15258	8652.15
1875.29308	8640.05
1878.43152	8626.15
1881.56792	8622.95
1884.70227	8604.75
1887.83457	8593.15
1890.96482	8581.35
1894.09304	8565.85
1897.21921	8552.85
1900.34335	8569.85
1903.46544	8552.05
1906.58551	8529.45
1909.70353	8496.85
1912.81953	8459.25
1915.93349	8464.35
1919.04543	8464.55
1922.15534	8419.65
1925.26322	8399.45
1928.36908	8365.45
1931.47292	8333.15
1934.57473	8310.65
1937.67453	8295.75
1940.77232	8261.25
1943.86808	8235.85
1946.96184	8206.65
1950.05358	8200.05
1953.14331	8170.65
1956.23103	8119.65
1959.31675	8133.65
1962.40046	8086.35
1965.48217	8067.05
1968.56188	8025.85
1971.63959	8014.05
1974.7153	7982.05
1977.78901	7955.35
1980.86073	7913.45
1983.93046	7903.75
1986.99819	7874.35
1990.06394	7835.65
1993.1277	7812.95
1996.18947	7794.65
1999.24925	7772.75
2002.30706	7743.35
2005.36288	7714.95
2008.41672	7669.95
2011.46859	7669.15
2014.51848	7643.65
2017.56639	7624.95
2020.61233	7586.95
2023.6563	7587.05
2026.6983	7562.35
2029.73833	7532.95
2032.7764	7544.25
2035.8125	7520.35
2038.84664	7504.95
2041.87881	7489.55
2044.90903	7468.75
2047.93729	7452.45
2050.96359	7449.95
2053.98794	7440.75
2057.01034	7425.95
2060.03078	7428.45
2063.04927	7398.15
2066.06582	7381.75
2069.08042	7356.85
2072.09307	7369.35
2075.10378	7367.05
2078.11255	7375.65
2081.11938	7374.65
2084.12426	7352.55
2087.12722	7342.55
2090.12824	7340.05
2093.12732	7337.15
2096.12447	7335.75
2099.11969	7331.55
2102.11299	7315.45
2105.10435	7319.45
2108.09379	7334.25
2111.08131	7351.65
2114.0669	7337.55
2117.05057	7336.05
2120.03233	7343.95
2123.01216	7325.55
2125.99008	7349.65
2128.96609	7356.55
2131.94018	7323.85
2134.91236	7335.85
2137.88263	7337.95
2140.851	7314.85
2143.81746	7353.55
2146.78201	7335.05
2149.74466	7330.25
2152.7054	7324.65
2155.66425	7319.25
2158.6212	7298.15
2161.57625	7307.25
2164.52941	7312.25
2167.48067	7302.35
2170.43004	7288.85
2173.37752	7291.15
2176.32311	7291.45
2179.26681	7268.05
2182.20863	7282.25
2185.14856	7279.95
2188.08661	7280.75
2191.02278	7262.05
2193.95707	7260.25
2196.88948	7236.85
2199.82001	7235.95
2202.74867	7216.35
2205.67545	7226.75
2208.60037	7208.75
2211.52341	7191.45
2214.44458	7199.35
2217.36388	7155.85
2220.28132	7141.25
2223.1969	7154.55
2226.11061	7137.45
2229.02246	7121.25
2231.93245	7107.25
2234.84058	7087.95
2237.74686	7084.25
2240.65128	7048.55
2243.55385	7066.25
2246.45456	7038.75
2249.35343	7033.75
2252.25044	7006.65
2255.14561	7003.15
2258.03893	6988.15
2260.93041	7003.85
2263.82004	6953.25
2266.70783	6953.05
2269.59378	6924.55
2272.4779	6898.35
2275.36017	6876.25
2278.24061	6864.85
2281.11922	6834.35
2283.996	6832.45
2286.87094	6831.55
2289.74405	6794.75
2292.61534	6780.05
2295.4848	6782.05
2298.35243	6767.85
2301.21824	6776.45
2304.08223	6778.55
2306.94439	6760.55
2309.80474	6744.75
2312.66327	6764.05
2315.51999	6737.55
2318.37489	6732.55
2321.22797	6734.65
2324.07925	6708.45
2326.92871	6696.15
2329.77637	6705.85
2332.62222	6685.95
2335.46626	6677.35
2338.3085	6675.35
2341.14893	6670.45
2343.98756	6665.85
2346.8244	6650.45
2349.65943	6669.15
2352.49267	6661.55
2355.32411	6650.25
2358.15376	6664.15
2360.98161	6646.95
2363.80768	6664.05
2366.63195	6646.55
2369.45444	6625.35
2372.27514	6643.15
2375.09405	6598.15
2377.91118	6581.55
2380.72652	6583.85
2383.54009	6562.55
2386.35187	6547.85
2389.16188	6519.45
2391.97011	6517.65
2394.77657	6516.55
2397.58125	6505.15
2400.38416	6501.65
2403.18529	6455.85
2405.98466	6451.45
2408.78226	6422.55
2411.57809	6439.35
2414.37216	6420.45
2417.16446	6418.85
2419.955	6402.45
2422.74378	6398.45
2425.5308	6381.45
2428.31606	6394.45
2431.09956	6388.75
2433.88131	6382.05
2436.6613	6384.55
2439.43954	6346.15
2442.21603	6344.15
2444.99077	6336.65
2447.76377	6341.75
2450.53501	6338.85
2453.30451	6339.85
2456.07226	6322.75
2458.83827	6366.35
2461.60254	6326.65
2464.36507	6333.15
2467.12586	6331.75
2469.88492	6323.85
2472.64224	6318.55
2475.39782	6328.15
2478.15167	6346.45
2480.90379	6321.75
2483.65417	6331.05
2486.40283	6321.75
2489.14976	6309.25
2491.89497	6316.35
2494.63845	6351.15
2497.3802	6323.15
2500.12024	6317.05
2502.85855	6303.85
2505.59514	6289.65
2508.33002	6291.25
2511.06318	6285.55
2513.79462	6281.25
2516.52435	6254.25
2519.25237	6242.65
2521.97867	6238.75
2524.70327	6233.35
2527.42616	6213.55
2530.14734	6211.15
2532.86681	6211.15
2535.58458	6214.55
2538.30065	6188.75
2541.01501	6178.55
2543.72768	6169.45
2546.43864	6181.85
2549.14791	6156.45
2551.85548	6159.65
2554.56136	6138.75
2557.26554	6146.05
2559.96803	6138.05
2562.66883	6137.25
2565.36794	6122.35
2568.06536	6116.85
2570.7611	6124.25
2573.45514	6111.15
2576.14751	6118.25
2578.83819	6103.95
2581.52719	6083.45
2584.21451	6090.35
2586.90015	6065.95
2589.58411	6055.55
2592.2664	6062.55
2594.94701	6051.65
2597.62594	6044.45
2600.30321	6038.95
2602.9788	6027.15
2605.65273	6015.85
2608.32498	6029.35
2610.99557	6029.65
2613.66449	6027.85
2616.33175	6006.65
2618.99734	5990.05
2621.66128	6000.85
2624.32355	5998.35
2626.98416	5991.05
2629.64311	5976.95
2632.30041	5978.25
2634.95605	5990.65
2637.61004	5989.75
2640.26238	5972.85
2642.91306	5956.85
2645.56209	5944.95
2648.20948	5967.85
2650.85521	5936.25
2653.4993	5961.85
2656.14175	5944.85
2658.78255	5954.55
2661.42171	5942.15
2664.05923	5956.05
2666.6951	5946.65
2669.32934	5945.75
2671.96194	5960.65
2674.59291	5964.45
2677.22224	5940.65
2679.84993	5953.45
2682.476	5921.45
2685.10043	5933.85
2687.72324	5919.75
2690.34441	5925.05
2692.96396	5899.65
2695.58188	5930.35
2698.19818	5913.95
2700.81285	5924.85
2703.4259	5947.85
2706.03733	5990.05
2708.64714	5955.55
2711.25533	5940.75
2713.86191	5938.65
2716.46687	5939.55
2719.07021	5930.15
2721.67194	5937.45
2724.27206	5933.45
2726.87057	5936.95
2729.46747	5946.25
2732.06276	5941.75
2734.65644	5928.65
2737.24852	5938.25
2739.83899	5916.75
2742.42786	5941.95
2745.01513	5913.55
2747.60079	5916.15
2750.18486	5890.95
2752.76733	5919.85
2755.3482	5900.95
2757.92747	5884.85
2760.50515	5895.55
2763.08123	5900.95
2765.65573	5902.45
2768.22863	5891.85
2770.79994	5877.95
2773.36967	5878.15
2775.9378	5876.65
2778.50435	5885.85
2781.06932	5872.85
2783.6327	5868.55
2786.1945	5856.55
2788.75471	5876.35
2791.31335	5841.05
2793.87041	5833.25
2796.42589	5814.45
2798.97979	5830.65
2801.53212	5812.95
2804.08288	5809.65
2806.63206	5796.35
2809.17967	5788.95
2811.72571	5763.35
2814.27018	5786.75
2816.81308	5766.35
2819.35442	5758.35
2821.89419	5748.45
2824.43239	5760.45
2826.96904	5748.95
2829.50412	5740.25
2832.03763	5737.05
2834.56959	5719.35
2837.1	5722.15
2839.62884	5716.25
2842.15613	5709.25
2844.68186	5734.05
2847.20604	5750.05
2849.72867	5751.25
2852.24974	5736.85
2854.76927	5736.95
2857.28724	5735.25
2859.80367	5702.05
2862.31855	5712.95
2864.83189	5696.05
2867.34368	5708.15
2869.85393	5688.25
2872.36264	5678.95
2874.8698	5676.95
2877.37543	5676.55
2879.87952	5684.45
2882.38207	5696.55
2884.88308	5689.15
2887.38256	5703.85
2889.88051	5690.55
2892.37692	5698.55
2894.8718	5698.85
2897.36515	5715.05
2899.85698	5696.65
2902.34727	5725.05
2904.83604	5711.25
2907.32328	5732.95
2909.809	5735.35
2912.29319	5744.25
2914.77587	5759.85
2917.25702	5773.95
2919.73665	5762.85
2922.21476	5756.45
2924.69136	5751.25
2927.16644	5766.55
2929.64	5745.65
2932.11205	5754.45
2934.58258	5732.75
2937.05161	5762.55
2939.51912	5740.55
2941.98513	5738.85
2944.44962	5745.75
2946.91261	5720.15
2949.37409	5730.25
2951.83407	5699.55
2954.29254	5685.25
2956.74951	5690.95
2959.20498	5673.35
2961.65895	5653.25
2964.11142	5638.55
2966.56239	5610.55
2969.01186	5611.15
2971.45984	5581.65
2973.90632	5560.35
2976.35131	5542.55
2978.7948	5530.35
2981.23681	5506.45
2983.67732	5488.15
2986.11635	5484.15
2988.55388	5460.55
2990.98993	5435.25
2993.4245	5439.25
2995.85758	5420.35
2998.28917	5411.95
3000.71928	5402.55
3003.14791	5389.85
3005.57506	5379.65
3008.00073	5360.35
3010.42493	5357.45
3012.84764	5358.75
3015.26888	5366.05
3017.68865	5339.35
3020.10694	5305.45
3022.52376	5305.75
3024.9391	5306.45
3027.35298	5289.95
3029.76539	5278.85
3032.17632	5275.05
3034.5858	5248.65
3036.9938	5256.45
3039.40034	5247.65
3041.80542	5227.95
3044.20903	5226.85
3046.61118	5222.05
3049.01187	5205.65
3051.4111	5198.65
3053.80888	5182.85
3056.20519	5178.85
3058.60005	5172.85
3060.99345	5157.75
3063.3854	5155.95
3065.7759	5118.05
3068.16494	5113.45
3070.55254	5099.75
3072.93868	5100.05
3075.32338	5097.75
3077.70662	5073.35
3080.08842	5071.95
3082.46878	5057.35
3084.84769	5024.25
3087.22515	5036.45
3089.60118	5039.85
3091.97576	5033.05
3094.3489	5028.75
3096.72061	5031.75
3099.09087	5033.65
3101.4597	5026.35
3103.82709	5030.05
3106.19305	5018.45
3108.55757	5022.25
3110.92066	4997.15
3113.28232	4986.15
3115.64255	4987.45
3118.00134	4960.05
3120.35871	4965.15
3122.71466	4949.75
3125.06917	4940.45
3127.42226	4940.15
3129.77393	4942.05
3132.12417	4935.65
3134.47299	4942.35
3136.82039	4927.15
3139.16636	4914.75
3141.51092	4933.95
3143.85406	4936.15
3146.19579	4938.45
3148.53609	4939.95
3150.87499	4942.45
3153.21246	4931.65
3155.54853	4935.35
3157.88318	4950.65
3160.21642	4944.45
3162.54826	4938.55
3164.87868	4944.25
3167.2077	4936.15
3169.5353	4939.75
3171.86151	4944.35
3174.18631	4935.05
3176.5097	4921.35
3178.83169	4913.25
3181.15228	4907.05
3183.47147	4914.15
3185.78926	4930.35
3188.10565	4902.55
3190.42065	4911.05
3192.73424	4915.05
3195.04645	4900.45
3197.35725	4921.65
3199.66667	4916.05
3201.97469	4933.15
3204.28132	4919.35
3206.58656	4933.05
3208.8904	4925.95
3211.19287	4908.85
3213.49394	4926.55
3215.79363	4898.15
3218.09193	4910.35
3220.38884	4935.05
3222.68438	4936.05
3224.97853	4903.45
3227.2713	4913.15
3229.56269	4901.95
3231.8527	4916.15
3234.14133	4898.85
3236.42858	4880.15
3238.71446	4882.25
3240.99896	4887.45
3243.28209	4872.35
3245.56384	4867.25
3247.84423	4879.15
3250.12324	4859.75
3252.40088	4867.25
3254.67715	4864.45
3256.95205	4850.65
3259.22558	4819.85
3261.49775	4833.15
3263.76855	4817.15
3266.03799	4791.25
3268.30606	4790.55
3270.57277	4779.05
3272.83812	4779.15
3275.10211	4766.05
3277.36474	4763.65
3279.62601	4769.45
3281.88593	4760.25
3284.14448	4761.15
3286.40168	4749.25
3288.65753	4760.15
3290.91202	4757.85
3293.16516	4732.85
3295.41695	4716.65
3297.66738	4687.25
3299.91647	4671.45
3302.16421	4642.45
3304.4106	4628.65
3306.65564	4602.15
3308.89933	4576.85
3311.14169	4560.05
3313.38269	4533.35
3315.62236	4506.65
3317.86068	4456.55
3320.09766	4430.35
3322.3333	4376.45
3324.5676	4378.45
3326.80056	4326.95
3329.03219	4304.95
3331.26248	2.15
3333.49143	-0.05
3335.71905	-0.25
