Data from AgNPs_FTO_APTES_UA_100um_CRN_0.1mM_R6G_10uM_NaF_0.1M_Addition_RamanShift__23__16-11-49-300.txt Node

Date: Tue Dec 21 16:11:49 GMT 2021
User: TCL
Spectrometer: QEP01345
Trigger mode: 4
Integration Time (sec): 7.000000E0
Scans to average: 10
Electric dark correction enabled: true
Nonlinearity correction enabled: false
Boxcar width: 0
XAxis mode: Raman Shifts
Number of Pixels in Spectrum: 1044
>>>>>Begin Spectral Data<<<<<
46.04893	-0.45
50.45542	-0.85
54.85868	-0.75
59.25871	-0.15
63.6555	33.25
68.04907	39.25
72.43941	41.55
76.82654	41.75
81.21044	46.25
85.59113	46.45
89.96862	48.25
94.34289	51.75
98.71396	53.25
103.08183	53.65
107.4465	56.25
111.80798	58.85
116.16626	57.75
120.52136	56.55
124.87327	61.85
129.222	58.65
133.56755	66.45
137.90993	70.45
142.24913	70.45
146.58517	79.15
150.91804	89.25
155.24774	101.25
159.57429	127.35
163.89768	161.05
168.21792	207.85
172.53501	277.05
176.84895	376.35
181.15975	537.55
185.46741	750.15
189.77193	1038.25
194.07331	1384.65
198.37157	1793.45
202.6667	2231.45
206.9587	2656.15
211.24758	3081.15
215.53334	3503.95
219.81599	3939.85
224.09553	4425.25
228.37195	4958.15
232.64527	5551.15
236.91549	6187.25
241.18261	6814.05
245.44663	7430.95
249.70755	7978.55
253.96539	8430.95
258.22014	8838.25
262.4718	9128.85
266.72039	9373.65
270.96589	9476.75
275.20832	9524.15
279.44768	9430.95
283.68397	9321.85
287.91719	9230.55
292.14735	9147.35
296.37445	9105.55
300.59849	9168.25
304.81948	9196.35
309.03742	9169.85
313.25231	9032.95
317.46415	8836.45
321.67296	8581.75
325.87872	8374.15
330.08145	8277.55
334.28114	8282.35
338.47781	8380.75
342.67145	8462.45
346.86207	8610.05
351.04966	8785.75
355.23424	8989.65
359.4158	9162.85
363.59435	9282.75
367.76989	9388.45
371.94243	9466.25
376.11196	9533.55
380.27849	9585.85
384.44203	9666.75
388.60257	9714.75
392.76012	9772.45
396.91468	9861.15
401.06626	9971.65
405.21485	10088.25
409.36047	10034.35
413.50311	9860.55
417.64277	9694.65
421.77947	9599.55
425.9132	9568.35
430.04396	9581.85
434.17176	9606.75
438.2966	9698.25
442.41849	9803.55
446.53742	9956.25
450.6534	10156.65
454.76644	10278.45
458.87653	10377.95
462.98368	10376.15
467.08789	10342.85
471.18916	10273.25
475.2875	10208.95
479.38291	10189.55
483.4754	10186.45
487.56496	10087.55
491.6516	9998.75
495.73531	9931.85
499.81612	9903.55
503.89401	9884.55
507.96899	9898.95
512.04106	9902.55
516.11023	9884.95
520.1765	9910.25
524.23987	9904.95
528.30034	9876.05
532.35792	9834.05
536.41261	9787.35
540.46441	9697.65
544.51333	9642.45
548.55936	9648.95
552.60252	9699.95
556.64279	9819.65
560.6802	9878.55
564.71473	9891.35
568.7464	9979.05
572.7752	10076.05
576.80114	10082.35
580.82422	10064.85
584.84444	10098.25
588.86181	10142.25
592.87633	10235.65
596.888	10296.15
600.89682	10385.75
604.9028	10681.95
608.90594	11647.65
612.90624	12859.05
616.90371	12556.35
620.89834	10781.45
624.89015	9932.15
628.87913	9859.85
632.86528	10015.75
636.84862	10143.25
640.82913	10108.15
644.80683	9834.65
648.78172	9558.75
652.75379	9420.85
656.72306	9438.45
660.68952	9570.85
664.65319	9568.95
668.61405	9457.45
672.57211	9415.85
676.52738	9491.95
680.47986	9495.45
684.42955	9423.95
688.37646	9346.45
692.32058	9331.65
696.26192	9307.15
700.20048	9327.55
704.13626	9354.95
708.06928	9316.55
711.99952	9271.05
715.927	9238.05
719.85171	9236.65
723.77365	9229.15
727.69284	9193.95
731.60928	9180.95
735.52295	9157.25
739.43388	9145.05
743.34206	9165.95
747.24749	9151.75
751.15017	9137.45
755.05012	9178.85
758.94733	9350.55
762.8418	9689.95
766.73354	10300.05
770.62254	11055.75
774.50882	11488.25
778.39237	11181.65
782.27321	10352.05
786.15132	9638.75
790.02671	9205.45
793.89938	8997.05
797.76935	8882.65
801.6366	8866.55
805.50115	8858.55
809.36299	8904.35
813.22213	8883.05
817.07857	8864.55
820.93231	8811.45
824.78336	8733.25
828.63172	8664.85
832.47738	8615.45
836.32036	8608.05
840.16066	8593.95
843.99827	8567.55
847.8332	8537.45
851.66546	8500.45
855.49504	8473.65
859.32195	8480.75
863.1462	8500.85
866.96777	8486.95
870.78668	8502.55
874.60293	8513.45
878.41652	8504.85
882.22745	8553.05
886.03573	8585.95
889.84136	8574.45
893.64433	8530.95
897.44466	8468.15
901.24235	8391.85
905.0374	8326.05
908.8298	8266.55
912.61957	8206.65
916.40671	8247.35
920.19121	8283.45
923.97308	8320.15
927.75233	8317.45
931.52895	8289.05
935.30295	8220.55
939.07433	8121.65
942.84309	8042.85
946.60924	7999.35
950.37278	7949.55
954.13371	7936.25
957.89203	7904.45
961.64774	7876.25
965.40086	7840.85
969.15137	7789.55
972.89929	7762.35
976.64461	7699.45
980.38733	7689.45
984.12747	7687.55
987.86502	7690.25
991.59999	7708.25
995.33237	7775.25
999.06217	7841.45
1002.78939	7952.45
1006.51404	8051.05
1010.23611	8142.65
1013.95561	8231.75
1017.67255	8257.85
1021.38692	8224.95
1025.09872	8130.45
1028.80796	8027.15
1032.51465	8026.85
1036.21877	8053.65
1039.92035	8076.15
1043.61937	8076.75
1047.31584	8046.75
1051.00976	8018.65
1054.70114	7977.45
1058.38998	7993.25
1062.07627	8033.05
1065.76003	8102.05
1069.44126	8125.65
1073.11995	8174.85
1076.79611	8185.25
1080.46974	8203.35
1084.14085	8210.75
1087.80943	8233.05
1091.47549	8293.35
1095.13903	8271.65
1098.80005	8209.15
1102.45857	8083.65
1106.11456	8005.65
1109.76805	7993.35
1113.41903	8041.75
1117.06751	8149.75
1120.71348	8281.55
1124.35696	8443.85
1127.99793	8624.95
1131.63641	8780.05
1135.2724	8769.35
1138.90589	8641.25
1142.5369	8524.55
1146.16542	8367.95
1149.79145	8252.05
1153.415	8175.05
1157.03607	8174.15
1160.65467	8242.25
1164.27079	8393.75
1167.88443	8640.15
1171.49561	9012.95
1175.10432	9501.65
1178.71056	10173.85
1182.31434	10779.75
1185.91565	11059.55
1189.51451	11008.75
1193.11091	10753.85
1196.70485	10363.05
1200.29634	10024.85
1203.88538	9778.35
1207.47197	9516.05
1211.05612	9228.25
1214.63782	9031.95
1218.21708	8842.75
1221.79391	8755.25
1225.36829	8651.05
1228.94024	8613.65
1232.50976	8533.75
1236.07685	8468.45
1239.6415	8453.55
1243.20374	8471.25
1246.76355	8503.15
1250.32093	8581.25
1253.8759	8696.55
1257.42845	8858.45
1260.97859	9025.15
1264.52631	9143.55
1268.07163	9266.45
1271.61453	9446.45
1275.15503	9573.45
1278.69312	9726.05
1282.22882	9868.55
1285.76211	10011.05
1289.29301	10267.35
1292.82151	10591.15
1296.34761	10938.95
1299.87133	11419.55
1303.39266	11935.65
1306.9116	12553.55
1310.42815	13153.55
1313.94233	13553.25
1317.45412	13520.75
1320.96354	13201.35
1324.47058	12871.45
1327.97525	12503.85
1331.47754	12253.15
1334.97747	12109.15
1338.47502	12105.05
1341.97022	12174.05
1345.46305	12250.25
1348.95352	12367.55
1352.44163	12609.75
1355.92738	13084.85
1359.41078	13739.15
1362.89183	14515.25
1366.37053	14407.75
1369.84688	13210.45
1373.32088	11755.45
1376.79254	10727.05
1380.26186	10209.75
1383.72883	10058.35
1387.19347	9942.25
1390.65578	9831.65
1394.11575	9758.05
1397.57339	9751.65
1401.0287	9804.45
1404.48168	9908.65
1407.93234	9906.75
1411.38068	9838.05
1414.82669	9647.65
1418.27039	9369.55
1421.71177	9062.15
1425.15083	8807.95
1428.58758	8610.85
1432.02203	8580.85
1435.45416	8637.45
1438.88399	8754.75
1442.31151	8830.85
1445.73673	8947.25
1449.15965	9063.75
1452.58027	9152.35
1455.9986	9206.45
1459.41463	9252.65
1462.82837	9372.95
1466.23982	9511.15
1469.64898	9623.85
1473.05586	9705.75
1476.46045	9732.55
1479.86276	9718.85
1483.26279	9705.65
1486.66054	9695.35
1490.05602	9750.95
1493.44922	9849.55
1496.84016	10069.25
1500.22882	10421.95
1503.61521	10967.65
1506.99934	11603.65
1510.38121	12191.95
1513.76081	12439.65
1517.13816	12068.25
1520.51324	11347.35
1523.88607	10600.55
1527.25665	10104.35
1530.62498	9852.05
1533.99105	9700.45
1537.35488	9599.25
1540.71647	9492.35
1544.07581	9366.75
1547.4329	9302.65
1550.78776	9198.35
1554.14038	9165.75
1557.49077	9189.25
1560.83892	9250.95
1564.18484	9315.05
1567.52853	9411.85
1570.86999	9476.15
1574.20922	9568.55
1577.54624	9607.95
1580.88103	9503.95
1584.2136	9317.95
1587.54395	9262.25
1590.87208	9408.35
1594.19801	9673.35
1597.52172	10069.05
1600.84321	10292.65
1604.16251	10109.85
1607.47959	9633.55
1610.79447	9081.15
1614.10715	8570.15
1617.41763	8123.85
1620.7259	7801.05
1624.03199	7586.15
1627.33587	7563.05
1630.63757	7641.95
1633.93707	7856.05
1637.23439	8260.25
1640.52951	8857.45
1643.82246	9666.65
1647.11321	10473.65
1650.40179	10961.25
1653.68819	10764.65
1656.97241	9882.65
1660.25446	8813.95
1663.53433	7972.05
1666.81203	7395.85
1670.08756	7050.65
1673.36092	6800.75
1676.63211	6653.95
1679.90115	6543.15
1683.16801	6442.45
1686.43272	6374.25
1689.69527	6325.35
1692.95567	6299.55
1696.2139	6271.35
1699.46999	6241.05
1702.72392	6200.15
1705.97571	6135.25
1709.22535	6064.35
1712.47284	6017.85
1715.71819	5975.95
1718.96139	5925.45
1722.20246	5923.25
1725.44139	5870.35
1728.67818	5856.95
1731.91284	5835.75
1735.14537	5788.15
1738.37576	5770.95
1741.60403	5742.95
1744.83017	5722.65
1748.05418	5736.65
1751.27607	5730.75
1754.49584	5725.55
1757.71349	5740.85
1760.92903	5704.65
1764.14244	5686.55
1767.35375	5691.05
1770.56294	5668.25
1773.77002	5630.75
1776.97499	5603.25
1780.17785	5564.15
1783.37861	5558.75
1786.57727	5535.15
1789.77382	5498.55
1792.96828	5480.45
1796.16064	5462.95
1799.3509	5452.85
1802.53907	5435.25
1805.72514	5404.55
1808.90913	5406.75
1812.09102	5366.45
1815.27083	5353.85
1818.44856	5345.05
1821.6242	5317.95
1824.79776	5316.05
1827.96924	5318.45
1831.13864	5296.25
1834.30597	5302.05
1837.47122	5286.15
1840.6344	5266.75
1843.7955	5251.45
1846.95454	5243.85
1850.11151	5248.15
1853.26642	5257.55
1856.41926	5246.65
1859.57004	5240.35
1862.71876	5217.55
1865.86542	5209.85
1869.01003	5197.05
1872.15258	5214.25
1875.29308	5191.05
1878.43152	5200.05
1881.56792	5182.15
1884.70227	5172.85
1887.83457	5163.75
1890.96482	5152.65
1894.09304	5140.65
1897.21921	5139.75
1900.34335	5139.55
1903.46544	5105.95
1906.58551	5117.15
1909.70353	5106.45
1912.81953	5101.85
1915.93349	5065.65
1919.04543	5068.35
1922.15534	5069.55
1925.26322	5049.35
1928.36908	5034.25
1931.47292	5041.55
1934.57473	5019.15
1937.67453	5002.45
1940.77232	4972.35
1943.86808	4973.05
1946.96184	4947.45
1950.05358	4925.15
1953.14331	4926.45
1956.23103	4894.95
1959.31675	4893.45
1962.40046	4893.85
1965.48217	4869.25
1968.56188	4817.85
1971.63959	4830.05
1974.7153	4809.85
1977.78901	4791.55
1980.86073	4778.05
1983.93046	4749.65
1986.99819	4745.55
1990.06394	4707.25
1993.1277	4702.95
1996.18947	4693.55
1999.24925	4676.35
2002.30706	4648.35
2005.36288	4653.35
2008.41672	4633.35
2011.46859	4596.55
2014.51848	4600.45
2017.56639	4581.55
2020.61233	4572.65
2023.6563	4561.15
2026.6983	4528.35
2029.73833	4532.05
2032.7764	4498.25
2035.8125	4489.65
2038.84664	4493.05
2041.87881	4491.25
2044.90903	4472.55
2047.93729	4462.05
2050.96359	4458.85
2053.98794	4452.75
2057.01034	4451.75
2060.03078	4443.55
2063.04927	4432.55
2066.06582	4418.35
2069.08042	4410.95
2072.09307	4406.95
2075.10378	4386.75
2078.11255	4386.55
2081.11938	4387.25
2084.12426	4389.35
2087.12722	4388.05
2090.12824	4391.45
2093.12732	4378.75
2096.12447	4385.55
2099.11969	4373.55
2102.11299	4372.25
2105.10435	4368.35
2108.09379	4370.45
2111.08131	4378.75
2114.0669	4373.65
2117.05057	4374.45
2120.03233	4388.95
2123.01216	4367.15
2125.99008	4379.95
2128.96609	4380.15
2131.94018	4370.85
2134.91236	4365.95
2137.88263	4362.65
2140.851	4364.95
2143.81746	4369.45
2146.78201	4380.95
2149.74466	4377.25
2152.7054	4363.95
2155.66425	4361.85
2158.6212	4352.05
2161.57625	4366.45
2164.52941	4359.65
2167.48067	4355.75
2170.43004	4346.75
2173.37752	4340.85
2176.32311	4334.35
2179.26681	4325.05
2182.20863	4335.35
2185.14856	4349.65
2188.08661	4318.15
2191.02278	4305.45
2193.95707	4314.95
2196.88948	4316.85
2199.82001	4303.75
2202.74867	4302.55
2205.67545	4282.15
2208.60037	4279.35
2211.52341	4278.85
2214.44458	4274.45
2217.36388	4251.35
2220.28132	4245.85
2223.1969	4228.75
2226.11061	4225.45
2229.02246	4219.35
2231.93245	4209.55
2234.84058	4194.15
2237.74686	4194.95
2240.65128	4179.05
2243.55385	4174.65
2246.45456	4173.25
2249.35343	4160.55
2252.25044	4166.45
2255.14561	4152.25
2258.03893	4137.85
2260.93041	4143.95
2263.82004	4134.85
2266.70783	4110.05
2269.59378	4095.85
2272.4779	4074.65
2275.36017	4071.65
2278.24061	4067.55
2281.11922	4045.85
2283.996	4055.65
2286.87094	4045.95
2289.74405	4031.95
2292.61534	4012.85
2295.4848	4007.95
2298.35243	3999.65
2301.21824	3987.05
2304.08223	3994.95
2306.94439	3984.65
2309.80474	3976.25
2312.66327	3972.55
2315.51999	3974.55
2318.37489	3988.25
2321.22797	3963.65
2324.07925	3968.15
2326.92871	3965.95
2329.77637	3959.45
2332.62222	3956.85
2335.46626	3943.65
2338.3085	3929.15
2341.14893	3931.05
2343.98756	3931.05
2346.8244	3916.85
2349.65943	3907.25
2352.49267	3901.55
2355.32411	3913.85
2358.15376	3909.45
2360.98161	3911.15
2363.80768	3897.75
2366.63195	3902.55
2369.45444	3889.65
2372.27514	3884.15
2375.09405	3888.85
2377.91118	3880.55
2380.72652	3848.35
2383.54009	3846.55
2386.35187	3845.85
2389.16188	3813.45
2391.97011	3813.15
2394.77657	3807.35
2397.58125	3814.75
2400.38416	3790.45
2403.18529	3775.25
2405.98466	3772.25
2408.78226	3763.95
2411.57809	3767.05
2414.37216	3755.85
2417.16446	3750.35
2419.955	3748.55
2422.74378	3746.65
2425.5308	3742.25
2428.31606	3730.25
2431.09956	3728.45
2433.88131	3720.05
2436.6613	3715.55
2439.43954	3715.25
2442.21603	3698.05
2444.99077	3701.05
2447.76377	3700.35
2450.53501	3677.45
2453.30451	3697.55
2456.07226	3699.45
2458.83827	3677.85
2461.60254	3678.35
2464.36507	3660.05
2467.12586	3662.85
2469.88492	3665.15
2472.64224	3660.25
2475.39782	3678.25
2478.15167	3667.85
2480.90379	3654.15
2483.65417	3668.15
2486.40283	3661.35
2489.14976	3650.85
2491.89497	3661.55
2494.63845	3648.65
2497.3802	3678.05
2500.12024	3648.65
2502.85855	3639.45
2505.59514	3627.45
2508.33002	3626.15
2511.06318	3620.95
2513.79462	3616.25
2516.52435	3596.95
2519.25237	3587.35
2521.97867	3612.55
2524.70327	3600.95
2527.42616	3586.45
2530.14734	3573.85
2532.86681	3566.35
2535.58458	3569.35
2538.30065	3549.65
2541.01501	3561.95
2543.72768	3551.75
2546.43864	3539.05
2549.14791	3529.45
2551.85548	3540.35
2554.56136	3523.05
2557.26554	3533.45
2559.96803	3527.05
2562.66883	3498.25
2565.36794	3504.65
2568.06536	3493.35
2570.7611	3490.95
2573.45514	3480.45
2576.14751	3483.75
2578.83819	3473.85
2581.52719	3470.75
2584.21451	3457.75
2586.90015	3474.15
2589.58411	3464.35
2592.2664	3450.25
2594.94701	3431.25
2597.62594	3441.85
2600.30321	3431.15
2602.9788	3430.35
2605.65273	3422.65
2608.32498	3434.35
2610.99557	3409.75
2613.66449	3406.75
2616.33175	3397.25
2618.99734	3407.35
2621.66128	3399.45
2624.32355	3386.85
2626.98416	3400.55
2629.64311	3374.25
2632.30041	3380.35
2634.95605	3385.55
2637.61004	3363.55
2640.26238	3364.05
2642.91306	3353.05
2645.56209	3365.45
2648.20948	3359.55
2650.85521	3342.15
2653.4993	3346.95
2656.14175	3351.15
2658.78255	3351.45
2661.42171	3350.55
2664.05923	3336.05
2666.6951	3354.85
2669.32934	3347.35
2671.96194	3329.65
2674.59291	3334.75
2677.22224	3355.55
2679.84993	3340.75
2682.476	3339.35
2685.10043	3350.65
2687.72324	3337.95
2690.34441	3350.25
2692.96396	3338.35
2695.58188	3347.15
2698.19818	3337.25
2700.81285	3335.65
2703.4259	3352.85
2706.03733	3401.45
2708.64714	3361.45
2711.25533	3344.55
2713.86191	3332.25
2716.46687	3342.35
2719.07021	3341.05
2721.67194	3334.65
2724.27206	3330.65
2726.87057	3334.15
2729.46747	3325.15
2732.06276	3334.15
2734.65644	3324.25
2737.24852	3329.15
2739.83899	3315.95
2742.42786	3323.85
2745.01513	3302.35
2747.60079	3295.85
2750.18486	3303.45
2752.76733	3292.95
2755.3482	3299.65
2757.92747	3285.65
2760.50515	3292.05
2763.08123	3290.35
2765.65573	3290.55
2768.22863	3292.95
2770.79994	3282.55
2773.36967	3272.65
2775.9378	3264.35
2778.50435	3261.75
2781.06932	3261.85
2783.6327	3259.35
2786.1945	3246.95
2788.75471	3238.95
2791.31335	3228.15
2793.87041	3236.05
2796.42589	3225.25
2798.97979	3240.95
2801.53212	3221.25
2804.08288	3220.75
2806.63206	3208.35
2809.17967	3194.65
2811.72571	3193.95
2814.27018	3188.75
2816.81308	3179.25
2819.35442	3171.25
2821.89419	3174.45
2824.43239	3174.95
2826.96904	3174.45
2829.50412	3185.65
2832.03763	3159.95
2834.56959	3164.65
2837.1	3147.95
2839.62884	3151.45
2842.15613	3152.35
2844.68186	3154.85
2847.20604	3149.95
2849.72867	3167.05
2852.24974	3147.65
2854.76927	3148.35
2857.28724	3170.95
2859.80367	3148.45
2862.31855	3138.35
2864.83189	3128.15
2867.34368	3127.45
2869.85393	3119.75
2872.36264	3129.45
2874.8698	3115.85
2877.37543	3129.25
2879.87952	3124.75
2882.38207	3127.85
2884.88308	3127.55
2887.38256	3126.05
2889.88051	3113.75
2892.37692	3132.85
2894.8718	3117.55
2897.36515	3125.35
2899.85698	3112.75
2902.34727	3126.55
2904.83604	3134.75
2907.32328	3125.35
2909.809	3132.05
2912.29319	3127.85
2914.77587	3141.55
2917.25702	3122.05
2919.73665	3121.15
2922.21476	3135.15
2924.69136	3132.35
2927.16644	3133.35
2929.64	3134.15
2932.11205	3130.95
2934.58258	3104.55
2937.05161	3122.15
2939.51912	3135.75
2941.98513	3103.65
2944.44962	3111.35
2946.91261	3114.15
2949.37409	3108.75
2951.83407	3105.05
2954.29254	3101.25
2956.74951	3092.55
2959.20498	3099.05
2961.65895	3083.95
2964.11142	3065.45
2966.56239	3068.95
2969.01186	3059.25
2971.45984	3061.65
2973.90632	3050.15
2976.35131	3052.35
2978.7948	3049.25
2981.23681	3040.65
2983.67732	3028.35
2986.11635	3023.55
2988.55388	3025.05
2990.98993	3010.05
2993.4245	3005.15
2995.85758	2988.25
2998.28917	2998.95
3000.71928	2992.75
3003.14791	2986.65
3005.57506	2984.45
3008.00073	2985.25
3010.42493	2979.65
3012.84764	2967.85
3015.26888	2971.45
3017.68865	2968.45
3020.10694	2957.65
3022.52376	2955.15
3024.9391	2956.25
3027.35298	2946.15
3029.76539	2937.55
3032.17632	2946.25
3034.5858	2924.95
3036.9938	2922.95
3039.40034	2928.75
3041.80542	2932.55
3044.20903	2917.35
3046.61118	2925.95
3049.01187	2907.25
3051.4111	2910.35
3053.80888	2909.65
3056.20519	2893.35
3058.60005	2894.75
3060.99345	2885.05
3063.3854	2882.45
3065.7759	2878.05
3068.16494	2877.55
3070.55254	2866.65
3072.93868	2869.75
3075.32338	2864.15
3077.70662	2862.95
3080.08842	2858.15
3082.46878	2866.85
3084.84769	2863.95
3087.22515	2861.65
3089.60118	2873.45
3091.97576	2854.15
3094.3489	2863.85
3096.72061	2862.55
3099.09087	2881.25
3101.4597	2876.35
3103.82709	2876.55
3106.19305	2872.95
3108.55757	2860.95
3110.92066	2856.65
3113.28232	2851.65
3115.64255	2837.05
3118.00134	2844.75
3120.35871	2855.15
3122.71466	2844.75
3125.06917	2834.55
3127.42226	2828.25
3129.77393	2839.65
3132.12417	2861.05
3134.47299	2855.25
3136.82039	2836.65
3139.16636	2849.15
3141.51092	2861.75
3143.85406	2860.85
3146.19579	2864.15
3148.53609	2871.65
3150.87499	2871.05
3153.21246	2878.95
3155.54853	2883.85
3157.88318	2880.55
3160.21642	2887.95
3162.54826	2887.85
3164.87868	2886.55
3167.2077	2896.85
3169.5353	2900.45
3171.86151	2898.85
3174.18631	2892.55
3176.5097	2904.35
3178.83169	2892.15
3181.15228	2895.45
3183.47147	2888.45
3185.78926	2893.05
3188.10565	2898.15
3190.42065	2898.45
3192.73424	2902.55
3195.04645	2907.85
3197.35725	2901.05
3199.66667	2908.95
3201.97469	2913.25
3204.28132	2918.85
3206.58656	2920.35
3208.8904	2921.25
3211.19287	2928.85
3213.49394	2938.45
3215.79363	2938.55
3218.09193	2938.85
3220.38884	2939.45
3222.68438	2955.15
3224.97853	2941.05
3227.2713	2943.85
3229.56269	2943.95
3231.8527	2937.75
3234.14133	2922.65
3236.42858	2926.55
3238.71446	2924.55
3240.99896	2919.45
3243.28209	2921.55
3245.56384	2907.25
3247.84423	2922.95
3250.12324	2917.95
3252.40088	2918.95
3254.67715	2910.45
3256.95205	2914.95
3259.22558	2924.05
3261.49775	2898.75
3263.76855	2898.05
3266.03799	2883.15
3268.30606	2894.05
3270.57277	2876.25
3272.83812	2872.95
3275.10211	2866.05
3277.36474	2868.95
3279.62601	2874.75
3281.88593	2871.45
3284.14448	2866.85
3286.40168	2855.65
3288.65753	2858.55
3290.91202	2860.15
3293.16516	2845.25
3295.41695	2832.65
3297.66738	2811.85
3299.91647	2821.05
3302.16421	2796.65
3304.4106	2785.85
3306.65564	2768.05
3308.89933	2759.05
3311.14169	2748.45
3313.38269	2727.65
3315.62236	2722.35
3317.86068	2683.85
3320.09766	2676.45
3322.3333	2653.55
3324.5676	2656.85
3326.80056	2624.15
3329.03219	2594.25
3331.26248	1.05
3333.49143	0.65
3335.71905	1.25
