Data from AgNPs_FTO_APTES_UA_20um_CRN_0.1mM_R6G_10uM_NaF_0.1M_Addition_RamanShift__25__14-45-29-201.txt Node

Date: Tue Dec 21 14:45:29 GMT 2021
User: TCL
Spectrometer: QEP01345
Trigger mode: 4
Integration Time (sec): 7.000000E0
Scans to average: 10
Electric dark correction enabled: true
Nonlinearity correction enabled: false
Boxcar width: 0
XAxis mode: Raman Shifts
Number of Pixels in Spectrum: 1044
>>>>>Begin Spectral Data<<<<<
46.04893	-0.65
50.45542	-0.85
54.85868	-1.45
59.25871	0.15
63.6555	48.05
68.04907	54.05
72.43941	56.65
76.82654	56.05
81.21044	65.25
85.59113	63.35
89.96862	68.35
94.34289	68.15
98.71396	69.25
103.08183	74.55
107.4465	76.15
111.80798	79.65
116.16626	80.25
120.52136	81.65
124.87327	86.05
129.222	85.55
133.56755	90.65
137.90993	102.25
142.24913	108.55
146.58517	119.35
150.91804	134.65
155.24774	155.35
159.57429	191.45
163.89768	247.75
168.21792	327.65
172.53501	443.75
176.84895	613.55
181.15975	856.85
185.46741	1193.45
189.77193	1648.95
194.07331	2205.15
198.37157	2855.45
202.6667	3556.45
206.9587	4201.35
211.24758	4899.95
215.53334	5593.95
219.81599	6335.55
224.09553	7162.15
228.37195	8076.05
232.64527	9109.55
236.91549	10159.45
241.18261	11155.45
245.44663	12041.45
249.70755	12841.55
253.96539	13525.55
258.22014	14104.65
262.4718	14524.95
266.72039	14893.35
270.96589	15046.85
275.20832	15048.75
279.44768	14905.85
283.68397	14712.85
287.91719	14628.45
292.14735	14559.45
296.37445	14739.85
300.59849	15006.85
304.81948	15297.85
309.03742	15450.85
313.25231	15248.05
317.46415	14711.05
321.67296	13883.45
325.87872	13235.45
330.08145	12917.15
334.28114	12900.75
338.47781	13086.95
342.67145	13348.15
346.86207	13747.95
351.04966	14293.85
355.23424	14930.15
359.4158	15405.95
363.59435	15734.65
367.76989	15898.75
371.94243	15936.75
376.11196	15989.55
380.27849	16023.35
384.44203	15963.45
388.60257	15904.05
392.76012	15902.65
396.91468	16072.95
401.06626	16351.35
405.21485	16575.35
409.36047	16449.25
413.50311	15885.45
417.64277	15324.75
421.77947	15035.15
425.9132	14953.55
430.04396	14997.05
434.17176	15090.25
438.2966	15258.45
442.41849	15611.35
446.53742	16071.95
450.6534	16555.95
454.76644	16939.15
458.87653	17038.45
462.98368	16894.35
467.08789	16697.95
471.18916	16420.95
475.2875	16248.05
479.38291	16108.45
483.4754	15946.85
487.56496	15700.65
491.6516	15472.55
495.73531	15223.55
499.81612	15131.75
503.89401	15175.05
507.96899	15246.15
512.04106	15301.95
516.11023	15371.75
520.1765	15383.95
524.23987	15347.25
528.30034	15226.95
532.35792	15038.35
536.41261	14814.45
540.46441	14586.85
544.51333	14426.85
548.55936	14500.75
552.60252	14760.05
556.64279	15104.25
560.6802	15365.15
564.71473	15567.65
568.7464	15977.25
572.7752	16372.35
576.80114	16232.45
580.82422	15958.55
584.84444	15868.85
588.86181	15953.05
592.87633	16202.75
596.888	16422.25
600.89682	16654.75
604.9028	17730.45
608.90594	20784.85
612.90624	24761.95
616.90371	23894.45
620.89834	18215.35
624.89015	15423.85
628.87913	14998.65
632.86528	15125.85
636.84862	15278.25
640.82913	15082.55
644.80683	14512.15
648.78172	13992.15
652.75379	13919.55
656.72306	14178.05
660.68952	14624.25
664.65319	14640.75
668.61405	14218.95
672.57211	14074.05
676.52738	14114.05
680.47986	14094.65
684.42955	13956.35
688.37646	13859.65
692.32058	13827.65
696.26192	13894.25
700.20048	14011.55
704.13626	14129.45
708.06928	14107.95
711.99952	13953.85
715.927	13898.25
719.85171	13874.05
723.77365	13874.15
727.69284	13835.95
731.60928	13757.35
735.52295	13719.05
739.43388	13737.05
743.34206	13819.35
747.24749	13872.45
751.15017	13931.35
755.05012	14136.05
758.94733	14654.65
762.8418	15686.35
766.73354	17612.95
770.62254	19698.85
774.50882	20760.05
778.39237	19957.75
782.27321	17754.45
786.15132	15656.95
790.02671	14397.55
793.89938	13802.95
797.76935	13560.55
801.6366	13488.05
805.50115	13463.85
809.36299	13461.45
813.22213	13387.35
817.07857	13365.75
820.93231	13311.15
824.78336	13232.65
828.63172	13215.15
832.47738	13194.85
836.32036	13176.75
840.16066	13156.55
843.99827	13129.75
847.8332	13066.35
851.66546	13015.05
855.49504	12976.75
859.32195	12999.25
863.1462	12951.15
866.96777	12930.05
870.78668	12934.15
874.60293	12975.55
878.41652	12969.35
882.22745	13029.95
886.03573	13086.35
889.84136	13077.05
893.64433	13014.75
897.44466	12909.45
901.24235	12817.55
905.0374	12710.25
908.8298	12651.25
912.61957	12647.65
916.40671	12685.25
920.19121	12827.75
923.97308	12932.25
927.75233	13017.95
931.52895	13065.35
935.30295	12937.15
939.07433	12658.35
942.84309	12430.55
946.60924	12261.35
950.37278	12176.35
954.13371	12130.95
957.89203	12086.75
961.64774	12054.45
965.40086	11972.35
969.15137	11879.45
972.89929	11837.65
976.64461	11783.75
980.38733	11771.75
984.12747	11789.45
987.86502	11879.45
991.59999	11989.05
995.33237	12139.85
999.06217	12453.85
1002.78939	12866.95
1006.51404	13226.15
1010.23611	13516.35
1013.95561	13674.35
1017.67255	13712.75
1021.38692	13511.25
1025.09872	13313.85
1028.80796	13190.65
1032.51465	13334.85
1036.21877	13556.15
1039.92035	13590.85
1043.61937	13545.55
1047.31584	13347.95
1051.00976	13137.85
1054.70114	13041.85
1058.38998	12964.85
1062.07627	13007.45
1065.76003	13095.65
1069.44126	13157.65
1073.11995	13262.05
1076.79611	13363.15
1080.46974	13481.55
1084.14085	13663.85
1087.80943	13889.25
1091.47549	14057.75
1095.13903	13947.05
1098.80005	13670.15
1102.45857	13355.15
1106.11456	13178.65
1109.76805	13177.95
1113.41903	13406.35
1117.06751	13693.45
1120.71348	14102.45
1124.35696	14542.15
1127.99793	14954.95
1131.63641	15047.55
1135.2724	14709.25
1138.90589	14294.75
1142.5369	13951.05
1146.16542	13750.35
1149.79145	13597.05
1153.415	13574.95
1157.03607	13656.65
1160.65467	13919.55
1164.27079	14385.95
1167.88443	15077.05
1171.49561	16128.45
1175.10432	17710.15
1178.71056	19753.55
1182.31434	21658.85
1185.91565	22495.55
1189.51451	22225.75
1193.11091	21232.05
1196.70485	20004.85
1200.29634	18971.85
1203.88538	18152.45
1207.47197	17332.15
1211.05612	16624.45
1214.63782	16152.35
1218.21708	15923.95
1221.79391	15829.05
1225.36829	15784.05
1228.94024	15615.85
1232.50976	15383.45
1236.07685	15228.05
1239.6415	15184.15
1243.20374	15208.75
1246.76355	15319.45
1250.32093	15587.65
1253.8759	15915.75
1257.42845	16373.05
1260.97859	16848.55
1264.52631	17256.35
1268.07163	17632.85
1271.61453	18103.05
1275.15503	18543.65
1278.69312	18925.85
1282.22882	19262.95
1285.76211	19692.25
1289.29301	20321.35
1292.82151	21084.85
1296.34761	22043.55
1299.87133	23290.55
1303.39266	25000.05
1306.9116	27205.45
1310.42815	29563.35
1313.94233	30867.75
1317.45412	30573.55
1320.96354	29301.45
1324.47058	27829.85
1327.97525	26524.45
1331.47754	25682.25
1334.97747	25364.15
1338.47502	25497.75
1341.97022	25856.45
1345.46305	26202.25
1348.95352	26546.25
1352.44163	27209.55
1355.92738	28634.55
1359.41078	31157.25
1362.89183	33594.45
1366.37053	32966.85
1369.84688	28989.85
1373.32088	24789.05
1376.79254	22025.95
1380.26186	20645.25
1383.72883	20106.65
1387.19347	19823.35
1390.65578	19529.45
1394.11575	19397.15
1397.57339	19650.35
1401.0287	20089.75
1404.48168	20550.45
1407.93234	20905.15
1411.38068	20957.25
1414.82669	20601.75
1418.27039	19909.55
1421.71177	19015.15
1425.15083	18214.35
1428.58758	17753.65
1432.02203	17677.85
1435.45416	17825.25
1438.88399	18061.05
1442.31151	18240.75
1445.73673	18460.55
1449.15965	18781.85
1452.58027	19030.45
1455.9986	19144.65
1459.41463	19249.95
1462.82837	19575.65
1466.23982	19982.85
1469.64898	20363.65
1473.05586	20557.25
1476.46045	20557.95
1479.86276	20547.05
1483.26279	20584.65
1486.66054	20678.15
1490.05602	20942.65
1493.44922	21349.25
1496.84016	21923.15
1500.22882	22954.15
1503.61521	24610.85
1506.99934	26745.35
1510.38121	28652.15
1513.76081	29242.85
1517.13816	27970.15
1520.51324	25443.55
1523.88607	22967.85
1527.25665	21315.55
1530.62498	20475.15
1533.99105	20019.15
1537.35488	19759.65
1540.71647	19608.65
1544.07581	19473.55
1547.4329	19292.75
1550.78776	19119.65
1554.14038	19002.85
1557.49077	19058.35
1560.83892	19175.75
1564.18484	19431.85
1567.52853	19717.95
1570.86999	19901.05
1574.20922	20145.25
1577.54624	20153.75
1580.88103	19739.25
1584.2136	19094.05
1587.54395	18988.55
1590.87208	19597.55
1594.19801	20739.55
1597.52172	22241.35
1600.84321	23012.85
1604.16251	22358.35
1607.47959	20845.15
1610.79447	19010.75
1614.10715	17284.35
1617.41763	15867.35
1620.7259	14982.35
1624.03199	14502.45
1627.33587	14468.65
1630.63757	14794.45
1633.93707	15537.85
1637.23439	16763.15
1640.52951	18523.65
1643.82246	20737.15
1647.11321	23015.35
1650.40179	24319.25
1653.68819	23497.95
1656.97241	20656.35
1660.25446	17546.15
1663.53433	15162.55
1666.81203	13689.25
1670.08756	12757.95
1673.36092	12210.75
1676.63211	11826.45
1679.90115	11583.05
1683.16801	11373.05
1686.43272	11201.15
1689.69527	11087.85
1692.95567	10990.45
1696.2139	10930.45
1699.46999	10893.25
1702.72392	10819.05
1705.97571	10794.45
1709.22535	10734.35
1712.47284	10691.15
1715.71819	10693.85
1718.96139	10660.85
1722.20246	10619.95
1725.44139	10574.95
1728.67818	10513.85
1731.91284	10443.05
1735.14537	10377.55
1738.37576	10351.05
1741.60403	10306.65
1744.83017	10271.25
1748.05418	10268.75
1751.27607	10229.45
1754.49584	10231.65
1757.71349	10208.15
1760.92903	10195.35
1764.14244	10153.75
1767.35375	10127.75
1770.56294	10073.55
1773.77002	10077.85
1776.97499	10017.55
1780.17785	10017.55
1783.37861	9981.85
1786.57727	9974.55
1789.77382	9938.85
1792.96828	9923.05
1796.16064	9902.25
1799.3509	9861.55
1802.53907	9862.95
1805.72514	9836.35
1808.90913	9778.05
1812.09102	9768.15
1815.27083	9752.05
1818.44856	9741.05
1821.6242	9709.95
1824.79776	9698.05
1827.96924	9684.15
1831.13864	9665.55
1834.30597	9653.25
1837.47122	9655.65
1840.6344	9609.85
1843.7955	9622.95
1846.95454	9645.75
1850.11151	9609.85
1853.26642	9598.65
1856.41926	9600.55
1859.57004	9611.05
1862.71876	9598.05
1865.86542	9605.15
1869.01003	9573.35
1872.15258	9587.85
1875.29308	9571.25
1878.43152	9562.75
1881.56792	9584.15
1884.70227	9573.45
1887.83457	9573.95
1890.96482	9590.15
1894.09304	9542.55
1897.21921	9552.95
1900.34335	9523.25
1903.46544	9541.45
1906.58551	9521.45
1909.70353	9526.65
1912.81953	9504.35
1915.93349	9504.45
1919.04543	9473.65
1922.15534	9470.55
1925.26322	9418.75
1928.36908	9403.95
1931.47292	9365.15
1934.57473	9349.65
1937.67453	9319.65
1940.77232	9263.55
1943.86808	9241.05
1946.96184	9217.75
1950.05358	9199.95
1953.14331	9181.95
1956.23103	9136.35
1959.31675	9110.85
1962.40046	9085.65
1965.48217	9072.45
1968.56188	9042.95
1971.63959	9007.65
1974.7153	8986.65
1977.78901	8963.95
1980.86073	8925.65
1983.93046	8883.05
1986.99819	8852.65
1990.06394	8832.15
1993.1277	8791.45
1996.18947	8755.25
1999.24925	8721.35
2002.30706	8721.65
2005.36288	8686.55
2008.41672	8670.45
2011.46859	8638.15
2014.51848	8618.45
2017.56639	8587.35
2020.61233	8569.85
2023.6563	8540.25
2026.6983	8516.95
2029.73833	8501.25
2032.7764	8490.05
2035.8125	8453.55
2038.84664	8462.95
2041.87881	8436.45
2044.90903	8405.55
2047.93729	8408.85
2050.96359	8421.95
2053.98794	8387.95
2057.01034	8368.45
2060.03078	8358.55
2063.04927	8350.55
2066.06582	8340.95
2069.08042	8335.85
2072.09307	8321.15
2075.10378	8296.05
2078.11255	8283.85
2081.11938	8297.35
2084.12426	8280.05
2087.12722	8262.35
2090.12824	8262.05
2093.12732	8288.25
2096.12447	8267.25
2099.11969	8282.35
2102.11299	8250.95
2105.10435	8260.75
2108.09379	8248.75
2111.08131	8275.35
2114.0669	8285.35
2117.05057	8257.65
2120.03233	8261.95
2123.01216	8262.95
2125.99008	8283.65
2128.96609	8278.15
2131.94018	8280.15
2134.91236	8279.45
2137.88263	8286.45
2140.851	8288.75
2143.81746	8307.35
2146.78201	8271.75
2149.74466	8270.55
2152.7054	8261.05
2155.66425	8250.45
2158.6212	8235.05
2161.57625	8244.25
2164.52941	8253.95
2167.48067	8247.65
2170.43004	8249.55
2173.37752	8232.45
2176.32311	8234.05
2179.26681	8228.55
2182.20863	8228.75
2185.14856	8243.55
2188.08661	8209.35
2191.02278	8204.75
2193.95707	8208.75
2196.88948	8186.55
2199.82001	8194.05
2202.74867	8198.05
2205.67545	8182.45
2208.60037	8184.55
2211.52341	8177.15
2214.44458	8173.05
2217.36388	8162.05
2220.28132	8125.35
2223.1969	8084.15
2226.11061	8102.95
2229.02246	8064.65
2231.93245	8066.15
2234.84058	8029.35
2237.74686	8022.85
2240.65128	8021.25
2243.55385	8010.55
2246.45456	7975.75
2249.35343	7984.85
2252.25044	7982.15
2255.14561	7954.25
2258.03893	7958.55
2260.93041	7955.85
2263.82004	7899.65
2266.70783	7901.65
2269.59378	7898.85
2272.4779	7845.55
2275.36017	7848.35
2278.24061	7826.95
2281.11922	7798.75
2283.996	7788.95
2286.87094	7784.25
2289.74405	7765.45
2292.61534	7747.25
2295.4848	7738.55
2298.35243	7719.55
2301.21824	7748.95
2304.08223	7697.85
2306.94439	7727.55
2309.80474	7713.75
2312.66327	7731.65
2315.51999	7722.45
2318.37489	7715.05
2321.22797	7707.55
2324.07925	7704.65
2326.92871	7710.05
2329.77637	7672.35
2332.62222	7656.35
2335.46626	7656.85
2338.3085	7644.95
2341.14893	7658.45
2343.98756	7675.25
2346.8244	7679.35
2349.65943	7685.15
2352.49267	7678.35
2355.32411	7643.95
2358.15376	7659.75
2360.98161	7665.05
2363.80768	7667.15
2366.63195	7635.85
2369.45444	7645.75
2372.27514	7639.15
2375.09405	7600.35
2377.91118	7603.55
2380.72652	7564.55
2383.54009	7530.85
2386.35187	7516.35
2389.16188	7485.65
2391.97011	7502.15
2394.77657	7453.05
2397.58125	7453.35
2400.38416	7438.75
2403.18529	7433.45
2405.98466	7402.05
2408.78226	7382.85
2411.57809	7369.95
2414.37216	7351.15
2417.16446	7365.05
2419.955	7326.85
2422.74378	7356.85
2425.5308	7319.75
2428.31606	7323.15
2431.09956	7332.25
2433.88131	7306.65
2436.6613	7326.65
2439.43954	7299.65
2442.21603	7266.45
2444.99077	7274.55
2447.76377	7299.95
2450.53501	7287.85
2453.30451	7287.55
2456.07226	7284.85
2458.83827	7292.45
2461.60254	7266.35
2464.36507	7272.05
2467.12586	7273.15
2469.88492	7285.85
2472.64224	7270.65
2475.39782	7264.65
2478.15167	7291.25
2480.90379	7265.95
2483.65417	7292.85
2486.40283	7287.65
2489.14976	7278.05
2491.89497	7273.85
2494.63845	7314.15
2497.3802	7307.05
2500.12024	7303.25
2502.85855	7275.35
2505.59514	7303.15
2508.33002	7257.75
2511.06318	7244.45
2513.79462	7229.45
2516.52435	7220.75
2519.25237	7192.75
2521.97867	7177.25
2524.70327	7170.65
2527.42616	7157.65
2530.14734	7174.85
2532.86681	7162.05
2535.58458	7140.75
2538.30065	7114.85
2541.01501	7129.95
2543.72768	7125.05
2546.43864	7128.85
2549.14791	7105.95
2551.85548	7111.65
2554.56136	7093.25
2557.26554	7083.45
2559.96803	7083.45
2562.66883	7060.05
2565.36794	7072.15
2568.06536	7042.65
2570.7611	7051.05
2573.45514	7037.95
2576.14751	7027.65
2578.83819	7025.35
2581.52719	7030.05
2584.21451	7000.85
2586.90015	7012.65
2589.58411	7007.45
2592.2664	7002.75
2594.94701	6969.35
2597.62594	6982.95
2600.30321	6970.65
2602.9788	6981.25
2605.65273	6956.75
2608.32498	6954.25
2610.99557	6952.95
2613.66449	6981.05
2616.33175	6956.75
2618.99734	6953.85
2621.66128	6966.45
2624.32355	6945.85
2626.98416	6975.05
2629.64311	6950.05
2632.30041	6942.95
2634.95605	6941.85
2637.61004	6928.95
2640.26238	6925.05
2642.91306	6936.25
2645.56209	6909.75
2648.20948	6890.05
2650.85521	6903.35
2653.4993	6886.75
2656.14175	6901.15
2658.78255	6901.35
2661.42171	6905.15
2664.05923	6929.55
2666.6951	6926.65
2669.32934	6955.35
2671.96194	6915.35
2674.59291	6925.25
2677.22224	6917.15
2679.84993	6906.05
2682.476	6919.55
2685.10043	6913.35
2687.72324	6899.15
2690.34441	6908.95
2692.96396	6916.55
2695.58188	6924.45
2698.19818	6898.85
2700.81285	6916.55
2703.4259	6920.25
2706.03733	6963.85
2708.64714	6927.85
2711.25533	6906.45
2713.86191	6906.45
2716.46687	6914.35
2719.07021	6906.75
2721.67194	6934.15
2724.27206	6910.35
2726.87057	6919.95
2729.46747	6932.85
2732.06276	6921.05
2734.65644	6920.85
2737.24852	6907.95
2739.83899	6868.25
2742.42786	6880.15
2745.01513	6864.15
2747.60079	6889.75
2750.18486	6889.85
2752.76733	6885.05
2755.3482	6865.25
2757.92747	6877.55
2760.50515	6860.65
2763.08123	6872.65
2765.65573	6848.75
2768.22863	6864.35
2770.79994	6871.25
2773.36967	6850.85
2775.9378	6848.85
2778.50435	6857.05
2781.06932	6842.25
2783.6327	6841.95
2786.1945	6835.05
2788.75471	6832.95
2791.31335	6816.55
2793.87041	6808.45
2796.42589	6784.25
2798.97979	6789.45
2801.53212	6749.75
2804.08288	6780.25
2806.63206	6753.75
2809.17967	6746.05
2811.72571	6738.35
2814.27018	6759.35
2816.81308	6732.45
2819.35442	6724.35
2821.89419	6726.05
2824.43239	6734.45
2826.96904	6702.75
2829.50412	6704.45
2832.03763	6686.45
2834.56959	6702.85
2837.1	6701.15
2839.62884	6721.85
2842.15613	6688.85
2844.68186	6695.65
2847.20604	6728.05
2849.72867	6720.35
2852.24974	6720.65
2854.76927	6713.35
2857.28724	6722.85
2859.80367	6695.75
2862.31855	6694.85
2864.83189	6671.05
2867.34368	6688.65
2869.85393	6666.85
2872.36264	6670.85
2874.8698	6681.85
2877.37543	6679.95
2879.87952	6674.25
2882.38207	6683.55
2884.88308	6677.55
2887.38256	6690.55
2889.88051	6683.15
2892.37692	6689.25
2894.8718	6671.25
2897.36515	6688.05
2899.85698	6675.45
2902.34727	6685.85
2904.83604	6680.75
2907.32328	6675.05
2909.809	6701.95
2912.29319	6712.55
2914.77587	6713.65
2917.25702	6716.45
2919.73665	6706.55
2922.21476	6701.15
2924.69136	6691.85
2927.16644	6683.05
2929.64	6668.65
2932.11205	6673.45
2934.58258	6665.65
2937.05161	6657.95
2939.51912	6643.45
2941.98513	6634.65
2944.44962	6621.45
2946.91261	6604.95
2949.37409	6594.25
2951.83407	6602.15
2954.29254	6589.15
2956.74951	6578.25
2959.20498	6564.75
2961.65895	6547.75
2964.11142	6518.65
2966.56239	6494.35
2969.01186	6486.45
2971.45984	6479.45
2973.90632	6463.15
2976.35131	6440.15
2978.7948	6412.05
2981.23681	6413.85
2983.67732	6378.75
2986.11635	6375.95
2988.55388	6370.65
2990.98993	6326.55
2993.4245	6337.35
2995.85758	6300.95
2998.28917	6307.55
3000.71928	6293.05
3003.14791	6293.05
3005.57506	6283.85
3008.00073	6269.55
3010.42493	6263.25
3012.84764	6253.95
3015.26888	6256.95
3017.68865	6240.75
3020.10694	6220.25
3022.52376	6198.95
3024.9391	6181.35
3027.35298	6174.15
3029.76539	6167.45
3032.17632	6147.05
3034.5858	6150.35
3036.9938	6147.75
3039.40034	6127.15
3041.80542	6132.05
3044.20903	6108.35
3046.61118	6111.75
3049.01187	6066.15
3051.4111	6081.45
3053.80888	6075.95
3056.20519	6073.75
3058.60005	6042.75
3060.99345	6019.45
3063.3854	6023.65
3065.7759	5982.25
3068.16494	5982.65
3070.55254	5962.65
3072.93868	5954.65
3075.32338	5936.05
3077.70662	5904.15
3080.08842	5894.55
3082.46878	5903.15
3084.84769	5888.15
3087.22515	5877.45
3089.60118	5883.55
3091.97576	5866.25
3094.3489	5865.25
3096.72061	5894.85
3099.09087	5878.75
3101.4597	5847.15
3103.82709	5857.05
3106.19305	5855.25
3108.55757	5829.75
3110.92066	5829.55
3113.28232	5822.15
3115.64255	5795.05
3118.00134	5770.25
3120.35871	5772.35
3122.71466	5778.95
3125.06917	5770.45
3127.42226	5752.25
3129.77393	5758.35
3132.12417	5763.15
3134.47299	5753.45
3136.82039	5761.65
3139.16636	5753.05
3141.51092	5749.95
3143.85406	5763.55
3146.19579	5760.75
3148.53609	5739.75
3150.87499	5756.45
3153.21246	5769.45
3155.54853	5766.85
3157.88318	5772.65
3160.21642	5761.15
3162.54826	5761.45
3164.87868	5761.65
3167.2077	5747.25
3169.5353	5745.35
3171.86151	5747.15
3174.18631	5750.15
3176.5097	5740.35
3178.83169	5721.05
3181.15228	5751.75
3183.47147	5722.65
3185.78926	5723.15
3188.10565	5721.05
3190.42065	5703.05
3192.73424	5736.45
3195.04645	5720.95
3197.35725	5751.15
3199.66667	5726.85
3201.97469	5735.25
3204.28132	5740.45
3206.58656	5756.95
3208.8904	5748.65
3211.19287	5756.35
3213.49394	5738.35
3215.79363	5739.35
3218.09193	5753.15
3220.38884	5732.05
3222.68438	5757.95
3224.97853	5743.45
3227.2713	5718.85
3229.56269	5728.45
3231.8527	5720.25
3234.14133	5703.45
3236.42858	5680.35
3238.71446	5706.55
3240.99896	5692.15
3243.28209	5679.25
3245.56384	5690.55
3247.84423	5677.95
3250.12324	5665.85
3252.40088	5686.05
3254.67715	5663.85
3256.95205	5666.45
3259.22558	5665.05
3261.49775	5627.55
3263.76855	5629.65
3266.03799	5611.95
3268.30606	5591.15
3270.57277	5599.05
3272.83812	5593.95
3275.10211	5589.55
3277.36474	5578.15
3279.62601	5580.15
3281.88593	5572.45
3284.14448	5558.85
3286.40168	5581.95
3288.65753	5560.65
3290.91202	5562.65
3293.16516	5546.75
3295.41695	5514.65
3297.66738	5496.75
3299.91647	5464.55
3302.16421	5425.65
3304.4106	5419.65
3306.65564	5399.95
3308.89933	5346.45
3311.14169	5337.75
3313.38269	5293.05
3315.62236	5268.25
3317.86068	5210.65
3320.09766	5169.85
3322.3333	5140.05
3324.5676	5132.15
3326.80056	5049.25
3329.03219	5029.45
3331.26248	1.75
3333.49143	0.85
3335.71905	0.05
