Data from AgNPs_FTO_APTES_UA_20um_CRN_0.1mM_R6G_10uM_NaF_0.1M_Addition_RamanShift__17__14-36-09-191.txt Node

Date: Tue Dec 21 14:36:09 GMT 2021
User: TCL
Spectrometer: QEP01345
Trigger mode: 4
Integration Time (sec): 7.000000E0
Scans to average: 10
Electric dark correction enabled: true
Nonlinearity correction enabled: false
Boxcar width: 0
XAxis mode: Raman Shifts
Number of Pixels in Spectrum: 1044
>>>>>Begin Spectral Data<<<<<
46.04893	-0.05
50.45542	-0.75
54.85868	-1.15
59.25871	-0.85
63.6555	42.15
68.04907	46.25
72.43941	51.45
76.82654	50.65
81.21044	57.65
85.59113	56.45
89.96862	58.85
94.34289	58.95
98.71396	56.95
103.08183	64.55
107.4465	71.35
111.80798	68.65
116.16626	68.65
120.52136	71.75
124.87327	75.75
129.222	77.15
133.56755	81.75
137.90993	91.45
142.24913	92.65
146.58517	103.95
150.91804	120.65
155.24774	140.95
159.57429	171.65
163.89768	217.65
168.21792	287.35
172.53501	383.65
176.84895	534.85
181.15975	756.75
185.46741	1055.15
189.77193	1459.25
194.07331	1943.05
198.37157	2510.05
202.6667	3108.35
206.9587	3719.85
211.24758	4322.85
215.53334	4937.95
219.81599	5539.45
224.09553	6247.65
228.37195	7015.05
232.64527	7846.55
236.91549	8720.85
241.18261	9614.75
245.44663	10433.05
249.70755	11153.95
253.96539	11759.85
258.22014	12265.95
262.4718	12656.65
266.72039	13017.05
270.96589	13152.45
275.20832	13170.85
279.44768	13052.65
283.68397	12914.25
287.91719	12840.65
292.14735	12761.55
296.37445	12758.45
300.59849	12812.05
304.81948	12866.75
309.03742	12835.35
313.25231	12693.85
317.46415	12388.95
321.67296	11989.55
325.87872	11617.55
330.08145	11448.45
334.28114	11447.85
338.47781	11524.55
342.67145	11674.35
346.86207	11850.35
351.04966	12068.65
355.23424	12312.85
359.4158	12514.55
363.59435	12701.15
367.76989	12775.95
371.94243	12875.15
376.11196	12913.95
380.27849	13002.95
384.44203	13084.35
388.60257	13193.65
392.76012	13306.35
396.91468	13447.55
401.06626	13657.15
405.21485	13770.55
409.36047	13717.75
413.50311	13494.15
417.64277	13254.85
421.77947	13160.95
425.9132	13153.55
430.04396	13225.35
434.17176	13278.25
438.2966	13389.55
442.41849	13582.55
446.53742	13927.55
450.6534	14337.25
454.76644	14619.05
458.87653	14748.75
462.98368	14718.05
467.08789	14593.65
471.18916	14449.05
475.2875	14406.55
479.38291	14367.25
483.4754	14326.25
487.56496	14177.75
491.6516	13928.05
495.73531	13679.65
499.81612	13562.45
503.89401	13588.95
507.96899	13597.35
512.04106	13552.35
516.11023	13465.25
520.1765	13359.15
524.23987	13246.05
528.30034	13185.95
532.35792	13112.55
536.41261	13017.85
540.46441	12916.15
544.51333	12863.85
548.55936	12945.45
552.60252	13152.25
556.64279	13482.35
560.6802	13659.05
564.71473	13740.65
568.7464	13946.55
572.7752	14237.35
576.80114	14434.15
580.82422	14598.45
584.84444	14765.15
588.86181	14909.65
592.87633	15105.55
596.888	15186.95
600.89682	15128.45
604.9028	15462.85
608.90594	16754.65
612.90624	18243.25
616.90371	17259.45
620.89834	14414.75
624.89015	13080.15
628.87913	12938.65
632.86528	13060.55
636.84862	13150.65
640.82913	13050.45
644.80683	12730.25
648.78172	12412.95
652.75379	12309.25
656.72306	12413.15
660.68952	12602.95
664.65319	12615.05
668.61405	12443.95
672.57211	12478.25
676.52738	12610.95
680.47986	12660.95
684.42955	12569.75
688.37646	12439.05
692.32058	12334.15
696.26192	12367.35
700.20048	12441.75
704.13626	12499.85
708.06928	12499.75
711.99952	12426.75
715.927	12373.45
719.85171	12360.95
723.77365	12342.35
727.69284	12271.55
731.60928	12212.45
735.52295	12178.75
739.43388	12168.35
743.34206	12219.15
747.24749	12238.85
751.15017	12295.15
755.05012	12414.85
758.94733	12730.25
762.8418	13368.35
766.73354	14409.35
770.62254	15557.85
774.50882	15958.35
778.39237	15369.45
782.27321	14148.25
786.15132	13079.85
790.02671	12387.55
793.89938	12034.15
797.76935	11899.05
801.6366	11866.85
805.50115	11827.35
809.36299	11749.35
813.22213	11650.65
817.07857	11623.95
820.93231	11564.45
824.78336	11475.25
828.63172	11455.65
832.47738	11425.65
836.32036	11389.35
840.16066	11390.15
843.99827	11372.85
847.8332	11337.45
851.66546	11284.85
855.49504	11258.95
859.32195	11280.85
863.1462	11307.35
866.96777	11314.45
870.78668	11331.85
874.60293	11306.65
878.41652	11321.45
882.22745	11325.45
886.03573	11338.35
889.84136	11351.25
893.64433	11325.85
897.44466	11237.25
901.24235	11175.15
905.0374	11057.65
908.8298	11029.05
912.61957	10988.25
916.40671	11086.35
920.19121	11211.75
923.97308	11292.05
927.75233	11311.35
931.52895	11270.75
935.30295	11135.85
939.07433	10946.75
942.84309	10754.25
946.60924	10677.95
950.37278	10617.85
954.13371	10606.45
957.89203	10570.45
961.64774	10534.35
965.40086	10510.15
969.15137	10441.45
972.89929	10388.35
976.64461	10304.35
980.38733	10280.65
984.12747	10286.15
987.86502	10334.55
991.59999	10458.15
995.33237	10525.45
999.06217	10757.75
1002.78939	11008.15
1006.51404	11198.35
1010.23611	11368.75
1013.95561	11469.05
1017.67255	11492.95
1021.38692	11383.55
1025.09872	11234.75
1028.80796	11129.85
1032.51465	11170.35
1036.21877	11313.15
1039.92035	11392.65
1043.61937	11367.15
1047.31584	11301.85
1051.00976	11228.35
1054.70114	11212.75
1058.38998	11213.25
1062.07627	11301.15
1065.76003	11364.35
1069.44126	11487.85
1073.11995	11577.15
1076.79611	11681.75
1080.46974	11735.35
1084.14085	11776.05
1087.80943	11876.65
1091.47549	11991.65
1095.13903	12043.05
1098.80005	11936.15
1102.45857	11724.45
1106.11456	11512.55
1109.76805	11398.05
1113.41903	11431.75
1117.06751	11508.35
1120.71348	11660.45
1124.35696	11849.95
1127.99793	12057.95
1131.63641	12216.95
1135.2724	12182.95
1138.90589	12069.65
1142.5369	12002.25
1146.16542	11950.75
1149.79145	11954.75
1153.415	11989.55
1157.03607	12143.15
1160.65467	12436.85
1164.27079	12897.75
1167.88443	13551.75
1171.49561	14353.25
1175.10432	15431.45
1178.71056	16784.65
1182.31434	17999.95
1185.91565	18647.05
1189.51451	18612.55
1193.11091	18099.75
1196.70485	17337.15
1200.29634	16542.75
1203.88538	15885.05
1207.47197	15398.65
1211.05612	14983.95
1214.63782	14589.35
1218.21708	14357.55
1221.79391	14146.25
1225.36829	14022.85
1228.94024	13873.65
1232.50976	13651.25
1236.07685	13431.65
1239.6415	13316.55
1243.20374	13312.85
1246.76355	13400.25
1250.32093	13559.75
1253.8759	13818.85
1257.42845	14172.05
1260.97859	14536.25
1264.52631	14888.35
1268.07163	15303.25
1271.61453	15699.75
1275.15503	16131.25
1278.69312	16583.05
1282.22882	17028.45
1285.76211	17514.35
1289.29301	18083.55
1292.82151	18837.55
1296.34761	19738.65
1299.87133	20804.95
1303.39266	21909.35
1306.9116	23111.45
1310.42815	24233.45
1313.94233	25038.15
1317.45412	25208.25
1320.96354	24854.15
1324.47058	24378.85
1327.97525	23947.85
1331.47754	23538.25
1334.97747	23253.35
1338.47502	23127.95
1341.97022	22971.35
1345.46305	22841.85
1348.95352	22670.05
1352.44163	22695.85
1355.92738	23132.65
1359.41078	23977.55
1362.89183	24777.85
1366.37053	24562.45
1369.84688	22648.75
1373.32088	20211.05
1376.79254	18503.55
1380.26186	17706.45
1383.72883	17533.55
1387.19347	17469.35
1390.65578	17294.75
1394.11575	17278.95
1397.57339	17492.15
1401.0287	17799.55
1404.48168	18054.05
1407.93234	18090.35
1411.38068	17804.95
1414.82669	17207.75
1418.27039	16463.55
1421.71177	15735.05
1425.15083	15101.05
1428.58758	14722.35
1432.02203	14684.95
1435.45416	14930.15
1438.88399	15288.45
1442.31151	15666.45
1445.73673	15984.15
1449.15965	16297.55
1452.58027	16603.45
1455.9986	16750.25
1459.41463	16914.65
1462.82837	17172.75
1466.23982	17455.05
1469.64898	17703.35
1473.05586	17836.95
1476.46045	17792.25
1479.86276	17707.75
1483.26279	17490.25
1486.66054	17381.15
1490.05602	17396.65
1493.44922	17537.85
1496.84016	17732.75
1500.22882	18159.95
1503.61521	18839.65
1506.99934	19696.55
1510.38121	20428.25
1513.76081	20636.45
1517.13816	20145.65
1520.51324	19226.05
1523.88607	18281.05
1527.25665	17741.55
1530.62498	17425.75
1533.99105	17304.25
1537.35488	17145.85
1540.71647	16914.05
1544.07581	16531.65
1547.4329	16145.95
1550.78776	15858.45
1554.14038	15650.75
1557.49077	15585.45
1560.83892	15596.85
1564.18484	15723.95
1567.52853	15863.05
1570.86999	15985.45
1574.20922	16195.05
1577.54624	16398.35
1580.88103	16349.05
1584.2136	16264.15
1587.54395	16443.05
1590.87208	16938.95
1594.19801	17764.35
1597.52172	18723.75
1600.84321	19148.75
1604.16251	18581.95
1607.47959	17318.85
1610.79447	15898.15
1614.10715	14554.15
1617.41763	13440.85
1620.7259	12648.65
1624.03199	12208.35
1627.33587	12088.55
1630.63757	12345.95
1633.93707	13015.45
1637.23439	14172.15
1640.52951	15842.35
1643.82246	17946.05
1647.11321	19805.55
1650.40179	20477.65
1653.68819	19577.15
1656.97241	17349.55
1660.25446	14858.75
1663.53433	12948.85
1666.81203	11615.65
1670.08756	10811.35
1673.36092	10260.25
1676.63211	9922.45
1679.90115	9705.55
1683.16801	9502.65
1686.43272	9368.65
1689.69527	9251.25
1692.95567	9152.05
1696.2139	9122.05
1699.46999	9065.55
1702.72392	9024.45
1705.97571	8965.95
1709.22535	8925.55
1712.47284	8882.55
1715.71819	8842.55
1718.96139	8818.25
1722.20246	8781.45
1725.44139	8737.25
1728.67818	8675.75
1731.91284	8625.35
1735.14537	8586.15
1738.37576	8547.25
1741.60403	8499.25
1744.83017	8502.95
1748.05418	8514.85
1751.27607	8510.65
1754.49584	8515.35
1757.71349	8484.15
1760.92903	8485.65
1764.14244	8447.35
1767.35375	8415.15
1770.56294	8372.05
1773.77002	8321.05
1776.97499	8296.95
1780.17785	8254.65
1783.37861	8220.55
1786.57727	8193.05
1789.77382	8175.05
1792.96828	8140.65
1796.16064	8104.45
1799.3509	8079.65
1802.53907	8066.15
1805.72514	8023.65
1808.90913	8000.95
1812.09102	7964.65
1815.27083	7942.85
1818.44856	7940.05
1821.6242	7913.95
1824.79776	7913.45
1827.96924	7893.15
1831.13864	7880.75
1834.30597	7880.05
1837.47122	7861.75
1840.6344	7857.05
1843.7955	7867.45
1846.95454	7835.65
1850.11151	7821.85
1853.26642	7815.45
1856.41926	7819.75
1859.57004	7807.45
1862.71876	7805.45
1865.86542	7800.25
1869.01003	7779.75
1872.15258	7783.55
1875.29308	7767.35
1878.43152	7771.65
1881.56792	7743.15
1884.70227	7740.45
1887.83457	7735.55
1890.96482	7707.65
1894.09304	7716.65
1897.21921	7687.85
1900.34335	7671.25
1903.46544	7671.25
1906.58551	7652.65
1909.70353	7645.35
1912.81953	7613.95
1915.93349	7616.05
1919.04543	7581.05
1922.15534	7577.35
1925.26322	7554.75
1928.36908	7528.35
1931.47292	7509.65
1934.57473	7487.55
1937.67453	7453.55
1940.77232	7430.15
1943.86808	7414.55
1946.96184	7392.85
1950.05358	7357.45
1953.14331	7352.65
1956.23103	7325.65
1959.31675	7314.85
1962.40046	7300.35
1965.48217	7248.85
1968.56188	7241.35
1971.63959	7216.45
1974.7153	7193.35
1977.78901	7170.85
1980.86073	7144.75
1983.93046	7131.15
1986.99819	7089.15
1990.06394	7071.65
1993.1277	7046.45
1996.18947	7026.45
1999.24925	7000.45
2002.30706	6980.05
2005.36288	6937.15
2008.41672	6947.35
2011.46859	6908.25
2014.51848	6889.45
2017.56639	6873.95
2020.61233	6851.45
2023.6563	6843.85
2026.6983	6802.25
2029.73833	6800.15
2032.7764	6789.05
2035.8125	6781.15
2038.84664	6747.85
2041.87881	6741.95
2044.90903	6714.35
2047.93729	6719.15
2050.96359	6705.55
2053.98794	6708.25
2057.01034	6685.35
2060.03078	6684.45
2063.04927	6669.15
2066.06582	6657.05
2069.08042	6664.95
2072.09307	6651.55
2075.10378	6644.65
2078.11255	6619.15
2081.11938	6640.05
2084.12426	6627.55
2087.12722	6634.05
2090.12824	6594.25
2093.12732	6609.25
2096.12447	6611.95
2099.11969	6610.55
2102.11299	6596.15
2105.10435	6584.75
2108.09379	6610.35
2111.08131	6603.65
2114.0669	6593.55
2117.05057	6600.45
2120.03233	6619.75
2123.01216	6624.25
2125.99008	6613.65
2128.96609	6602.05
2131.94018	6629.85
2134.91236	6608.85
2137.88263	6626.65
2140.851	6617.75
2143.81746	6592.05
2146.78201	6612.45
2149.74466	6612.55
2152.7054	6604.35
2155.66425	6599.15
2158.6212	6580.65
2161.57625	6583.25
2164.52941	6588.75
2167.48067	6585.05
2170.43004	6575.15
2173.37752	6551.35
2176.32311	6559.75
2179.26681	6563.35
2182.20863	6558.45
2185.14856	6571.65
2188.08661	6560.25
2191.02278	6553.75
2193.95707	6543.75
2196.88948	6537.05
2199.82001	6534.25
2202.74867	6516.15
2205.67545	6527.75
2208.60037	6524.55
2211.52341	6499.45
2214.44458	6496.55
2217.36388	6473.25
2220.28132	6458.55
2223.1969	6445.85
2226.11061	6412.65
2229.02246	6411.25
2231.93245	6394.95
2234.84058	6380.85
2237.74686	6382.45
2240.65128	6351.95
2243.55385	6339.75
2246.45456	6363.95
2249.35343	6327.65
2252.25044	6329.25
2255.14561	6322.25
2258.03893	6293.45
2260.93041	6303.25
2263.82004	6278.15
2266.70783	6267.95
2269.59378	6251.75
2272.4779	6207.65
2275.36017	6214.65
2278.24061	6208.45
2281.11922	6175.35
2283.996	6165.55
2286.87094	6164.35
2289.74405	6146.45
2292.61534	6104.15
2295.4848	6123.15
2298.35243	6127.95
2301.21824	6118.45
2304.08223	6105.85
2306.94439	6102.05
2309.80474	6104.25
2312.66327	6099.15
2315.51999	6107.15
2318.37489	6089.25
2321.22797	6074.95
2324.07925	6067.05
2326.92871	6072.15
2329.77637	6064.65
2332.62222	6047.75
2335.46626	6058.65
2338.3085	6036.05
2341.14893	6021.65
2343.98756	6034.05
2346.8244	6028.55
2349.65943	6034.25
2352.49267	6011.55
2355.32411	6016.15
2358.15376	6027.35
2360.98161	6025.05
2363.80768	6006.75
2366.63195	6015.95
2369.45444	5991.35
2372.27514	5972.25
2375.09405	5973.25
2377.91118	5952.65
2380.72652	5947.25
2383.54009	5909.75
2386.35187	5899.55
2389.16188	5883.35
2391.97011	5881.65
2394.77657	5877.15
2397.58125	5864.75
2400.38416	5847.85
2403.18529	5828.95
2405.98466	5821.75
2408.78226	5805.65
2411.57809	5810.15
2414.37216	5807.65
2417.16446	5795.15
2419.955	5781.15
2422.74378	5776.25
2425.5308	5751.95
2428.31606	5768.15
2431.09956	5756.65
2433.88131	5739.55
2436.6613	5757.35
2439.43954	5746.15
2442.21603	5741.95
2444.99077	5742.95
2447.76377	5746.55
2450.53501	5726.75
2453.30451	5737.55
2456.07226	5726.65
2458.83827	5726.05
2461.60254	5726.25
2464.36507	5697.55
2467.12586	5723.55
2469.88492	5697.45
2472.64224	5703.25
2475.39782	5726.65
2478.15167	5731.85
2480.90379	5710.25
2483.65417	5711.15
2486.40283	5691.05
2489.14976	5708.65
2491.89497	5671.75
2494.63845	5707.05
2497.3802	5706.15
2500.12024	5694.95
2502.85855	5687.25
2505.59514	5676.15
2508.33002	5678.65
2511.06318	5669.15
2513.79462	5671.15
2516.52435	5654.55
2519.25237	5650.55
2521.97867	5632.65
2524.70327	5627.05
2527.42616	5615.85
2530.14734	5621.85
2532.86681	5613.15
2535.58458	5588.15
2538.30065	5578.15
2541.01501	5574.15
2543.72768	5589.55
2546.43864	5568.35
2549.14791	5563.95
2551.85548	5554.55
2554.56136	5558.15
2557.26554	5533.05
2559.96803	5544.45
2562.66883	5515.95
2565.36794	5527.25
2568.06536	5505.65
2570.7611	5511.25
2573.45514	5518.05
2576.14751	5499.75
2578.83819	5492.45
2581.52719	5488.15
2584.21451	5498.55
2586.90015	5484.05
2589.58411	5459.95
2592.2664	5463.95
2594.94701	5462.85
2597.62594	5463.65
2600.30321	5433.75
2602.9788	5434.75
2605.65273	5422.65
2608.32498	5432.15
2610.99557	5416.75
2613.66449	5416.25
2616.33175	5418.75
2618.99734	5438.45
2621.66128	5408.95
2624.32355	5418.15
2626.98416	5388.55
2629.64311	5414.65
2632.30041	5395.35
2634.95605	5382.35
2637.61004	5389.25
2640.26238	5383.85
2642.91306	5369.55
2645.56209	5363.45
2648.20948	5371.85
2650.85521	5367.15
2653.4993	5369.85
2656.14175	5374.45
2658.78255	5375.35
2661.42171	5365.25
2664.05923	5381.95
2666.6951	5392.45
2669.32934	5377.25
2671.96194	5381.75
2674.59291	5362.95
2677.22224	5373.35
2679.84993	5367.85
2682.476	5366.95
2685.10043	5341.75
2687.72324	5354.65
2690.34441	5351.95
2692.96396	5354.05
2695.58188	5367.95
2698.19818	5346.25
2700.81285	5361.65
2703.4259	5366.55
2706.03733	5401.25
2708.64714	5367.45
2711.25533	5349.75
2713.86191	5368.15
2716.46687	5368.85
2719.07021	5359.55
2721.67194	5374.15
2724.27206	5346.95
2726.87057	5355.55
2729.46747	5357.55
2732.06276	5351.55
2734.65644	5357.95
2737.24852	5340.85
2739.83899	5338.65
2742.42786	5346.15
2745.01513	5342.05
2747.60079	5339.15
2750.18486	5331.95
2752.76733	5337.15
2755.3482	5316.15
2757.92747	5323.45
2760.50515	5309.85
2763.08123	5307.05
2765.65573	5319.05
2768.22863	5320.65
2770.79994	5300.75
2773.36967	5318.55
2775.9378	5306.45
2778.50435	5305.05
2781.06932	5301.75
2783.6327	5300.25
2786.1945	5276.05
2788.75471	5295.85
2791.31335	5280.25
2793.87041	5266.45
2796.42589	5240.35
2798.97979	5244.05
2801.53212	5222.25
2804.08288	5240.75
2806.63206	5245.05
2809.17967	5222.15
2811.72571	5211.95
2814.27018	5206.25
2816.81308	5202.15
2819.35442	5185.15
2821.89419	5173.75
2824.43239	5184.95
2826.96904	5185.65
2829.50412	5170.25
2832.03763	5140.55
2834.56959	5160.55
2837.1	5162.05
2839.62884	5157.75
2842.15613	5156.25
2844.68186	5160.75
2847.20604	5177.75
2849.72867	5170.35
2852.24974	5168.35
2854.76927	5172.95
2857.28724	5141.55
2859.80367	5146.95
2862.31855	5136.15
2864.83189	5133.75
2867.34368	5130.05
2869.85393	5140.05
2872.36264	5107.95
2874.8698	5123.35
2877.37543	5132.55
2879.87952	5133.75
2882.38207	5130.95
2884.88308	5147.55
2887.38256	5132.35
2889.88051	5122.55
2892.37692	5143.55
2894.8718	5135.35
2897.36515	5143.35
2899.85698	5146.35
2902.34727	5151.55
2904.83604	5148.05
2907.32328	5160.35
2909.809	5169.65
2912.29319	5179.35
2914.77587	5167.65
2917.25702	5180.25
2919.73665	5172.25
2922.21476	5190.35
2924.69136	5184.85
2927.16644	5186.25
2929.64	5180.85
2932.11205	5171.95
2934.58258	5167.45
2937.05161	5175.25
2939.51912	5160.95
2941.98513	5162.05
2944.44962	5145.45
2946.91261	5134.85
2949.37409	5139.05
2951.83407	5135.75
2954.29254	5140.45
2956.74951	5116.95
2959.20498	5105.45
2961.65895	5089.85
2964.11142	5069.15
2966.56239	5048.15
2969.01186	5038.95
2971.45984	5031.15
2973.90632	5026.95
2976.35131	4993.85
2978.7948	4996.45
2981.23681	4964.65
2983.67732	4957.35
2986.11635	4955.55
2988.55388	4942.35
2990.98993	4914.45
2993.4245	4898.45
2995.85758	4889.75
2998.28917	4881.75
3000.71928	4869.85
3003.14791	4873.55
3005.57506	4870.75
3008.00073	4858.35
3010.42493	4841.15
3012.84764	4849.15
3015.26888	4850.35
3017.68865	4817.35
3020.10694	4810.85
3022.52376	4807.95
3024.9391	4789.55
3027.35298	4792.25
3029.76539	4778.25
3032.17632	4781.05
3034.5858	4753.05
3036.9938	4758.05
3039.40034	4752.55
3041.80542	4731.65
3044.20903	4726.35
3046.61118	4746.45
3049.01187	4716.05
3051.4111	4711.45
3053.80888	4701.55
3056.20519	4701.55
3058.60005	4696.45
3060.99345	4676.05
3063.3854	4672.95
3065.7759	4659.25
3068.16494	4651.25
3070.55254	4640.75
3072.93868	4629.35
3075.32338	4616.45
3077.70662	4611.45
3080.08842	4599.25
3082.46878	4607.45
3084.84769	4589.75
3087.22515	4588.65
3089.60118	4593.25
3091.97576	4592.25
3094.3489	4585.85
3096.72061	4587.15
3099.09087	4579.55
3101.4597	4586.55
3103.82709	4577.15
3106.19305	4584.75
3108.55757	4567.05
3110.92066	4544.25
3113.28232	4564.45
3115.64255	4554.55
3118.00134	4534.05
3120.35871	4536.95
3122.71466	4522.15
3125.06917	4513.05
3127.42226	4504.55
3129.77393	4512.05
3132.12417	4513.65
3134.47299	4498.05
3136.82039	4518.45
3139.16636	4510.25
3141.51092	4522.35
3143.85406	4505.15
3146.19579	4528.15
3148.53609	4515.75
3150.87499	4509.55
3153.21246	4528.05
3155.54853	4549.35
3157.88318	4540.45
3160.21642	4540.75
3162.54826	4546.05
3164.87868	4536.55
3167.2077	4529.45
3169.5353	4545.45
3171.86151	4528.65
3174.18631	4542.95
3176.5097	4528.95
3178.83169	4519.55
3181.15228	4541.55
3183.47147	4510.75
3185.78926	4519.65
3188.10565	4517.65
3190.42065	4519.85
3192.73424	4527.85
3195.04645	4514.55
3197.35725	4516.65
3199.66667	4523.65
3201.97469	4546.35
3204.28132	4542.05
3206.58656	4533.55
3208.8904	4540.55
3211.19287	4540.85
3213.49394	4538.55
3215.79363	4531.25
3218.09193	4541.45
3220.38884	4545.15
3222.68438	4542.45
3224.97853	4527.05
3227.2713	4542.25
3229.56269	4525.55
3231.8527	4536.35
3234.14133	4523.45
3236.42858	4510.75
3238.71446	4511.65
3240.99896	4505.45
3243.28209	4502.05
3245.56384	4491.65
3247.84423	4514.65
3250.12324	4492.55
3252.40088	4485.15
3254.67715	4469.05
3256.95205	4489.65
3259.22558	4474.75
3261.49775	4470.35
3263.76855	4449.45
3266.03799	4453.15
3268.30606	4430.85
3270.57277	4432.65
3272.83812	4402.55
3275.10211	4414.65
3277.36474	4399.95
3279.62601	4405.45
3281.88593	4403.55
3284.14448	4412.55
3286.40168	4409.95
3288.65753	4408.95
3290.91202	4397.45
3293.16516	4382.95
3295.41695	4376.75
3297.66738	4347.55
3299.91647	4331.25
3302.16421	4305.05
3304.4106	4290.45
3306.65564	4256.85
3308.89933	4241.25
3311.14169	4224.45
3313.38269	4194.85
3315.62236	4166.65
3317.86068	4130.75
3320.09766	4094.25
3322.3333	4067.55
3324.5676	4072.85
3326.80056	4000.35
3329.03219	3985.05
3331.26248	1.75
3333.49143	1.45
3335.71905	-0.05
