Data from AgNPs_FTO_APTES_UA_100um_CRN_0.1mM_R6G_10uM_NaF_0.1M_Addition_RamanShift__28__16-17-39-307.txt Node

Date: Tue Dec 21 16:17:39 GMT 2021
User: TCL
Spectrometer: QEP01345
Trigger mode: 4
Integration Time (sec): 7.000000E0
Scans to average: 10
Electric dark correction enabled: true
Nonlinearity correction enabled: false
Boxcar width: 0
XAxis mode: Raman Shifts
Number of Pixels in Spectrum: 1044
>>>>>Begin Spectral Data<<<<<
46.04893	-0.25
50.45542	-0.75
54.85868	-0.85
59.25871	0.05
63.6555	32.25
68.04907	37.85
72.43941	39.15
76.82654	40.25
81.21044	40.85
85.59113	46.15
89.96862	44.85
94.34289	49.05
98.71396	49.55
103.08183	50.85
107.4465	55.85
111.80798	52.55
116.16626	52.95
120.52136	54.75
124.87327	57.05
129.222	53.85
133.56755	59.55
137.90993	62.85
142.24913	63.45
146.58517	69.15
150.91804	82.95
155.24774	92.85
159.57429	109.55
163.89768	144.35
168.21792	180.55
172.53501	240.45
176.84895	330.55
181.15975	464.25
185.46741	658.75
189.77193	928.95
194.07331	1305.05
198.37157	1578.05
202.6667	1916.55
206.9587	2280.45
211.24758	2644.25
215.53334	3024.25
219.81599	3411.95
224.09553	3809.65
228.37195	4299.95
232.64527	4803.05
236.91549	5343.25
241.18261	5864.15
245.44663	6391.95
249.70755	6848.65
253.96539	7240.85
258.22014	7545.65
262.4718	7813.75
266.72039	7991.15
270.96589	8074.45
275.20832	8094.75
279.44768	7997.85
283.68397	7899.55
287.91719	7806.35
292.14735	7762.15
296.37445	7768.25
300.59849	7861.15
304.81948	7939.15
309.03742	7985.35
313.25231	7915.95
317.46415	7683.75
321.67296	7379.75
325.87872	7132.25
330.08145	7023.05
334.28114	7025.35
338.47781	7096.45
342.67145	7206.05
346.86207	7359.85
351.04966	7592.55
355.23424	7839.75
359.4158	8042.95
363.59435	8183.85
367.76989	8279.85
371.94243	8293.65
376.11196	8366.55
380.27849	8396.35
384.44203	8405.65
388.60257	8418.75
392.76012	8438.75
396.91468	8495.95
401.06626	8605.55
405.21485	8728.95
409.36047	8719.75
413.50311	8473.65
417.64277	8280.75
421.77947	8147.15
425.9132	8115.15
430.04396	8137.25
434.17176	8158.35
438.2966	8211.75
442.41849	8293.25
446.53742	8444.75
450.6534	8615.45
454.76644	8718.95
458.87653	8774.65
462.98368	8759.45
467.08789	8687.85
471.18916	8629.65
475.2875	8543.35
479.38291	8511.45
483.4754	8476.35
487.56496	8425.05
491.6516	8392.65
495.73531	8321.55
499.81612	8314.65
503.89401	8297.05
507.96899	8331.45
512.04106	8336.05
516.11023	8365.95
520.1765	8415.95
524.23987	8427.55
528.30034	8384.35
532.35792	8327.45
536.41261	8231.15
540.46441	8101.95
544.51333	8067.05
548.55936	8055.05
552.60252	8122.95
556.64279	8237.95
560.6802	8317.05
564.71473	8363.65
568.7464	8464.15
572.7752	8571.95
576.80114	8519.55
580.82422	8435.45
584.84444	8394.15
588.86181	8442.55
592.87633	8496.85
596.888	8548.35
600.89682	8647.75
604.9028	9052.25
608.90594	10181.45
612.90624	11753.45
616.90371	11614.35
620.89834	9581.15
624.89015	8641.35
628.87913	8538.45
632.86528	8691.85
636.84862	8789.05
640.82913	8691.05
644.80683	8421.75
648.78172	8133.05
652.75379	8013.25
656.72306	8063.35
660.68952	8193.55
664.65319	8176.55
668.61405	8002.45
672.57211	7927.15
676.52738	7923.55
680.47986	7918.05
684.42955	7902.55
688.37646	7863.85
692.32058	7846.85
696.26192	7850.65
700.20048	7925.95
704.13626	7961.35
708.06928	7911.75
711.99952	7862.65
715.927	7829.45
719.85171	7851.25
723.77365	7860.45
727.69284	7824.45
731.60928	7760.45
735.52295	7724.95
739.43388	7720.55
743.34206	7708.85
747.24749	7717.45
751.15017	7760.35
755.05012	7828.45
758.94733	7982.55
762.8418	8360.05
766.73354	9047.15
770.62254	9781.15
774.50882	10200.45
778.39237	9928.55
782.27321	9112.35
786.15132	8345.05
790.02671	7935.15
793.89938	7712.55
797.76935	7638.55
801.6366	7627.05
805.50115	7666.05
809.36299	7728.75
813.22213	7745.25
817.07857	7731.25
820.93231	7666.35
824.78336	7567.75
828.63172	7491.25
832.47738	7442.55
836.32036	7411.95
840.16066	7389.45
843.99827	7354.15
847.8332	7355.95
851.66546	7315.95
855.49504	7308.65
859.32195	7291.75
863.1462	7265.75
866.96777	7276.45
870.78668	7270.15
874.60293	7305.95
878.41652	7369.05
882.22745	7412.65
886.03573	7459.65
889.84136	7456.25
893.64433	7393.35
897.44466	7312.45
901.24235	7232.75
905.0374	7167.35
908.8298	7117.15
912.61957	7068.85
916.40671	7082.55
920.19121	7100.65
923.97308	7113.25
927.75233	7131.05
931.52895	7129.65
935.30295	7077.65
939.07433	6998.45
942.84309	6906.45
946.60924	6845.85
950.37278	6807.05
954.13371	6804.05
957.89203	6767.05
961.64774	6754.85
965.40086	6713.15
969.15137	6684.85
972.89929	6662.35
976.64461	6640.75
980.38733	6624.35
984.12747	6642.95
987.86502	6621.35
991.59999	6674.45
995.33237	6696.05
999.06217	6787.85
1002.78939	6899.35
1006.51404	7004.15
1010.23611	7107.15
1013.95561	7210.95
1017.67255	7218.85
1021.38692	7168.55
1025.09872	7102.35
1028.80796	7017.15
1032.51465	7001.75
1036.21877	7007.15
1039.92035	7023.65
1043.61937	6988.75
1047.31584	6943.35
1051.00976	6940.95
1054.70114	6918.05
1058.38998	6929.85
1062.07627	6965.25
1065.76003	7020.95
1069.44126	7028.35
1073.11995	7071.55
1076.79611	7107.35
1080.46974	7118.05
1084.14085	7151.35
1087.80943	7210.05
1091.47549	7239.95
1095.13903	7189.55
1098.80005	7076.65
1102.45857	6954.35
1106.11456	6908.55
1109.76805	6897.55
1113.41903	6961.45
1117.06751	7087.85
1120.71348	7242.55
1124.35696	7418.05
1127.99793	7661.45
1131.63641	7756.55
1135.2724	7692.35
1138.90589	7546.75
1142.5369	7404.15
1146.16542	7263.15
1149.79145	7145.95
1153.415	7041.35
1157.03607	7022.45
1160.65467	7058.45
1164.27079	7168.45
1167.88443	7376.35
1171.49561	7676.35
1175.10432	8188.25
1178.71056	8855.95
1182.31434	9482.95
1185.91565	9734.25
1189.51451	9653.35
1193.11091	9374.85
1196.70485	9017.15
1200.29634	8753.85
1203.88538	8513.95
1207.47197	8265.85
1211.05612	8006.55
1214.63782	7782.75
1218.21708	7574.15
1221.79391	7502.45
1225.36829	7424.25
1228.94024	7378.75
1232.50976	7311.45
1236.07685	7289.15
1239.6415	7288.55
1243.20374	7309.55
1246.76355	7354.45
1250.32093	7409.65
1253.8759	7510.05
1257.42845	7635.45
1260.97859	7772.75
1264.52631	7866.25
1268.07163	7974.55
1271.61453	8071.75
1275.15503	8170.15
1278.69312	8264.35
1282.22882	8334.45
1285.76211	8444.35
1289.29301	8626.85
1292.82151	8866.85
1296.34761	9158.35
1299.87133	9515.95
1303.39266	10046.05
1306.9116	10722.75
1310.42815	11519.75
1313.94233	11925.25
1317.45412	11824.55
1320.96354	11384.75
1324.47058	10932.95
1327.97525	10500.55
1331.47754	10179.05
1334.97747	10056.75
1338.47502	10124.55
1341.97022	10275.15
1345.46305	10411.65
1348.95352	10634.95
1352.44163	10972.05
1355.92738	11470.45
1359.41078	12378.25
1362.89183	13326.35
1366.37053	13240.45
1369.84688	11881.75
1373.32088	10416.15
1376.79254	9446.95
1380.26186	8912.25
1383.72883	8698.45
1387.19347	8548.05
1390.65578	8413.85
1394.11575	8283.45
1397.57339	8262.25
1401.0287	8318.05
1404.48168	8371.35
1407.93234	8405.15
1411.38068	8403.15
1414.82669	8332.15
1418.27039	8106.05
1421.71177	7862.85
1425.15083	7647.45
1428.58758	7504.65
1432.02203	7484.65
1435.45416	7494.25
1438.88399	7536.45
1442.31151	7565.95
1445.73673	7611.95
1449.15965	7680.55
1452.58027	7716.15
1455.9986	7707.35
1459.41463	7743.85
1462.82837	7831.05
1466.23982	7892.55
1469.64898	8057.35
1473.05586	8122.45
1476.46045	8123.25
1479.86276	8188.45
1483.26279	8238.75
1486.66054	8342.45
1490.05602	8480.35
1493.44922	8654.55
1496.84016	8969.85
1500.22882	9443.25
1503.61521	10128.65
1506.99934	10977.45
1510.38121	11685.85
1513.76081	11883.55
1517.13816	11444.55
1520.51324	10491.95
1523.88607	9572.95
1527.25665	8965.95
1530.62498	8604.65
1533.99105	8432.95
1537.35488	8331.15
1540.71647	8280.95
1544.07581	8240.05
1547.4329	8191.55
1550.78776	8173.75
1554.14038	8112.35
1557.49077	8142.65
1560.83892	8180.45
1564.18484	8276.55
1567.52853	8396.95
1570.86999	8519.85
1574.20922	8622.05
1577.54624	8611.85
1580.88103	8437.25
1584.2136	8183.45
1587.54395	8050.95
1590.87208	8135.95
1594.19801	8392.35
1597.52172	8779.25
1600.84321	9008.15
1604.16251	8859.95
1607.47959	8464.25
1610.79447	8025.95
1614.10715	7552.45
1617.41763	7158.55
1620.7259	6901.25
1624.03199	6764.65
1627.33587	6731.45
1630.63757	6821.45
1633.93707	7002.45
1637.23439	7302.25
1640.52951	7764.15
1643.82246	8414.05
1647.11321	9144.55
1650.40179	9699.75
1653.68819	9586.85
1656.97241	8764.95
1660.25446	7782.85
1663.53433	7055.25
1666.81203	6555.75
1670.08756	6247.05
1673.36092	6054.45
1676.63211	5921.05
1679.90115	5832.55
1683.16801	5746.15
1686.43272	5685.85
1689.69527	5649.45
1692.95567	5613.45
1696.2139	5633.75
1699.46999	5607.25
1702.72392	5538.25
1705.97571	5495.95
1709.22535	5432.15
1712.47284	5372.15
1715.71819	5369.45
1718.96139	5339.75
1722.20246	5305.65
1725.44139	5290.35
1728.67818	5259.05
1731.91284	5236.25
1735.14537	5206.65
1738.37576	5180.85
1741.60403	5171.95
1744.83017	5178.35
1748.05418	5151.25
1751.27607	5137.15
1754.49584	5135.35
1757.71349	5140.45
1760.92903	5129.55
1764.14244	5114.75
1767.35375	5115.85
1770.56294	5082.15
1773.77002	5059.65
1776.97499	5026.65
1780.17785	4988.25
1783.37861	4979.65
1786.57727	4962.85
1789.77382	4959.35
1792.96828	4944.45
1796.16064	4929.05
1799.3509	4913.95
1802.53907	4893.65
1805.72514	4883.95
1808.90913	4873.45
1812.09102	4839.45
1815.27083	4835.55
1818.44856	4818.65
1821.6242	4819.65
1824.79776	4810.55
1827.96924	4799.25
1831.13864	4794.45
1834.30597	4773.95
1837.47122	4764.85
1840.6344	4757.85
1843.7955	4772.05
1846.95454	4738.45
1850.11151	4757.65
1853.26642	4736.85
1856.41926	4749.05
1859.57004	4732.95
1862.71876	4732.75
1865.86542	4725.45
1869.01003	4722.95
1872.15258	4716.95
1875.29308	4727.95
1878.43152	4708.45
1881.56792	4684.45
1884.70227	4690.15
1887.83457	4667.15
1890.96482	4676.65
1894.09304	4657.55
1897.21921	4669.25
1900.34335	4630.05
1903.46544	4636.45
1906.58551	4632.55
1909.70353	4636.25
1912.81953	4626.05
1915.93349	4612.75
1919.04543	4603.65
1922.15534	4597.55
1925.26322	4582.75
1928.36908	4575.85
1931.47292	4559.35
1934.57473	4565.85
1937.67453	4551.95
1940.77232	4526.25
1943.86808	4511.35
1946.96184	4512.35
1950.05358	4486.45
1953.14331	4476.85
1956.23103	4456.65
1959.31675	4450.65
1962.40046	4437.85
1965.48217	4421.35
1968.56188	4413.45
1971.63959	4372.25
1974.7153	4382.35
1977.78901	4366.05
1980.86073	4346.45
1983.93046	4325.85
1986.99819	4321.85
1990.06394	4298.65
1993.1277	4282.25
1996.18947	4275.75
1999.24925	4260.55
2002.30706	4248.45
2005.36288	4222.15
2008.41672	4228.95
2011.46859	4203.65
2014.51848	4198.45
2017.56639	4178.05
2020.61233	4159.25
2023.6563	4141.15
2026.6983	4126.95
2029.73833	4142.05
2032.7764	4119.95
2035.8125	4099.45
2038.84664	4098.75
2041.87881	4094.55
2044.90903	4092.35
2047.93729	4074.65
2050.96359	4056.75
2053.98794	4074.55
2057.01034	4059.35
2060.03078	4053.95
2063.04927	4039.85
2066.06582	4039.15
2069.08042	4029.95
2072.09307	4027.65
2075.10378	4017.05
2078.11255	4021.45
2081.11938	4014.05
2084.12426	4021.35
2087.12722	4009.15
2090.12824	3998.55
2093.12732	3997.85
2096.12447	4001.05
2099.11969	3988.85
2102.11299	4005.35
2105.10435	3998.25
2108.09379	3990.75
2111.08131	4000.15
2114.0669	4000.75
2117.05057	4000.65
2120.03233	4006.95
2123.01216	4004.65
2125.99008	3995.25
2128.96609	3990.45
2131.94018	4003.85
2134.91236	3991.35
2137.88263	4004.95
2140.851	4008.95
2143.81746	4006.65
2146.78201	4010.35
2149.74466	4014.65
2152.7054	3996.35
2155.66425	4006.85
2158.6212	3999.85
2161.57625	3997.85
2164.52941	3992.85
2167.48067	3981.45
2170.43004	3978.35
2173.37752	3995.55
2176.32311	3971.85
2179.26681	3982.05
2182.20863	3977.15
2185.14856	3964.85
2188.08661	3968.45
2191.02278	3959.55
2193.95707	3959.65
2196.88948	3950.95
2199.82001	3968.75
2202.74867	3933.35
2205.67545	3936.85
2208.60037	3930.15
2211.52341	3932.75
2214.44458	3914.45
2217.36388	3908.55
2220.28132	3903.35
2223.1969	3886.95
2226.11061	3880.35
2229.02246	3869.35
2231.93245	3869.15
2234.84058	3873.75
2237.74686	3848.55
2240.65128	3839.15
2243.55385	3826.95
2246.45456	3832.35
2249.35343	3809.75
2252.25044	3818.65
2255.14561	3812.15
2258.03893	3799.85
2260.93041	3812.25
2263.82004	3808.05
2266.70783	3783.15
2269.59378	3777.45
2272.4779	3769.65
2275.36017	3752.85
2278.24061	3751.15
2281.11922	3742.25
2283.996	3726.75
2286.87094	3723.85
2289.74405	3708.15
2292.61534	3694.25
2295.4848	3703.35
2298.35243	3688.25
2301.21824	3680.05
2304.08223	3677.85
2306.94439	3682.55
2309.80474	3673.45
2312.66327	3672.85
2315.51999	3676.55
2318.37489	3667.45
2321.22797	3658.65
2324.07925	3650.25
2326.92871	3651.95
2329.77637	3660.85
2332.62222	3639.25
2335.46626	3625.95
2338.3085	3629.05
2341.14893	3618.55
2343.98756	3625.55
2346.8244	3617.95
2349.65943	3621.35
2352.49267	3614.65
2355.32411	3611.75
2358.15376	3623.95
2360.98161	3609.65
2363.80768	3614.95
2366.63195	3606.35
2369.45444	3608.25
2372.27514	3606.55
2375.09405	3586.75
2377.91118	3578.55
2380.72652	3574.55
2383.54009	3565.85
2386.35187	3548.55
2389.16188	3536.05
2391.97011	3537.85
2394.77657	3534.15
2397.58125	3527.05
2400.38416	3510.55
2403.18529	3494.45
2405.98466	3492.35
2408.78226	3474.95
2411.57809	3480.85
2414.37216	3470.95
2417.16446	3465.95
2419.955	3459.45
2422.74378	3466.65
2425.5308	3456.65
2428.31606	3446.25
2431.09956	3426.75
2433.88131	3433.85
2436.6613	3443.05
2439.43954	3432.65
2442.21603	3420.85
2444.99077	3414.55
2447.76377	3427.65
2450.53501	3403.35
2453.30451	3414.65
2456.07226	3408.05
2458.83827	3405.85
2461.60254	3390.05
2464.36507	3390.35
2467.12586	3394.65
2469.88492	3397.35
2472.64224	3394.95
2475.39782	3393.65
2478.15167	3386.05
2480.90379	3397.05
2483.65417	3385.25
2486.40283	3381.05
2489.14976	3369.75
2491.89497	3389.35
2494.63845	3408.85
2497.3802	3400.25
2500.12024	3374.45
2502.85855	3372.95
2505.59514	3366.25
2508.33002	3358.45
2511.06318	3350.15
2513.79462	3339.65
2516.52435	3346.15
2519.25237	3325.25
2521.97867	3321.85
2524.70327	3318.45
2527.42616	3316.65
2530.14734	3300.55
2532.86681	3294.45
2535.58458	3292.95
2538.30065	3293.15
2541.01501	3280.55
2543.72768	3277.05
2546.43864	3273.25
2549.14791	3282.15
2551.85548	3270.55
2554.56136	3263.05
2557.26554	3250.35
2559.96803	3246.85
2562.66883	3254.35
2565.36794	3221.85
2568.06536	3230.65
2570.7611	3218.85
2573.45514	3230.45
2576.14751	3216.15
2578.83819	3217.85
2581.52719	3212.25
2584.21451	3198.55
2586.90015	3203.65
2589.58411	3200.05
2592.2664	3197.15
2594.94701	3182.65
2597.62594	3181.55
2600.30321	3172.15
2602.9788	3168.65
2605.65273	3152.65
2608.32498	3157.15
2610.99557	3161.15
2613.66449	3157.85
2616.33175	3141.35
2618.99734	3153.15
2621.66128	3151.35
2624.32355	3135.05
2626.98416	3128.75
2629.64311	3125.95
2632.30041	3124.35
2634.95605	3119.95
2637.61004	3112.45
2640.26238	3122.75
2642.91306	3097.75
2645.56209	3109.75
2648.20948	3100.45
2650.85521	3105.75
2653.4993	3100.65
2656.14175	3095.45
2658.78255	3097.05
2661.42171	3101.25
2664.05923	3090.85
2666.6951	3094.15
2669.32934	3101.15
2671.96194	3094.85
2674.59291	3105.05
2677.22224	3102.85
2679.84993	3103.15
2682.476	3083.05
2685.10043	3093.35
2687.72324	3099.65
2690.34441	3088.15
2692.96396	3088.15
2695.58188	3103.65
2698.19818	3083.75
2700.81285	3101.75
2703.4259	3116.85
2706.03733	3149.55
2708.64714	3119.25
2711.25533	3115.25
2713.86191	3099.35
2716.46687	3104.25
2719.07021	3098.65
2721.67194	3092.25
2724.27206	3085.45
2726.87057	3082.75
2729.46747	3086.85
2732.06276	3082.25
2734.65644	3076.45
2737.24852	3084.65
2739.83899	3076.05
2742.42786	3068.55
2745.01513	3068.45
2747.60079	3066.55
2750.18486	3059.55
2752.76733	3059.25
2755.3482	3052.65
2757.92747	3052.75
2760.50515	3033.95
2763.08123	3050.95
2765.65573	3038.25
2768.22863	3039.65
2770.79994	3034.35
2773.36967	3044.75
2775.9378	3031.85
2778.50435	3020.85
2781.06932	3023.75
2783.6327	3018.95
2786.1945	3019.65
2788.75471	3010.65
2791.31335	3009.15
2793.87041	3006.55
2796.42589	2991.95
2798.97979	2985.05
2801.53212	2982.05
2804.08288	2974.95
2806.63206	2954.55
2809.17967	2959.65
2811.72571	2964.95
2814.27018	2962.15
2816.81308	2951.65
2819.35442	2949.05
2821.89419	2945.45
2824.43239	2950.75
2826.96904	2946.45
2829.50412	2941.15
2832.03763	2938.35
2834.56959	2937.75
2837.1	2931.75
2839.62884	2937.95
2842.15613	2935.45
2844.68186	2937.55
2847.20604	2938.55
2849.72867	2923.15
2852.24974	2938.05
2854.76927	2946.85
2857.28724	2946.75
2859.80367	2938.05
2862.31855	2933.35
2864.83189	2917.65
2867.34368	2917.75
2869.85393	2906.85
2872.36264	2907.85
2874.8698	2902.65
2877.37543	2905.95
2879.87952	2912.35
2882.38207	2903.85
2884.88308	2905.25
2887.38256	2915.35
2889.88051	2913.25
2892.37692	2907.25
2894.8718	2900.35
2897.36515	2906.65
2899.85698	2903.95
2902.34727	2908.95
2904.83604	2907.55
2907.32328	2912.15
2909.809	2911.95
2912.29319	2922.45
2914.77587	2913.95
2917.25702	2909.75
2919.73665	2903.15
2922.21476	2915.75
2924.69136	2899.35
2927.16644	2908.25
2929.64	2891.55
2932.11205	2888.35
2934.58258	2892.75
2937.05161	2892.35
2939.51912	2900.45
2941.98513	2899.15
2944.44962	2876.05
2946.91261	2880.05
2949.37409	2890.05
2951.83407	2888.35
2954.29254	2886.55
2956.74951	2882.45
2959.20498	2871.75
2961.65895	2872.65
2964.11142	2850.75
2966.56239	2850.55
2969.01186	2847.95
2971.45984	2833.65
2973.90632	2841.95
2976.35131	2818.65
2978.7948	2829.85
2981.23681	2817.75
2983.67732	2801.45
2986.11635	2807.95
2988.55388	2808.45
2990.98993	2806.75
2993.4245	2784.45
2995.85758	2787.45
2998.28917	2781.25
3000.71928	2774.95
3003.14791	2776.85
3005.57506	2780.45
3008.00073	2782.65
3010.42493	2773.95
3012.84764	2771.55
3015.26888	2775.05
3017.68865	2765.75
3020.10694	2760.95
3022.52376	2754.75
3024.9391	2739.85
3027.35298	2763.25
3029.76539	2744.45
3032.17632	2735.15
3034.5858	2731.25
3036.9938	2743.35
3039.40034	2719.75
3041.80542	2735.65
3044.20903	2731.55
3046.61118	2736.35
3049.01187	2722.85
3051.4111	2720.25
3053.80888	2708.75
3056.20519	2710.65
3058.60005	2699.45
3060.99345	2700.45
3063.3854	2704.15
3065.7759	2698.05
3068.16494	2687.25
3070.55254	2684.15
3072.93868	2693.45
3075.32338	2676.25
3077.70662	2676.55
3080.08842	2680.45
3082.46878	2676.95
3084.84769	2668.85
3087.22515	2674.75
3089.60118	2673.25
3091.97576	2685.35
3094.3489	2677.85
3096.72061	2681.85
3099.09087	2681.35
3101.4597	2684.05
3103.82709	2683.25
3106.19305	2687.85
3108.55757	2673.45
3110.92066	2676.55
3113.28232	2673.25
3115.64255	2664.65
3118.00134	2678.75
3120.35871	2674.45
3122.71466	2683.35
3125.06917	2676.65
3127.42226	2661.25
3129.77393	2671.65
3132.12417	2668.25
3134.47299	2686.35
3136.82039	2686.95
3139.16636	2697.45
3141.51092	2688.55
3143.85406	2696.75
3146.19579	2696.65
3148.53609	2701.95
3150.87499	2708.25
3153.21246	2714.05
3155.54853	2714.95
3157.88318	2716.05
3160.21642	2723.45
3162.54826	2720.55
3164.87868	2737.65
3167.2077	2729.35
3169.5353	2731.95
3171.86151	2732.35
3174.18631	2733.05
3176.5097	2735.15
3178.83169	2731.55
3181.15228	2732.75
3183.47147	2723.65
3185.78926	2737.85
3188.10565	2734.55
3190.42065	2747.75
3192.73424	2745.55
3195.04645	2733.55
3197.35725	2744.45
3199.66667	2744.15
3201.97469	2760.45
3204.28132	2758.55
3206.58656	2763.85
3208.8904	2767.45
3211.19287	2762.75
3213.49394	2780.45
3215.79363	2781.65
3218.09193	2785.65
3220.38884	2793.65
3222.68438	2815.05
3224.97853	2798.15
3227.2713	2782.85
3229.56269	2773.35
3231.8527	2784.25
3234.14133	2767.35
3236.42858	2758.65
3238.71446	2771.75
3240.99896	2761.15
3243.28209	2771.05
3245.56384	2762.65
3247.84423	2767.35
3250.12324	2767.25
3252.40088	2757.75
3254.67715	2755.65
3256.95205	2763.05
3259.22558	2763.85
3261.49775	2748.35
3263.76855	2746.55
3266.03799	2740.05
3268.30606	2738.15
3270.57277	2731.85
3272.83812	2738.95
3275.10211	2723.65
3277.36474	2723.35
3279.62601	2726.65
3281.88593	2721.95
3284.14448	2726.05
3286.40168	2730.05
3288.65753	2711.05
3290.91202	2709.75
3293.16516	2704.25
3295.41695	2693.75
3297.66738	2677.65
3299.91647	2688.65
3302.16421	2653.85
3304.4106	2644.25
3306.65564	2640.75
3308.89933	2616.15
3311.14169	2601.85
3313.38269	2597.95
3315.62236	2573.25
3317.86068	2554.15
3320.09766	2535.75
3322.3333	2515.65
3324.5676	2528.75
3326.80056	2497.15
3329.03219	2474.15
3331.26248	0.55
3333.49143	0.95
3335.71905	-0.65
