Data from AgNPs_FTO_APTES_UA_10um_CRN_0.1mM_R6G_10uM_NaF_0.1M_Addition_RamanShift__8__13-44-49-132.txt Node

Date: Tue Dec 21 13:44:49 GMT 2021
User: TCL
Spectrometer: QEP01345
Trigger mode: 4
Integration Time (sec): 7.000000E0
Scans to average: 10
Electric dark correction enabled: true
Nonlinearity correction enabled: false
Boxcar width: 0
XAxis mode: Raman Shifts
Number of Pixels in Spectrum: 1044
>>>>>Begin Spectral Data<<<<<
46.04893	0.75
50.45542	-0.95
54.85868	-1.75
59.25871	0.25
63.6555	40.65
68.04907	47.75
72.43941	49.45
76.82654	52.75
81.21044	57.85
85.59113	57.75
89.96862	61.35
94.34289	57.65
98.71396	61.65
103.08183	66.05
107.4465	68.35
111.80798	71.05
116.16626	70.65
120.52136	72.15
124.87327	76.75
129.222	73.25
133.56755	80.95
137.90993	96.85
142.24913	98.45
146.58517	111.15
150.91804	127.15
155.24774	148.75
159.57429	187.15
163.89768	238.15
168.21792	310.55
172.53501	414.05
176.84895	581.75
181.15975	826.05
185.46741	1151.85
189.77193	1592.45
194.07331	2132.05
198.37157	2742.15
202.6667	3401.45
206.9587	4059.55
211.24758	4725.05
215.53334	5377.55
219.81599	6065.45
224.09553	6830.55
228.37195	7662.15
232.64527	8548.55
236.91549	9494.65
241.18261	10459.75
245.44663	11357.15
249.70755	12130.75
253.96539	12800.55
258.22014	13353.65
262.4718	13762.25
266.72039	14070.15
270.96589	14214.65
275.20832	14184.55
279.44768	14066.15
283.68397	13971.25
287.91719	13839.85
292.14735	13791.55
296.37445	13748.05
300.59849	13826.25
304.81948	13894.15
309.03742	13921.75
313.25231	13829.15
317.46415	13561.85
321.67296	13228.35
325.87872	12889.45
330.08145	12698.65
334.28114	12622.75
338.47781	12660.25
342.67145	12803.55
346.86207	13011.25
351.04966	13184.95
355.23424	13432.95
359.4158	13627.75
363.59435	13774.15
367.76989	13854.45
371.94243	13898.95
376.11196	13934.85
380.27849	13947.95
384.44203	14057.25
388.60257	14197.75
392.76012	14382.95
396.91468	14611.35
401.06626	14852.05
405.21485	15042.15
409.36047	14989.55
413.50311	14770.85
417.64277	14627.35
421.77947	14638.75
425.9132	14607.35
430.04396	14702.25
434.17176	14754.55
438.2966	14823.15
442.41849	14996.15
446.53742	15377.15
450.6534	15755.25
454.76644	16029.15
458.87653	16147.55
462.98368	16091.85
467.08789	15970.75
471.18916	15840.65
475.2875	15712.55
479.38291	15660.35
483.4754	15614.15
487.56496	15474.45
491.6516	15198.05
495.73531	14904.95
499.81612	14809.05
503.89401	14800.75
507.96899	14806.65
512.04106	14765.25
516.11023	14621.75
520.1765	14479.05
524.23987	14316.95
528.30034	14210.15
532.35792	14128.75
536.41261	13949.85
540.46441	13813.45
544.51333	13805.85
548.55936	13937.25
552.60252	14196.75
556.64279	14538.85
560.6802	14808.85
564.71473	14992.25
568.7464	15260.25
572.7752	15722.65
576.80114	16265.55
580.82422	16782.35
584.84444	17374.05
588.86181	18028.95
592.87633	18563.15
596.888	18486.95
600.89682	17733.35
604.9028	17452.85
608.90594	18285.45
612.90624	19354.65
616.90371	18187.45
620.89834	15355.35
624.89015	14029.95
628.87913	13918.45
632.86528	14086.75
636.84862	14166.15
640.82913	13984.35
644.80683	13640.75
648.78172	13392.25
652.75379	13298.25
656.72306	13441.65
660.68952	13567.15
664.65319	13511.85
668.61405	13344.45
672.57211	13326.95
676.52738	13420.05
680.47986	13495.05
684.42955	13425.35
688.37646	13332.95
692.32058	13308.75
696.26192	13417.55
700.20048	13553.75
704.13626	13694.05
708.06928	13742.85
711.99952	13681.75
715.927	13681.65
719.85171	13665.05
723.77365	13603.85
727.69284	13413.05
731.60928	13264.65
735.52295	13198.35
739.43388	13161.05
743.34206	13197.95
747.24749	13254.35
751.15017	13404.65
755.05012	13609.65
758.94733	13999.85
762.8418	14650.25
766.73354	15769.75
770.62254	16792.95
774.50882	17018.55
778.39237	16300.05
782.27321	15165.65
786.15132	14148.25
790.02671	13506.45
793.89938	13165.65
797.76935	13060.75
801.6366	12975.45
805.50115	12971.35
809.36299	12911.05
813.22213	12776.35
817.07857	12725.65
820.93231	12657.35
824.78336	12552.85
828.63172	12458.75
832.47738	12440.15
836.32036	12395.85
840.16066	12377.45
843.99827	12368.25
847.8332	12347.65
851.66546	12330.45
855.49504	12325.45
859.32195	12319.75
863.1462	12316.15
866.96777	12274.45
870.78668	12252.15
874.60293	12271.65
878.41652	12284.85
882.22745	12349.15
886.03573	12380.15
889.84136	12413.05
893.64433	12392.55
897.44466	12324.35
901.24235	12230.75
905.0374	12152.45
908.8298	12118.45
912.61957	12110.15
916.40671	12220.15
920.19121	12352.35
923.97308	12529.55
927.75233	12556.05
931.52895	12441.15
935.30295	12224.65
939.07433	11974.35
942.84309	11768.05
946.60924	11650.65
950.37278	11559.85
954.13371	11575.85
957.89203	11589.65
961.64774	11598.95
965.40086	11598.85
969.15137	11541.85
972.89929	11461.55
976.64461	11408.55
980.38733	11378.95
984.12747	11375.15
987.86502	11393.25
991.59999	11449.85
995.33237	11551.65
999.06217	11765.35
1002.78939	12011.65
1006.51404	12245.35
1010.23611	12494.05
1013.95561	12695.95
1017.67255	12745.75
1021.38692	12654.95
1025.09872	12440.65
1028.80796	12216.85
1032.51465	12133.25
1036.21877	12173.65
1039.92035	12285.95
1043.61937	12355.05
1047.31584	12396.35
1051.00976	12398.95
1054.70114	12403.85
1058.38998	12442.45
1062.07627	12591.55
1065.76003	12765.25
1069.44126	12963.75
1073.11995	13210.05
1076.79611	13405.95
1080.46974	13463.05
1084.14085	13479.95
1087.80943	13606.35
1091.47549	13734.05
1095.13903	13843.05
1098.80005	13725.75
1102.45857	13318.85
1106.11456	12966.55
1109.76805	12759.85
1113.41903	12717.75
1117.06751	12760.95
1120.71348	12919.65
1124.35696	13103.75
1127.99793	13334.15
1131.63641	13504.35
1135.2724	13462.45
1138.90589	13410.95
1142.5369	13470.35
1146.16542	13547.85
1149.79145	13705.25
1153.415	13815.85
1157.03607	14024.45
1160.65467	14368.55
1164.27079	15050.75
1167.88443	15921.45
1171.49561	16879.45
1175.10432	18063.65
1178.71056	19488.35
1182.31434	20824.05
1185.91565	21506.85
1189.51451	21416.15
1193.11091	20894.95
1196.70485	20075.75
1200.29634	19202.35
1203.88538	18622.25
1207.47197	18238.35
1211.05612	17954.35
1214.63782	17593.35
1218.21708	17112.45
1221.79391	16613.85
1225.36829	16255.55
1228.94024	16075.65
1232.50976	15859.65
1236.07685	15647.95
1239.6415	15522.65
1243.20374	15451.25
1246.76355	15573.95
1250.32093	15776.55
1253.8759	16087.65
1257.42845	16579.25
1260.97859	17140.15
1264.52631	17680.85
1268.07163	18193.85
1271.61453	18696.05
1275.15503	19225.85
1278.69312	19851.55
1282.22882	20477.45
1285.76211	21337.65
1289.29301	22325.55
1292.82151	23455.85
1296.34761	24653.25
1299.87133	26015.75
1303.39266	27311.55
1306.9116	28457.55
1310.42815	29370.55
1313.94233	29850.05
1317.45412	29754.85
1320.96354	29205.85
1324.47058	28723.75
1327.97525	28412.05
1331.47754	28207.75
1334.97747	28010.95
1338.47502	27723.35
1341.97022	27381.35
1345.46305	27007.05
1348.95352	26762.65
1352.44163	26739.95
1355.92738	27217.75
1359.41078	28180.05
1362.89183	29139.55
1366.37053	28981.65
1369.84688	27122.55
1373.32088	24360.35
1376.79254	22206.85
1380.26186	21255.35
1383.72883	21107.45
1387.19347	21043.85
1390.65578	20776.75
1394.11575	20674.35
1397.57339	20811.65
1401.0287	21095.95
1404.48168	21262.75
1407.93234	21138.15
1411.38068	20650.25
1414.82669	19880.45
1418.27039	19021.95
1421.71177	18223.15
1425.15083	17524.45
1428.58758	17194.15
1432.02203	17345.15
1435.45416	17719.95
1438.88399	18237.85
1442.31151	18613.35
1445.73673	18899.05
1449.15965	19156.85
1452.58027	19352.35
1455.9986	19390.55
1459.41463	19498.15
1462.82837	19829.15
1466.23982	20216.45
1469.64898	20571.85
1473.05586	20789.45
1476.46045	20833.35
1479.86276	20701.05
1483.26279	20582.45
1486.66054	20601.35
1490.05602	20771.05
1493.44922	21086.45
1496.84016	21471.35
1500.22882	21991.75
1503.61521	22674.65
1506.99934	23433.75
1510.38121	23955.75
1513.76081	23972.45
1517.13816	23491.15
1520.51324	22717.05
1523.88607	22154.35
1527.25665	21815.65
1530.62498	21741.15
1533.99105	21580.75
1537.35488	21148.05
1540.71647	20575.65
1544.07581	19878.55
1547.4329	19170.95
1550.78776	18608.75
1554.14038	18235.85
1557.49077	18040.25
1560.83892	18032.55
1564.18484	18118.05
1567.52853	18255.85
1570.86999	18482.55
1574.20922	18854.25
1577.54624	19187.75
1580.88103	19312.15
1584.2136	19425.05
1587.54395	19816.55
1590.87208	20627.05
1594.19801	21701.65
1597.52172	22826.85
1600.84321	23089.45
1604.16251	22095.35
1607.47959	20357.05
1610.79447	18454.55
1614.10715	16800.05
1617.41763	15471.15
1620.7259	14562.85
1624.03199	14080.45
1627.33587	14030.65
1630.63757	14410.35
1633.93707	15345.65
1637.23439	16941.85
1640.52951	19421.75
1643.82246	22465.75
1647.11321	25119.45
1650.40179	25913.65
1653.68819	24285.35
1656.97241	21124.75
1660.25446	17793.95
1663.53433	15225.45
1666.81203	13537.45
1670.08756	12450.85
1673.36092	11788.05
1676.63211	11371.15
1679.90115	11047.25
1683.16801	10801.75
1686.43272	10642.75
1689.69527	10526.85
1692.95567	10417.65
1696.2139	10387.75
1699.46999	10314.35
1702.72392	10287.75
1705.97571	10218.45
1709.22535	10139.65
1712.47284	10099.65
1715.71819	10054.05
1718.96139	10018.95
1722.20246	9960.75
1725.44139	9903.15
1728.67818	9858.95
1731.91284	9784.25
1735.14537	9743.05
1738.37576	9672.65
1741.60403	9630.25
1744.83017	9601.55
1748.05418	9592.05
1751.27607	9587.35
1754.49584	9592.85
1757.71349	9633.35
1760.92903	9598.15
1764.14244	9587.55
1767.35375	9561.75
1770.56294	9521.55
1773.77002	9457.65
1776.97499	9388.85
1780.17785	9353.25
1783.37861	9351.45
1786.57727	9313.95
1789.77382	9251.65
1792.96828	9219.35
1796.16064	9210.55
1799.3509	9178.75
1802.53907	9174.15
1805.72514	9122.35
1808.90913	9093.75
1812.09102	9098.55
1815.27083	9041.35
1818.44856	9043.45
1821.6242	9021.25
1824.79776	9023.85
1827.96924	9015.35
1831.13864	9022.55
1834.30597	9001.55
1837.47122	8981.95
1840.6344	8989.05
1843.7955	8977.75
1846.95454	8959.15
1850.11151	8950.05
1853.26642	8941.35
1856.41926	8928.25
1859.57004	8944.45
1862.71876	8927.25
1865.86542	8911.55
1869.01003	8912.75
1872.15258	8885.95
1875.29308	8873.75
1878.43152	8835.75
1881.56792	8841.15
1884.70227	8813.35
1887.83457	8809.35
1890.96482	8806.15
1894.09304	8758.35
1897.21921	8778.05
1900.34335	8780.45
1903.46544	8743.55
1906.58551	8716.75
1909.70353	8725.35
1912.81953	8676.85
1915.93349	8667.15
1919.04543	8663.95
1922.15534	8626.35
1925.26322	8599.15
1928.36908	8560.95
1931.47292	8557.15
1934.57473	8510.75
1937.67453	8512.75
1940.77232	8467.65
1943.86808	8464.75
1946.96184	8432.95
1950.05358	8399.95
1953.14331	8376.15
1956.23103	8348.65
1959.31675	8324.65
1962.40046	8307.75
1965.48217	8283.55
1968.56188	8231.35
1971.63959	8207.65
1974.7153	8188.45
1977.78901	8141.75
1980.86073	8114.85
1983.93046	8119.85
1986.99819	8103.35
1990.06394	8068.35
1993.1277	8045.45
1996.18947	8008.25
1999.24925	7988.75
2002.30706	7983.15
2005.36288	7919.35
2008.41672	7903.05
2011.46859	7868.75
2014.51848	7869.25
2017.56639	7833.15
2020.61233	7809.45
2023.6563	7790.65
2026.6983	7775.05
2029.73833	7755.05
2032.7764	7730.85
2035.8125	7710.15
2038.84664	7702.75
2041.87881	7681.05
2044.90903	7662.25
2047.93729	7641.35
2050.96359	7651.75
2053.98794	7657.85
2057.01034	7633.05
2060.03078	7616.45
2063.04927	7596.65
2066.06582	7605.65
2069.08042	7585.35
2072.09307	7586.85
2075.10378	7568.25
2078.11255	7568.05
2081.11938	7583.55
2084.12426	7563.05
2087.12722	7569.45
2090.12824	7569.75
2093.12732	7551.35
2096.12447	7561.15
2099.11969	7538.05
2102.11299	7550.85
2105.10435	7557.85
2108.09379	7533.15
2111.08131	7551.75
2114.0669	7572.45
2117.05057	7538.35
2120.03233	7561.65
2123.01216	7560.95
2125.99008	7562.75
2128.96609	7569.05
2131.94018	7553.65
2134.91236	7561.55
2137.88263	7552.65
2140.851	7546.05
2143.81746	7558.75
2146.78201	7552.75
2149.74466	7545.15
2152.7054	7553.65
2155.66425	7536.85
2158.6212	7531.35
2161.57625	7513.95
2164.52941	7514.35
2167.48067	7504.85
2170.43004	7519.95
2173.37752	7512.45
2176.32311	7489.85
2179.26681	7471.95
2182.20863	7497.05
2185.14856	7492.55
2188.08661	7481.35
2191.02278	7486.55
2193.95707	7486.05
2196.88948	7459.65
2199.82001	7451.45
2202.74867	7449.75
2205.67545	7452.25
2208.60037	7417.95
2211.52341	7424.95
2214.44458	7397.05
2217.36388	7393.15
2220.28132	7362.15
2223.1969	7365.35
2226.11061	7345.05
2229.02246	7327.05
2231.93245	7338.55
2234.84058	7297.15
2237.74686	7294.25
2240.65128	7292.55
2243.55385	7277.25
2246.45456	7254.45
2249.35343	7244.75
2252.25044	7251.85
2255.14561	7235.55
2258.03893	7209.55
2260.93041	7213.65
2263.82004	7195.25
2266.70783	7139.75
2269.59378	7113.25
2272.4779	7115.15
2275.36017	7089.25
2278.24061	7108.95
2281.11922	7068.15
2283.996	7040.65
2286.87094	7035.85
2289.74405	7016.25
2292.61534	6999.85
2295.4848	7005.15
2298.35243	6976.95
2301.21824	7002.85
2304.08223	6976.25
2306.94439	6981.15
2309.80474	6963.85
2312.66327	6965.25
2315.51999	6960.05
2318.37489	6950.25
2321.22797	6940.75
2324.07925	6930.25
2326.92871	6913.65
2329.77637	6896.45
2332.62222	6913.15
2335.46626	6888.65
2338.3085	6890.15
2341.14893	6887.05
2343.98756	6882.05
2346.8244	6891.65
2349.65943	6879.25
2352.49267	6877.45
2355.32411	6886.75
2358.15376	6866.05
2360.98161	6866.45
2363.80768	6854.75
2366.63195	6857.35
2369.45444	6850.65
2372.27514	6830.35
2375.09405	6830.85
2377.91118	6812.15
2380.72652	6804.35
2383.54009	6769.05
2386.35187	6761.25
2389.16188	6740.25
2391.97011	6738.45
2394.77657	6712.45
2397.58125	6701.55
2400.38416	6713.75
2403.18529	6679.75
2405.98466	6678.45
2408.78226	6669.15
2411.57809	6657.35
2414.37216	6646.55
2417.16446	6644.45
2419.955	6629.95
2422.74378	6623.95
2425.5308	6617.85
2428.31606	6607.55
2431.09956	6608.25
2433.88131	6603.35
2436.6613	6609.35
2439.43954	6571.65
2442.21603	6586.65
2444.99077	6582.05
2447.76377	6580.45
2450.53501	6581.45
2453.30451	6566.95
2456.07226	6560.95
2458.83827	6583.75
2461.60254	6566.25
2464.36507	6567.75
2467.12586	6538.25
2469.88492	6553.55
2472.64224	6567.65
2475.39782	6566.95
2478.15167	6576.85
2480.90379	6530.55
2483.65417	6556.65
2486.40283	6546.85
2489.14976	6540.95
2491.89497	6538.65
2494.63845	6561.55
2497.3802	6554.85
2500.12024	6547.05
2502.85855	6534.55
2505.59514	6537.25
2508.33002	6515.45
2511.06318	6507.25
2513.79462	6496.55
2516.52435	6477.45
2519.25237	6489.25
2521.97867	6489.55
2524.70327	6469.05
2527.42616	6464.85
2530.14734	6449.95
2532.86681	6450.35
2535.58458	6452.85
2538.30065	6422.65
2541.01501	6435.25
2543.72768	6419.35
2546.43864	6396.55
2549.14791	6392.25
2551.85548	6408.65
2554.56136	6402.25
2557.26554	6363.75
2559.96803	6400.35
2562.66883	6372.05
2565.36794	6372.55
2568.06536	6372.45
2570.7611	6358.85
2573.45514	6337.55
2576.14751	6352.85
2578.83819	6341.45
2581.52719	6339.25
2584.21451	6315.65
2586.90015	6319.85
2589.58411	6304.95
2592.2664	6301.15
2594.94701	6295.45
2597.62594	6307.55
2600.30321	6258.65
2602.9788	6258.35
2605.65273	6264.25
2608.32498	6260.55
2610.99557	6293.05
2613.66449	6264.35
2616.33175	6255.75
2618.99734	6242.95
2621.66128	6231.15
2624.32355	6223.25
2626.98416	6224.85
2629.64311	6222.15
2632.30041	6209.75
2634.95605	6223.55
2637.61004	6206.75
2640.26238	6207.45
2642.91306	6192.45
2645.56209	6207.05
2648.20948	6219.25
2650.85521	6208.75
2653.4993	6188.25
2656.14175	6211.65
2658.78255	6200.65
2661.42171	6187.35
2664.05923	6193.35
2666.6951	6209.55
2669.32934	6207.35
2671.96194	6204.15
2674.59291	6203.45
2677.22224	6206.65
2679.84993	6196.85
2682.476	6202.65
2685.10043	6187.15
2687.72324	6182.65
2690.34441	6181.45
2692.96396	6178.05
2695.58188	6187.55
2698.19818	6173.35
2700.81285	6179.75
2703.4259	6193.95
2706.03733	6276.55
2708.64714	6225.25
2711.25533	6222.75
2713.86191	6200.55
2716.46687	6217.45
2719.07021	6207.95
2721.67194	6218.15
2724.27206	6211.15
2726.87057	6210.45
2729.46747	6222.55
2732.06276	6231.75
2734.65644	6221.55
2737.24852	6199.85
2739.83899	6179.45
2742.42786	6192.05
2745.01513	6196.25
2747.60079	6177.85
2750.18486	6173.75
2752.76733	6165.95
2755.3482	6196.55
2757.92747	6172.45
2760.50515	6149.65
2763.08123	6158.55
2765.65573	6149.15
2768.22863	6151.55
2770.79994	6160.45
2773.36967	6132.05
2775.9378	6151.95
2778.50435	6143.25
2781.06932	6131.75
2783.6327	6125.65
2786.1945	6118.75
2788.75471	6121.55
2791.31335	6099.95
2793.87041	6090.85
2796.42589	6069.25
2798.97979	6071.15
2801.53212	6064.35
2804.08288	6068.75
2806.63206	6057.55
2809.17967	6046.15
2811.72571	6032.65
2814.27018	6030.05
2816.81308	6010.05
2819.35442	6016.15
2821.89419	6016.05
2824.43239	6002.05
2826.96904	6007.65
2829.50412	6009.75
2832.03763	5978.95
2834.56959	5991.35
2837.1	5994.05
2839.62884	5986.45
2842.15613	5989.75
2844.68186	6013.85
2847.20604	6017.85
2849.72867	6017.95
2852.24974	5996.85
2854.76927	6007.55
2857.28724	6013.85
2859.80367	5997.75
2862.31855	5971.45
2864.83189	5971.25
2867.34368	5965.15
2869.85393	5944.35
2872.36264	5937.55
2874.8698	5925.75
2877.37543	5931.85
2879.87952	5952.55
2882.38207	5936.05
2884.88308	5931.15
2887.38256	5932.55
2889.88051	5939.15
2892.37692	5935.25
2894.8718	5929.95
2897.36515	5951.85
2899.85698	5953.35
2902.34727	5962.45
2904.83604	5948.05
2907.32328	5967.65
2909.809	5954.75
2912.29319	5970.05
2914.77587	5986.85
2917.25702	5975.45
2919.73665	5979.05
2922.21476	5976.35
2924.69136	5976.05
2927.16644	5985.55
2929.64	5978.75
2932.11205	5955.45
2934.58258	5946.75
2937.05161	5967.85
2939.51912	5961.75
2941.98513	5969.45
2944.44962	5941.45
2946.91261	5940.85
2949.37409	5936.55
2951.83407	5905.35
2954.29254	5917.15
2956.74951	5877.55
2959.20498	5868.25
2961.65895	5846.05
2964.11142	5836.35
2966.56239	5825.85
2969.01186	5812.15
2971.45984	5797.35
2973.90632	5778.95
2976.35131	5765.15
2978.7948	5763.35
2981.23681	5736.35
2983.67732	5704.65
2986.11635	5690.65
2988.55388	5681.95
2990.98993	5668.25
2993.4245	5660.55
2995.85758	5651.65
2998.28917	5621.05
3000.71928	5637.95
3003.14791	5610.65
3005.57506	5605.25
3008.00073	5601.75
3010.42493	5583.05
3012.84764	5578.65
3015.26888	5557.55
3017.68865	5540.25
3020.10694	5547.05
3022.52376	5524.75
3024.9391	5524.45
3027.35298	5502.95
3029.76539	5502.85
3032.17632	5511.85
3034.5858	5473.75
3036.9938	5478.45
3039.40034	5450.85
3041.80542	5465.95
3044.20903	5448.45
3046.61118	5438.35
3049.01187	5421.15
3051.4111	5435.25
3053.80888	5405.75
3056.20519	5402.55
3058.60005	5405.25
3060.99345	5382.55
3063.3854	5367.45
3065.7759	5349.95
3068.16494	5361.35
3070.55254	5320.25
3072.93868	5337.95
3075.32338	5303.45
3077.70662	5301.65
3080.08842	5281.85
3082.46878	5261.65
3084.84769	5236.55
3087.22515	5249.25
3089.60118	5248.85
3091.97576	5254.75
3094.3489	5252.55
3096.72061	5261.55
3099.09087	5246.85
3101.4597	5232.75
3103.82709	5241.15
3106.19305	5228.95
3108.55757	5224.35
3110.92066	5195.35
3113.28232	5183.95
3115.64255	5178.75
3118.00134	5173.65
3120.35871	5163.55
3122.71466	5153.25
3125.06917	5149.25
3127.42226	5129.45
3129.77393	5139.85
3132.12417	5150.05
3134.47299	5145.95
3136.82039	5127.55
3139.16636	5130.55
3141.51092	5138.95
3143.85406	5133.25
3146.19579	5154.85
3148.53609	5130.45
3150.87499	5146.05
3153.21246	5136.45
3155.54853	5143.95
3157.88318	5143.25
3160.21642	5145.65
3162.54826	5131.35
3164.87868	5130.05
3167.2077	5123.75
3169.5353	5122.85
3171.86151	5126.15
3174.18631	5104.65
3176.5097	5106.55
3178.83169	5091.75
3181.15228	5111.75
3183.47147	5102.05
3185.78926	5095.45
3188.10565	5104.45
3190.42065	5094.65
3192.73424	5085.05
3195.04645	5087.45
3197.35725	5085.45
3199.66667	5081.85
3201.97469	5082.95
3204.28132	5081.85
3206.58656	5082.45
3208.8904	5090.75
3211.19287	5089.65
3213.49394	5089.95
3215.79363	5075.75
3218.09193	5102.45
3220.38884	5106.45
3222.68438	5114.15
3224.97853	5095.35
3227.2713	5085.15
3229.56269	5076.35
3231.8527	5070.75
3234.14133	5062.85
3236.42858	5061.35
3238.71446	5046.35
3240.99896	5038.55
3243.28209	5033.45
3245.56384	5026.65
3247.84423	5038.05
3250.12324	5022.35
3252.40088	5013.05
3254.67715	5009.35
3256.95205	5013.95
3259.22558	4992.45
3261.49775	4976.75
3263.76855	4963.05
3266.03799	4931.65
3268.30606	4958.05
3270.57277	4931.95
3272.83812	4920.35
3275.10211	4903.55
3277.36474	4922.05
3279.62601	4925.55
3281.88593	4909.65
3284.14448	4919.85
3286.40168	4919.65
3288.65753	4904.75
3290.91202	4913.25
3293.16516	4895.15
3295.41695	4873.05
3297.66738	4837.05
3299.91647	4816.55
3302.16421	4800.25
3304.4106	4769.35
3306.65564	4747.65
3308.89933	4727.75
3311.14169	4695.15
3313.38269	4675.95
3315.62236	4625.65
3317.86068	4590.15
3320.09766	4544.55
3322.3333	4513.85
3324.5676	4508.35
3326.80056	4450.25
3329.03219	4421.15
3331.26248	2.15
3333.49143	-0.05
3335.71905	-0.25
