Data from AgNPs_FTO_APTES_UA_100um_CRN_0.1mM_R6G_10uM_NaF_0.1M_Addition_RamanShift__11__15-57-49-284.txt Node

Date: Tue Dec 21 15:57:49 GMT 2021
User: TCL
Spectrometer: QEP01345
Trigger mode: 4
Integration Time (sec): 7.000000E0
Scans to average: 10
Electric dark correction enabled: true
Nonlinearity correction enabled: false
Boxcar width: 0
XAxis mode: Raman Shifts
Number of Pixels in Spectrum: 1044
>>>>>Begin Spectral Data<<<<<
46.04893	0.45
50.45542	-0.05
54.85868	-0.55
59.25871	0.85
63.6555	30.85
68.04907	33.85
72.43941	35.95
76.82654	37.75
81.21044	43.65
85.59113	44.85
89.96862	45.55
94.34289	44.25
98.71396	44.85
103.08183	49.55
107.4465	53.35
111.80798	53.15
116.16626	51.15
120.52136	52.25
124.87327	54.85
129.222	52.45
133.56755	56.05
137.90993	62.05
142.24913	63.85
146.58517	74.95
150.91804	80.15
155.24774	91.25
159.57429	108.15
163.89768	138.25
168.21792	181.85
172.53501	238.95
176.84895	332.45
181.15975	464.35
185.46741	650.15
189.77193	894.05
194.07331	1207.75
198.37157	1548.05
202.6667	1914.85
206.9587	2285.25
211.24758	2671.75
215.53334	3040.15
219.81599	3416.45
224.09553	3829.35
228.37195	4299.05
232.64527	4820.55
236.91549	5370.85
241.18261	5928.25
245.44663	6461.75
249.70755	6925.55
253.96539	7325.15
258.22014	7632.15
262.4718	7869.95
266.72039	8027.35
270.96589	8076.65
275.20832	8042.75
279.44768	7958.65
283.68397	7849.95
287.91719	7729.05
292.14735	7657.95
296.37445	7603.95
300.59849	7607.75
304.81948	7636.95
309.03742	7601.55
313.25231	7554.05
317.46415	7393.55
321.67296	7222.95
325.87872	7056.15
330.08145	6971.75
334.28114	6974.15
338.47781	7013.95
342.67145	7085.95
346.86207	7219.95
351.04966	7330.55
355.23424	7453.55
359.4158	7594.45
363.59435	7678.65
367.76989	7774.45
371.94243	7811.65
376.11196	7852.45
380.27849	7900.25
384.44203	7959.05
388.60257	8002.85
392.76012	8060.65
396.91468	8145.25
401.06626	8271.25
405.21485	8363.25
409.36047	8370.95
413.50311	8230.05
417.64277	8095.75
421.77947	8003.75
425.9132	7947.55
430.04396	7942.95
434.17176	7964.75
438.2966	8020.45
442.41849	8042.15
446.53742	8120.75
450.6534	8225.65
454.76644	8304.15
458.87653	8369.25
462.98368	8387.65
467.08789	8407.65
471.18916	8361.65
475.2875	8311.85
479.38291	8289.15
483.4754	8260.85
487.56496	8217.95
491.6516	8173.15
495.73531	8124.85
499.81612	8111.45
503.89401	8139.35
507.96899	8166.05
512.04106	8203.65
516.11023	8189.95
520.1765	8187.95
524.23987	8154.75
528.30034	8094.45
532.35792	8015.05
536.41261	7970.65
540.46441	7910.05
544.51333	7893.25
548.55936	7938.95
552.60252	8019.45
556.64279	8125.75
560.6802	8181.55
564.71473	8200.65
568.7464	8263.75
572.7752	8330.95
576.80114	8361.85
580.82422	8429.45
584.84444	8458.65
588.86181	8479.65
592.87633	8425.95
596.888	8409.35
600.89682	8484.95
604.9028	8763.35
608.90594	9540.75
612.90624	10477.35
616.90371	10264.35
620.89834	8900.55
624.89015	8190.25
628.87913	8032.85
632.86528	8100.25
636.84862	8205.85
640.82913	8175.65
644.80683	8052.15
648.78172	7879.35
652.75379	7861.75
656.72306	7908.55
660.68952	8015.25
664.65319	8052.65
668.61405	7968.85
672.57211	7927.15
676.52738	7963.35
680.47986	7954.45
684.42955	7945.45
688.37646	7892.45
692.32058	7904.95
696.26192	7898.35
700.20048	7893.15
704.13626	7939.95
708.06928	7953.25
711.99952	7879.65
715.927	7860.65
719.85171	7813.75
723.77365	7798.05
727.69284	7745.05
731.60928	7705.45
735.52295	7683.45
739.43388	7669.35
743.34206	7681.35
747.24749	7694.45
751.15017	7729.05
755.05012	7776.75
758.94733	7945.25
762.8418	8198.05
766.73354	8674.95
770.62254	9227.25
774.50882	9506.35
778.39237	9245.05
782.27321	8672.75
786.15132	8150.05
790.02671	7820.55
793.89938	7665.75
797.76935	7564.05
801.6366	7533.45
805.50115	7507.65
809.36299	7500.75
813.22213	7503.55
817.07857	7467.75
820.93231	7444.35
824.78336	7438.05
828.63172	7399.15
832.47738	7384.15
836.32036	7375.55
840.16066	7338.05
843.99827	7319.35
847.8332	7312.35
851.66546	7317.15
855.49504	7298.05
859.32195	7273.25
863.1462	7279.35
866.96777	7249.25
870.78668	7263.35
874.60293	7263.35
878.41652	7260.55
882.22745	7291.05
886.03573	7314.35
889.84136	7316.35
893.64433	7283.15
897.44466	7261.35
901.24235	7245.55
905.0374	7221.95
908.8298	7212.05
912.61957	7219.95
916.40671	7203.65
920.19121	7242.45
923.97308	7252.05
927.75233	7235.55
931.52895	7231.25
935.30295	7167.35
939.07433	7099.85
942.84309	7018.85
946.60924	6951.35
950.37278	6923.65
954.13371	6901.35
957.89203	6892.15
961.64774	6871.85
965.40086	6849.45
969.15137	6844.55
972.89929	6831.65
976.64461	6784.15
980.38733	6775.05
984.12747	6773.75
987.86502	6796.95
991.59999	6792.35
995.33237	6795.95
999.06217	6810.55
1002.78939	6844.85
1006.51404	6897.65
1010.23611	6944.85
1013.95561	6998.55
1017.67255	6997.15
1021.38692	6992.85
1025.09872	6952.15
1028.80796	6906.65
1032.51465	6871.75
1036.21877	6863.85
1039.92035	6914.15
1043.61937	6938.55
1047.31584	6945.35
1051.00976	6974.45
1054.70114	6996.75
1058.38998	7005.05
1062.07627	7060.25
1065.76003	7081.55
1069.44126	7149.45
1073.11995	7176.95
1076.79611	7235.25
1080.46974	7269.75
1084.14085	7278.75
1087.80943	7280.25
1091.47549	7332.45
1095.13903	7343.15
1098.80005	7300.55
1102.45857	7204.15
1106.11456	7106.85
1109.76805	7055.45
1113.41903	7067.25
1117.06751	7125.85
1120.71348	7224.75
1124.35696	7296.95
1127.99793	7395.95
1131.63641	7464.95
1135.2724	7393.45
1138.90589	7297.45
1142.5369	7220.35
1146.16542	7159.95
1149.79145	7153.75
1153.415	7138.95
1157.03607	7141.45
1160.65467	7192.35
1164.27079	7280.15
1167.88443	7454.05
1171.49561	7693.85
1175.10432	8031.25
1178.71056	8514.95
1182.31434	8920.75
1185.91565	9132.05
1189.51451	9155.45
1193.11091	9004.45
1196.70485	8770.15
1200.29634	8510.95
1203.88538	8284.45
1207.47197	8067.45
1211.05612	7868.55
1214.63782	7696.35
1218.21708	7581.15
1221.79391	7477.55
1225.36829	7433.65
1228.94024	7390.75
1232.50976	7363.55
1236.07685	7362.25
1239.6415	7359.45
1243.20374	7368.65
1246.76355	7410.65
1250.32093	7446.85
1253.8759	7511.65
1257.42845	7617.55
1260.97859	7762.95
1264.52631	7881.85
1268.07163	7975.85
1271.61453	8057.25
1275.15503	8138.15
1278.69312	8202.15
1282.22882	8253.75
1285.76211	8314.35
1289.29301	8429.55
1292.82151	8593.95
1296.34761	8787.85
1299.87133	9045.35
1303.39266	9336.55
1306.9116	9733.95
1310.42815	10110.95
1313.94233	10356.95
1317.45412	10319.35
1320.96354	10133.05
1324.47058	9937.55
1327.97525	9718.95
1331.47754	9553.85
1334.97747	9467.55
1338.47502	9506.05
1341.97022	9603.45
1345.46305	9762.75
1348.95352	10000.05
1352.44163	10255.25
1355.92738	10513.05
1359.41078	10965.45
1362.89183	11481.75
1366.37053	11443.85
1369.84688	10630.25
1373.32088	9613.35
1376.79254	8871.45
1380.26186	8489.75
1383.72883	8279.75
1387.19347	8150.85
1390.65578	8016.55
1394.11575	7852.65
1397.57339	7752.35
1401.0287	7662.05
1404.48168	7612.85
1407.93234	7560.65
1411.38068	7494.15
1414.82669	7419.15
1418.27039	7286.85
1421.71177	7182.95
1425.15083	7067.25
1428.58758	6971.15
1432.02203	6930.55
1435.45416	6932.45
1438.88399	6975.35
1442.31151	7004.75
1445.73673	7037.75
1449.15965	7079.35
1452.58027	7135.35
1455.9986	7142.95
1459.41463	7180.75
1462.82837	7267.15
1466.23982	7358.15
1469.64898	7466.45
1473.05586	7563.45
1476.46045	7605.95
1479.86276	7671.75
1483.26279	7730.15
1486.66054	7800.25
1490.05602	7916.75
1493.44922	8093.05
1496.84016	8380.95
1500.22882	8860.65
1503.61521	9470.85
1506.99934	10091.35
1510.38121	10589.75
1513.76081	10687.75
1517.13816	10331.65
1520.51324	9669.95
1523.88607	9078.85
1527.25665	8664.45
1530.62498	8403.15
1533.99105	8218.85
1537.35488	8087.95
1540.71647	7945.85
1544.07581	7818.75
1547.4329	7713.35
1550.78776	7682.25
1554.14038	7636.05
1557.49077	7666.65
1560.83892	7720.45
1564.18484	7828.05
1567.52853	7936.25
1570.86999	8011.85
1574.20922	8130.85
1577.54624	8122.75
1580.88103	8009.05
1584.2136	7774.25
1587.54395	7595.85
1590.87208	7584.45
1594.19801	7667.75
1597.52172	7842.25
1600.84321	7939.55
1604.16251	7835.45
1607.47959	7609.85
1610.79447	7366.55
1614.10715	7099.65
1617.41763	6862.55
1620.7259	6644.75
1624.03199	6515.35
1627.33587	6443.65
1630.63757	6461.45
1633.93707	6565.55
1637.23439	6749.65
1640.52951	7089.45
1643.82246	7558.35
1647.11321	8134.55
1650.40179	8639.15
1653.68819	8686.15
1656.97241	8203.35
1660.25446	7560.35
1663.53433	6939.15
1666.81203	6501.55
1670.08756	6205.45
1673.36092	5981.35
1676.63211	5872.25
1679.90115	5750.95
1683.16801	5695.15
1686.43272	5614.35
1689.69527	5556.65
1692.95567	5518.35
1696.2139	5499.05
1699.46999	5482.65
1702.72392	5449.75
1705.97571	5418.95
1709.22535	5346.55
1712.47284	5333.15
1715.71819	5311.65
1718.96139	5287.95
1722.20246	5258.05
1725.44139	5234.75
1728.67818	5195.85
1731.91284	5184.25
1735.14537	5123.05
1738.37576	5120.65
1741.60403	5096.55
1744.83017	5064.95
1748.05418	5054.45
1751.27607	5062.55
1754.49584	5048.65
1757.71349	5057.95
1760.92903	5061.05
1764.14244	5047.75
1767.35375	5016.55
1770.56294	4997.95
1773.77002	4972.55
1776.97499	4958.25
1780.17785	4901.35
1783.37861	4898.95
1786.57727	4861.85
1789.77382	4860.65
1792.96828	4831.45
1796.16064	4790.75
1799.3509	4774.75
1802.53907	4776.05
1805.72514	4753.05
1808.90913	4729.25
1812.09102	4704.35
1815.27083	4694.55
1818.44856	4686.05
1821.6242	4662.75
1824.79776	4640.35
1827.96924	4650.25
1831.13864	4634.75
1834.30597	4632.55
1837.47122	4609.75
1840.6344	4609.15
1843.7955	4598.25
1846.95454	4597.95
1850.11151	4582.95
1853.26642	4579.05
1856.41926	4551.95
1859.57004	4541.75
1862.71876	4539.45
1865.86542	4538.15
1869.01003	4526.95
1872.15258	4528.35
1875.29308	4523.45
1878.43152	4499.05
1881.56792	4498.25
1884.70227	4479.85
1887.83457	4462.85
1890.96482	4455.35
1894.09304	4452.85
1897.21921	4450.65
1900.34335	4446.55
1903.46544	4426.85
1906.58551	4412.05
1909.70353	4411.05
1912.81953	4404.95
1915.93349	4377.45
1919.04543	4372.75
1922.15534	4365.85
1925.26322	4355.65
1928.36908	4339.65
1931.47292	4329.95
1934.57473	4320.95
1937.67453	4292.05
1940.77232	4287.65
1943.86808	4271.45
1946.96184	4250.95
1950.05358	4222.65
1953.14331	4239.85
1956.23103	4209.35
1959.31675	4202.95
1962.40046	4179.35
1965.48217	4169.65
1968.56188	4161.05
1971.63959	4137.85
1974.7153	4120.05
1977.78901	4106.75
1980.86073	4075.85
1983.93046	4072.95
1986.99819	4055.15
1990.06394	4049.25
1993.1277	4036.55
1996.18947	4002.45
1999.24925	3993.05
2002.30706	3990.95
2005.36288	3957.65
2008.41672	3952.15
2011.46859	3941.25
2014.51848	3929.15
2017.56639	3895.05
2020.61233	3888.15
2023.6563	3872.35
2026.6983	3854.75
2029.73833	3842.75
2032.7764	3835.75
2035.8125	3819.35
2038.84664	3801.35
2041.87881	3801.05
2044.90903	3795.65
2047.93729	3775.85
2050.96359	3773.45
2053.98794	3756.95
2057.01034	3760.55
2060.03078	3743.85
2063.04927	3741.45
2066.06582	3736.95
2069.08042	3718.75
2072.09307	3722.85
2075.10378	3718.95
2078.11255	3705.15
2081.11938	3695.45
2084.12426	3694.15
2087.12722	3695.65
2090.12824	3705.35
2093.12732	3701.25
2096.12447	3686.15
2099.11969	3677.15
2102.11299	3685.45
2105.10435	3672.95
2108.09379	3675.25
2111.08131	3675.55
2114.0669	3679.35
2117.05057	3673.05
2120.03233	3671.05
2123.01216	3680.85
2125.99008	3663.55
2128.96609	3682.55
2131.94018	3673.05
2134.91236	3667.85
2137.88263	3674.15
2140.851	3660.25
2143.81746	3667.95
2146.78201	3657.25
2149.74466	3662.55
2152.7054	3663.15
2155.66425	3644.05
2158.6212	3643.05
2161.57625	3642.25
2164.52941	3638.55
2167.48067	3638.95
2170.43004	3635.75
2173.37752	3625.35
2176.32311	3627.35
2179.26681	3612.25
2182.20863	3607.55
2185.14856	3624.85
2188.08661	3610.15
2191.02278	3590.85
2193.95707	3579.95
2196.88948	3584.65
2199.82001	3585.65
2202.74867	3570.45
2205.67545	3575.75
2208.60037	3559.85
2211.52341	3552.25
2214.44458	3544.85
2217.36388	3532.35
2220.28132	3520.35
2223.1969	3513.85
2226.11061	3516.95
2229.02246	3494.55
2231.93245	3484.95
2234.84058	3461.65
2237.74686	3467.45
2240.65128	3454.35
2243.55385	3462.15
2246.45456	3443.05
2249.35343	3429.05
2252.25044	3429.25
2255.14561	3426.85
2258.03893	3416.65
2260.93041	3408.25
2263.82004	3409.05
2266.70783	3380.75
2269.59378	3377.35
2272.4779	3372.35
2275.36017	3364.25
2278.24061	3352.55
2281.11922	3341.75
2283.996	3328.45
2286.87094	3321.05
2289.74405	3302.95
2292.61534	3299.85
2295.4848	3293.85
2298.35243	3292.85
2301.21824	3275.05
2304.08223	3280.85
2306.94439	3273.85
2309.80474	3260.35
2312.66327	3258.65
2315.51999	3257.65
2318.37489	3253.45
2321.22797	3229.05
2324.07925	3236.65
2326.92871	3238.45
2329.77637	3219.45
2332.62222	3214.25
2335.46626	3205.55
2338.3085	3194.75
2341.14893	3207.35
2343.98756	3176.55
2346.8244	3185.65
2349.65943	3174.05
2352.49267	3183.65
2355.32411	3167.55
2358.15376	3175.35
2360.98161	3167.55
2363.80768	3151.45
2366.63195	3153.55
2369.45444	3152.65
2372.27514	3154.95
2375.09405	3150.85
2377.91118	3135.35
2380.72652	3123.45
2383.54009	3110.95
2386.35187	3122.35
2389.16188	3095.85
2391.97011	3095.65
2394.77657	3072.15
2397.58125	3075.05
2400.38416	3056.05
2403.18529	3047.55
2405.98466	3058.35
2408.78226	3044.05
2411.57809	3027.55
2414.37216	3023.35
2417.16446	3024.15
2419.955	3009.35
2422.74378	3010.75
2425.5308	2995.85
2428.31606	2996.65
2431.09956	2988.05
2433.88131	2984.45
2436.6613	2984.95
2439.43954	2976.35
2442.21603	2967.15
2444.99077	2967.05
2447.76377	2977.65
2450.53501	2959.85
2453.30451	2964.45
2456.07226	2948.65
2458.83827	2949.25
2461.60254	2935.45
2464.36507	2935.45
2467.12586	2937.35
2469.88492	2911.65
2472.64224	2926.55
2475.39782	2934.95
2478.15167	2925.75
2480.90379	2919.75
2483.65417	2911.85
2486.40283	2905.65
2489.14976	2899.35
2491.89497	2906.95
2494.63845	2908.35
2497.3802	2913.75
2500.12024	2897.45
2502.85855	2881.85
2505.59514	2896.35
2508.33002	2867.05
2511.06318	2852.85
2513.79462	2862.45
2516.52435	2859.35
2519.25237	2845.55
2521.97867	2835.75
2524.70327	2833.15
2527.42616	2834.45
2530.14734	2829.45
2532.86681	2809.25
2535.58458	2811.65
2538.30065	2792.75
2541.01501	2794.45
2543.72768	2803.35
2546.43864	2792.65
2549.14791	2784.55
2551.85548	2780.75
2554.56136	2771.55
2557.26554	2755.75
2559.96803	2754.45
2562.66883	2745.55
2565.36794	2735.25
2568.06536	2721.05
2570.7611	2716.15
2573.45514	2713.45
2576.14751	2718.35
2578.83819	2696.45
2581.52719	2706.45
2584.21451	2695.55
2586.90015	2685.05
2589.58411	2690.75
2592.2664	2674.55
2594.94701	2664.65
2597.62594	2674.25
2600.30321	2658.75
2602.9788	2647.15
2605.65273	2647.25
2608.32498	2633.35
2610.99557	2642.65
2613.66449	2624.65
2616.33175	2610.55
2618.99734	2615.15
2621.66128	2612.15
2624.32355	2607.85
2626.98416	2603.85
2629.64311	2588.85
2632.30041	2592.25
2634.95605	2575.85
2637.61004	2589.95
2640.26238	2584.15
2642.91306	2563.65
2645.56209	2568.25
2648.20948	2564.65
2650.85521	2560.55
2653.4993	2552.75
2656.14175	2548.65
2658.78255	2566.45
2661.42171	2561.85
2664.05923	2556.55
2666.6951	2552.75
2669.32934	2541.75
2671.96194	2538.15
2674.59291	2546.25
2677.22224	2549.35
2679.84993	2547.15
2682.476	2534.95
2685.10043	2537.25
2687.72324	2540.65
2690.34441	2540.65
2692.96396	2527.15
2695.58188	2529.05
2698.19818	2520.15
2700.81285	2528.35
2703.4259	2545.15
2706.03733	2598.35
2708.64714	2561.25
2711.25533	2533.95
2713.86191	2516.15
2716.46687	2535.55
2719.07021	2538.15
2721.67194	2517.85
2724.27206	2506.95
2726.87057	2508.15
2729.46747	2499.85
2732.06276	2494.65
2734.65644	2508.95
2737.24852	2492.25
2739.83899	2492.65
2742.42786	2493.05
2745.01513	2484.25
2747.60079	2481.95
2750.18486	2475.25
2752.76733	2472.05
2755.3482	2470.95
2757.92747	2466.65
2760.50515	2459.35
2763.08123	2448.55
2765.65573	2445.95
2768.22863	2454.05
2770.79994	2440.05
2773.36967	2450.85
2775.9378	2449.95
2778.50435	2432.25
2781.06932	2414.05
2783.6327	2417.75
2786.1945	2409.75
2788.75471	2404.85
2791.31335	2399.85
2793.87041	2393.55
2796.42589	2383.15
2798.97979	2390.15
2801.53212	2385.75
2804.08288	2371.85
2806.63206	2369.45
2809.17967	2358.85
2811.72571	2365.25
2814.27018	2353.45
2816.81308	2342.55
2819.35442	2341.45
2821.89419	2332.95
2824.43239	2345.75
2826.96904	2330.75
2829.50412	2336.05
2832.03763	2324.95
2834.56959	2324.05
2837.1	2314.05
2839.62884	2330.25
2842.15613	2324.25
2844.68186	2324.05
2847.20604	2331.35
2849.72867	2338.25
2852.24974	2326.15
2854.76927	2330.05
2857.28724	2349.35
2859.80367	2322.35
2862.31855	2316.65
2864.83189	2311.35
2867.34368	2302.75
2869.85393	2297.05
2872.36264	2297.75
2874.8698	2297.65
2877.37543	2294.65
2879.87952	2291.25
2882.38207	2297.75
2884.88308	2292.25
2887.38256	2296.15
2889.88051	2290.75
2892.37692	2284.95
2894.8718	2287.75
2897.36515	2285.75
2899.85698	2292.35
2902.34727	2295.45
2904.83604	2286.15
2907.32328	2290.75
2909.809	2289.65
2912.29319	2295.85
2914.77587	2290.35
2917.25702	2282.05
2919.73665	2281.65
2922.21476	2286.05
2924.69136	2284.35
2927.16644	2277.75
2929.64	2275.85
2932.11205	2271.15
2934.58258	2272.05
2937.05161	2261.25
2939.51912	2262.55
2941.98513	2274.15
2944.44962	2270.55
2946.91261	2250.85
2949.37409	2251.25
2951.83407	2252.35
2954.29254	2244.35
2956.74951	2240.65
2959.20498	2246.95
2961.65895	2235.45
2964.11142	2235.75
2966.56239	2223.15
2969.01186	2226.45
2971.45984	2207.55
2973.90632	2205.55
2976.35131	2189.95
2978.7948	2188.45
2981.23681	2183.95
2983.67732	2185.85
2986.11635	2178.55
2988.55388	2180.25
2990.98993	2171.05
2993.4245	2159.35
2995.85758	2153.95
2998.28917	2157.75
3000.71928	2162.45
3003.14791	2153.25
3005.57506	2148.35
3008.00073	2142.25
3010.42493	2132.95
3012.84764	2141.35
3015.26888	2144.15
3017.68865	2133.55
3020.10694	2130.65
3022.52376	2125.55
3024.9391	2124.35
3027.35298	2133.05
3029.76539	2111.95
3032.17632	2110.55
3034.5858	2100.45
3036.9938	2098.35
3039.40034	2102.75
3041.80542	2094.35
3044.20903	2091.85
3046.61118	2099.65
3049.01187	2088.65
3051.4111	2087.55
3053.80888	2082.05
3056.20519	2088.65
3058.60005	2088.25
3060.99345	2089.05
3063.3854	2073.55
3065.7759	2067.95
3068.16494	2075.55
3070.55254	2063.95
3072.93868	2072.15
3075.32338	2072.25
3077.70662	2061.05
3080.08842	2047.65
3082.46878	2059.95
3084.84769	2052.35
3087.22515	2070.85
3089.60118	2062.05
3091.97576	2064.85
3094.3489	2060.25
3096.72061	2068.15
3099.09087	2070.55
3101.4597	2066.25
3103.82709	2065.85
3106.19305	2066.65
3108.55757	2066.25
3110.92066	2062.95
3113.28232	2052.95
3115.64255	2061.55
3118.00134	2057.45
3120.35871	2056.65
3122.71466	2058.15
3125.06917	2054.25
3127.42226	2048.95
3129.77393	2052.55
3132.12417	2060.15
3134.47299	2066.65
3136.82039	2060.95
3139.16636	2067.55
3141.51092	2080.95
3143.85406	2079.35
3146.19579	2073.25
3148.53609	2073.45
3150.87499	2085.95
3153.21246	2089.35
3155.54853	2090.25
3157.88318	2099.95
3160.21642	2097.65
3162.54826	2099.55
3164.87868	2101.05
3167.2077	2101.55
3169.5353	2104.55
3171.86151	2109.65
3174.18631	2105.85
3176.5097	2113.75
3178.83169	2103.15
3181.15228	2113.05
3183.47147	2102.05
3185.78926	2108.55
3188.10565	2112.75
3190.42065	2112.05
3192.73424	2117.35
3195.04645	2109.65
3197.35725	2130.15
3199.66667	2120.55
3201.97469	2123.95
3204.28132	2124.75
3206.58656	2123.85
3208.8904	2128.25
3211.19287	2137.75
3213.49394	2136.35
3215.79363	2139.75
3218.09193	2134.15
3220.38884	2153.85
3222.68438	2151.75
3224.97853	2141.75
3227.2713	2139.45
3229.56269	2138.65
3231.8527	2139.85
3234.14133	2141.35
3236.42858	2122.95
3238.71446	2128.75
3240.99896	2119.45
3243.28209	2118.45
3245.56384	2119.65
3247.84423	2117.45
3250.12324	2117.25
3252.40088	2123.45
3254.67715	2108.25
3256.95205	2121.25
3259.22558	2117.65
3261.49775	2110.15
3263.76855	2101.15
3266.03799	2098.65
3268.30606	2092.65
3270.57277	2100.55
3272.83812	2081.45
3275.10211	2081.05
3277.36474	2082.55
3279.62601	2082.15
3281.88593	2076.05
3284.14448	2080.45
3286.40168	2059.65
3288.65753	2082.45
3290.91202	2066.75
3293.16516	2053.65
3295.41695	2052.75
3297.66738	2054.15
3299.91647	2039.45
3302.16421	2022.05
3304.4106	2012.85
3306.65564	2004.35
3308.89933	2010.45
3311.14169	1992.85
3313.38269	1981.65
3315.62236	1964.75
3317.86068	1948.25
3320.09766	1918.45
3322.3333	1917.55
3324.5676	1928.65
3326.80056	1903.75
3329.03219	1890.95
3331.26248	0.25
3333.49143	-0.65
3335.71905	-0.05
