Data from AgNPs_FTO_APTES_UA_0um_CRN_0.1mM_R6G_10uM_NaF_0.1M_Addition_RamanShift__2__10-13-38-890.txt Node

Date: Tue Dec 21 10:13:38 GMT 2021
User: TCL
Spectrometer: QEP01345
Trigger mode: 4
Integration Time (sec): 7.000000E0
Scans to average: 10
Electric dark correction enabled: true
Nonlinearity correction enabled: false
Boxcar width: 0
XAxis mode: Raman Shifts
Number of Pixels in Spectrum: 1044
>>>>>Begin Spectral Data<<<<<
46.04893	0.4125
50.45542	-1.1875
54.85868	0.3125
59.25871	-0.0875
63.6555	16.5125
68.04907	24.4125
72.43941	23.1125
76.82654	25.2125
81.21044	29.1125
85.59113	28.3125
89.96862	29.7125
94.34289	30.7125
98.71396	29.8125
103.08183	33.3125
107.4465	32.5125
111.80798	32.0125
116.16626	30.7125
120.52136	32.2125
124.87327	33.0125
129.222	28.8125
133.56755	35.1125
137.90993	38.8125
142.24913	32.0125
146.58517	35.6125
150.91804	38.5125
155.24774	41.9125
159.57429	48.1125
163.89768	58.3125
168.21792	69.0125
172.53501	85.6125
176.84895	110.3125
181.15975	146.4125
185.46741	201.1125
189.77193	271.6125
194.07331	371.5125
198.37157	480.4125
202.6667	612.5125
206.9587	755.8125
211.24758	892.9125
215.53334	1042.0125
219.81599	1193.8125
224.09553	1341.3125
228.37195	1477.6125
232.64527	1632.6125
236.91549	1762.6125
241.18261	1893.1125
245.44663	1998.5125
249.70755	2076.6125
253.96539	2149.7125
258.22014	2173.5125
262.4718	2190.9125
266.72039	2187.1125
270.96589	2160.9125
275.20832	2126.8125
279.44768	2058.5125
283.68397	1981.2125
287.91719	1916.0125
292.14735	1863.1125
296.37445	1820.5125
300.59849	1770.7125
304.81948	1739.7125
309.03742	1714.0125
313.25231	1671.5125
317.46415	1641.1125
321.67296	1605.6125
325.87872	1571.3125
330.08145	1554.2125
334.28114	1543.6125
338.47781	1553.3125
342.67145	1541.6125
346.86207	1542.7125
351.04966	1551.9125
355.23424	1557.5125
359.4158	1557.7125
363.59435	1554.2125
367.76989	1555.0125
371.94243	1547.7125
376.11196	1546.5125
380.27849	1547.2125
384.44203	1528.0125
388.60257	1536.7125
392.76012	1542.1125
396.91468	1537.1125
401.06626	1536.4125
405.21485	1540.8125
409.36047	1555.4125
413.50311	1545.1125
417.64277	1544.1125
421.77947	1549.3125
425.9132	1549.5125
430.04396	1571.6125
434.17176	1573.8125
438.2966	1593.1125
442.41849	1605.7125
446.53742	1635.8125
450.6534	1651.5125
454.76644	1661.3125
458.87653	1674.9125
462.98368	1681.1125
467.08789	1685.0125
471.18916	1675.7125
475.2875	1663.9125
479.38291	1665.4125
483.4754	1658.7125
487.56496	1666.4125
491.6516	1673.1125
495.73531	1671.9125
499.81612	1669.8125
503.89401	1685.9125
507.96899	1678.4125
512.04106	1667.0125
516.11023	1661.7125
520.1765	1646.9125
524.23987	1644.7125
528.30034	1630.1125
532.35792	1620.8125
536.41261	1616.0125
540.46441	1610.4125
544.51333	1604.6125
548.55936	1603.3125
552.60252	1616.2125
556.64279	1609.3125
560.6802	1622.3125
564.71473	1623.4125
568.7464	1629.0125
572.7752	1646.7125
576.80114	1638.8125
580.82422	1630.3125
584.84444	1619.9125
588.86181	1601.5125
592.87633	1609.8125
596.888	1612.0125
600.89682	1621.4125
604.9028	1639.6125
608.90594	1713.1125
612.90624	1805.0125
616.90371	1838.0125
620.89834	1742.5125
624.89015	1693.2125
628.87913	1686.0125
632.86528	1701.5125
636.84862	1725.3125
640.82913	1755.2125
644.80683	1783.1125
648.78172	1815.6125
652.75379	1832.7125
656.72306	1795.8125
660.68952	1768.7125
664.65319	1760.9125
668.61405	1777.3125
672.57211	1828.6125
676.52738	1922.0125
680.47986	2022.5125
684.42955	2092.7125
688.37646	2085.8125
692.32058	2020.1125
696.26192	1947.9125
700.20048	1904.3125
704.13626	1871.0125
708.06928	1855.1125
711.99952	1832.1125
715.927	1821.5125
719.85171	1803.9125
723.77365	1808.4125
727.69284	1816.7125
731.60928	1828.1125
735.52295	1827.8125
739.43388	1810.3125
743.34206	1774.2125
747.24749	1769.3125
751.15017	1774.6125
755.05012	1771.4125
758.94733	1781.7125
762.8418	1799.1125
766.73354	1815.9125
770.62254	1832.9125
774.50882	1855.6125
778.39237	1829.7125
782.27321	1799.0125
786.15132	1751.2125
790.02671	1732.8125
793.89938	1730.4125
797.76935	1742.4125
801.6366	1744.2125
805.50115	1759.3125
809.36299	1760.1125
813.22213	1743.6125
817.07857	1728.2125
820.93231	1735.2125
824.78336	1726.5125
828.63172	1721.6125
832.47738	1708.9125
836.32036	1709.0125
840.16066	1692.3125
843.99827	1685.8125
847.8332	1692.2125
851.66546	1681.9125
855.49504	1665.7125
859.32195	1666.7125
863.1462	1685.1125
866.96777	1697.5125
870.78668	1707.5125
874.60293	1718.1125
878.41652	1718.1125
882.22745	1708.8125
886.03573	1715.7125
889.84136	1730.1125
893.64433	1742.3125
897.44466	1736.7125
901.24235	1749.5125
905.0374	1741.0125
908.8298	1768.7125
912.61957	1787.6125
916.40671	1834.1125
920.19121	1916.7125
923.97308	1977.2125
927.75233	2046.2125
931.52895	2081.4125
935.30295	2080.7125
939.07433	2046.0125
942.84309	2000.3125
946.60924	1952.9125
950.37278	1921.4125
954.13371	1878.9125
957.89203	1853.4125
961.64774	1834.6125
965.40086	1805.7125
969.15137	1794.0125
972.89929	1768.7125
976.64461	1758.3125
980.38733	1746.1125
984.12747	1717.7125
987.86502	1706.4125
991.59999	1701.9125
995.33237	1698.7125
999.06217	1698.9125
1002.78939	1703.9125
1006.51404	1707.5125
1010.23611	1722.3125
1013.95561	1733.6125
1017.67255	1746.5125
1021.38692	1747.6125
1025.09872	1756.1125
1028.80796	1753.8125
1032.51465	1765.9125
1036.21877	1767.6125
1039.92035	1781.8125
1043.61937	1773.9125
1047.31584	1771.1125
1051.00976	1766.5125
1054.70114	1759.7125
1058.38998	1745.8125
1062.07627	1734.4125
1065.76003	1718.4125
1069.44126	1686.2125
1073.11995	1675.5125
1076.79611	1642.2125
1080.46974	1641.3125
1084.14085	1616.6125
1087.80943	1602.5125
1091.47549	1587.2125
1095.13903	1581.7125
1098.80005	1575.1125
1102.45857	1560.8125
1106.11456	1549.6125
1109.76805	1551.3125
1113.41903	1562.6125
1117.06751	1571.4125
1120.71348	1587.7125
1124.35696	1601.9125
1127.99793	1630.6125
1131.63641	1646.8125
1135.2724	1652.2125
1138.90589	1656.1125
1142.5369	1641.7125
1146.16542	1662.7125
1149.79145	1640.5125
1153.415	1626.7125
1157.03607	1625.7125
1160.65467	1619.3125
1164.27079	1620.1125
1167.88443	1629.2125
1171.49561	1642.7125
1175.10432	1671.6125
1178.71056	1705.4125
1182.31434	1735.0125
1185.91565	1746.5125
1189.51451	1743.8125
1193.11091	1726.0125
1196.70485	1703.1125
1200.29634	1681.4125
1203.88538	1678.7125
1207.47197	1653.2125
1211.05612	1654.4125
1214.63782	1635.6125
1218.21708	1646.4125
1221.79391	1653.3125
1225.36829	1661.3125
1228.94024	1685.7125
1232.50976	1688.6125
1236.07685	1697.7125
1239.6415	1707.7125
1243.20374	1723.4125
1246.76355	1736.0125
1250.32093	1748.6125
1253.8759	1766.3125
1257.42845	1780.5125
1260.97859	1811.2125
1264.52631	1826.2125
1268.07163	1836.3125
1271.61453	1858.4125
1275.15503	1869.0125
1278.69312	1900.5125
1282.22882	1911.5125
1285.76211	1941.8125
1289.29301	1970.8125
1292.82151	2012.6125
1296.34761	2052.5125
1299.87133	2089.2125
1303.39266	2129.8125
1306.9116	2182.5125
1310.42815	2220.9125
1313.94233	2243.6125
1317.45412	2245.1125
1320.96354	2210.2125
1324.47058	2165.9125
1327.97525	2141.8125
1331.47754	2115.7125
1334.97747	2136.4125
1338.47502	2157.2125
1341.97022	2201.0125
1345.46305	2257.3125
1348.95352	2313.0125
1352.44163	2384.2125
1355.92738	2478.1125
1359.41078	2571.9125
1362.89183	2655.5125
1366.37053	2690.6125
1369.84688	2627.2125
1373.32088	2540.0125
1376.79254	2460.6125
1380.26186	2401.5125
1383.72883	2373.6125
1387.19347	2352.1125
1390.65578	2330.0125
1394.11575	2305.1125
1397.57339	2295.7125
1401.0287	2287.8125
1404.48168	2289.3125
1407.93234	2300.3125
1411.38068	2324.4125
1414.82669	2358.7125
1418.27039	2410.3125
1421.71177	2429.4125
1425.15083	2421.3125
1428.58758	2377.3125
1432.02203	2331.6125
1435.45416	2269.4125
1438.88399	2228.5125
1442.31151	2204.4125
1445.73673	2201.9125
1449.15965	2200.0125
1452.58027	2200.0125
1455.9986	2198.9125
1459.41463	2186.8125
1462.82837	2195.3125
1466.23982	2193.9125
1469.64898	2203.4125
1473.05586	2207.0125
1476.46045	2182.5125
1479.86276	2165.8125
1483.26279	2165.8125
1486.66054	2147.4125
1490.05602	2146.5125
1493.44922	2116.9125
1496.84016	2120.0125
1500.22882	2128.9125
1503.61521	2160.5125
1506.99934	2189.9125
1510.38121	2224.8125
1513.76081	2246.2125
1517.13816	2194.2125
1520.51324	2127.4125
1523.88607	2060.6125
1527.25665	2007.3125
1530.62498	1985.3125
1533.99105	1974.2125
1537.35488	1951.3125
1540.71647	1947.7125
1544.07581	1947.6125
1547.4329	1953.7125
1550.78776	1951.6125
1554.14038	1954.9125
1557.49077	1944.0125
1560.83892	1943.9125
1564.18484	1931.4125
1567.52853	1930.6125
1570.86999	1910.1125
1574.20922	1895.0125
1577.54624	1881.6125
1580.88103	1845.7125
1584.2136	1794.9125
1587.54395	1758.9125
1590.87208	1735.3125
1594.19801	1727.2125
1597.52172	1726.2125
1600.84321	1711.6125
1604.16251	1701.8125
1607.47959	1689.6125
1610.79447	1669.0125
1614.10715	1660.5125
1617.41763	1654.1125
1620.7259	1637.7125
1624.03199	1639.2125
1627.33587	1632.0125
1630.63757	1635.8125
1633.93707	1633.9125
1637.23439	1622.9125
1640.52951	1621.4125
1643.82246	1634.4125
1647.11321	1647.8125
1650.40179	1652.7125
1653.68819	1644.1125
1656.97241	1589.7125
1660.25446	1531.9125
1663.53433	1475.7125
1666.81203	1421.9125
1670.08756	1385.9125
1673.36092	1359.2125
1676.63211	1332.4125
1679.90115	1302.8125
1683.16801	1288.4125
1686.43272	1249.1125
1689.69527	1231.0125
1692.95567	1211.9125
1696.2139	1199.1125
1699.46999	1176.9125
1702.72392	1159.8125
1705.97571	1149.9125
1709.22535	1141.7125
1712.47284	1132.1125
1715.71819	1122.7125
1718.96139	1122.0125
1722.20246	1118.6125
1725.44139	1105.6125
1728.67818	1113.2125
1731.91284	1119.9125
1735.14537	1110.6125
1738.37576	1105.9125
1741.60403	1101.6125
1744.83017	1117.6125
1748.05418	1120.7125
1751.27607	1140.0125
1754.49584	1157.0125
1757.71349	1167.9125
1760.92903	1153.9125
1764.14244	1130.1125
1767.35375	1105.6125
1770.56294	1072.3125
1773.77002	1047.0125
1776.97499	1035.4125
1780.17785	1028.6125
1783.37861	1012.3125
1786.57727	1002.9125
1789.77382	1002.4125
1792.96828	986.1125
1796.16064	973.7125
1799.3509	963.4125
1802.53907	965.5125
1805.72514	955.9125
1808.90913	952.7125
1812.09102	939.0125
1815.27083	943.2125
1818.44856	935.0125
1821.6242	937.4125
1824.79776	931.9125
1827.96924	928.0125
1831.13864	923.2125
1834.30597	926.6125
1837.47122	921.0125
1840.6344	925.2125
1843.7955	921.4125
1846.95454	916.4125
1850.11151	913.3125
1853.26642	910.9125
1856.41926	911.6125
1859.57004	903.9125
1862.71876	903.7125
1865.86542	907.6125
1869.01003	900.1125
1872.15258	910.6125
1875.29308	899.5125
1878.43152	893.8125
1881.56792	891.7125
1884.70227	890.0125
1887.83457	899.7125
1890.96482	885.3125
1894.09304	889.3125
1897.21921	896.9125
1900.34335	890.0125
1903.46544	887.2125
1906.58551	880.1125
1909.70353	884.8125
1912.81953	886.6125
1915.93349	885.4125
1919.04543	881.0125
1922.15534	873.2125
1925.26322	878.9125
1928.36908	874.6125
1931.47292	871.7125
1934.57473	872.3125
1937.67453	867.1125
1940.77232	862.0125
1943.86808	858.7125
1946.96184	859.5125
1950.05358	858.0125
1953.14331	853.0125
1956.23103	851.6125
1959.31675	844.3125
1962.40046	848.4125
1965.48217	839.7125
1968.56188	842.0125
1971.63959	836.2125
1974.7153	829.1125
1977.78901	827.6125
1980.86073	825.5125
1983.93046	827.4125
1986.99819	827.4125
1990.06394	813.0125
1993.1277	818.3125
1996.18947	810.5125
1999.24925	815.9125
2002.30706	805.7125
2005.36288	803.5125
2008.41672	802.6125
2011.46859	801.9125
2014.51848	797.7125
2017.56639	797.2125
2020.61233	788.7125
2023.6563	785.0125
2026.6983	792.0125
2029.73833	793.7125
2032.7764	791.0125
2035.8125	778.1125
2038.84664	779.1125
2041.87881	781.6125
2044.90903	782.9125
2047.93729	775.6125
2050.96359	780.3125
2053.98794	780.3125
2057.01034	776.2125
2060.03078	771.0125
2063.04927	783.5125
2066.06582	784.1125
2069.08042	785.7125
2072.09307	793.9125
2075.10378	789.8125
2078.11255	799.1125
2081.11938	809.2125
2084.12426	806.0125
2087.12722	810.4125
2090.12824	816.6125
2093.12732	817.2125
2096.12447	827.6125
2099.11969	827.9125
2102.11299	843.1125
2105.10435	839.1125
2108.09379	836.1125
2111.08131	839.2125
2114.0669	842.8125
2117.05057	833.4125
2120.03233	820.5125
2123.01216	813.2125
2125.99008	803.9125
2128.96609	798.8125
2131.94018	793.4125
2134.91236	789.4125
2137.88263	786.4125
2140.851	787.9125
2143.81746	781.8125
2146.78201	775.9125
2149.74466	780.6125
2152.7054	776.9125
2155.66425	764.9125
2158.6212	765.1125
2161.57625	765.0125
2164.52941	764.0125
2167.48067	765.3125
2170.43004	756.9125
2173.37752	749.5125
2176.32311	755.7125
2179.26681	750.5125
2182.20863	745.7125
2185.14856	751.9125
2188.08661	748.0125
2191.02278	749.3125
2193.95707	745.1125
2196.88948	740.8125
2199.82001	743.1125
2202.74867	736.3125
2205.67545	741.6125
2208.60037	736.2125
2211.52341	737.0125
2214.44458	733.9125
2217.36388	731.4125
2220.28132	738.3125
2223.1969	724.3125
2226.11061	731.0125
2229.02246	729.0125
2231.93245	719.5125
2234.84058	716.6125
2237.74686	720.2125
2240.65128	713.6125
2243.55385	716.8125
2246.45456	712.6125
2249.35343	708.6125
2252.25044	712.8125
2255.14561	713.6125
2258.03893	704.0125
2260.93041	700.9125
2263.82004	705.9125
2266.70783	698.6125
2269.59378	704.3125
2272.4779	700.4125
2275.36017	695.3125
2278.24061	699.0125
2281.11922	697.5125
2283.996	691.9125
2286.87094	684.4125
2289.74405	689.2125
2292.61534	691.5125
2295.4848	684.0125
2298.35243	686.4125
2301.21824	684.9125
2304.08223	688.6125
2306.94439	684.7125
2309.80474	681.7125
2312.66327	682.3125
2315.51999	677.0125
2318.37489	673.2125
2321.22797	671.4125
2324.07925	672.6125
2326.92871	671.3125
2329.77637	675.0125
2332.62222	676.7125
2335.46626	669.6125
2338.3085	666.5125
2341.14893	663.9125
2343.98756	664.9125
2346.8244	668.4125
2349.65943	660.8125
2352.49267	655.7125
2355.32411	658.6125
2358.15376	666.2125
2360.98161	662.9125
2363.80768	654.5125
2366.63195	660.4125
2369.45444	653.6125
2372.27514	658.5125
2375.09405	653.4125
2377.91118	652.6125
2380.72652	646.1125
2383.54009	647.8125
2386.35187	648.2125
2389.16188	645.7125
2391.97011	642.4125
2394.77657	641.2125
2397.58125	643.6125
2400.38416	640.3125
2403.18529	640.9125
2405.98466	645.4125
2408.78226	634.2125
2411.57809	633.5125
2414.37216	638.3125
2417.16446	633.1125
2419.955	628.8125
2422.74378	632.0125
2425.5308	632.4125
2428.31606	631.4125
2431.09956	631.1125
2433.88131	624.6125
2436.6613	631.9125
2439.43954	622.1125
2442.21603	624.3125
2444.99077	623.4125
2447.76377	630.6125
2450.53501	621.3125
2453.30451	619.9125
2456.07226	616.8125
2458.83827	621.1125
2461.60254	609.0125
2464.36507	613.4125
2467.12586	615.1125
2469.88492	618.0125
2472.64224	610.9125
2475.39782	612.8125
2478.15167	609.7125
2480.90379	611.4125
2483.65417	612.6125
2486.40283	608.6125
2489.14976	604.6125
2491.89497	610.3125
2494.63845	605.9125
2497.3802	609.8125
2500.12024	613.5125
2502.85855	602.7125
2505.59514	608.8125
2508.33002	604.9125
2511.06318	598.2125
2513.79462	601.2125
2516.52435	600.2125
2519.25237	597.0125
2521.97867	598.8125
2524.70327	599.3125
2527.42616	597.8125
2530.14734	590.0125
2532.86681	591.9125
2535.58458	594.4125
2538.30065	596.9125
2541.01501	589.1125
2543.72768	588.1125
2546.43864	589.7125
2549.14791	588.9125
2551.85548	583.7125
2554.56136	585.8125
2557.26554	584.2125
2559.96803	585.0125
2562.66883	584.7125
2565.36794	580.6125
2568.06536	578.8125
2570.7611	580.2125
2573.45514	582.3125
2576.14751	572.2125
2578.83819	578.2125
2581.52719	574.1125
2584.21451	569.6125
2586.90015	572.1125
2589.58411	574.1125
2592.2664	572.3125
2594.94701	570.2125
2597.62594	569.2125
2600.30321	566.7125
2602.9788	558.1125
2605.65273	564.9125
2608.32498	562.3125
2610.99557	562.1125
2613.66449	562.4125
2616.33175	554.3125
2618.99734	563.0125
2621.66128	559.1125
2624.32355	558.2125
2626.98416	560.0125
2629.64311	554.2125
2632.30041	551.7125
2634.95605	557.9125
2637.61004	552.4125
2640.26238	553.8125
2642.91306	555.6125
2645.56209	555.6125
2648.20948	555.5125
2650.85521	544.5125
2653.4993	556.8125
2656.14175	553.4125
2658.78255	549.8125
2661.42171	557.1125
2664.05923	556.3125
2666.6951	552.3125
2669.32934	553.3125
2671.96194	560.3125
2674.59291	559.4125
2677.22224	560.0125
2679.84993	561.6125
2682.476	557.8125
2685.10043	553.5125
2687.72324	558.8125
2690.34441	555.4125
2692.96396	559.3125
2695.58188	555.4125
2698.19818	558.0125
2700.81285	558.6125
2703.4259	560.3125
2706.03733	549.1125
2708.64714	556.3125
2711.25533	557.8125
2713.86191	554.6125
2716.46687	559.3125
2719.07021	566.7125
2721.67194	558.7125
2724.27206	563.7125
2726.87057	558.3125
2729.46747	562.1125
2732.06276	565.2125
2734.65644	557.8125
2737.24852	561.7125
2739.83899	559.1125
2742.42786	557.9125
2745.01513	557.1125
2747.60079	557.2125
2750.18486	554.2125
2752.76733	555.8125
2755.3482	556.5125
2757.92747	556.6125
2760.50515	553.9125
2763.08123	551.3125
2765.65573	547.9125
2768.22863	556.4125
2770.79994	553.2125
2773.36967	554.8125
2775.9378	556.4125
2778.50435	550.3125
2781.06932	549.1125
2783.6327	552.4125
2786.1945	555.4125
2788.75471	551.7125
2791.31335	547.5125
2793.87041	550.6125
2796.42589	550.5125
2798.97979	551.9125
2801.53212	550.6125
2804.08288	565.4125
2806.63206	557.5125
2809.17967	565.5125
2811.72571	568.2125
2814.27018	566.5125
2816.81308	555.7125
2819.35442	561.9125
2821.89419	562.7125
2824.43239	568.2125
2826.96904	564.8125
2829.50412	563.9125
2832.03763	561.2125
2834.56959	565.3125
2837.1	560.1125
2839.62884	560.1125
2842.15613	569.0125
2844.68186	562.4125
2847.20604	568.0125
2849.72867	572.3125
2852.24974	575.2125
2854.76927	575.9125
2857.28724	572.1125
2859.80367	572.7125
2862.31855	572.9125
2864.83189	580.5125
2867.34368	583.4125
2869.85393	585.3125
2872.36264	590.0125
2874.8698	587.0125
2877.37543	601.7125
2879.87952	606.5125
2882.38207	609.6125
2884.88308	612.9125
2887.38256	618.3125
2889.88051	627.2125
2892.37692	640.6125
2894.8718	640.0125
2897.36515	653.9125
2899.85698	662.4125
2902.34727	671.4125
2904.83604	677.2125
2907.32328	689.6125
2909.809	694.4125
2912.29319	714.9125
2914.77587	724.9125
2917.25702	735.8125
2919.73665	743.5125
2922.21476	761.9125
2924.69136	766.6125
2927.16644	775.8125
2929.64	786.0125
2932.11205	794.2125
2934.58258	795.3125
2937.05161	812.0125
2939.51912	810.2125
2941.98513	812.8125
2944.44962	804.9125
2946.91261	806.7125
2949.37409	795.7125
2951.83407	782.5125
2954.29254	782.0125
2956.74951	764.4125
2959.20498	749.3125
2961.65895	724.8125
2964.11142	714.6125
2966.56239	701.2125
2969.01186	689.8125
2971.45984	685.3125
2973.90632	663.7125
2976.35131	658.3125
2978.7948	647.9125
2981.23681	642.6125
2983.67732	628.6125
2986.11635	639.0125
2988.55388	625.2125
2990.98993	619.2125
2993.4245	622.2125
2995.85758	619.7125
2998.28917	609.4125
3000.71928	614.5125
3003.14791	609.0125
3005.57506	620.1125
3008.00073	612.4125
3010.42493	609.1125
3012.84764	612.2125
3015.26888	607.1125
3017.68865	609.0125
3020.10694	607.2125
3022.52376	599.3125
3024.9391	599.1125
3027.35298	593.2125
3029.76539	585.8125
3032.17632	590.6125
3034.5858	588.9125
3036.9938	584.2125
3039.40034	574.0125
3041.80542	571.0125
3044.20903	572.2125
3046.61118	570.2125
3049.01187	567.9125
3051.4111	566.8125
3053.80888	574.5125
3056.20519	568.7125
3058.60005	570.3125
3060.99345	564.4125
3063.3854	564.0125
3065.7759	565.2125
3068.16494	566.0125
3070.55254	564.5125
3072.93868	563.1125
3075.32338	567.0125
3077.70662	565.9125
3080.08842	571.8125
3082.46878	572.5125
3084.84769	577.4125
3087.22515	581.4125
3089.60118	583.9125
3091.97576	588.8125
3094.3489	588.4125
3096.72061	586.3125
3099.09087	591.6125
3101.4597	593.6125
3103.82709	602.2125
3106.19305	598.1125
3108.55757	602.9125
3110.92066	607.6125
3113.28232	612.7125
3115.64255	613.9125
3118.00134	617.8125
3120.35871	617.7125
3122.71466	619.9125
3125.06917	627.6125
3127.42226	628.5125
3129.77393	629.4125
3132.12417	637.5125
3134.47299	646.1125
3136.82039	647.3125
3139.16636	651.6125
3141.51092	652.9125
3143.85406	661.7125
3146.19579	665.4125
3148.53609	669.6125
3150.87499	667.6125
3153.21246	678.6125
3155.54853	679.6125
3157.88318	685.9125
3160.21642	692.8125
3162.54826	693.7125
3164.87868	694.3125
3167.2077	702.7125
3169.5353	703.7125
3171.86151	706.1125
3174.18631	718.9125
3176.5097	720.6125
3178.83169	718.4125
3181.15228	726.2125
3183.47147	725.9125
3185.78926	728.6125
3188.10565	741.5125
3190.42065	733.6125
3192.73424	737.3125
3195.04645	740.5125
3197.35725	747.4125
3199.66667	758.6125
3201.97469	756.8125
3204.28132	758.3125
3206.58656	761.0125
3208.8904	765.2125
3211.19287	772.5125
3213.49394	769.3125
3215.79363	771.1125
3218.09193	774.3125
3220.38884	778.4125
3222.68438	776.9125
3224.97853	775.2125
3227.2713	779.7125
3229.56269	780.1125
3231.8527	787.2125
3234.14133	781.2125
3236.42858	783.1125
3238.71446	785.4125
3240.99896	786.7125
3243.28209	787.8125
3245.56384	795.6125
3247.84423	790.9125
3250.12324	787.2125
3252.40088	797.9125
3254.67715	791.9125
3256.95205	792.9125
3259.22558	804.2125
3261.49775	796.6125
3263.76855	798.8125
3266.03799	800.9125
3268.30606	803.7125
3270.57277	798.3125
3272.83812	789.1125
3275.10211	796.6125
3277.36474	790.0125
3279.62601	789.1125
3281.88593	791.1125
3284.14448	793.6125
3286.40168	792.4125
3288.65753	794.8125
3290.91202	795.4125
3293.16516	795.0125
3295.41695	791.6125
3297.66738	784.9125
3299.91647	790.8125
3302.16421	779.7125
3304.4106	781.3125
3306.65564	781.4125
3308.89933	774.2125
3311.14169	763.2125
3313.38269	765.8125
3315.62236	760.6125
3317.86068	756.7125
3320.09766	750.3125
3322.3333	753.7125
3324.5676	749.4125
3326.80056	736.5125
3329.03219	735.7125
3331.26248	1.3125
3333.49143	-0.0875
3335.71905	-0.1875
