Data from AgNPs_FTO_APTES_UA_1um_CRN_0.1mM_R6G_10uM_NaF_0.1M_Addition_RamanShift__7__11-42-18-993.txt Node

Date: Tue Dec 21 11:42:18 GMT 2021
User: TCL
Spectrometer: QEP01345
Trigger mode: 4
Integration Time (sec): 7.000000E0
Scans to average: 10
Electric dark correction enabled: true
Nonlinearity correction enabled: false
Boxcar width: 0
XAxis mode: Raman Shifts
Number of Pixels in Spectrum: 1044
>>>>>Begin Spectral Data<<<<<
46.04893	0.35
50.45542	-0.25
54.85868	-0.95
59.25871	0.55
63.6555	39.15
68.04907	43.25
72.43941	43.95
76.82654	47.05
81.21044	52.15
85.59113	53.75
89.96862	58.75
94.34289	53.35
98.71396	55.75
103.08183	61.25
107.4465	62.45
111.80798	63.45
116.16626	63.45
120.52136	65.75
124.87327	64.95
129.222	67.35
133.56755	72.65
137.90993	80.75
142.24913	81.75
146.58517	93.95
150.91804	110.55
155.24774	127.25
159.57429	155.15
163.89768	198.15
168.21792	250.85
172.53501	333.75
176.84895	464.55
181.15975	653.65
185.46741	914.85
189.77193	1255.75
194.07331	1690.85
198.37157	2180.65
202.6667	2697.45
206.9587	3218.75
211.24758	3752.25
215.53334	4282.05
219.81599	4846.85
224.09553	5455.25
228.37195	6144.25
232.64527	6909.45
236.91549	7667.95
241.18261	8405.45
245.44663	9058.95
249.70755	9562.75
253.96539	9990.65
258.22014	10352.55
262.4718	10573.45
266.72039	10732.05
270.96589	10770.55
275.20832	10673.15
279.44768	10511.35
283.68397	10317.15
287.91719	10171.85
292.14735	10104.95
296.37445	10097.55
300.59849	10161.75
304.81948	10309.85
309.03742	10442.75
313.25231	10524.85
317.46415	10390.95
321.67296	10178.85
325.87872	9946.05
330.08145	9762.85
334.28114	9685.05
338.47781	9697.35
342.67145	9803.15
346.86207	9990.85
351.04966	10198.65
355.23424	10406.45
359.4158	10548.35
363.59435	10619.65
367.76989	10633.45
371.94243	10589.65
376.11196	10541.05
380.27849	10523.95
384.44203	10581.05
388.60257	10683.15
392.76012	10793.15
396.91468	10967.65
401.06626	11169.05
405.21485	11335.25
409.36047	11260.95
413.50311	11066.85
417.64277	10948.65
421.77947	11003.75
425.9132	11023.95
430.04396	11116.15
434.17176	11180.15
438.2966	11231.75
442.41849	11474.65
446.53742	11942.15
450.6534	12372.05
454.76644	12560.85
458.87653	12424.45
462.98368	12128.05
467.08789	11818.35
471.18916	11521.45
475.2875	11171.55
479.38291	10907.75
483.4754	10770.95
487.56496	10672.35
491.6516	10582.75
495.73531	10475.45
499.81612	10419.85
503.89401	10505.65
507.96899	10538.15
512.04106	10447.75
516.11023	10310.15
520.1765	10200.85
524.23987	10146.05
528.30034	10159.35
532.35792	10125.95
536.41261	9921.65
540.46441	9649.55
544.51333	9563.05
548.55936	9625.65
552.60252	9920.65
556.64279	10327.35
560.6802	10651.95
564.71473	10738.35
568.7464	10836.95
572.7752	11219.05
576.80114	11642.25
580.82422	12231.65
584.84444	13159.85
588.86181	14507.45
592.87633	15998.55
596.888	16388.05
600.89682	15020.95
604.9028	13685.85
608.90594	14074.55
612.90624	15217.35
616.90371	14234.25
620.89834	11323.45
624.89015	9881.15
628.87913	9704.25
632.86528	9851.45
636.84862	9899.15
640.82913	9700.65
644.80683	9310.15
648.78172	9157.55
652.75379	9151.15
656.72306	9288.65
660.68952	9421.35
664.65319	9363.95
668.61405	9137.15
672.57211	9064.55
676.52738	9213.75
680.47986	9289.75
684.42955	9164.45
688.37646	9022.15
692.32058	8972.35
696.26192	9060.75
700.20048	9230.85
704.13626	9362.65
708.06928	9407.35
711.99952	9395.25
715.927	9423.85
719.85171	9441.55
723.77365	9384.25
727.69284	9173.95
731.60928	9028.55
735.52295	8999.35
739.43388	9016.85
743.34206	9096.95
747.24749	9165.25
751.15017	9318.25
755.05012	9533.95
758.94733	9898.85
762.8418	10599.75
766.73354	11735.15
770.62254	12784.65
774.50882	12908.85
778.39237	12121.35
782.27321	11055.75
786.15132	10086.05
790.02671	9432.05
793.89938	9103.25
797.76935	8975.25
801.6366	8926.05
805.50115	8868.35
809.36299	8787.65
813.22213	8673.65
817.07857	8581.95
820.93231	8498.25
824.78336	8436.95
828.63172	8381.25
832.47738	8344.65
836.32036	8374.45
840.16066	8354.25
843.99827	8345.05
847.8332	8306.05
851.66546	8309.95
855.49504	8328.05
859.32195	8291.75
863.1462	8293.95
866.96777	8225.15
870.78668	8199.05
874.60293	8220.75
878.41652	8244.35
882.22745	8288.55
886.03573	8335.45
889.84136	8323.35
893.64433	8304.85
897.44466	8290.85
901.24235	8274.85
905.0374	8209.95
908.8298	8168.75
912.61957	8157.55
916.40671	8186.45
920.19121	8326.55
923.97308	8538.05
927.75233	8671.25
931.52895	8639.15
935.30295	8413.05
939.07433	8140.85
942.84309	7900.45
946.60924	7785.95
950.37278	7723.95
954.13371	7734.05
957.89203	7737.45
961.64774	7719.35
965.40086	7727.25
969.15137	7701.95
972.89929	7652.85
976.64461	7578.95
980.38733	7532.55
984.12747	7528.75
987.86502	7570.55
991.59999	7629.95
995.33237	7719.45
999.06217	7913.45
1002.78939	8151.75
1006.51404	8438.15
1010.23611	8682.35
1013.95561	8906.65
1017.67255	8999.35
1021.38692	8881.55
1025.09872	8607.55
1028.80796	8319.35
1032.51465	8256.05
1036.21877	8264.85
1039.92035	8321.35
1043.61937	8381.15
1047.31584	8400.35
1051.00976	8386.65
1054.70114	8402.15
1058.38998	8396.15
1062.07627	8439.85
1065.76003	8492.35
1069.44126	8676.95
1073.11995	8908.75
1076.79611	9099.95
1080.46974	9208.25
1084.14085	9318.35
1087.80943	9481.25
1091.47549	9611.75
1095.13903	9627.15
1098.80005	9383.35
1102.45857	8958.95
1106.11456	8717.45
1109.76805	8581.95
1113.41903	8611.65
1117.06751	8724.95
1120.71348	8917.75
1124.35696	9150.65
1127.99793	9378.75
1131.63641	9509.45
1135.2724	9448.15
1138.90589	9332.05
1142.5369	9346.15
1146.16542	9402.75
1149.79145	9522.65
1153.415	9600.25
1157.03607	9765.65
1160.65467	10145.75
1164.27079	10863.55
1167.88443	11765.35
1171.49561	12856.25
1175.10432	14230.25
1178.71056	15939.35
1182.31434	17348.75
1185.91565	17796.55
1189.51451	17209.05
1193.11091	16221.65
1196.70485	15180.25
1200.29634	14201.15
1203.88538	13439.25
1207.47197	12922.25
1211.05612	12564.05
1214.63782	12254.85
1218.21708	11953.55
1221.79391	11817.75
1225.36829	11866.15
1228.94024	11960.95
1232.50976	11802.15
1236.07685	11422.15
1239.6415	11108.05
1243.20374	10965.55
1246.76355	10911.15
1250.32093	11033.95
1253.8759	11312.95
1257.42845	11754.25
1260.97859	12272.15
1264.52631	12774.95
1268.07163	13272.45
1271.61453	13696.05
1275.15503	14141.55
1278.69312	14667.05
1282.22882	15335.15
1285.76211	16249.85
1289.29301	17335.75
1292.82151	18412.85
1296.34761	19597.25
1299.87133	21011.95
1303.39266	22550.05
1306.9116	24147.15
1310.42815	25667.75
1313.94233	26649.25
1317.45412	26504.75
1320.96354	25331.05
1324.47058	24001.85
1327.97525	22964.15
1331.47754	22199.05
1334.97747	21563.95
1338.47502	20962.95
1341.97022	20316.15
1345.46305	19811.05
1348.95352	19781.45
1352.44163	20436.85
1355.92738	21913.25
1359.41078	24029.45
1362.89183	25867.15
1366.37053	26164.35
1369.84688	24046.45
1373.32088	20460.85
1376.79254	17693.55
1380.26186	16526.95
1383.72883	16235.05
1387.19347	15894.15
1390.65578	15450.25
1394.11575	15295.95
1397.57339	15585.25
1401.0287	15994.75
1404.48168	16288.15
1407.93234	16253.35
1411.38068	15908.05
1414.82669	15469.25
1418.27039	14866.15
1421.71177	14268.85
1425.15083	13677.15
1428.58758	13365.95
1432.02203	13486.35
1435.45416	13973.55
1438.88399	14401.05
1442.31151	14627.45
1445.73673	14779.85
1449.15965	14896.65
1452.58027	14846.95
1455.9986	14618.55
1459.41463	14545.15
1462.82837	14746.55
1466.23982	15187.75
1469.64898	15676.65
1473.05586	16023.05
1476.46045	16182.05
1479.86276	16283.65
1483.26279	16341.15
1486.66054	16522.05
1490.05602	16846.75
1493.44922	17333.25
1496.84016	17700.25
1500.22882	18204.85
1503.61521	18874.95
1506.99934	19548.35
1510.38121	20170.25
1513.76081	20167.15
1517.13816	19442.55
1520.51324	18289.05
1523.88607	17362.75
1527.25665	16875.95
1530.62498	16695.35
1533.99105	16497.75
1537.35488	16084.45
1540.71647	15536.35
1544.07581	14893.95
1547.4329	14213.25
1550.78776	13702.95
1554.14038	13264.85
1557.49077	13057.55
1560.83892	12996.35
1564.18484	13075.45
1567.52853	13299.35
1570.86999	13581.05
1574.20922	13916.05
1577.54624	14157.15
1580.88103	14083.85
1584.2136	13941.45
1587.54395	14258.75
1590.87208	15127.35
1594.19801	16519.75
1597.52172	17996.05
1600.84321	18697.25
1604.16251	17966.25
1607.47959	16183.55
1610.79447	14145.35
1614.10715	12334.15
1617.41763	11049.85
1620.7259	10211.65
1624.03199	9866.15
1627.33587	9899.35
1630.63757	10290.35
1633.93707	11215.05
1637.23439	12891.35
1640.52951	15615.85
1643.82246	19155.85
1647.11321	22394.15
1650.40179	23451.95
1653.68819	21414.95
1656.97241	17631.95
1660.25446	13946.35
1663.53433	11337.35
1666.81203	9744.55
1670.08756	8835.45
1673.36092	8269.85
1676.63211	7937.05
1679.90115	7669.85
1683.16801	7504.15
1686.43272	7378.85
1689.69527	7286.45
1692.95567	7203.05
1696.2139	7164.75
1699.46999	7118.85
1702.72392	7087.05
1705.97571	7050.05
1709.22535	7002.35
1712.47284	6981.55
1715.71819	6965.05
1718.96139	6936.45
1722.20246	6901.15
1725.44139	6854.75
1728.67818	6817.85
1731.91284	6747.55
1735.14537	6704.15
1738.37576	6661.25
1741.60403	6628.75
1744.83017	6626.75
1748.05418	6606.65
1751.27607	6624.85
1754.49584	6663.35
1757.71349	6685.65
1760.92903	6688.95
1764.14244	6639.95
1767.35375	6614.85
1770.56294	6552.05
1773.77002	6497.65
1776.97499	6470.05
1780.17785	6424.65
1783.37861	6382.75
1786.57727	6359.35
1789.77382	6330.85
1792.96828	6311.35
1796.16064	6284.25
1799.3509	6258.95
1802.53907	6247.45
1805.72514	6203.35
1808.90913	6187.45
1812.09102	6187.65
1815.27083	6152.75
1818.44856	6150.05
1821.6242	6172.05
1824.79776	6151.85
1827.96924	6136.15
1831.13864	6141.25
1834.30597	6156.25
1837.47122	6139.85
1840.6344	6153.65
1843.7955	6149.25
1846.95454	6148.75
1850.11151	6138.65
1853.26642	6141.45
1856.41926	6137.45
1859.57004	6134.25
1862.71876	6104.25
1865.86542	6103.45
1869.01003	6099.15
1872.15258	6109.05
1875.29308	6093.55
1878.43152	6083.85
1881.56792	6071.65
1884.70227	6053.15
1887.83457	6046.45
1890.96482	6027.45
1894.09304	6017.85
1897.21921	6022.75
1900.34335	6002.55
1903.46544	6008.45
1906.58551	5988.45
1909.70353	5968.75
1912.81953	5955.65
1915.93349	5941.95
1919.04543	5918.95
1922.15534	5904.55
1925.26322	5879.55
1928.36908	5853.05
1931.47292	5833.85
1934.57473	5814.35
1937.67453	5795.95
1940.77232	5778.35
1943.86808	5752.15
1946.96184	5748.75
1950.05358	5741.15
1953.14331	5720.75
1956.23103	5708.05
1959.31675	5698.95
1962.40046	5669.35
1965.48217	5643.55
1968.56188	5624.45
1971.63959	5603.15
1974.7153	5608.55
1977.78901	5559.55
1980.86073	5544.15
1983.93046	5528.55
1986.99819	5519.05
1990.06394	5488.85
1993.1277	5469.85
1996.18947	5467.95
1999.24925	5444.85
2002.30706	5434.15
2005.36288	5416.45
2008.41672	5403.65
2011.46859	5361.65
2014.51848	5354.45
2017.56639	5327.65
2020.61233	5342.05
2023.6563	5325.45
2026.6983	5316.85
2029.73833	5315.95
2032.7764	5298.35
2035.8125	5260.35
2038.84664	5274.05
2041.87881	5276.65
2044.90903	5254.75
2047.93729	5247.75
2050.96359	5232.25
2053.98794	5241.65
2057.01034	5233.95
2060.03078	5233.85
2063.04927	5210.05
2066.06582	5225.05
2069.08042	5206.35
2072.09307	5206.75
2075.10378	5202.65
2078.11255	5200.95
2081.11938	5216.75
2084.12426	5183.35
2087.12722	5193.65
2090.12824	5196.75
2093.12732	5172.55
2096.12447	5191.15
2099.11969	5196.55
2102.11299	5192.45
2105.10435	5197.65
2108.09379	5201.05
2111.08131	5193.75
2114.0669	5187.75
2117.05057	5196.15
2120.03233	5199.55
2123.01216	5194.55
2125.99008	5205.35
2128.96609	5200.95
2131.94018	5191.95
2134.91236	5199.55
2137.88263	5204.85
2140.851	5204.75
2143.81746	5191.95
2146.78201	5183.75
2149.74466	5185.75
2152.7054	5184.35
2155.66425	5165.65
2158.6212	5184.05
2161.57625	5166.15
2164.52941	5178.75
2167.48067	5169.85
2170.43004	5166.15
2173.37752	5175.15
2176.32311	5164.95
2179.26681	5158.25
2182.20863	5160.35
2185.14856	5163.35
2188.08661	5146.75
2191.02278	5169.85
2193.95707	5147.85
2196.88948	5164.55
2199.82001	5149.75
2202.74867	5162.65
2205.67545	5142.75
2208.60037	5111.65
2211.52341	5117.45
2214.44458	5110.85
2217.36388	5081.05
2220.28132	5081.95
2223.1969	5058.25
2226.11061	5072.95
2229.02246	5063.75
2231.93245	5050.55
2234.84058	5057.55
2237.74686	5062.35
2240.65128	5050.15
2243.55385	5053.35
2246.45456	5033.25
2249.35343	5021.55
2252.25044	5008.55
2255.14561	5004.25
2258.03893	4995.05
2260.93041	4987.45
2263.82004	4956.95
2266.70783	4977.65
2269.59378	4926.45
2272.4779	4908.25
2275.36017	4904.15
2278.24061	4907.55
2281.11922	4894.65
2283.996	4873.05
2286.87094	4885.35
2289.74405	4863.35
2292.61534	4855.15
2295.4848	4847.35
2298.35243	4855.35
2301.21824	4835.05
2304.08223	4842.35
2306.94439	4839.05
2309.80474	4849.75
2312.66327	4818.65
2315.51999	4815.35
2318.37489	4825.75
2321.22797	4803.65
2324.07925	4825.35
2326.92871	4819.55
2329.77637	4815.95
2332.62222	4803.85
2335.46626	4785.85
2338.3085	4797.45
2341.14893	4791.55
2343.98756	4796.65
2346.8244	4786.95
2349.65943	4797.15
2352.49267	4798.85
2355.32411	4774.45
2358.15376	4791.95
2360.98161	4790.05
2363.80768	4797.35
2366.63195	4807.55
2369.45444	4788.05
2372.27514	4795.65
2375.09405	4774.75
2377.91118	4753.85
2380.72652	4753.25
2383.54009	4743.05
2386.35187	4728.55
2389.16188	4723.45
2391.97011	4707.75
2394.77657	4696.85
2397.58125	4692.85
2400.38416	4674.65
2403.18529	4676.25
2405.98466	4681.45
2408.78226	4652.85
2411.57809	4653.45
2414.37216	4630.95
2417.16446	4657.25
2419.955	4630.15
2422.74378	4658.95
2425.5308	4645.75
2428.31606	4636.15
2431.09956	4631.45
2433.88131	4639.85
2436.6613	4628.45
2439.43954	4616.65
2442.21603	4611.35
2444.99077	4622.55
2447.76377	4619.35
2450.53501	4638.85
2453.30451	4642.15
2456.07226	4623.25
2458.83827	4635.45
2461.60254	4635.55
2464.36507	4618.15
2467.12586	4619.65
2469.88492	4610.55
2472.64224	4625.35
2475.39782	4617.25
2478.15167	4649.35
2480.90379	4638.65
2483.65417	4628.55
2486.40283	4621.05
2489.14976	4615.25
2491.89497	4618.95
2494.63845	4646.15
2497.3802	4631.25
2500.12024	4625.05
2502.85855	4623.05
2505.59514	4622.45
2508.33002	4617.95
2511.06318	4603.05
2513.79462	4592.95
2516.52435	4589.55
2519.25237	4590.15
2521.97867	4567.35
2524.70327	4577.35
2527.42616	4565.55
2530.14734	4579.35
2532.86681	4562.25
2535.58458	4539.05
2538.30065	4531.75
2541.01501	4535.25
2543.72768	4554.15
2546.43864	4525.85
2549.14791	4522.65
2551.85548	4543.75
2554.56136	4524.15
2557.26554	4536.65
2559.96803	4520.65
2562.66883	4525.15
2565.36794	4526.85
2568.06536	4516.05
2570.7611	4516.05
2573.45514	4524.05
2576.14751	4512.35
2578.83819	4516.35
2581.52719	4502.05
2584.21451	4498.85
2586.90015	4493.35
2589.58411	4471.35
2592.2664	4496.15
2594.94701	4475.95
2597.62594	4471.35
2600.30321	4471.95
2602.9788	4476.05
2605.65273	4447.85
2608.32498	4468.55
2610.99557	4462.55
2613.66449	4456.45
2616.33175	4456.45
2618.99734	4465.35
2621.66128	4450.85
2624.32355	4448.35
2626.98416	4454.95
2629.64311	4449.25
2632.30041	4434.45
2634.95605	4444.15
2637.61004	4436.95
2640.26238	4438.35
2642.91306	4450.05
2645.56209	4448.15
2648.20948	4440.45
2650.85521	4432.75
2653.4993	4422.75
2656.14175	4423.65
2658.78255	4448.75
2661.42171	4437.85
2664.05923	4454.75
2666.6951	4469.15
2669.32934	4463.65
2671.96194	4473.75
2674.59291	4460.65
2677.22224	4475.55
2679.84993	4482.05
2682.476	4462.85
2685.10043	4463.05
2687.72324	4448.65
2690.34441	4453.05
2692.96396	4464.35
2695.58188	4463.65
2698.19818	4460.85
2700.81285	4455.35
2703.4259	4469.45
2706.03733	4532.15
2708.64714	4492.45
2711.25533	4486.85
2713.86191	4466.85
2716.46687	4483.45
2719.07021	4489.85
2721.67194	4496.35
2724.27206	4490.15
2726.87057	4480.15
2729.46747	4476.25
2732.06276	4489.35
2734.65644	4502.95
2737.24852	4492.05
2739.83899	4472.95
2742.42786	4499.35
2745.01513	4470.65
2747.60079	4474.85
2750.18486	4478.85
2752.76733	4473.35
2755.3482	4464.95
2757.92747	4467.85
2760.50515	4469.45
2763.08123	4464.75
2765.65573	4463.55
2768.22863	4459.85
2770.79994	4450.15
2773.36967	4467.75
2775.9378	4472.65
2778.50435	4450.55
2781.06932	4470.45
2783.6327	4466.95
2786.1945	4460.75
2788.75471	4466.35
2791.31335	4451.95
2793.87041	4442.75
2796.42589	4428.95
2798.97979	4434.25
2801.53212	4426.75
2804.08288	4423.95
2806.63206	4425.35
2809.17967	4416.65
2811.72571	4419.95
2814.27018	4424.95
2816.81308	4419.55
2819.35442	4415.65
2821.89419	4406.65
2824.43239	4413.75
2826.96904	4425.75
2829.50412	4416.65
2832.03763	4392.15
2834.56959	4425.35
2837.1	4427.45
2839.62884	4413.05
2842.15613	4416.05
2844.68186	4439.75
2847.20604	4447.25
2849.72867	4469.85
2852.24974	4448.35
2854.76927	4462.05
2857.28724	4467.15
2859.80367	4444.25
2862.31855	4465.65
2864.83189	4432.65
2867.34368	4448.15
2869.85393	4435.15
2872.36264	4420.95
2874.8698	4432.95
2877.37543	4419.35
2879.87952	4437.65
2882.38207	4451.25
2884.88308	4447.55
2887.38256	4441.75
2889.88051	4440.25
2892.37692	4453.25
2894.8718	4448.05
2897.36515	4460.15
2899.85698	4485.15
2902.34727	4497.85
2904.83604	4500.05
2907.32328	4504.95
2909.809	4506.45
2912.29319	4516.85
2914.77587	4520.65
2917.25702	4532.85
2919.73665	4524.75
2922.21476	4535.85
2924.69136	4536.25
2927.16644	4528.15
2929.64	4535.95
2932.11205	4547.45
2934.58258	4525.25
2937.05161	4549.45
2939.51912	4551.95
2941.98513	4543.05
2944.44962	4525.95
2946.91261	4514.95
2949.37409	4518.65
2951.83407	4519.95
2954.29254	4503.55
2956.74951	4483.35
2959.20498	4480.25
2961.65895	4459.55
2964.11142	4449.65
2966.56239	4410.35
2969.01186	4406.95
2971.45984	4375.45
2973.90632	4364.65
2976.35131	4337.85
2978.7948	4328.85
2981.23681	4328.45
2983.67732	4284.45
2986.11635	4284.45
2988.55388	4274.45
2990.98993	4247.25
2993.4245	4243.35
2995.85758	4231.65
2998.28917	4224.05
3000.71928	4216.55
3003.14791	4213.95
3005.57506	4231.65
3008.00073	4221.35
3010.42493	4208.25
3012.84764	4203.85
3015.26888	4194.95
3017.68865	4179.65
3020.10694	4161.95
3022.52376	4143.35
3024.9391	4152.25
3027.35298	4133.15
3029.76539	4139.45
3032.17632	4132.15
3034.5858	4119.95
3036.9938	4101.45
3039.40034	4102.15
3041.80542	4091.85
3044.20903	4081.65
3046.61118	4099.15
3049.01187	4065.05
3051.4111	4077.05
3053.80888	4062.75
3056.20519	4063.35
3058.60005	4049.85
3060.99345	4040.15
3063.3854	4042.15
3065.7759	4023.45
3068.16494	4015.45
3070.55254	4009.05
3072.93868	3984.45
3075.32338	3994.15
3077.70662	3974.85
3080.08842	3964.95
3082.46878	3955.75
3084.84769	3947.95
3087.22515	3955.85
3089.60118	3967.05
3091.97576	3973.55
3094.3489	3952.55
3096.72061	3971.55
3099.09087	3961.65
3101.4597	3946.55
3103.82709	3956.65
3106.19305	3944.25
3108.55757	3942.55
3110.92066	3927.15
3113.28232	3928.25
3115.64255	3915.75
3118.00134	3903.05
3120.35871	3913.45
3122.71466	3902.95
3125.06917	3897.55
3127.42226	3894.35
3129.77393	3896.65
3132.12417	3885.05
3134.47299	3894.95
3136.82039	3908.85
3139.16636	3898.45
3141.51092	3909.75
3143.85406	3915.15
3146.19579	3898.55
3148.53609	3919.95
3150.87499	3914.85
3153.21246	3906.25
3155.54853	3907.05
3157.88318	3896.65
3160.21642	3911.15
3162.54826	3915.15
3164.87868	3906.15
3167.2077	3925.15
3169.5353	3923.25
3171.86151	3914.85
3174.18631	3925.05
3176.5097	3901.35
3178.83169	3924.95
3181.15228	3919.45
3183.47147	3912.35
3185.78926	3904.05
3188.10565	3913.15
3190.42065	3907.45
3192.73424	3911.55
3195.04645	3912.75
3197.35725	3914.05
3199.66667	3907.65
3201.97469	3924.65
3204.28132	3925.15
3206.58656	3925.95
3208.8904	3931.45
3211.19287	3905.55
3213.49394	3919.05
3215.79363	3906.25
3218.09193	3919.05
3220.38884	3917.05
3222.68438	3940.05
3224.97853	3922.65
3227.2713	3920.65
3229.56269	3930.25
3231.8527	3917.35
3234.14133	3900.95
3236.42858	3917.85
3238.71446	3915.95
3240.99896	3896.45
3243.28209	3908.65
3245.56384	3902.35
3247.84423	3911.65
3250.12324	3903.05
3252.40088	3894.85
3254.67715	3882.25
3256.95205	3867.45
3259.22558	3864.75
3261.49775	3860.95
3263.76855	3831.55
3266.03799	3836.55
3268.30606	3841.85
3270.57277	3832.05
3272.83812	3826.55
3275.10211	3825.25
3277.36474	3814.05
3279.62601	3822.05
3281.88593	3814.85
3284.14448	3823.75
3286.40168	3829.35
3288.65753	3832.55
3290.91202	3824.25
3293.16516	3819.95
3295.41695	3810.75
3297.66738	3785.35
3299.91647	3776.25
3302.16421	3740.45
3304.4106	3736.65
3306.65564	3713.45
3308.89933	3692.75
3311.14169	3675.25
3313.38269	3650.95
3315.62236	3616.65
3317.86068	3584.55
3320.09766	3554.35
3322.3333	3521.05
3324.5676	3533.05
3326.80056	3479.85
3329.03219	3442.25
3331.26248	0.15
3333.49143	-0.35
3335.71905	1.55
