Data from AgNPs_FTO_APTES_UA_20um_CRN_0.1mM_R6G_10uM_NaF_0.1M_Addition_RamanShift__15__14-33-49-187.txt Node

Date: Tue Dec 21 14:33:49 GMT 2021
User: TCL
Spectrometer: QEP01345
Trigger mode: 4
Integration Time (sec): 7.000000E0
Scans to average: 10
Electric dark correction enabled: true
Nonlinearity correction enabled: false
Boxcar width: 0
XAxis mode: Raman Shifts
Number of Pixels in Spectrum: 1044
>>>>>Begin Spectral Data<<<<<
46.04893	-0.95
50.45542	-1.45
54.85868	-2.05
59.25871	0.95
63.6555	41.85
68.04907	48.25
72.43941	49.35
76.82654	50.05
81.21044	57.35
85.59113	58.25
89.96862	57.65
94.34289	57.55
98.71396	59.65
103.08183	65.35
107.4465	65.05
111.80798	70.05
116.16626	70.55
120.52136	71.55
124.87327	73.55
129.222	76.15
133.56755	79.25
137.90993	89.75
142.24913	92.15
146.58517	105.05
150.91804	121.95
155.24774	142.45
159.57429	174.95
163.89768	222.75
168.21792	291.45
172.53501	394.45
176.84895	547.35
181.15975	763.25
185.46741	1074.95
189.77193	1481.15
194.07331	1994.55
198.37157	2562.05
202.6667	3183.25
206.9587	3811.65
211.24758	4419.45
215.53334	5050.95
219.81599	5686.75
224.09553	6395.35
228.37195	7180.15
232.64527	8011.35
236.91549	8939.55
241.18261	9844.85
245.44663	10679.85
249.70755	11396.45
253.96539	12020.75
258.22014	12527.05
262.4718	12934.05
266.72039	13213.75
270.96589	13396.65
275.20832	13391.75
279.44768	13337.15
283.68397	13191.05
287.91719	13087.75
292.14735	13002.05
296.37445	13023.45
300.59849	13084.25
304.81948	13128.95
309.03742	13161.55
313.25231	13034.15
317.46415	12642.15
321.67296	12272.55
325.87872	11888.35
330.08145	11675.25
334.28114	11642.65
338.47781	11739.45
342.67145	11881.85
346.86207	12091.35
351.04966	12344.95
355.23424	12602.35
359.4158	12820.15
363.59435	12995.25
367.76989	13113.35
371.94243	13164.55
376.11196	13223.35
380.27849	13298.85
384.44203	13370.55
388.60257	13449.55
392.76012	13582.35
396.91468	13737.05
401.06626	13935.75
405.21485	14071.45
409.36047	13999.55
413.50311	13716.75
417.64277	13458.35
421.77947	13339.75
425.9132	13347.65
430.04396	13380.35
434.17176	13421.35
438.2966	13526.85
442.41849	13684.45
446.53742	13986.85
450.6534	14347.15
454.76644	14618.25
458.87653	14720.55
462.98368	14713.15
467.08789	14633.75
471.18916	14505.65
475.2875	14408.25
479.38291	14389.45
483.4754	14329.75
487.56496	14165.55
491.6516	13992.35
495.73531	13787.95
499.81612	13674.65
503.89401	13743.95
507.96899	13758.25
512.04106	13721.95
516.11023	13636.85
520.1765	13540.35
524.23987	13506.25
528.30034	13401.65
532.35792	13338.05
536.41261	13246.05
540.46441	13127.45
544.51333	13075.15
548.55936	13167.55
552.60252	13402.25
556.64279	13663.35
560.6802	13832.75
564.71473	13900.55
568.7464	14070.25
572.7752	14340.45
576.80114	14569.75
580.82422	14687.35
584.84444	14813.35
588.86181	14922.55
592.87633	15008.25
596.888	15030.55
600.89682	14995.95
604.9028	15539.15
608.90594	16998.05
612.90624	18642.15
616.90371	17782.25
620.89834	14755.45
624.89015	13313.65
628.87913	13092.95
632.86528	13245.45
636.84862	13402.85
640.82913	13336.95
644.80683	12996.55
648.78172	12693.35
652.75379	12589.95
656.72306	12691.25
660.68952	12928.55
664.65319	12921.65
668.61405	12769.95
672.57211	12770.25
676.52738	12874.15
680.47986	12908.55
684.42955	12874.85
688.37646	12726.45
692.32058	12619.95
696.26192	12654.05
700.20048	12712.75
704.13626	12773.35
708.06928	12795.85
711.99952	12712.95
715.927	12646.55
719.85171	12633.45
723.77365	12602.75
727.69284	12546.05
731.60928	12495.65
735.52295	12445.45
739.43388	12432.25
743.34206	12448.15
747.24749	12477.35
751.15017	12499.25
755.05012	12631.55
758.94733	12964.85
762.8418	13622.95
766.73354	14754.65
770.62254	15931.05
774.50882	16443.05
778.39237	15830.75
782.27321	14577.15
786.15132	13434.45
790.02671	12733.75
793.89938	12330.55
797.76935	12197.95
801.6366	12141.45
805.50115	12071.55
809.36299	12005.35
813.22213	11905.45
817.07857	11861.45
820.93231	11815.35
824.78336	11768.95
828.63172	11715.35
832.47738	11693.55
836.32036	11693.05
840.16066	11670.75
843.99827	11637.85
847.8332	11571.35
851.66546	11562.05
855.49504	11574.25
859.32195	11594.05
863.1462	11601.05
866.96777	11605.35
870.78668	11579.05
874.60293	11588.05
878.41652	11594.75
882.22745	11620.05
886.03573	11624.05
889.84136	11672.75
893.64433	11609.45
897.44466	11570.85
901.24235	11485.95
905.0374	11402.05
908.8298	11313.05
912.61957	11304.65
916.40671	11359.15
920.19121	11470.35
923.97308	11576.65
927.75233	11583.35
931.52895	11522.25
935.30295	11419.75
939.07433	11230.25
942.84309	11078.85
946.60924	10959.15
950.37278	10923.45
954.13371	10887.05
957.89203	10876.65
961.64774	10816.55
965.40086	10773.15
969.15137	10736.55
972.89929	10668.85
976.64461	10606.25
980.38733	10583.05
984.12747	10603.05
987.86502	10665.35
991.59999	10726.85
995.33237	10819.15
999.06217	11000.95
1002.78939	11202.05
1006.51404	11393.95
1010.23611	11549.05
1013.95561	11671.75
1017.67255	11701.15
1021.38692	11609.45
1025.09872	11447.95
1028.80796	11322.15
1032.51465	11339.85
1036.21877	11408.75
1039.92035	11489.95
1043.61937	11505.75
1047.31584	11502.05
1051.00976	11444.55
1054.70114	11467.75
1058.38998	11496.35
1062.07627	11553.55
1065.76003	11664.05
1069.44126	11764.15
1073.11995	11903.35
1076.79611	12010.45
1080.46974	12065.25
1084.14085	12106.45
1087.80943	12205.85
1091.47549	12334.65
1095.13903	12387.05
1098.80005	12245.75
1102.45857	12018.25
1106.11456	11824.45
1109.76805	11733.05
1113.41903	11719.95
1117.06751	11812.45
1120.71348	11973.65
1124.35696	12174.05
1127.99793	12392.95
1131.63641	12548.65
1135.2724	12488.35
1138.90589	12331.15
1142.5369	12248.35
1146.16542	12146.25
1149.79145	12134.95
1153.415	12168.15
1157.03607	12303.75
1160.65467	12558.95
1164.27079	12971.65
1167.88443	13604.45
1171.49561	14376.35
1175.10432	15407.05
1178.71056	16720.55
1182.31434	17938.95
1185.91565	18552.85
1189.51451	18536.35
1193.11091	18081.15
1196.70485	17356.55
1200.29634	16538.85
1203.88538	15890.05
1207.47197	15332.15
1211.05612	14868.65
1214.63782	14485.15
1218.21708	14219.45
1221.79391	14011.75
1225.36829	13937.15
1228.94024	13809.95
1232.50976	13616.25
1236.07685	13485.05
1239.6415	13372.95
1243.20374	13380.95
1246.76355	13461.15
1250.32093	13593.95
1253.8759	13860.35
1257.42845	14189.65
1260.97859	14551.45
1264.52631	14904.95
1268.07163	15277.25
1271.61453	15648.55
1275.15503	16056.45
1278.69312	16451.65
1282.22882	16824.45
1285.76211	17214.75
1289.29301	17742.35
1292.82151	18373.35
1296.34761	19199.95
1299.87133	20109.85
1303.39266	21127.95
1306.9116	22217.05
1310.42815	23365.15
1313.94233	24080.85
1317.45412	24218.25
1320.96354	23846.85
1324.47058	23407.85
1327.97525	22969.55
1331.47754	22584.65
1334.97747	22332.65
1338.47502	22215.85
1341.97022	22171.25
1345.46305	22170.45
1348.95352	22164.25
1352.44163	22324.55
1355.92738	22805.05
1359.41078	23704.05
1362.89183	24555.35
1366.37053	24288.45
1369.84688	22382.65
1373.32088	19953.65
1376.79254	18244.85
1380.26186	17434.75
1383.72883	17167.05
1387.19347	17056.05
1390.65578	16862.95
1394.11575	16792.25
1397.57339	16857.85
1401.0287	17021.25
1404.48168	17150.75
1407.93234	17181.65
1411.38068	16906.15
1414.82669	16432.65
1418.27039	15865.35
1421.71177	15238.65
1425.15083	14709.85
1428.58758	14411.55
1432.02203	14348.85
1435.45416	14590.75
1438.88399	14883.95
1442.31151	15197.35
1445.73673	15460.35
1449.15965	15701.65
1452.58027	15972.65
1455.9986	16157.15
1459.41463	16313.85
1462.82837	16570.95
1466.23982	16833.85
1469.64898	17046.25
1473.05586	17174.45
1476.46045	17150.35
1479.86276	17079.95
1483.26279	16929.95
1486.66054	16905.85
1490.05602	17014.85
1493.44922	17203.65
1496.84016	17569.35
1500.22882	18186.95
1503.61521	19088.05
1506.99934	20082.75
1510.38121	20984.85
1513.76081	21280.35
1517.13816	20679.05
1520.51324	19585.15
1523.88607	18442.35
1527.25665	17689.95
1530.62498	17340.05
1533.99105	17109.55
1537.35488	16909.55
1540.71647	16642.45
1544.07581	16291.85
1547.4329	15947.15
1550.78776	15681.05
1554.14038	15520.85
1557.49077	15454.45
1560.83892	15566.85
1564.18484	15686.35
1567.52853	15861.55
1570.86999	16044.95
1574.20922	16223.85
1577.54624	16349.95
1580.88103	16260.15
1584.2136	16048.25
1587.54395	16020.95
1590.87208	16380.35
1594.19801	17025.35
1597.52172	17840.05
1600.84321	18243.65
1604.16251	17763.45
1607.47959	16688.85
1610.79447	15546.75
1614.10715	14395.45
1617.41763	13385.75
1620.7259	12648.95
1624.03199	12236.65
1627.33587	12119.05
1630.63757	12312.15
1633.93707	12838.85
1637.23439	13873.95
1640.52951	15361.85
1643.82246	17224.05
1647.11321	18942.45
1650.40179	19797.15
1653.68819	19111.05
1656.97241	17117.95
1660.25446	14826.65
1663.53433	12963.65
1666.81203	11753.45
1670.08756	10977.95
1673.36092	10485.45
1676.63211	10129.15
1679.90115	9901.95
1683.16801	9731.55
1686.43272	9587.65
1689.69527	9489.65
1692.95567	9416.15
1696.2139	9368.05
1699.46999	9332.15
1702.72392	9263.05
1705.97571	9240.75
1709.22535	9171.05
1712.47284	9140.65
1715.71819	9097.15
1718.96139	9060.05
1722.20246	9062.35
1725.44139	8966.05
1728.67818	8955.55
1731.91284	8895.45
1735.14537	8831.15
1738.37576	8810.15
1741.60403	8780.45
1744.83017	8781.35
1748.05418	8772.45
1751.27607	8769.15
1754.49584	8769.15
1757.71349	8765.35
1760.92903	8747.85
1764.14244	8708.75
1767.35375	8675.75
1770.56294	8614.55
1773.77002	8571.75
1776.97499	8547.35
1780.17785	8501.15
1783.37861	8475.25
1786.57727	8448.95
1789.77382	8419.85
1792.96828	8379.55
1796.16064	8347.05
1799.3509	8317.35
1802.53907	8307.65
1805.72514	8282.85
1808.90913	8235.15
1812.09102	8228.05
1815.27083	8207.35
1818.44856	8186.35
1821.6242	8164.65
1824.79776	8154.85
1827.96924	8128.55
1831.13864	8152.45
1834.30597	8122.35
1837.47122	8119.35
1840.6344	8100.05
1843.7955	8099.45
1846.95454	8081.05
1850.11151	8086.05
1853.26642	8052.25
1856.41926	8075.15
1859.57004	8059.65
1862.71876	8039.65
1865.86542	8020.85
1869.01003	8011.55
1872.15258	8017.05
1875.29308	8010.95
1878.43152	7989.05
1881.56792	7980.45
1884.70227	7975.05
1887.83457	7964.65
1890.96482	7931.15
1894.09304	7934.65
1897.21921	7927.85
1900.34335	7912.25
1903.46544	7896.55
1906.58551	7869.35
1909.70353	7898.85
1912.81953	7848.95
1915.93349	7837.85
1919.04543	7824.45
1922.15534	7818.35
1925.26322	7782.55
1928.36908	7755.05
1931.47292	7727.85
1934.57473	7705.55
1937.67453	7656.75
1940.77232	7674.95
1943.86808	7634.55
1946.96184	7609.65
1950.05358	7572.45
1953.14331	7543.35
1956.23103	7558.65
1959.31675	7539.05
1962.40046	7495.65
1965.48217	7491.95
1968.56188	7460.65
1971.63959	7440.35
1974.7153	7413.65
1977.78901	7394.55
1980.86073	7382.75
1983.93046	7356.35
1986.99819	7288.05
1990.06394	7290.75
1993.1277	7271.65
1996.18947	7222.95
1999.24925	7220.85
2002.30706	7193.05
2005.36288	7139.65
2008.41672	7143.95
2011.46859	7108.05
2014.51848	7111.85
2017.56639	7080.65
2020.61233	7057.65
2023.6563	7031.35
2026.6983	7006.85
2029.73833	6992.05
2032.7764	6973.45
2035.8125	6964.25
2038.84664	6953.75
2041.87881	6923.95
2044.90903	6905.25
2047.93729	6893.15
2050.96359	6906.05
2053.98794	6889.85
2057.01034	6888.05
2060.03078	6869.65
2063.04927	6860.05
2066.06582	6844.75
2069.08042	6840.55
2072.09307	6845.55
2075.10378	6838.65
2078.11255	6814.35
2081.11938	6835.65
2084.12426	6812.15
2087.12722	6809.35
2090.12824	6793.65
2093.12732	6802.35
2096.12447	6786.65
2099.11969	6796.05
2102.11299	6790.95
2105.10435	6794.05
2108.09379	6794.75
2111.08131	6795.05
2114.0669	6794.95
2117.05057	6783.85
2120.03233	6810.15
2123.01216	6789.45
2125.99008	6805.65
2128.96609	6805.15
2131.94018	6816.05
2134.91236	6810.05
2137.88263	6810.85
2140.851	6812.05
2143.81746	6813.05
2146.78201	6811.55
2149.74466	6796.15
2152.7054	6788.75
2155.66425	6777.55
2158.6212	6769.85
2161.57625	6775.65
2164.52941	6779.65
2167.48067	6768.65
2170.43004	6780.45
2173.37752	6774.65
2176.32311	6761.45
2179.26681	6755.65
2182.20863	6739.35
2185.14856	6736.65
2188.08661	6741.55
2191.02278	6753.55
2193.95707	6733.75
2196.88948	6725.45
2199.82001	6709.25
2202.74867	6695.45
2205.67545	6702.75
2208.60037	6684.45
2211.52341	6694.25
2214.44458	6679.05
2217.36388	6641.25
2220.28132	6634.45
2223.1969	6608.55
2226.11061	6610.25
2229.02246	6584.35
2231.93245	6582.05
2234.84058	6589.55
2237.74686	6556.45
2240.65128	6539.85
2243.55385	6532.45
2246.45456	6524.35
2249.35343	6503.75
2252.25044	6505.85
2255.14561	6469.25
2258.03893	6464.65
2260.93041	6472.75
2263.82004	6459.95
2266.70783	6432.95
2269.59378	6417.85
2272.4779	6405.85
2275.36017	6390.55
2278.24061	6368.45
2281.11922	6358.45
2283.996	6331.55
2286.87094	6330.45
2289.74405	6302.05
2292.61534	6321.15
2295.4848	6291.65
2298.35243	6288.45
2301.21824	6274.85
2304.08223	6273.05
2306.94439	6290.65
2309.80474	6273.15
2312.66327	6280.05
2315.51999	6262.55
2318.37489	6255.05
2321.22797	6232.35
2324.07925	6236.65
2326.92871	6220.85
2329.77637	6241.55
2332.62222	6202.45
2335.46626	6207.25
2338.3085	6175.95
2341.14893	6190.15
2343.98756	6179.65
2346.8244	6191.45
2349.65943	6183.05
2352.49267	6176.15
2355.32411	6164.05
2358.15376	6169.25
2360.98161	6165.95
2363.80768	6156.85
2366.63195	6177.05
2369.45444	6148.05
2372.27514	6136.25
2375.09405	6130.15
2377.91118	6101.05
2380.72652	6079.25
2383.54009	6072.85
2386.35187	6046.45
2389.16188	6030.65
2391.97011	6030.05
2394.77657	6023.25
2397.58125	6000.75
2400.38416	5974.75
2403.18529	5966.85
2405.98466	5971.65
2408.78226	5952.95
2411.57809	5941.05
2414.37216	5944.95
2417.16446	5942.15
2419.955	5925.35
2422.74378	5932.85
2425.5308	5917.65
2428.31606	5911.55
2431.09956	5922.25
2433.88131	5902.05
2436.6613	5895.85
2439.43954	5881.65
2442.21603	5869.05
2444.99077	5881.55
2447.76377	5870.55
2450.53501	5865.55
2453.30451	5865.85
2456.07226	5870.45
2458.83827	5867.05
2461.60254	5850.75
2464.36507	5869.85
2467.12586	5856.95
2469.88492	5845.05
2472.64224	5837.45
2475.39782	5842.95
2478.15167	5855.15
2480.90379	5838.55
2483.65417	5822.05
2486.40283	5819.85
2489.14976	5817.95
2491.89497	5828.85
2494.63845	5836.45
2497.3802	5816.45
2500.12024	5821.95
2502.85855	5798.05
2505.59514	5799.25
2508.33002	5792.85
2511.06318	5777.95
2513.79462	5767.25
2516.52435	5764.75
2519.25237	5764.35
2521.97867	5753.45
2524.70327	5748.45
2527.42616	5733.05
2530.14734	5729.35
2532.86681	5722.85
2535.58458	5711.65
2538.30065	5696.45
2541.01501	5700.15
2543.72768	5685.45
2546.43864	5682.85
2549.14791	5682.65
2551.85548	5661.05
2554.56136	5669.55
2557.26554	5657.55
2559.96803	5645.45
2562.66883	5636.95
2565.36794	5614.95
2568.06536	5621.35
2570.7611	5606.15
2573.45514	5583.95
2576.14751	5613.65
2578.83819	5582.75
2581.52719	5566.85
2584.21451	5568.95
2586.90015	5577.55
2589.58411	5569.15
2592.2664	5556.45
2594.94701	5547.05
2597.62594	5541.65
2600.30321	5542.75
2602.9788	5517.75
2605.65273	5520.15
2608.32498	5528.85
2610.99557	5482.55
2613.66449	5504.85
2616.33175	5481.45
2618.99734	5499.45
2621.66128	5474.95
2624.32355	5469.05
2626.98416	5488.55
2629.64311	5465.25
2632.30041	5450.95
2634.95605	5459.05
2637.61004	5449.35
2640.26238	5451.65
2642.91306	5453.65
2645.56209	5461.15
2648.20948	5458.25
2650.85521	5430.85
2653.4993	5440.25
2656.14175	5425.95
2658.78255	5443.85
2661.42171	5434.05
2664.05923	5438.25
2666.6951	5445.25
2669.32934	5446.05
2671.96194	5444.55
2674.59291	5433.15
2677.22224	5423.75
2679.84993	5435.15
2682.476	5431.35
2685.10043	5432.35
2687.72324	5410.65
2690.34441	5432.55
2692.96396	5423.15
2695.58188	5425.45
2698.19818	5430.05
2700.81285	5414.75
2703.4259	5440.65
2706.03733	5463.35
2708.64714	5449.85
2711.25533	5422.75
2713.86191	5421.95
2716.46687	5426.85
2719.07021	5433.65
2721.67194	5424.15
2724.27206	5413.35
2726.87057	5418.25
2729.46747	5414.95
2732.06276	5415.45
2734.65644	5411.85
2737.24852	5413.15
2739.83899	5390.15
2742.42786	5389.25
2745.01513	5394.55
2747.60079	5363.05
2750.18486	5377.15
2752.76733	5385.45
2755.3482	5367.75
2757.92747	5372.65
2760.50515	5361.15
2763.08123	5353.25
2765.65573	5347.95
2768.22863	5358.95
2770.79994	5349.55
2773.36967	5354.15
2775.9378	5331.95
2778.50435	5348.45
2781.06932	5333.25
2783.6327	5315.45
2786.1945	5332.75
2788.75471	5321.75
2791.31335	5303.35
2793.87041	5291.75
2796.42589	5281.05
2798.97979	5263.85
2801.53212	5268.85
2804.08288	5258.45
2806.63206	5267.15
2809.17967	5234.15
2811.72571	5231.05
2814.27018	5236.45
2816.81308	5217.65
2819.35442	5204.45
2821.89419	5228.85
2824.43239	5202.15
2826.96904	5203.25
2829.50412	5194.65
2832.03763	5191.45
2834.56959	5183.15
2837.1	5186.25
2839.62884	5201.85
2842.15613	5178.15
2844.68186	5197.15
2847.20604	5197.25
2849.72867	5208.55
2852.24974	5195.75
2854.76927	5181.75
2857.28724	5195.05
2859.80367	5173.55
2862.31855	5173.45
2864.83189	5169.25
2867.34368	5146.95
2869.85393	5144.65
2872.36264	5145.55
2874.8698	5141.85
2877.37543	5145.05
2879.87952	5155.35
2882.38207	5156.85
2884.88308	5142.55
2887.38256	5136.15
2889.88051	5147.75
2892.37692	5156.55
2894.8718	5151.15
2897.36515	5156.65
2899.85698	5154.15
2902.34727	5157.25
2904.83604	5155.65
2907.32328	5168.05
2909.809	5175.15
2912.29319	5185.65
2914.77587	5190.45
2917.25702	5189.55
2919.73665	5194.45
2922.21476	5198.05
2924.69136	5192.05
2927.16644	5193.25
2929.64	5188.15
2932.11205	5188.95
2934.58258	5179.55
2937.05161	5163.25
2939.51912	5197.15
2941.98513	5179.15
2944.44962	5170.15
2946.91261	5140.85
2949.37409	5141.35
2951.83407	5130.55
2954.29254	5135.15
2956.74951	5115.95
2959.20498	5101.05
2961.65895	5105.85
2964.11142	5072.25
2966.56239	5048.95
2969.01186	5050.05
2971.45984	5055.55
2973.90632	5039.15
2976.35131	5000.25
2978.7948	4990.55
2981.23681	4977.05
2983.67732	4962.95
2986.11635	4968.65
2988.55388	4943.95
2990.98993	4933.15
2993.4245	4920.25
2995.85758	4904.65
2998.28917	4887.15
3000.71928	4890.75
3003.14791	4882.55
3005.57506	4876.65
3008.00073	4873.35
3010.42493	4856.45
3012.84764	4853.95
3015.26888	4862.35
3017.68865	4830.35
3020.10694	4826.15
3022.52376	4806.45
3024.9391	4808.35
3027.35298	4807.65
3029.76539	4785.65
3032.17632	4789.65
3034.5858	4774.45
3036.9938	4773.65
3039.40034	4766.25
3041.80542	4757.55
3044.20903	4731.25
3046.61118	4727.05
3049.01187	4721.95
3051.4111	4727.75
3053.80888	4702.95
3056.20519	4704.55
3058.60005	4691.65
3060.99345	4690.45
3063.3854	4681.25
3065.7759	4670.75
3068.16494	4662.15
3070.55254	4632.25
3072.93868	4632.65
3075.32338	4640.05
3077.70662	4628.25
3080.08842	4607.55
3082.46878	4631.05
3084.84769	4603.45
3087.22515	4606.05
3089.60118	4598.95
3091.97576	4606.25
3094.3489	4611.55
3096.72061	4607.65
3099.09087	4603.55
3101.4597	4588.85
3103.82709	4587.95
3106.19305	4600.55
3108.55757	4585.25
3110.92066	4569.35
3113.28232	4561.15
3115.64255	4554.85
3118.00134	4554.05
3120.35871	4533.15
3122.71466	4540.75
3125.06917	4543.25
3127.42226	4510.65
3129.77393	4515.75
3132.12417	4526.95
3134.47299	4531.65
3136.82039	4529.55
3139.16636	4515.45
3141.51092	4533.25
3143.85406	4535.85
3146.19579	4522.25
3148.53609	4528.25
3150.87499	4543.05
3153.21246	4546.55
3155.54853	4551.95
3157.88318	4543.85
3160.21642	4544.65
3162.54826	4551.45
3164.87868	4566.95
3167.2077	4563.45
3169.5353	4545.55
3171.86151	4555.05
3174.18631	4539.75
3176.5097	4535.25
3178.83169	4537.25
3181.15228	4545.85
3183.47147	4564.85
3185.78926	4541.35
3188.10565	4527.15
3190.42065	4542.35
3192.73424	4536.15
3195.04645	4535.25
3197.35725	4535.15
3199.66667	4531.75
3201.97469	4552.05
3204.28132	4555.05
3206.58656	4544.25
3208.8904	4542.85
3211.19287	4551.25
3213.49394	4551.15
3215.79363	4550.65
3218.09193	4541.55
3220.38884	4540.25
3222.68438	4561.35
3224.97853	4537.65
3227.2713	4541.35
3229.56269	4519.25
3231.8527	4539.65
3234.14133	4512.65
3236.42858	4508.05
3238.71446	4514.15
3240.99896	4526.05
3243.28209	4508.85
3245.56384	4502.65
3247.84423	4509.85
3250.12324	4495.65
3252.40088	4492.25
3254.67715	4484.35
3256.95205	4490.35
3259.22558	4491.05
3261.49775	4463.05
3263.76855	4463.85
3266.03799	4442.35
3268.30606	4435.85
3270.57277	4421.75
3272.83812	4430.05
3275.10211	4415.15
3277.36474	4402.95
3279.62601	4416.65
3281.88593	4401.45
3284.14448	4405.15
3286.40168	4416.75
3288.65753	4421.65
3290.91202	4413.25
3293.16516	4398.85
3295.41695	4392.35
3297.66738	4368.15
3299.91647	4337.65
3302.16421	4305.25
3304.4106	4281.15
3306.65564	4286.45
3308.89933	4257.35
3311.14169	4238.05
3313.38269	4193.15
3315.62236	4172.75
3317.86068	4126.65
3320.09766	4096.75
3322.3333	4072.75
3324.5676	4063.75
3326.80056	4016.45
3329.03219	3990.15
3331.26248	2.25
3333.49143	0.55
3335.71905	0.95
