Data from AgNPs_FTO_APTES_UA_0um_CRN_0.1mM_R6G_10uM_NaF_0.1M_Addition_RamanShift__4__10-15-58-893.txt Node

Date: Tue Dec 21 10:15:58 GMT 2021
User: TCL
Spectrometer: QEP01345
Trigger mode: 4
Integration Time (sec): 7.000000E0
Scans to average: 10
Electric dark correction enabled: true
Nonlinearity correction enabled: false
Boxcar width: 0
XAxis mode: Raman Shifts
Number of Pixels in Spectrum: 1044
>>>>>Begin Spectral Data<<<<<
46.04893	-0.7875
50.45542	-0.6875
54.85868	-0.5875
59.25871	1.8125
63.6555	18.1125
68.04907	22.4125
72.43941	24.0125
76.82654	27.8125
81.21044	28.5125
85.59113	30.0125
89.96862	30.1125
94.34289	30.2125
98.71396	27.8125
103.08183	33.3125
107.4465	34.5125
111.80798	34.8125
116.16626	31.4125
120.52136	31.4125
124.87327	36.2125
129.222	32.4125
133.56755	33.7125
137.90993	35.4125
142.24913	35.7125
146.58517	38.3125
150.91804	40.3125
155.24774	42.8125
159.57429	47.4125
163.89768	59.5125
168.21792	69.4125
172.53501	82.9125
176.84895	107.7125
181.15975	145.6125
185.46741	200.0125
189.77193	270.5125
194.07331	368.4125
198.37157	486.6125
202.6667	605.4125
206.9587	751.2125
211.24758	891.5125
215.53334	1044.0125
219.81599	1190.1125
224.09553	1343.1125
228.37195	1494.5125
232.64527	1640.7125
236.91549	1789.8125
241.18261	1913.1125
245.44663	2011.6125
249.70755	2113.2125
253.96539	2176.2125
258.22014	2221.1125
262.4718	2230.9125
266.72039	2224.4125
270.96589	2188.0125
275.20832	2144.2125
279.44768	2069.6125
283.68397	2009.5125
287.91719	1934.6125
292.14735	1872.2125
296.37445	1817.8125
300.59849	1778.5125
304.81948	1746.8125
309.03742	1713.2125
313.25231	1685.9125
317.46415	1654.2125
321.67296	1629.1125
325.87872	1597.7125
330.08145	1578.9125
334.28114	1567.3125
338.47781	1570.9125
342.67145	1574.2125
346.86207	1568.3125
351.04966	1566.4125
355.23424	1569.8125
359.4158	1580.2125
363.59435	1574.8125
367.76989	1557.8125
371.94243	1557.0125
376.11196	1548.0125
380.27849	1539.1125
384.44203	1530.8125
388.60257	1534.0125
392.76012	1524.7125
396.91468	1532.4125
401.06626	1529.1125
405.21485	1528.6125
409.36047	1536.8125
413.50311	1518.7125
417.64277	1526.2125
421.77947	1532.4125
425.9132	1532.9125
430.04396	1547.4125
434.17176	1566.1125
438.2966	1589.6125
442.41849	1583.6125
446.53742	1616.6125
450.6534	1629.4125
454.76644	1650.0125
458.87653	1656.2125
462.98368	1661.9125
467.08789	1664.1125
471.18916	1658.3125
475.2875	1650.1125
479.38291	1651.7125
483.4754	1647.6125
487.56496	1648.8125
491.6516	1642.5125
495.73531	1644.9125
499.81612	1649.4125
503.89401	1647.9125
507.96899	1636.3125
512.04106	1639.9125
516.11023	1628.1125
520.1765	1613.2125
524.23987	1614.8125
528.30034	1596.6125
532.35792	1597.6125
536.41261	1591.2125
540.46441	1580.8125
544.51333	1580.8125
548.55936	1583.6125
552.60252	1586.6125
556.64279	1587.0125
560.6802	1590.6125
564.71473	1587.2125
568.7464	1594.3125
572.7752	1612.8125
576.80114	1606.2125
580.82422	1591.7125
584.84444	1584.9125
588.86181	1577.2125
592.87633	1593.9125
596.888	1575.4125
600.89682	1579.9125
604.9028	1615.2125
608.90594	1666.8125
612.90624	1766.2125
616.90371	1776.9125
620.89834	1695.3125
624.89015	1647.0125
628.87913	1651.1125
632.86528	1657.3125
636.84862	1678.0125
640.82913	1711.0125
644.80683	1743.8125
648.78172	1770.6125
652.75379	1780.5125
656.72306	1761.4125
660.68952	1736.3125
664.65319	1726.3125
668.61405	1752.6125
672.57211	1808.7125
676.52738	1917.9125
680.47986	2019.9125
684.42955	2102.5125
688.37646	2084.8125
692.32058	2008.1125
696.26192	1926.3125
700.20048	1884.3125
704.13626	1852.9125
708.06928	1816.3125
711.99952	1790.1125
715.927	1765.1125
719.85171	1777.2125
723.77365	1771.6125
727.69284	1775.4125
731.60928	1790.1125
735.52295	1777.7125
739.43388	1761.5125
743.34206	1750.7125
747.24749	1738.5125
751.15017	1736.9125
755.05012	1737.5125
758.94733	1742.7125
762.8418	1759.3125
766.73354	1774.7125
770.62254	1802.9125
774.50882	1812.1125
778.39237	1799.0125
782.27321	1753.9125
786.15132	1708.1125
790.02671	1695.3125
793.89938	1692.4125
797.76935	1697.1125
801.6366	1706.6125
805.50115	1714.5125
809.36299	1728.1125
813.22213	1701.3125
817.07857	1700.5125
820.93231	1689.9125
824.78336	1675.8125
828.63172	1667.4125
832.47738	1669.4125
836.32036	1651.6125
840.16066	1656.2125
843.99827	1651.8125
847.8332	1652.7125
851.66546	1644.0125
855.49504	1637.1125
859.32195	1641.8125
863.1462	1640.1125
866.96777	1661.3125
870.78668	1665.0125
874.60293	1678.6125
878.41652	1672.2125
882.22745	1674.2125
886.03573	1678.3125
889.84136	1692.3125
893.64433	1708.8125
897.44466	1716.6125
901.24235	1715.6125
905.0374	1713.8125
908.8298	1727.4125
912.61957	1760.8125
916.40671	1798.1125
920.19121	1875.9125
923.97308	1933.3125
927.75233	1991.0125
931.52895	2017.4125
935.30295	2015.6125
939.07433	1978.6125
942.84309	1948.4125
946.60924	1902.4125
950.37278	1872.4125
954.13371	1839.7125
957.89203	1809.9125
961.64774	1787.2125
965.40086	1771.0125
969.15137	1760.5125
972.89929	1739.2125
976.64461	1721.5125
980.38733	1695.1125
984.12747	1687.8125
987.86502	1683.5125
991.59999	1660.7125
995.33237	1662.6125
999.06217	1661.0125
1002.78939	1670.3125
1006.51404	1681.7125
1010.23611	1688.2125
1013.95561	1690.8125
1017.67255	1700.0125
1021.38692	1703.2125
1025.09872	1716.6125
1028.80796	1711.7125
1032.51465	1729.2125
1036.21877	1729.0125
1039.92035	1740.7125
1043.61937	1740.3125
1047.31584	1735.1125
1051.00976	1739.7125
1054.70114	1749.1125
1058.38998	1726.4125
1062.07627	1704.3125
1065.76003	1677.1125
1069.44126	1660.0125
1073.11995	1638.8125
1076.79611	1607.0125
1080.46974	1597.1125
1084.14085	1581.6125
1087.80943	1564.5125
1091.47549	1553.6125
1095.13903	1542.6125
1098.80005	1555.4125
1102.45857	1530.0125
1106.11456	1528.8125
1109.76805	1519.4125
1113.41903	1525.3125
1117.06751	1536.3125
1120.71348	1540.8125
1124.35696	1568.0125
1127.99793	1582.1125
1131.63641	1603.4125
1135.2724	1619.1125
1138.90589	1618.2125
1142.5369	1602.7125
1146.16542	1600.3125
1149.79145	1605.5125
1153.415	1582.8125
1157.03607	1580.2125
1160.65467	1578.9125
1164.27079	1565.8125
1167.88443	1581.6125
1171.49561	1589.2125
1175.10432	1616.7125
1178.71056	1652.1125
1182.31434	1681.1125
1185.91565	1697.2125
1189.51451	1702.4125
1193.11091	1686.4125
1196.70485	1656.8125
1200.29634	1647.9125
1203.88538	1624.8125
1207.47197	1623.4125
1211.05612	1612.9125
1214.63782	1593.5125
1218.21708	1610.0125
1221.79391	1611.7125
1225.36829	1620.4125
1228.94024	1636.4125
1232.50976	1642.7125
1236.07685	1652.7125
1239.6415	1657.9125
1243.20374	1678.0125
1246.76355	1689.1125
1250.32093	1713.0125
1253.8759	1710.6125
1257.42845	1738.3125
1260.97859	1754.3125
1264.52631	1755.4125
1268.07163	1776.0125
1271.61453	1786.6125
1275.15503	1805.9125
1278.69312	1829.7125
1282.22882	1846.8125
1285.76211	1868.9125
1289.29301	1891.1125
1292.82151	1927.6125
1296.34761	1973.9125
1299.87133	2004.5125
1303.39266	2039.7125
1306.9116	2071.8125
1310.42815	2125.9125
1313.94233	2160.8125
1317.45412	2140.1125
1320.96354	2099.7125
1324.47058	2078.2125
1327.97525	2043.1125
1331.47754	2044.2125
1334.97747	2049.4125
1338.47502	2077.5125
1341.97022	2097.6125
1345.46305	2145.5125
1348.95352	2198.3125
1352.44163	2268.8125
1355.92738	2343.3125
1359.41078	2437.0125
1362.89183	2527.5125
1366.37053	2543.4125
1369.84688	2497.8125
1373.32088	2403.2125
1376.79254	2332.9125
1380.26186	2299.9125
1383.72883	2268.7125
1387.19347	2259.7125
1390.65578	2238.1125
1394.11575	2229.1125
1397.57339	2208.1125
1401.0287	2203.7125
1404.48168	2214.1125
1407.93234	2222.9125
1411.38068	2251.6125
1414.82669	2284.7125
1418.27039	2318.0125
1421.71177	2352.8125
1425.15083	2338.1125
1428.58758	2283.2125
1432.02203	2232.9125
1435.45416	2173.7125
1438.88399	2142.1125
1442.31151	2106.8125
1445.73673	2105.0125
1449.15965	2101.9125
1452.58027	2101.2125
1455.9986	2091.0125
1459.41463	2088.9125
1462.82837	2080.2125
1466.23982	2068.0125
1469.64898	2068.6125
1473.05586	2067.8125
1476.46045	2049.3125
1479.86276	2025.7125
1483.26279	2023.5125
1486.66054	2003.8125
1490.05602	2003.4125
1493.44922	1987.3125
1496.84016	1981.2125
1500.22882	2002.1125
1503.61521	2019.0125
1506.99934	2060.9125
1510.38121	2094.4125
1513.76081	2097.1125
1517.13816	2077.3125
1520.51324	2018.9125
1523.88607	1961.2125
1527.25665	1915.2125
1530.62498	1889.4125
1533.99105	1862.6125
1537.35488	1861.9125
1540.71647	1861.7125
1544.07581	1862.1125
1547.4329	1861.2125
1550.78776	1863.7125
1554.14038	1856.2125
1557.49077	1862.3125
1560.83892	1852.9125
1564.18484	1840.5125
1567.52853	1835.8125
1570.86999	1830.3125
1574.20922	1812.1125
1577.54624	1804.2125
1580.88103	1771.5125
1584.2136	1743.1125
1587.54395	1707.2125
1590.87208	1684.0125
1594.19801	1669.3125
1597.52172	1666.7125
1600.84321	1665.1125
1604.16251	1651.2125
1607.47959	1635.8125
1610.79447	1627.3125
1614.10715	1613.8125
1617.41763	1597.4125
1620.7259	1603.1125
1624.03199	1600.4125
1627.33587	1599.6125
1630.63757	1585.4125
1633.93707	1589.2125
1637.23439	1585.2125
1640.52951	1597.5125
1643.82246	1604.8125
1647.11321	1616.3125
1650.40179	1625.9125
1653.68819	1608.0125
1656.97241	1563.4125
1660.25446	1495.1125
1663.53433	1443.1125
1666.81203	1401.3125
1670.08756	1377.4125
1673.36092	1339.3125
1676.63211	1311.3125
1679.90115	1289.1125
1683.16801	1263.2125
1686.43272	1242.6125
1689.69527	1219.0125
1692.95567	1191.7125
1696.2139	1171.1125
1699.46999	1163.2125
1702.72392	1145.2125
1705.97571	1135.1125
1709.22535	1126.8125
1712.47284	1124.0125
1715.71819	1115.2125
1718.96139	1113.4125
1722.20246	1100.9125
1725.44139	1104.1125
1728.67818	1096.5125
1731.91284	1100.8125
1735.14537	1094.5125
1738.37576	1102.0125
1741.60403	1095.9125
1744.83017	1115.0125
1748.05418	1121.5125
1751.27607	1146.4125
1754.49584	1166.5125
1757.71349	1174.5125
1760.92903	1169.8125
1764.14244	1147.9125
1767.35375	1118.3125
1770.56294	1088.8125
1773.77002	1056.6125
1776.97499	1044.2125
1780.17785	1021.4125
1783.37861	1019.5125
1786.57727	1010.1125
1789.77382	990.2125
1792.96828	982.1125
1796.16064	978.0125
1799.3509	962.3125
1802.53907	950.7125
1805.72514	944.0125
1808.90913	943.2125
1812.09102	931.4125
1815.27083	931.6125
1818.44856	928.7125
1821.6242	924.3125
1824.79776	920.7125
1827.96924	927.3125
1831.13864	913.5125
1834.30597	911.1125
1837.47122	910.3125
1840.6344	913.4125
1843.7955	906.0125
1846.95454	908.8125
1850.11151	904.3125
1853.26642	898.1125
1856.41926	900.9125
1859.57004	902.9125
1862.71876	900.8125
1865.86542	897.2125
1869.01003	894.1125
1872.15258	889.6125
1875.29308	894.2125
1878.43152	891.6125
1881.56792	892.1125
1884.70227	888.1125
1887.83457	887.5125
1890.96482	886.2125
1894.09304	875.7125
1897.21921	889.7125
1900.34335	877.8125
1903.46544	882.7125
1906.58551	870.2125
1909.70353	874.2125
1912.81953	874.0125
1915.93349	871.2125
1919.04543	877.5125
1922.15534	869.2125
1925.26322	867.7125
1928.36908	871.1125
1931.47292	862.2125
1934.57473	860.8125
1937.67453	858.9125
1940.77232	852.9125
1943.86808	857.2125
1946.96184	853.1125
1950.05358	848.6125
1953.14331	839.6125
1956.23103	834.2125
1959.31675	839.8125
1962.40046	834.7125
1965.48217	830.4125
1968.56188	829.1125
1971.63959	826.4125
1974.7153	824.0125
1977.78901	817.7125
1980.86073	822.1125
1983.93046	813.6125
1986.99819	816.7125
1990.06394	812.4125
1993.1277	814.5125
1996.18947	796.0125
1999.24925	800.0125
2002.30706	802.5125
2005.36288	795.4125
2008.41672	793.8125
2011.46859	792.5125
2014.51848	793.4125
2017.56639	789.3125
2020.61233	787.5125
2023.6563	787.7125
2026.6983	780.5125
2029.73833	783.3125
2032.7764	783.1125
2035.8125	780.5125
2038.84664	776.0125
2041.87881	772.2125
2044.90903	767.0125
2047.93729	764.5125
2050.96359	772.2125
2053.98794	776.3125
2057.01034	777.9125
2060.03078	777.1125
2063.04927	769.6125
2066.06582	772.2125
2069.08042	778.5125
2072.09307	782.1125
2075.10378	777.5125
2078.11255	782.6125
2081.11938	789.1125
2084.12426	797.8125
2087.12722	796.0125
2090.12824	795.1125
2093.12732	802.7125
2096.12447	811.9125
2099.11969	813.3125
2102.11299	820.3125
2105.10435	824.0125
2108.09379	831.3125
2111.08131	824.4125
2114.0669	823.5125
2117.05057	815.1125
2120.03233	816.8125
2123.01216	813.8125
2125.99008	804.6125
2128.96609	797.2125
2131.94018	789.9125
2134.91236	792.2125
2137.88263	789.8125
2140.851	784.9125
2143.81746	783.4125
2146.78201	776.4125
2149.74466	774.6125
2152.7054	768.2125
2155.66425	763.1125
2158.6212	760.8125
2161.57625	757.3125
2164.52941	757.5125
2167.48067	752.9125
2170.43004	749.6125
2173.37752	747.9125
2176.32311	740.0125
2179.26681	737.4125
2182.20863	749.7125
2185.14856	741.8125
2188.08661	741.9125
2191.02278	737.8125
2193.95707	738.6125
2196.88948	737.8125
2199.82001	740.3125
2202.74867	735.0125
2205.67545	736.4125
2208.60037	733.8125
2211.52341	731.6125
2214.44458	728.0125
2217.36388	725.3125
2220.28132	726.1125
2223.1969	722.1125
2226.11061	725.1125
2229.02246	715.7125
2231.93245	713.4125
2234.84058	705.9125
2237.74686	709.0125
2240.65128	712.0125
2243.55385	712.8125
2246.45456	711.7125
2249.35343	710.3125
2252.25044	706.4125
2255.14561	699.3125
2258.03893	702.2125
2260.93041	704.9125
2263.82004	702.6125
2266.70783	695.9125
2269.59378	692.0125
2272.4779	690.8125
2275.36017	682.6125
2278.24061	693.2125
2281.11922	689.8125
2283.996	692.8125
2286.87094	689.6125
2289.74405	678.2125
2292.61534	682.1125
2295.4848	685.1125
2298.35243	679.3125
2301.21824	675.9125
2304.08223	679.1125
2306.94439	678.3125
2309.80474	674.9125
2312.66327	675.1125
2315.51999	671.8125
2318.37489	673.1125
2321.22797	667.9125
2324.07925	666.9125
2326.92871	671.4125
2329.77637	675.4125
2332.62222	666.0125
2335.46626	662.3125
2338.3085	659.2125
2341.14893	658.7125
2343.98756	656.8125
2346.8244	660.4125
2349.65943	654.3125
2352.49267	656.1125
2355.32411	651.4125
2358.15376	657.6125
2360.98161	650.9125
2363.80768	653.7125
2366.63195	653.2125
2369.45444	651.4125
2372.27514	654.3125
2375.09405	647.5125
2377.91118	648.2125
2380.72652	643.3125
2383.54009	643.1125
2386.35187	645.1125
2389.16188	639.9125
2391.97011	639.2125
2394.77657	638.1125
2397.58125	642.8125
2400.38416	640.5125
2403.18529	635.7125
2405.98466	635.6125
2408.78226	630.6125
2411.57809	634.7125
2414.37216	630.9125
2417.16446	632.0125
2419.955	626.2125
2422.74378	623.8125
2425.5308	621.3125
2428.31606	624.9125
2431.09956	623.1125
2433.88131	626.5125
2436.6613	627.3125
2439.43954	624.1125
2442.21603	613.8125
2444.99077	625.2125
2447.76377	620.0125
2450.53501	617.7125
2453.30451	615.1125
2456.07226	623.5125
2458.83827	617.9125
2461.60254	610.2125
2464.36507	613.7125
2467.12586	608.5125
2469.88492	610.4125
2472.64224	603.4125
2475.39782	609.4125
2478.15167	603.5125
2480.90379	607.1125
2483.65417	613.8125
2486.40283	608.2125
2489.14976	606.3125
2491.89497	606.2125
2494.63845	606.0125
2497.3802	605.7125
2500.12024	599.2125
2502.85855	603.3125
2505.59514	599.1125
2508.33002	597.5125
2511.06318	592.4125
2513.79462	597.4125
2516.52435	598.6125
2519.25237	595.4125
2521.97867	598.5125
2524.70327	588.6125
2527.42616	591.2125
2530.14734	585.7125
2532.86681	589.2125
2535.58458	590.6125
2538.30065	582.1125
2541.01501	584.6125
2543.72768	585.5125
2546.43864	590.7125
2549.14791	587.4125
2551.85548	580.7125
2554.56136	583.8125
2557.26554	576.4125
2559.96803	580.7125
2562.66883	578.2125
2565.36794	577.7125
2568.06536	574.2125
2570.7611	578.3125
2573.45514	574.1125
2576.14751	574.5125
2578.83819	574.3125
2581.52719	575.6125
2584.21451	560.8125
2586.90015	570.2125
2589.58411	566.4125
2592.2664	568.1125
2594.94701	566.4125
2597.62594	560.3125
2600.30321	563.9125
2602.9788	561.7125
2605.65273	560.4125
2608.32498	554.0125
2610.99557	560.5125
2613.66449	558.9125
2616.33175	557.2125
2618.99734	556.0125
2621.66128	554.4125
2624.32355	555.5125
2626.98416	553.2125
2629.64311	554.7125
2632.30041	554.2125
2634.95605	556.4125
2637.61004	547.7125
2640.26238	552.1125
2642.91306	549.4125
2645.56209	550.2125
2648.20948	548.1125
2650.85521	544.5125
2653.4993	549.6125
2656.14175	549.4125
2658.78255	548.6125
2661.42171	552.4125
2664.05923	552.4125
2666.6951	556.0125
2669.32934	554.8125
2671.96194	554.4125
2674.59291	556.6125
2677.22224	561.0125
2679.84993	555.7125
2682.476	546.7125
2685.10043	553.1125
2687.72324	552.4125
2690.34441	554.8125
2692.96396	554.4125
2695.58188	554.4125
2698.19818	553.1125
2700.81285	560.1125
2703.4259	558.0125
2706.03733	558.8125
2708.64714	559.3125
2711.25533	552.7125
2713.86191	552.6125
2716.46687	561.6125
2719.07021	559.2125
2721.67194	554.2125
2724.27206	556.8125
2726.87057	554.9125
2729.46747	555.9125
2732.06276	555.2125
2734.65644	556.8125
2737.24852	563.7125
2739.83899	549.0125
2742.42786	551.2125
2745.01513	554.0125
2747.60079	553.1125
2750.18486	552.5125
2752.76733	548.8125
2755.3482	550.1125
2757.92747	549.5125
2760.50515	550.3125
2763.08123	546.1125
2765.65573	541.9125
2768.22863	549.3125
2770.79994	543.2125
2773.36967	551.3125
2775.9378	549.0125
2778.50435	542.2125
2781.06932	543.2125
2783.6327	540.0125
2786.1945	544.0125
2788.75471	544.6125
2791.31335	549.4125
2793.87041	545.1125
2796.42589	543.4125
2798.97979	548.5125
2801.53212	548.3125
2804.08288	550.5125
2806.63206	556.2125
2809.17967	555.6125
2811.72571	554.6125
2814.27018	556.5125
2816.81308	557.0125
2819.35442	556.6125
2821.89419	560.5125
2824.43239	555.0125
2826.96904	560.9125
2829.50412	554.9125
2832.03763	559.7125
2834.56959	560.0125
2837.1	558.3125
2839.62884	555.9125
2842.15613	555.8125
2844.68186	564.1125
2847.20604	565.4125
2849.72867	570.2125
2852.24974	573.7125
2854.76927	566.7125
2857.28724	571.8125
2859.80367	572.9125
2862.31855	571.8125
2864.83189	570.4125
2867.34368	577.8125
2869.85393	578.4125
2872.36264	578.1125
2874.8698	580.4125
2877.37543	590.9125
2879.87952	600.4125
2882.38207	605.0125
2884.88308	601.9125
2887.38256	609.0125
2889.88051	622.9125
2892.37692	635.9125
2894.8718	628.3125
2897.36515	640.2125
2899.85698	651.0125
2902.34727	663.6125
2904.83604	676.4125
2907.32328	676.5125
2909.809	681.0125
2912.29319	698.0125
2914.77587	710.5125
2917.25702	718.3125
2919.73665	733.9125
2922.21476	742.0125
2924.69136	755.1125
2927.16644	762.5125
2929.64	775.1125
2932.11205	777.8125
2934.58258	782.6125
2937.05161	793.2125
2939.51912	798.7125
2941.98513	801.4125
2944.44962	801.3125
2946.91261	796.3125
2949.37409	793.2125
2951.83407	779.2125
2954.29254	771.9125
2956.74951	763.3125
2959.20498	748.5125
2961.65895	733.2125
2964.11142	716.6125
2966.56239	696.9125
2969.01186	688.3125
2971.45984	677.6125
2973.90632	658.4125
2976.35131	654.2125
2978.7948	651.2125
2981.23681	645.8125
2983.67732	634.6125
2986.11635	629.8125
2988.55388	620.2125
2990.98993	616.3125
2993.4245	616.6125
2995.85758	604.9125
2998.28917	610.7125
3000.71928	616.5125
3003.14791	614.7125
3005.57506	608.6125
3008.00073	607.4125
3010.42493	614.1125
3012.84764	608.2125
3015.26888	609.5125
3017.68865	608.3125
3020.10694	601.6125
3022.52376	600.4125
3024.9391	599.9125
3027.35298	589.7125
3029.76539	594.1125
3032.17632	585.6125
3034.5858	583.4125
3036.9938	579.1125
3039.40034	576.0125
3041.80542	573.9125
3044.20903	575.4125
3046.61118	571.1125
3049.01187	566.3125
3051.4111	569.9125
3053.80888	561.8125
3056.20519	564.1125
3058.60005	562.4125
3060.99345	569.0125
3063.3854	559.2125
3065.7759	572.6125
3068.16494	563.2125
3070.55254	562.2125
3072.93868	563.0125
3075.32338	568.6125
3077.70662	564.5125
3080.08842	571.0125
3082.46878	566.2125
3084.84769	570.7125
3087.22515	575.7125
3089.60118	579.5125
3091.97576	581.0125
3094.3489	581.2125
3096.72061	587.3125
3099.09087	593.0125
3101.4597	591.0125
3103.82709	598.2125
3106.19305	591.6125
3108.55757	600.4125
3110.92066	601.5125
3113.28232	608.5125
3115.64255	610.7125
3118.00134	605.4125
3120.35871	616.1125
3122.71466	616.8125
3125.06917	625.9125
3127.42226	629.1125
3129.77393	632.1125
3132.12417	635.8125
3134.47299	640.8125
3136.82039	646.3125
3139.16636	644.7125
3141.51092	650.8125
3143.85406	652.9125
3146.19579	662.8125
3148.53609	659.0125
3150.87499	669.5125
3153.21246	677.0125
3155.54853	683.7125
3157.88318	682.9125
3160.21642	687.2125
3162.54826	689.3125
3164.87868	695.8125
3167.2077	703.9125
3169.5353	700.2125
3171.86151	712.4125
3174.18631	707.5125
3176.5097	712.6125
3178.83169	714.4125
3181.15228	726.9125
3183.47147	728.7125
3185.78926	731.3125
3188.10565	733.5125
3190.42065	733.5125
3192.73424	740.5125
3195.04645	745.1125
3197.35725	745.0125
3199.66667	754.1125
3201.97469	758.2125
3204.28132	761.0125
3206.58656	757.8125
3208.8904	764.8125
3211.19287	769.3125
3213.49394	773.3125
3215.79363	768.2125
3218.09193	774.7125
3220.38884	777.8125
3222.68438	783.8125
3224.97853	783.0125
3227.2713	777.2125
3229.56269	779.5125
3231.8527	790.7125
3234.14133	784.6125
3236.42858	782.4125
3238.71446	786.1125
3240.99896	786.9125
3243.28209	789.7125
3245.56384	782.2125
3247.84423	791.3125
3250.12324	789.5125
3252.40088	787.1125
3254.67715	795.3125
3256.95205	799.1125
3259.22558	791.6125
3261.49775	792.8125
3263.76855	794.7125
3266.03799	798.8125
3268.30606	791.3125
3270.57277	789.1125
3272.83812	791.9125
3275.10211	790.5125
3277.36474	795.0125
3279.62601	788.2125
3281.88593	788.7125
3284.14448	800.3125
3286.40168	796.9125
3288.65753	784.9125
3290.91202	791.7125
3293.16516	787.2125
3295.41695	785.4125
3297.66738	788.9125
3299.91647	780.4125
3302.16421	778.2125
3304.4106	777.3125
3306.65564	774.5125
3308.89933	772.8125
3311.14169	771.6125
3313.38269	759.9125
3315.62236	765.6125
3317.86068	763.0125
3320.09766	751.3125
3322.3333	750.1125
3324.5676	745.1125
3326.80056	732.6125
3329.03219	732.3125
3331.26248	0.2125
3333.49143	0.0125
3335.71905	0.1125
