Data from AgNPs_FTO_APTES_UA_100um_CRN_0.1mM_R6G_10uM_NaF_0.1M_Addition_RamanShift__3__15-48-29-274.txt Node

Date: Tue Dec 21 15:48:29 GMT 2021
User: TCL
Spectrometer: QEP01345
Trigger mode: 4
Integration Time (sec): 7.000000E0
Scans to average: 10
Electric dark correction enabled: true
Nonlinearity correction enabled: false
Boxcar width: 0
XAxis mode: Raman Shifts
Number of Pixels in Spectrum: 1044
>>>>>Begin Spectral Data<<<<<
46.04893	0.75
50.45542	-0.65
54.85868	-0.35
59.25871	0.25
63.6555	35.15
68.04907	38.15
72.43941	41.05
76.82654	42.65
81.21044	46.45
85.59113	47.75
89.96862	50.05
94.34289	47.25
98.71396	51.25
103.08183	50.25
107.4465	58.65
111.80798	56.85
116.16626	57.95
120.52136	58.45
124.87327	58.75
129.222	59.55
133.56755	66.25
137.90993	68.85
142.24913	70.25
146.58517	82.85
150.91804	92.85
155.24774	104.55
159.57429	123.55
163.89768	162.95
168.21792	208.85
172.53501	276.95
176.84895	386.05
181.15975	535.45
185.46741	747.15
189.77193	1036.75
194.07331	1384.65
198.37157	1796.75
202.6667	2227.75
206.9587	2648.35
211.24758	3081.55
215.53334	3501.65
219.81599	3968.05
224.09553	4463.45
228.37195	5025.05
232.64527	5650.25
236.91549	6311.75
241.18261	6944.85
245.44663	7558.15
249.70755	8022.75
253.96539	8450.05
258.22014	8817.75
262.4718	9090.55
266.72039	9335.75
270.96589	9468.75
275.20832	9464.95
279.44768	9384.35
283.68397	9261.25
287.91719	9139.15
292.14735	9083.95
296.37445	9103.65
300.59849	9188.45
304.81948	9290.35
309.03742	9313.35
313.25231	9244.25
317.46415	9008.75
321.67296	8680.45
325.87872	8386.85
330.08145	8238.75
334.28114	8232.75
338.47781	8250.95
342.67145	8370.35
346.86207	8552.75
351.04966	8754.85
355.23424	8983.75
359.4158	9196.15
363.59435	9339.35
367.76989	9420.95
371.94243	9481.85
376.11196	9526.25
380.27849	9570.65
384.44203	9609.25
388.60257	9655.15
392.76012	9712.35
396.91468	9775.15
401.06626	9940.85
405.21485	10044.35
409.36047	9974.85
413.50311	9720.85
417.64277	9475.25
421.77947	9293.35
425.9132	9246.85
430.04396	9218.35
434.17176	9260.45
438.2966	9292.75
442.41849	9377.55
446.53742	9527.55
450.6534	9703.25
454.76644	9810.35
458.87653	9871.65
462.98368	9913.55
467.08789	9859.55
471.18916	9827.85
475.2875	9776.65
479.38291	9717.75
483.4754	9687.25
487.56496	9608.35
491.6516	9524.75
495.73531	9420.05
499.81612	9401.35
503.89401	9429.45
507.96899	9427.95
512.04106	9448.85
516.11023	9471.25
520.1765	9491.45
524.23987	9447.85
528.30034	9378.05
532.35792	9288.25
536.41261	9219.95
540.46441	9110.35
544.51333	9077.05
548.55936	9136.05
552.60252	9287.45
556.64279	9417.65
560.6802	9507.65
564.71473	9569.85
568.7464	9670.35
572.7752	9861.75
576.80114	9896.15
580.82422	9899.85
584.84444	9972.35
588.86181	9955.35
592.87633	9968.15
596.888	9926.25
600.89682	10004.65
604.9028	10439.85
608.90594	11695.75
612.90624	13392.25
616.90371	13052.95
620.89834	10709.65
624.89015	9506.45
628.87913	9312.05
632.86528	9501.65
636.84862	9694.45
640.82913	9665.25
644.80683	9347.55
648.78172	9079.05
652.75379	8947.25
656.72306	9004.45
660.68952	9186.75
664.65319	9134.25
668.61405	8919.15
672.57211	8786.75
676.52738	8792.75
680.47986	8811.75
684.42955	8785.05
688.37646	8722.95
692.32058	8726.85
696.26192	8735.25
700.20048	8808.45
704.13626	8825.25
708.06928	8833.35
711.99952	8796.45
715.927	8793.55
719.85171	8801.45
723.77365	8817.25
727.69284	8753.85
731.60928	8677.75
735.52295	8643.95
739.43388	8624.65
743.34206	8609.95
747.24749	8645.55
751.15017	8668.15
755.05012	8737.85
758.94733	8949.55
762.8418	9423.95
766.73354	10246.65
770.62254	11213.35
774.50882	11734.95
778.39237	11335.45
782.27321	10290.65
786.15132	9412.35
790.02671	8850.85
793.89938	8578.65
797.76935	8474.25
801.6366	8444.65
805.50115	8411.75
809.36299	8437.85
813.22213	8434.65
817.07857	8446.75
820.93231	8415.95
824.78336	8326.35
828.63172	8314.85
832.47738	8259.35
836.32036	8228.25
840.16066	8199.75
843.99827	8192.45
847.8332	8162.05
851.66546	8124.25
855.49504	8105.75
859.32195	8115.05
863.1462	8077.65
866.96777	8091.35
870.78668	8068.05
874.60293	8104.25
878.41652	8092.75
882.22745	8146.35
886.03573	8183.75
889.84136	8203.25
893.64433	8149.85
897.44466	8115.55
901.24235	8044.15
905.0374	7979.85
908.8298	7947.95
912.61957	7925.45
916.40671	7939.55
920.19121	7988.95
923.97308	8028.85
927.75233	8026.65
931.52895	8016.45
935.30295	7942.75
939.07433	7834.35
942.84309	7689.75
946.60924	7587.65
950.37278	7556.45
954.13371	7524.55
957.89203	7496.85
961.64774	7500.75
965.40086	7474.65
969.15137	7426.45
972.89929	7413.15
976.64461	7377.55
980.38733	7355.65
984.12747	7362.75
987.86502	7367.35
991.59999	7389.05
995.33237	7393.55
999.06217	7467.75
1002.78939	7552.55
1006.51404	7644.15
1010.23611	7732.65
1013.95561	7793.05
1017.67255	7815.85
1021.38692	7768.85
1025.09872	7709.85
1028.80796	7626.05
1032.51465	7580.95
1036.21877	7607.55
1039.92035	7627.95
1043.61937	7649.65
1047.31584	7676.75
1051.00976	7709.35
1054.70114	7720.65
1058.38998	7721.85
1062.07627	7774.15
1065.76003	7815.75
1069.44126	7902.05
1073.11995	7969.45
1076.79611	8042.05
1080.46974	8082.85
1084.14085	8122.65
1087.80943	8162.95
1091.47549	8241.75
1095.13903	8244.95
1098.80005	8168.45
1102.45857	8008.35
1106.11456	7859.25
1109.76805	7790.35
1113.41903	7863.55
1117.06751	7980.55
1120.71348	8131.55
1124.35696	8343.85
1127.99793	8542.35
1131.63641	8685.45
1135.2724	8610.25
1138.90589	8445.15
1142.5369	8278.45
1146.16542	8148.05
1149.79145	8066.05
1153.415	8038.55
1157.03607	8019.85
1160.65467	8125.75
1164.27079	8301.85
1167.88443	8595.85
1171.49561	9046.05
1175.10432	9681.45
1178.71056	10546.95
1182.31434	11300.85
1185.91565	11554.75
1189.51451	11444.35
1193.11091	11023.55
1196.70485	10582.45
1200.29634	10175.35
1203.88538	9850.65
1207.47197	9555.85
1211.05612	9233.95
1214.63782	8971.45
1218.21708	8784.55
1221.79391	8597.75
1225.36829	8515.75
1228.94024	8444.75
1232.50976	8409.35
1236.07685	8394.35
1239.6415	8376.85
1243.20374	8374.95
1246.76355	8409.85
1250.32093	8490.15
1253.8759	8613.85
1257.42845	8769.95
1260.97859	8963.05
1264.52631	9160.05
1268.07163	9361.75
1271.61453	9507.65
1275.15503	9652.65
1278.69312	9795.25
1282.22882	9921.75
1285.76211	10118.85
1289.29301	10412.55
1292.82151	10750.65
1296.34761	11133.05
1299.87133	11625.45
1303.39266	12219.25
1306.9116	12926.95
1310.42815	13693.55
1313.94233	14120.75
1317.45412	14035.15
1320.96354	13610.25
1324.47058	13120.55
1327.97525	12692.95
1331.47754	12333.65
1334.97747	12075.75
1338.47502	11988.55
1341.97022	12028.75
1345.46305	12180.05
1348.95352	12433.55
1352.44163	12826.75
1355.92738	13454.75
1359.41078	14513.35
1362.89183	15736.65
1366.37053	15827.15
1369.84688	14267.95
1373.32088	12418.05
1376.79254	11101.85
1380.26186	10448.55
1383.72883	10190.55
1387.19347	10016.45
1390.65578	9825.45
1394.11575	9662.15
1397.57339	9502.45
1401.0287	9463.55
1404.48168	9409.85
1407.93234	9305.75
1411.38068	9132.65
1414.82669	8950.55
1418.27039	8734.15
1421.71177	8548.65
1425.15083	8366.95
1428.58758	8211.05
1432.02203	8192.05
1435.45416	8266.35
1438.88399	8374.35
1442.31151	8430.35
1445.73673	8510.85
1449.15965	8611.85
1452.58027	8680.35
1455.9986	8697.35
1459.41463	8757.85
1462.82837	8870.75
1466.23982	8990.95
1469.64898	9103.65
1473.05586	9213.25
1476.46045	9238.85
1479.86276	9303.75
1483.26279	9346.25
1486.66054	9456.45
1490.05602	9634.25
1493.44922	9933.75
1496.84016	10407.95
1500.22882	11173.25
1503.61521	12162.35
1506.99934	13327.85
1510.38121	14302.55
1513.76081	14607.35
1517.13816	14017.95
1520.51324	12839.65
1523.88607	11650.45
1527.25665	10883.55
1530.62498	10428.35
1533.99105	10158.65
1537.35488	9926.55
1540.71647	9725.25
1544.07581	9495.85
1547.4329	9334.75
1550.78776	9212.05
1554.14038	9168.55
1557.49077	9202.85
1560.83892	9270.05
1564.18484	9459.65
1567.52853	9631.65
1570.86999	9857.55
1574.20922	10018.05
1577.54624	10071.35
1580.88103	9855.95
1584.2136	9506.85
1587.54395	9294.45
1590.87208	9265.35
1594.19801	9467.35
1597.52172	9800.25
1600.84321	9924.75
1604.16251	9674.55
1607.47959	9243.95
1610.79447	8779.95
1614.10715	8293.95
1617.41763	7875.85
1620.7259	7604.55
1624.03199	7391.85
1627.33587	7354.85
1630.63757	7421.15
1633.93707	7652.15
1637.23439	8073.45
1640.52951	8733.65
1643.82246	9652.15
1647.11321	10734.45
1650.40179	11506.55
1653.68819	11458.35
1656.97241	10488.45
1660.25446	9179.05
1663.53433	8130.65
1666.81203	7426.05
1670.08756	7002.55
1673.36092	6714.75
1676.63211	6532.15
1679.90115	6391.85
1683.16801	6299.75
1686.43272	6206.45
1689.69527	6185.75
1692.95567	6138.05
1696.2139	6123.35
1699.46999	6117.15
1702.72392	6068.45
1705.97571	5989.45
1709.22535	5916.75
1712.47284	5873.45
1715.71819	5835.75
1718.96139	5769.35
1722.20246	5737.75
1725.44139	5712.95
1728.67818	5670.55
1731.91284	5637.15
1735.14537	5584.45
1738.37576	5571.45
1741.60403	5559.75
1744.83017	5554.15
1748.05418	5523.45
1751.27607	5528.65
1754.49584	5536.15
1757.71349	5526.35
1760.92903	5509.35
1764.14244	5497.05
1767.35375	5477.75
1770.56294	5457.25
1773.77002	5410.65
1776.97499	5404.05
1780.17785	5381.85
1783.37861	5352.95
1786.57727	5343.85
1789.77382	5317.15
1792.96828	5294.05
1796.16064	5270.45
1799.3509	5264.85
1802.53907	5248.65
1805.72514	5228.55
1808.90913	5197.85
1812.09102	5176.65
1815.27083	5161.65
1818.44856	5161.55
1821.6242	5131.65
1824.79776	5129.05
1827.96924	5113.85
1831.13864	5125.95
1834.30597	5102.05
1837.47122	5095.55
1840.6344	5080.15
1843.7955	5072.15
1846.95454	5071.05
1850.11151	5052.65
1853.26642	5036.95
1856.41926	5046.75
1859.57004	5035.85
1862.71876	5024.65
1865.86542	4998.85
1869.01003	5006.55
1872.15258	4991.85
1875.29308	4996.25
1878.43152	4972.65
1881.56792	4971.55
1884.70227	4963.75
1887.83457	4935.85
1890.96482	4929.55
1894.09304	4931.95
1897.21921	4917.15
1900.34335	4910.85
1903.46544	4906.95
1906.58551	4897.85
1909.70353	4883.35
1912.81953	4868.75
1915.93349	4869.05
1919.04543	4846.15
1922.15534	4849.45
1925.26322	4829.65
1928.36908	4811.75
1931.47292	4805.95
1934.57473	4783.65
1937.67453	4772.95
1940.77232	4750.15
1943.86808	4743.05
1946.96184	4717.95
1950.05358	4709.45
1953.14331	4690.15
1956.23103	4684.45
1959.31675	4661.15
1962.40046	4658.75
1965.48217	4625.65
1968.56188	4616.85
1971.63959	4598.95
1974.7153	4589.55
1977.78901	4570.75
1980.86073	4542.45
1983.93046	4535.55
1986.99819	4513.95
1990.06394	4489.75
1993.1277	4472.45
1996.18947	4451.05
1999.24925	4455.45
2002.30706	4424.75
2005.36288	4414.85
2008.41672	4400.85
2011.46859	4379.85
2014.51848	4374.75
2017.56639	4348.05
2020.61233	4320.45
2023.6563	4324.25
2026.6983	4295.65
2029.73833	4294.25
2032.7764	4263.25
2035.8125	4268.35
2038.84664	4262.15
2041.87881	4246.35
2044.90903	4238.95
2047.93729	4233.65
2050.96359	4227.45
2053.98794	4221.45
2057.01034	4206.45
2060.03078	4203.35
2063.04927	4184.15
2066.06582	4180.05
2069.08042	4172.75
2072.09307	4180.05
2075.10378	4162.95
2078.11255	4150.35
2081.11938	4159.75
2084.12426	4151.25
2087.12722	4165.65
2090.12824	4146.85
2093.12732	4153.65
2096.12447	4156.45
2099.11969	4143.75
2102.11299	4141.45
2105.10435	4131.35
2108.09379	4144.85
2111.08131	4126.65
2114.0669	4126.45
2117.05057	4135.55
2120.03233	4142.85
2123.01216	4125.45
2125.99008	4136.25
2128.96609	4152.75
2131.94018	4129.75
2134.91236	4141.55
2137.88263	4129.65
2140.851	4121.95
2143.81746	4134.45
2146.78201	4132.15
2149.74466	4118.55
2152.7054	4126.75
2155.66425	4122.35
2158.6212	4114.85
2161.57625	4109.55
2164.52941	4104.85
2167.48067	4091.35
2170.43004	4092.55
2173.37752	4085.85
2176.32311	4089.25
2179.26681	4094.15
2182.20863	4077.25
2185.14856	4085.95
2188.08661	4067.55
2191.02278	4069.15
2193.95707	4057.25
2196.88948	4049.65
2199.82001	4049.25
2202.74867	4052.65
2205.67545	4032.05
2208.60037	4018.95
2211.52341	4009.25
2214.44458	3997.15
2217.36388	4000.55
2220.28132	3983.65
2223.1969	3971.75
2226.11061	3974.05
2229.02246	3950.25
2231.93245	3950.95
2234.84058	3937.45
2237.74686	3919.35
2240.65128	3929.65
2243.55385	3912.35
2246.45456	3909.75
2249.35343	3898.65
2252.25044	3897.95
2255.14561	3888.25
2258.03893	3886.85
2260.93041	3889.95
2263.82004	3862.75
2266.70783	3845.65
2269.59378	3839.65
2272.4779	3822.55
2275.36017	3808.15
2278.24061	3800.95
2281.11922	3808.35
2283.996	3788.85
2286.87094	3779.35
2289.74405	3766.05
2292.61534	3752.75
2295.4848	3758.05
2298.35243	3736.05
2301.21824	3732.55
2304.08223	3738.15
2306.94439	3737.75
2309.80474	3732.45
2312.66327	3714.95
2315.51999	3726.45
2318.37489	3714.25
2321.22797	3705.05
2324.07925	3691.25
2326.92871	3687.05
2329.77637	3689.25
2332.62222	3667.25
2335.46626	3662.45
2338.3085	3659.95
2341.14893	3650.75
2343.98756	3660.95
2346.8244	3653.25
2349.65943	3629.85
2352.49267	3645.05
2355.32411	3639.65
2358.15376	3637.15
2360.98161	3647.75
2363.80768	3640.65
2366.63195	3639.45
2369.45444	3635.95
2372.27514	3624.65
2375.09405	3622.55
2377.91118	3617.45
2380.72652	3597.15
2383.54009	3593.65
2386.35187	3579.55
2389.16188	3562.15
2391.97011	3554.35
2394.77657	3552.65
2397.58125	3529.65
2400.38416	3521.85
2403.18529	3516.85
2405.98466	3502.35
2408.78226	3504.95
2411.57809	3485.25
2414.37216	3490.75
2417.16446	3489.25
2419.955	3471.65
2422.74378	3477.35
2425.5308	3469.25
2428.31606	3476.15
2431.09956	3459.45
2433.88131	3454.45
2436.6613	3452.25
2439.43954	3449.65
2442.21603	3444.65
2444.99077	3442.45
2447.76377	3436.85
2450.53501	3436.55
2453.30451	3424.85
2456.07226	3416.45
2458.83827	3423.85
2461.60254	3420.35
2464.36507	3418.75
2467.12586	3403.95
2469.88492	3404.25
2472.64224	3397.75
2475.39782	3417.05
2478.15167	3407.65
2480.90379	3400.75
2483.65417	3398.55
2486.40283	3384.65
2489.14976	3406.95
2491.89497	3398.75
2494.63845	3402.45
2497.3802	3399.65
2500.12024	3391.45
2502.85855	3366.25
2505.59514	3373.35
2508.33002	3375.65
2511.06318	3338.85
2513.79462	3346.75
2516.52435	3329.05
2519.25237	3320.65
2521.97867	3323.95
2524.70327	3309.85
2527.42616	3308.65
2530.14734	3296.75
2532.86681	3289.05
2535.58458	3293.75
2538.30065	3273.15
2541.01501	3280.65
2543.72768	3273.55
2546.43864	3267.75
2549.14791	3261.25
2551.85548	3258.15
2554.56136	3244.55
2557.26554	3241.05
2559.96803	3247.65
2562.66883	3222.55
2565.36794	3204.85
2568.06536	3211.55
2570.7611	3205.95
2573.45514	3213.25
2576.14751	3203.95
2578.83819	3197.35
2581.52719	3180.15
2584.21451	3179.75
2586.90015	3168.65
2589.58411	3153.35
2592.2664	3156.15
2594.94701	3145.25
2597.62594	3149.35
2600.30321	3135.05
2602.9788	3133.35
2605.65273	3125.65
2608.32498	3129.85
2610.99557	3124.65
2613.66449	3121.15
2616.33175	3112.95
2618.99734	3099.65
2621.66128	3102.05
2624.32355	3108.75
2626.98416	3078.05
2629.64311	3069.25
2632.30041	3069.45
2634.95605	3085.75
2637.61004	3063.05
2640.26238	3064.15
2642.91306	3055.05
2645.56209	3060.05
2648.20948	3057.45
2650.85521	3034.65
2653.4993	3058.35
2656.14175	3044.65
2658.78255	3050.85
2661.42171	3041.75
2664.05923	3045.55
2666.6951	3042.05
2669.32934	3035.35
2671.96194	3037.95
2674.59291	3044.55
2677.22224	3049.05
2679.84993	3039.75
2682.476	3040.45
2685.10043	3036.85
2687.72324	3032.25
2690.34441	3042.55
2692.96396	3034.35
2695.58188	3038.15
2698.19818	3035.85
2700.81285	3038.75
2703.4259	3050.45
2706.03733	3089.15
2708.64714	3054.05
2711.25533	3039.45
2713.86191	3036.75
2716.46687	3034.85
2719.07021	3024.95
2721.67194	3039.15
2724.27206	3010.25
2726.87057	3015.35
2729.46747	3012.45
2732.06276	3004.75
2734.65644	3012.75
2737.24852	3017.35
2739.83899	3003.25
2742.42786	2999.65
2745.01513	3000.05
2747.60079	2980.15
2750.18486	2980.65
2752.76733	2978.45
2755.3482	2979.65
2757.92747	2970.85
2760.50515	2965.85
2763.08123	2960.25
2765.65573	2967.55
2768.22863	2956.65
2770.79994	2944.15
2773.36967	2948.75
2775.9378	2945.95
2778.50435	2935.45
2781.06932	2940.25
2783.6327	2933.25
2786.1945	2916.85
2788.75471	2914.15
2791.31335	2907.55
2793.87041	2910.95
2796.42589	2895.65
2798.97979	2895.35
2801.53212	2898.65
2804.08288	2886.55
2806.63206	2872.85
2809.17967	2869.95
2811.72571	2888.65
2814.27018	2878.65
2816.81308	2858.75
2819.35442	2855.65
2821.89419	2849.35
2824.43239	2858.95
2826.96904	2863.05
2829.50412	2855.45
2832.03763	2848.65
2834.56959	2846.55
2837.1	2843.75
2839.62884	2846.35
2842.15613	2848.45
2844.68186	2848.45
2847.20604	2856.85
2849.72867	2859.45
2852.24974	2852.85
2854.76927	2863.65
2857.28724	2876.75
2859.80367	2861.25
2862.31855	2851.25
2864.83189	2853.95
2867.34368	2841.65
2869.85393	2836.45
2872.36264	2838.05
2874.8698	2831.35
2877.37543	2827.55
2879.87952	2833.05
2882.38207	2830.05
2884.88308	2847.75
2887.38256	2819.95
2889.88051	2817.45
2892.37692	2824.35
2894.8718	2816.15
2897.36515	2812.95
2899.85698	2827.85
2902.34727	2831.75
2904.83604	2818.55
2907.32328	2827.95
2909.809	2834.75
2912.29319	2834.95
2914.77587	2832.85
2917.25702	2830.05
2919.73665	2827.55
2922.21476	2840.85
2924.69136	2829.45
2927.16644	2813.95
2929.64	2827.05
2932.11205	2810.75
2934.58258	2809.85
2937.05161	2813.95
2939.51912	2813.75
2941.98513	2803.25
2944.44962	2797.45
2946.91261	2795.15
2949.37409	2797.65
2951.83407	2787.15
2954.29254	2780.65
2956.74951	2784.05
2959.20498	2773.45
2961.65895	2764.85
2964.11142	2750.25
2966.56239	2741.95
2969.01186	2747.05
2971.45984	2730.15
2973.90632	2740.55
2976.35131	2722.75
2978.7948	2721.25
2981.23681	2717.65
2983.67732	2697.05
2986.11635	2707.35
2988.55388	2690.85
2990.98993	2695.45
2993.4245	2690.75
2995.85758	2684.35
2998.28917	2676.25
3000.71928	2677.55
3003.14791	2662.85
3005.57506	2661.85
3008.00073	2666.15
3010.42493	2658.45
3012.84764	2654.95
3015.26888	2659.45
3017.68865	2647.15
3020.10694	2649.05
3022.52376	2638.05
3024.9391	2634.65
3027.35298	2643.75
3029.76539	2635.65
3032.17632	2634.65
3034.5858	2619.85
3036.9938	2623.55
3039.40034	2615.55
3041.80542	2602.45
3044.20903	2611.55
3046.61118	2611.25
3049.01187	2604.55
3051.4111	2594.75
3053.80888	2597.15
3056.20519	2605.95
3058.60005	2606.55
3060.99345	2593.25
3063.3854	2581.45
3065.7759	2595.75
3068.16494	2584.75
3070.55254	2567.35
3072.93868	2580.55
3075.32338	2579.65
3077.70662	2563.15
3080.08842	2567.85
3082.46878	2562.65
3084.84769	2551.95
3087.22515	2562.95
3089.60118	2569.25
3091.97576	2571.75
3094.3489	2577.55
3096.72061	2572.35
3099.09087	2564.55
3101.4597	2560.35
3103.82709	2573.25
3106.19305	2564.95
3108.55757	2568.95
3110.92066	2569.85
3113.28232	2565.65
3115.64255	2547.95
3118.00134	2556.05
3120.35871	2564.45
3122.71466	2548.95
3125.06917	2553.15
3127.42226	2543.25
3129.77393	2566.65
3132.12417	2552.85
3134.47299	2560.85
3136.82039	2558.45
3139.16636	2572.85
3141.51092	2572.55
3143.85406	2580.05
3146.19579	2579.05
3148.53609	2577.85
3150.87499	2591.65
3153.21246	2605.85
3155.54853	2600.75
3157.88318	2595.85
3160.21642	2615.15
3162.54826	2604.45
3164.87868	2609.65
3167.2077	2609.85
3169.5353	2610.45
3171.86151	2616.65
3174.18631	2618.35
3176.5097	2610.45
3178.83169	2615.65
3181.15228	2626.15
3183.47147	2610.25
3185.78926	2624.35
3188.10565	2616.15
3190.42065	2625.25
3192.73424	2631.35
3195.04645	2619.75
3197.35725	2618.05
3199.66667	2634.35
3201.97469	2629.75
3204.28132	2633.85
3206.58656	2645.25
3208.8904	2647.85
3211.19287	2646.55
3213.49394	2648.75
3215.79363	2655.15
3218.09193	2658.65
3220.38884	2662.65
3222.68438	2674.05
3224.97853	2662.85
3227.2713	2666.25
3229.56269	2664.05
3231.8527	2671.95
3234.14133	2637.05
3236.42858	2642.55
3238.71446	2646.25
3240.99896	2636.25
3243.28209	2640.65
3245.56384	2629.85
3247.84423	2639.85
3250.12324	2646.65
3252.40088	2646.75
3254.67715	2632.95
3256.95205	2630.35
3259.22558	2637.35
3261.49775	2620.35
3263.76855	2620.25
3266.03799	2612.35
3268.30606	2611.85
3270.57277	2604.55
3272.83812	2591.15
3275.10211	2607.65
3277.36474	2598.85
3279.62601	2599.25
3281.88593	2591.05
3284.14448	2590.25
3286.40168	2588.45
3288.65753	2586.85
3290.91202	2586.45
3293.16516	2568.75
3295.41695	2573.75
3297.66738	2552.25
3299.91647	2543.75
3302.16421	2522.35
3304.4106	2516.45
3306.65564	2510.35
3308.89933	2496.05
3311.14169	2479.65
3313.38269	2467.85
3315.62236	2464.15
3317.86068	2436.25
3320.09766	2415.35
3322.3333	2390.15
3324.5676	2392.95
3326.80056	2365.55
3329.03219	2352.85
3331.26248	1.05
3333.49143	-0.35
3335.71905	-0.45
