Data from AgNPs_FTO_APTES_UA_1um_CRN_0.1mM_R6G_10uM_NaF_0.1M_Addition_RamanShift__13__11-49-19-000.txt Node

Date: Tue Dec 21 11:49:19 GMT 2021
User: TCL
Spectrometer: QEP01345
Trigger mode: 4
Integration Time (sec): 7.000000E0
Scans to average: 10
Electric dark correction enabled: true
Nonlinearity correction enabled: false
Boxcar width: 0
XAxis mode: Raman Shifts
Number of Pixels in Spectrum: 1044
>>>>>Begin Spectral Data<<<<<
46.04893	-0.85
50.45542	0.05
54.85868	-0.25
59.25871	0.05
63.6555	35.05
68.04907	36.55
72.43941	41.15
76.82654	38.45
81.21044	45.25
85.59113	46.05
89.96862	47.35
94.34289	50.35
98.71396	50.45
103.08183	55.35
107.4465	55.55
111.80798	55.75
116.16626	54.65
120.52136	54.05
124.87327	56.55
129.222	55.75
133.56755	60.95
137.90993	68.15
142.24913	67.95
146.58517	79.25
150.91804	87.25
155.24774	100.85
159.57429	121.85
163.89768	153.65
168.21792	193.15
172.53501	262.25
176.84895	357.25
181.15975	497.85
185.46741	691.25
189.77193	953.75
194.07331	1289.45
198.37157	1666.85
202.6667	2075.35
206.9587	2489.25
211.24758	2903.55
215.53334	3306.75
219.81599	3760.95
224.09553	4232.15
228.37195	4782.45
232.64527	5369.25
236.91549	5967.25
241.18261	6556.05
245.44663	7072.25
249.70755	7536.95
253.96539	7908.35
258.22014	8167.05
262.4718	8361.45
266.72039	8443.35
270.96589	8472.25
275.20832	8367.95
279.44768	8252.95
283.68397	8147.75
287.91719	8008.85
292.14735	7939.85
296.37445	7907.45
300.59849	7926.95
304.81948	7993.35
309.03742	8071.25
313.25231	8058.25
317.46415	7950.05
321.67296	7725.15
325.87872	7480.35
330.08145	7338.25
334.28114	7283.05
338.47781	7288.15
342.67145	7363.25
346.86207	7489.75
351.04966	7669.35
355.23424	7808.45
359.4158	7946.35
363.59435	8032.25
367.76989	8061.65
371.94243	8049.15
376.11196	7992.15
380.27849	7990.05
384.44203	7960.45
388.60257	8016.05
392.76012	8087.85
396.91468	8235.85
401.06626	8414.95
405.21485	8512.85
409.36047	8459.75
413.50311	8268.45
417.64277	8107.95
421.77947	8082.65
425.9132	8085.65
430.04396	8134.35
434.17176	8198.35
438.2966	8223.95
442.41849	8282.85
446.53742	8456.25
450.6534	8611.25
454.76644	8703.05
458.87653	8675.55
462.98368	8624.95
467.08789	8544.45
471.18916	8444.45
475.2875	8310.15
479.38291	8201.75
483.4754	8098.05
487.56496	8057.65
491.6516	8005.95
495.73531	7990.55
499.81612	7989.45
503.89401	8044.05
507.96899	8045.35
512.04106	8048.05
516.11023	7979.95
520.1765	7900.05
524.23987	7862.45
528.30034	7805.75
532.35792	7749.15
536.41261	7645.15
540.46441	7506.75
544.51333	7464.95
548.55936	7550.65
552.60252	7707.55
556.64279	7864.65
560.6802	7944.45
564.71473	7964.05
568.7464	8107.45
572.7752	8376.55
576.80114	8649.05
580.82422	9027.75
584.84444	9406.85
588.86181	9810.95
592.87633	10141.65
596.888	10253.45
600.89682	9986.25
604.9028	9784.55
608.90594	10429.25
612.90624	11428.45
616.90371	10806.25
620.89834	8754.75
624.89015	7743.95
628.87913	7612.45
632.86528	7744.15
636.84862	7861.55
640.82913	7763.25
644.80683	7505.85
648.78172	7307.35
652.75379	7275.35
656.72306	7397.25
660.68952	7542.15
664.65319	7545.05
668.61405	7412.15
672.57211	7383.15
676.52738	7439.55
680.47986	7478.95
684.42955	7406.45
688.37646	7320.75
692.32058	7292.05
696.26192	7294.55
700.20048	7368.55
704.13626	7431.15
708.06928	7480.75
711.99952	7478.85
715.927	7446.95
719.85171	7395.55
723.77365	7369.85
727.69284	7244.05
731.60928	7119.35
735.52295	7084.85
739.43388	7101.15
743.34206	7101.55
747.24749	7170.95
751.15017	7268.75
755.05012	7400.55
758.94733	7687.45
762.8418	8188.15
766.73354	9041.25
770.62254	9838.15
774.50882	10016.55
778.39237	9423.95
782.27321	8630.45
786.15132	7925.45
790.02671	7423.85
793.89938	7175.25
797.76935	7047.15
801.6366	6993.55
805.50115	6944.15
809.36299	6920.85
813.22213	6828.45
817.07857	6801.65
820.93231	6751.15
824.78336	6734.85
828.63172	6730.25
832.47738	6709.55
836.32036	6686.85
840.16066	6673.05
843.99827	6646.15
847.8332	6627.55
851.66546	6627.55
855.49504	6638.55
859.32195	6643.05
863.1462	6606.35
866.96777	6587.75
870.78668	6587.75
874.60293	6588.35
878.41652	6596.75
882.22745	6613.55
886.03573	6627.95
889.84136	6660.85
893.64433	6649.05
897.44466	6645.65
901.24235	6651.05
905.0374	6631.75
908.8298	6597.65
912.61957	6573.65
916.40671	6636.55
920.19121	6701.55
923.97308	6823.15
927.75233	6912.75
931.52895	6903.75
935.30295	6755.25
939.07433	6556.25
942.84309	6418.95
946.60924	6312.55
950.37278	6263.85
954.13371	6239.95
957.89203	6214.35
961.64774	6205.95
965.40086	6201.65
969.15137	6196.15
972.89929	6152.25
976.64461	6102.95
980.38733	6091.75
984.12747	6069.05
987.86502	6084.15
991.59999	6110.35
995.33237	6123.25
999.06217	6220.25
1002.78939	6306.85
1006.51404	6451.65
1010.23611	6595.05
1013.95561	6686.25
1017.67255	6747.95
1021.38692	6695.25
1025.09872	6582.05
1028.80796	6477.85
1032.51465	6417.15
1036.21877	6421.15
1039.92035	6451.35
1043.61937	6504.65
1047.31584	6577.55
1051.00976	6607.75
1054.70114	6639.25
1058.38998	6663.15
1062.07627	6691.85
1065.76003	6743.85
1069.44126	6856.85
1073.11995	7020.35
1076.79611	7177.75
1080.46974	7275.25
1084.14085	7301.45
1087.80943	7384.75
1091.47549	7470.85
1095.13903	7475.65
1098.80005	7328.95
1102.45857	7093.75
1106.11456	6859.35
1109.76805	6730.65
1113.41903	6684.25
1117.06751	6778.35
1120.71348	6889.65
1124.35696	7047.95
1127.99793	7222.45
1131.63641	7331.65
1135.2724	7257.25
1138.90589	7158.05
1142.5369	7083.75
1146.16542	7070.65
1149.79145	7089.35
1153.415	7142.05
1157.03607	7214.25
1160.65467	7394.45
1164.27079	7739.25
1167.88443	8196.55
1171.49561	8771.05
1175.10432	9558.45
1178.71056	10493.85
1182.31434	11297.05
1185.91565	11714.25
1189.51451	11684.45
1193.11091	11357.85
1196.70485	10777.35
1200.29634	10166.35
1203.88538	9574.05
1207.47197	9131.05
1211.05612	8807.15
1214.63782	8534.55
1218.21708	8330.95
1221.79391	8199.85
1225.36829	8119.75
1228.94024	8114.95
1232.50976	8100.35
1236.07685	8037.45
1239.6415	7962.85
1243.20374	7930.15
1246.76355	7902.75
1250.32093	7964.45
1253.8759	8097.75
1257.42845	8321.25
1260.97859	8603.85
1264.52631	8903.85
1268.07163	9216.05
1271.61453	9485.35
1275.15503	9758.55
1278.69312	10014.95
1282.22882	10314.15
1285.76211	10715.95
1289.29301	11145.45
1292.82151	11566.55
1296.34761	12041.75
1299.87133	12572.45
1303.39266	13274.25
1306.9116	14067.15
1310.42815	14871.05
1313.94233	15378.35
1317.45412	15273.95
1320.96354	14854.55
1324.47058	14429.35
1327.97525	14053.45
1331.47754	13876.35
1334.97747	13691.65
1338.47502	13593.55
1341.97022	13485.65
1345.46305	13432.35
1348.95352	13510.75
1352.44163	13752.55
1355.92738	14225.35
1359.41078	14971.75
1362.89183	15806.95
1366.37053	15889.95
1369.84688	14729.85
1373.32088	12984.35
1376.79254	11563.45
1380.26186	10756.25
1383.72883	10383.55
1387.19347	10091.65
1390.65578	9808.85
1394.11575	9610.35
1397.57339	9575.85
1401.0287	9640.75
1404.48168	9665.25
1407.93234	9646.15
1411.38068	9523.45
1414.82669	9347.55
1418.27039	9110.25
1421.71177	8867.55
1425.15083	8592.35
1428.58758	8420.95
1432.02203	8419.55
1435.45416	8509.15
1438.88399	8643.45
1442.31151	8755.25
1445.73673	8875.75
1449.15965	9002.25
1452.58027	9110.15
1455.9986	9146.25
1459.41463	9234.75
1462.82837	9399.35
1466.23982	9604.45
1469.64898	9834.55
1473.05586	9993.35
1476.46045	10142.25
1479.86276	10249.85
1483.26279	10433.45
1486.66054	10649.55
1490.05602	10973.85
1493.44922	11433.55
1496.84016	12032.75
1500.22882	12821.55
1503.61521	13653.15
1506.99934	14476.85
1510.38121	14959.95
1513.76081	14897.05
1517.13816	14199.35
1520.51324	13242.05
1523.88607	12308.65
1527.25665	11658.35
1530.62498	11261.15
1533.99105	10957.25
1537.35488	10614.45
1540.71647	10284.05
1544.07581	9938.55
1547.4329	9570.05
1550.78776	9326.55
1554.14038	9159.25
1557.49077	9131.95
1560.83892	9197.35
1564.18484	9350.45
1567.52853	9554.75
1570.86999	9740.65
1574.20922	9926.45
1577.54624	9948.65
1580.88103	9708.85
1584.2136	9375.95
1587.54395	9271.55
1590.87208	9455.85
1594.19801	9919.75
1597.52172	10510.95
1600.84321	10782.25
1604.16251	10475.15
1607.47959	9845.05
1610.79447	9123.65
1614.10715	8428.85
1617.41763	7782.05
1620.7259	7347.65
1624.03199	7048.65
1627.33587	6987.45
1630.63757	7120.85
1633.93707	7518.25
1637.23439	8187.25
1640.52951	9308.75
1643.82246	10831.95
1647.11321	12441.75
1650.40179	13454.55
1653.68819	13237.35
1656.97241	11772.55
1660.25446	9894.45
1663.53433	8319.65
1666.81203	7252.85
1670.08756	6591.05
1673.36092	6196.85
1676.63211	5947.15
1679.90115	5795.05
1683.16801	5656.55
1686.43272	5568.85
1689.69527	5507.55
1692.95567	5447.15
1696.2139	5422.75
1699.46999	5417.85
1702.72392	5376.15
1705.97571	5362.45
1709.22535	5294.45
1712.47284	5287.15
1715.71819	5263.95
1718.96139	5270.15
1722.20246	5233.95
1725.44139	5186.25
1728.67818	5157.65
1731.91284	5129.65
1735.14537	5078.65
1738.37576	5068.95
1741.60403	5034.35
1744.83017	5028.05
1748.05418	5045.25
1751.27607	5046.35
1754.49584	5064.55
1757.71349	5091.85
1760.92903	5087.65
1764.14244	5081.85
1767.35375	5066.95
1770.56294	5004.75
1773.77002	4979.45
1776.97499	4910.25
1780.17785	4876.95
1783.37861	4857.05
1786.57727	4828.35
1789.77382	4809.85
1792.96828	4793.15
1796.16064	4752.25
1799.3509	4735.85
1802.53907	4725.35
1805.72514	4696.65
1808.90913	4687.55
1812.09102	4675.25
1815.27083	4673.65
1818.44856	4650.15
1821.6242	4645.95
1824.79776	4641.35
1827.96924	4625.35
1831.13864	4624.35
1834.30597	4622.85
1837.47122	4634.05
1840.6344	4639.35
1843.7955	4625.75
1846.95454	4628.45
1850.11151	4620.35
1853.26642	4620.05
1856.41926	4604.65
1859.57004	4597.55
1862.71876	4584.75
1865.86542	4596.95
1869.01003	4573.45
1872.15258	4574.35
1875.29308	4557.45
1878.43152	4545.75
1881.56792	4545.65
1884.70227	4528.15
1887.83457	4504.55
1890.96482	4510.75
1894.09304	4501.95
1897.21921	4500.65
1900.34335	4483.25
1903.46544	4483.05
1906.58551	4477.55
1909.70353	4462.25
1912.81953	4448.75
1915.93349	4433.35
1919.04543	4427.15
1922.15534	4418.75
1925.26322	4398.35
1928.36908	4401.15
1931.47292	4365.65
1934.57473	4359.55
1937.67453	4337.15
1940.77232	4327.65
1943.86808	4322.25
1946.96184	4289.65
1950.05358	4270.75
1953.14331	4262.15
1956.23103	4249.35
1959.31675	4237.05
1962.40046	4218.85
1965.48217	4196.75
1968.56188	4189.45
1971.63959	4173.35
1974.7153	4169.55
1977.78901	4136.85
1980.86073	4121.15
1983.93046	4127.15
1986.99819	4104.25
1990.06394	4082.65
1993.1277	4060.65
1996.18947	4055.45
1999.24925	4044.55
2002.30706	4014.25
2005.36288	3996.75
2008.41672	4010.95
2011.46859	3979.55
2014.51848	3967.45
2017.56639	3954.85
2020.61233	3951.75
2023.6563	3933.75
2026.6983	3914.55
2029.73833	3906.85
2032.7764	3903.25
2035.8125	3888.75
2038.84664	3868.85
2041.87881	3873.85
2044.90903	3855.75
2047.93729	3844.15
2050.96359	3843.05
2053.98794	3855.25
2057.01034	3842.85
2060.03078	3847.55
2063.04927	3824.55
2066.06582	3825.05
2069.08042	3816.55
2072.09307	3815.15
2075.10378	3811.05
2078.11255	3823.15
2081.11938	3820.15
2084.12426	3808.95
2087.12722	3808.25
2090.12824	3801.95
2093.12732	3811.05
2096.12447	3794.75
2099.11969	3784.75
2102.11299	3801.85
2105.10435	3813.85
2108.09379	3805.95
2111.08131	3803.95
2114.0669	3793.25
2117.05057	3791.05
2120.03233	3800.65
2123.01216	3791.05
2125.99008	3799.85
2128.96609	3806.75
2131.94018	3804.25
2134.91236	3804.05
2137.88263	3791.65
2140.851	3807.25
2143.81746	3797.85
2146.78201	3800.15
2149.74466	3792.55
2152.7054	3788.35
2155.66425	3784.95
2158.6212	3775.95
2161.57625	3770.25
2164.52941	3779.55
2167.48067	3780.25
2170.43004	3783.85
2173.37752	3763.55
2176.32311	3766.25
2179.26681	3754.75
2182.20863	3749.25
2185.14856	3752.65
2188.08661	3748.25
2191.02278	3749.55
2193.95707	3747.85
2196.88948	3745.85
2199.82001	3737.35
2202.74867	3725.25
2205.67545	3723.25
2208.60037	3716.85
2211.52341	3704.15
2214.44458	3690.15
2217.36388	3690.95
2220.28132	3685.85
2223.1969	3665.45
2226.11061	3670.45
2229.02246	3660.45
2231.93245	3651.95
2234.84058	3654.35
2237.74686	3630.55
2240.65128	3623.95
2243.55385	3646.55
2246.45456	3630.35
2249.35343	3623.95
2252.25044	3616.15
2255.14561	3595.75
2258.03893	3608.65
2260.93041	3607.55
2263.82004	3596.55
2266.70783	3584.85
2269.59378	3569.65
2272.4779	3535.25
2275.36017	3547.15
2278.24061	3546.75
2281.11922	3524.75
2283.996	3513.65
2286.87094	3518.25
2289.74405	3502.55
2292.61534	3492.35
2295.4848	3490.85
2298.35243	3481.75
2301.21824	3489.05
2304.08223	3475.65
2306.94439	3467.35
2309.80474	3459.75
2312.66327	3448.45
2315.51999	3447.15
2318.37489	3462.35
2321.22797	3443.75
2324.07925	3443.05
2326.92871	3441.85
2329.77637	3420.05
2332.62222	3405.25
2335.46626	3428.75
2338.3085	3411.25
2341.14893	3421.35
2343.98756	3399.45
2346.8244	3419.05
2349.65943	3393.05
2352.49267	3396.35
2355.32411	3404.15
2358.15376	3417.75
2360.98161	3405.75
2363.80768	3412.15
2366.63195	3428.25
2369.45444	3392.45
2372.27514	3400.95
2375.09405	3404.35
2377.91118	3386.95
2380.72652	3368.95
2383.54009	3375.25
2386.35187	3361.75
2389.16188	3347.85
2391.97011	3332.65
2394.77657	3320.85
2397.58125	3319.35
2400.38416	3317.05
2403.18529	3298.75
2405.98466	3295.85
2408.78226	3291.85
2411.57809	3290.65
2414.37216	3289.35
2417.16446	3289.35
2419.955	3277.45
2422.74378	3280.65
2425.5308	3278.05
2428.31606	3267.05
2431.09956	3268.05
2433.88131	3258.75
2436.6613	3269.75
2439.43954	3258.85
2442.21603	3240.65
2444.99077	3245.55
2447.76377	3253.35
2450.53501	3243.15
2453.30451	3245.65
2456.07226	3239.35
2458.83827	3248.25
2461.60254	3224.95
2464.36507	3243.85
2467.12586	3240.35
2469.88492	3232.35
2472.64224	3228.25
2475.39782	3237.35
2478.15167	3229.05
2480.90379	3226.85
2483.65417	3232.45
2486.40283	3218.85
2489.14976	3215.55
2491.89497	3216.05
2494.63845	3222.45
2497.3802	3220.25
2500.12024	3235.85
2502.85855	3220.45
2505.59514	3205.85
2508.33002	3195.85
2511.06318	3195.15
2513.79462	3195.65
2516.52435	3176.05
2519.25237	3177.65
2521.97867	3169.95
2524.70327	3150.05
2527.42616	3152.65
2530.14734	3155.05
2532.86681	3145.55
2535.58458	3127.95
2538.30065	3123.05
2541.01501	3130.25
2543.72768	3118.95
2546.43864	3117.85
2549.14791	3111.85
2551.85548	3116.35
2554.56136	3111.75
2557.26554	3111.45
2559.96803	3096.25
2562.66883	3092.35
2565.36794	3093.65
2568.06536	3097.45
2570.7611	3087.35
2573.45514	3075.65
2576.14751	3075.25
2578.83819	3065.85
2581.52719	3057.85
2584.21451	3054.95
2586.90015	3051.05
2589.58411	3045.35
2592.2664	3044.05
2594.94701	3039.35
2597.62594	3045.25
2600.30321	3025.55
2602.9788	3022.45
2605.65273	3009.25
2608.32498	3013.65
2610.99557	3011.55
2613.66449	3003.05
2616.33175	3001.45
2618.99734	3020.35
2621.66128	2995.05
2624.32355	3000.45
2626.98416	2990.55
2629.64311	2987.35
2632.30041	2987.15
2634.95605	2990.95
2637.61004	2983.85
2640.26238	2971.85
2642.91306	2979.55
2645.56209	2964.35
2648.20948	2956.55
2650.85521	2959.05
2653.4993	2957.05
2656.14175	2962.75
2658.78255	2972.05
2661.42171	2970.95
2664.05923	2971.05
2666.6951	2957.85
2669.32934	2976.35
2671.96194	2976.45
2674.59291	2981.15
2677.22224	2968.45
2679.84993	2965.55
2682.476	2962.85
2685.10043	2963.05
2687.72324	2954.25
2690.34441	2951.85
2692.96396	2953.35
2695.58188	2962.45
2698.19818	2964.25
2700.81285	2956.35
2703.4259	2980.25
2706.03733	3025.25
2708.64714	2982.25
2711.25533	2971.65
2713.86191	2961.25
2716.46687	2966.85
2719.07021	2961.05
2721.67194	2973.75
2724.27206	2958.15
2726.87057	2961.65
2729.46747	2963.75
2732.06276	2946.45
2734.65644	2947.05
2737.24852	2951.35
2739.83899	2933.55
2742.42786	2937.55
2745.01513	2944.15
2747.60079	2948.35
2750.18486	2919.85
2752.76733	2937.55
2755.3482	2931.95
2757.92747	2924.45
2760.50515	2925.55
2763.08123	2922.15
2765.65573	2921.05
2768.22863	2918.85
2770.79994	2909.45
2773.36967	2901.05
2775.9378	2900.85
2778.50435	2896.85
2781.06932	2903.15
2783.6327	2897.55
2786.1945	2904.55
2788.75471	2896.85
2791.31335	2888.15
2793.87041	2888.75
2796.42589	2871.95
2798.97979	2880.45
2801.53212	2881.35
2804.08288	2867.75
2806.63206	2866.25
2809.17967	2868.95
2811.72571	2863.85
2814.27018	2863.65
2816.81308	2860.95
2819.35442	2858.65
2821.89419	2839.35
2824.43239	2847.75
2826.96904	2863.15
2829.50412	2855.35
2832.03763	2856.05
2834.56959	2850.85
2837.1	2845.05
2839.62884	2854.05
2842.15613	2848.95
2844.68186	2867.25
2847.20604	2876.45
2849.72867	2881.85
2852.24974	2884.55
2854.76927	2882.45
2857.28724	2893.85
2859.80367	2882.65
2862.31855	2864.45
2864.83189	2862.85
2867.34368	2858.65
2869.85393	2871.25
2872.36264	2843.05
2874.8698	2859.85
2877.37543	2845.95
2879.87952	2867.25
2882.38207	2849.35
2884.88308	2844.85
2887.38256	2853.35
2889.88051	2850.75
2892.37692	2859.95
2894.8718	2866.35
2897.36515	2867.45
2899.85698	2854.65
2902.34727	2883.55
2904.83604	2879.35
2907.32328	2877.95
2909.809	2891.75
2912.29319	2898.65
2914.77587	2905.45
2917.25702	2908.15
2919.73665	2899.75
2922.21476	2905.35
2924.69136	2919.25
2927.16644	2914.65
2929.64	2914.45
2932.11205	2917.85
2934.58258	2898.15
2937.05161	2919.95
2939.51912	2920.55
2941.98513	2910.55
2944.44962	2913.25
2946.91261	2903.55
2949.37409	2905.35
2951.83407	2892.05
2954.29254	2879.15
2956.74951	2876.05
2959.20498	2865.25
2961.65895	2859.65
2964.11142	2847.15
2966.56239	2838.75
2969.01186	2831.95
2971.45984	2816.35
2973.90632	2803.85
2976.35131	2788.25
2978.7948	2775.55
2981.23681	2770.95
2983.67732	2755.95
2986.11635	2754.95
2988.55388	2739.55
2990.98993	2730.55
2993.4245	2727.35
2995.85758	2726.25
2998.28917	2714.75
3000.71928	2720.75
3003.14791	2716.95
3005.57506	2708.55
3008.00073	2688.85
3010.42493	2685.35
3012.84764	2693.85
3015.26888	2687.25
3017.68865	2671.75
3020.10694	2666.15
3022.52376	2663.75
3024.9391	2652.65
3027.35298	2652.15
3029.76539	2655.65
3032.17632	2643.65
3034.5858	2630.85
3036.9938	2624.15
3039.40034	2623.35
3041.80542	2614.45
3044.20903	2606.95
3046.61118	2602.05
3049.01187	2597.65
3051.4111	2600.65
3053.80888	2594.45
3056.20519	2598.55
3058.60005	2584.35
3060.99345	2582.55
3063.3854	2582.55
3065.7759	2569.45
3068.16494	2576.55
3070.55254	2569.15
3072.93868	2569.95
3075.32338	2566.15
3077.70662	2554.55
3080.08842	2551.55
3082.46878	2553.75
3084.84769	2530.55
3087.22515	2545.45
3089.60118	2542.15
3091.97576	2549.95
3094.3489	2548.85
3096.72061	2545.35
3099.09087	2524.85
3101.4597	2533.85
3103.82709	2550.25
3106.19305	2540.45
3108.55757	2549.45
3110.92066	2540.45
3113.28232	2543.15
3115.64255	2534.85
3118.00134	2542.15
3120.35871	2531.15
3122.71466	2520.85
3125.06917	2527.35
3127.42226	2528.75
3129.77393	2530.75
3132.12417	2516.55
3134.47299	2534.55
3136.82039	2531.35
3139.16636	2545.05
3141.51092	2524.55
3143.85406	2533.45
3146.19579	2544.85
3148.53609	2548.35
3150.87499	2551.85
3153.21246	2557.55
3155.54853	2563.65
3157.88318	2561.65
3160.21642	2555.65
3162.54826	2560.65
3164.87868	2567.25
3167.2077	2579.25
3169.5353	2558.25
3171.86151	2562.15
3174.18631	2583.05
3176.5097	2570.65
3178.83169	2562.95
3181.15228	2576.85
3183.47147	2572.35
3185.78926	2572.45
3188.10565	2561.95
3190.42065	2563.35
3192.73424	2570.15
3195.04645	2572.15
3197.35725	2567.35
3199.66667	2569.05
3201.97469	2574.75
3204.28132	2577.45
3206.58656	2585.45
3208.8904	2591.45
3211.19287	2584.75
3213.49394	2578.95
3215.79363	2589.95
3218.09193	2589.75
3220.38884	2590.35
3222.68438	2596.65
3224.97853	2595.85
3227.2713	2595.95
3229.56269	2593.95
3231.8527	2587.15
3234.14133	2591.25
3236.42858	2582.65
3238.71446	2576.95
3240.99896	2567.55
3243.28209	2580.85
3245.56384	2570.15
3247.84423	2570.55
3250.12324	2555.55
3252.40088	2577.85
3254.67715	2557.05
3256.95205	2564.55
3259.22558	2557.75
3261.49775	2550.25
3263.76855	2548.25
3266.03799	2536.45
3268.30606	2528.65
3270.57277	2528.85
3272.83812	2522.35
3275.10211	2522.45
3277.36474	2516.75
3279.62601	2522.75
3281.88593	2522.65
3284.14448	2527.55
3286.40168	2524.75
3288.65753	2523.45
3290.91202	2532.75
3293.16516	2511.05
3295.41695	2515.85
3297.66738	2505.35
3299.91647	2475.35
3302.16421	2474.95
3304.4106	2460.65
3306.65564	2445.55
3308.89933	2425.75
3311.14169	2420.95
3313.38269	2407.05
3315.62236	2388.65
3317.86068	2378.25
3320.09766	2347.85
3322.3333	2334.15
3324.5676	2338.65
3326.80056	2294.55
3329.03219	2289.85
3331.26248	0.55
3333.49143	-0.15
3335.71905	0.25
