Data from AgNPs_FTO_APTES_UA_2um_CRN_0.1mM_R6G_10uM_NaF_0.1M_Addition_RamanShift__30__12-49-59-069.txt Node

Date: Tue Dec 21 12:49:59 GMT 2021
User: TCL
Spectrometer: QEP01345
Trigger mode: 4
Integration Time (sec): 7.000000E0
Scans to average: 10
Electric dark correction enabled: true
Nonlinearity correction enabled: false
Boxcar width: 0
XAxis mode: Raman Shifts
Number of Pixels in Spectrum: 1044
>>>>>Begin Spectral Data<<<<<
46.04893	0.35
50.45542	-0.45
54.85868	-0.05
59.25871	-0.15
63.6555	32.45
68.04907	40.35
72.43941	45.25
76.82654	42.05
81.21044	48.15
85.59113	51.85
89.96862	50.35
94.34289	49.75
98.71396	49.85
103.08183	53.65
107.4465	57.45
111.80798	59.25
116.16626	60.55
120.52136	57.45
124.87327	59.15
129.222	61.25
133.56755	63.95
137.90993	71.15
142.24913	74.05
146.58517	79.25
150.91804	86.35
155.24774	100.65
159.57429	118.85
163.89768	154.95
168.21792	201.45
172.53501	265.75
176.84895	360.35
181.15975	506.75
185.46741	695.35
189.77193	960.25
194.07331	1283.15
198.37157	1657.45
202.6667	2042.75
206.9587	2448.65
211.24758	2842.65
215.53334	3257.05
219.81599	3724.05
224.09553	4264.25
228.37195	4856.95
232.64527	5508.15
236.91549	6133.55
241.18261	6722.95
245.44663	7161.65
249.70755	7555.55
253.96539	7838.05
258.22014	8035.35
262.4718	8209.75
266.72039	8304.05
270.96589	8350.15
275.20832	8313.05
279.44768	8227.55
283.68397	8142.65
287.91719	8104.95
292.14735	8141.05
296.37445	8359.25
300.59849	8719.25
304.81948	9222.75
309.03742	9623.95
313.25231	9673.15
317.46415	9164.65
321.67296	8323.35
325.87872	7569.85
330.08145	7182.75
334.28114	7126.85
338.47781	7285.95
342.67145	7536.85
346.86207	7948.15
351.04966	8541.95
355.23424	9261.45
359.4158	9751.45
363.59435	9944.15
367.76989	9926.35
371.94243	9776.55
376.11196	9640.85
380.27849	9455.55
384.44203	9301.25
388.60257	9095.05
392.76012	8999.75
396.91468	9128.15
401.06626	9452.15
405.21485	9700.05
409.36047	9550.65
413.50311	8940.05
417.64277	8358.45
421.77947	8005.65
425.9132	7873.85
430.04396	7858.95
434.17176	7894.95
438.2966	8016.15
442.41849	8228.95
446.53742	8571.85
450.6534	8838.35
454.76644	9017.65
458.87653	8987.65
462.98368	8831.65
467.08789	8641.05
471.18916	8378.15
475.2875	8133.15
479.38291	7914.45
483.4754	7737.75
487.56496	7606.75
491.6516	7524.05
495.73531	7496.95
499.81612	7531.65
503.89401	7653.15
507.96899	7775.55
512.04106	7900.05
516.11023	7992.45
520.1765	8034.05
524.23987	8026.25
528.30034	7851.55
532.35792	7619.35
536.41261	7384.45
540.46441	7092.85
544.51333	6946.45
548.55936	6979.75
552.60252	7197.15
556.64279	7477.55
560.6802	7663.55
564.71473	7933.25
568.7464	8465.65
572.7752	8888.35
576.80114	8610.25
580.82422	8240.75
584.84444	8091.55
588.86181	8025.85
592.87633	8041.45
596.888	8128.75
600.89682	8437.35
604.9028	9504.55
608.90594	12652.05
612.90624	16977.05
616.90371	16574.35
620.89834	10872.55
624.89015	7922.15
628.87913	7386.35
632.86528	7454.65
636.84862	7614.35
640.82913	7459.65
644.80683	6990.65
648.78172	6653.75
652.75379	6663.75
656.72306	7081.55
660.68952	7595.15
664.65319	7540.45
668.61405	7019.15
672.57211	6748.25
676.52738	6751.75
680.47986	6730.55
684.42955	6652.05
688.37646	6553.05
692.32058	6578.15
696.26192	6690.55
700.20048	6848.05
704.13626	6969.15
708.06928	6991.65
711.99952	6885.65
715.927	6791.05
719.85171	6785.65
723.77365	6765.15
727.69284	6629.75
731.60928	6543.05
735.52295	6512.15
739.43388	6565.15
743.34206	6597.55
747.24749	6672.75
751.15017	6772.25
755.05012	7011.45
758.94733	7491.15
762.8418	8631.55
766.73354	10532.25
770.62254	12464.05
774.50882	13438.95
778.39237	12925.85
782.27321	10969.65
786.15132	8820.65
790.02671	7539.15
793.89938	6951.15
797.76935	6708.95
801.6366	6607.85
805.50115	6528.55
809.36299	6487.25
813.22213	6441.45
817.07857	6424.55
820.93231	6400.05
824.78336	6416.05
828.63172	6472.85
832.47738	6515.35
836.32036	6455.85
840.16066	6379.75
843.99827	6331.55
847.8332	6292.45
851.66546	6290.65
855.49504	6289.45
859.32195	6279.45
863.1462	6200.55
866.96777	6172.65
870.78668	6152.45
874.60293	6170.05
878.41652	6223.95
882.22745	6251.95
886.03573	6290.95
889.84136	6279.95
893.64433	6227.25
897.44466	6209.35
901.24235	6187.45
905.0374	6163.55
908.8298	6126.65
912.61957	6072.25
916.40671	6150.65
920.19121	6234.25
923.97308	6349.85
927.75233	6455.35
931.52895	6537.55
935.30295	6416.15
939.07433	6104.65
942.84309	5872.05
946.60924	5703.15
950.37278	5630.95
954.13371	5602.75
957.89203	5571.65
961.64774	5557.15
965.40086	5521.05
969.15137	5504.35
972.89929	5466.05
976.64461	5454.35
980.38733	5460.35
984.12747	5464.15
987.86502	5481.35
991.59999	5522.25
995.33237	5602.95
999.06217	5778.65
1002.78939	5982.95
1006.51404	6211.85
1010.23611	6435.85
1013.95561	6556.85
1017.67255	6499.45
1021.38692	6311.75
1025.09872	6142.25
1028.80796	6017.35
1032.51465	6061.35
1036.21877	6177.45
1039.92035	6324.85
1043.61937	6382.25
1047.31584	6385.95
1051.00976	6334.05
1054.70114	6311.65
1058.38998	6273.45
1062.07627	6305.75
1065.76003	6366.15
1069.44126	6456.55
1073.11995	6601.05
1076.79611	6725.45
1080.46974	6881.95
1084.14085	7117.75
1087.80943	7371.15
1091.47549	7461.65
1095.13903	7298.85
1098.80005	6939.45
1102.45857	6586.15
1106.11456	6409.45
1109.76805	6408.85
1113.41903	6588.15
1117.06751	6898.15
1120.71348	7337.05
1124.35696	7892.85
1127.99793	8298.25
1131.63641	8226.95
1135.2724	7654.35
1138.90589	7154.25
1142.5369	6858.25
1146.16542	6677.65
1149.79145	6592.55
1153.415	6593.95
1157.03607	6675.15
1160.65467	6865.55
1164.27079	7199.75
1167.88443	7719.15
1171.49561	8620.75
1175.10432	10105.95
1178.71056	12020.65
1182.31434	13320.55
1185.91565	13521.75
1189.51451	13019.55
1193.11091	12173.65
1196.70485	11177.15
1200.29634	10344.95
1203.88538	9652.25
1207.47197	8833.15
1211.05612	8141.45
1214.63782	7778.15
1218.21708	7658.15
1221.79391	7660.85
1225.36829	7723.15
1228.94024	7734.85
1232.50976	7709.85
1236.07685	7683.95
1239.6415	7656.35
1243.20374	7676.65
1246.76355	7703.35
1250.32093	7797.45
1253.8759	7995.35
1257.42845	8349.55
1260.97859	8694.95
1264.52631	9046.85
1268.07163	9411.15
1271.61453	9735.85
1275.15503	9999.15
1278.69312	10099.45
1282.22882	10228.55
1285.76211	10543.65
1289.29301	10990.45
1292.82151	11470.35
1296.34761	12012.95
1299.87133	12735.75
1303.39266	14015.35
1306.9116	15903.45
1310.42815	18113.35
1313.94233	19462.25
1317.45412	19041.45
1320.96354	17555.35
1324.47058	15978.85
1327.97525	14651.85
1331.47754	13799.45
1334.97747	13447.65
1338.47502	13450.95
1341.97022	13693.15
1345.46305	14245.85
1348.95352	15003.25
1352.44163	16168.65
1355.92738	17982.45
1359.41078	20710.55
1362.89183	23186.95
1366.37053	22542.75
1369.84688	19222.25
1373.32088	15794.45
1376.79254	13411.85
1380.26186	12041.95
1383.72883	11288.95
1387.19347	10770.35
1390.65578	10311.25
1394.11575	10021.65
1397.57339	9928.35
1401.0287	10037.25
1404.48168	10223.75
1407.93234	10360.25
1411.38068	10378.85
1414.82669	10202.85
1418.27039	9912.15
1421.71177	9518.05
1425.15083	9198.15
1428.58758	9015.05
1432.02203	9055.65
1435.45416	9160.85
1438.88399	9191.65
1442.31151	9182.85
1445.73673	9245.35
1449.15965	9312.15
1452.58027	9314.15
1455.9986	9211.65
1459.41463	9261.75
1462.82837	9426.95
1466.23982	9678.15
1469.64898	9947.05
1473.05586	10117.95
1476.46045	10226.95
1479.86276	10392.75
1483.26279	10597.45
1486.66054	10904.25
1490.05602	11360.05
1493.44922	11927.75
1496.84016	12853.15
1500.22882	14354.45
1503.61521	16301.45
1506.99934	18525.45
1510.38121	20497.65
1513.76081	21479.05
1517.13816	20392.65
1520.51324	17667.65
1523.88607	14898.85
1527.25665	13047.45
1530.62498	11986.35
1533.99105	11444.15
1537.35488	11067.05
1540.71647	10863.45
1544.07581	10687.05
1547.4329	10544.35
1550.78776	10404.65
1554.14038	10288.75
1557.49077	10260.05
1560.83892	10452.35
1564.18484	10836.15
1567.52853	11296.25
1570.86999	11635.75
1574.20922	11876.35
1577.54624	11803.25
1580.88103	11090.15
1584.2136	10158.15
1587.54395	9680.95
1590.87208	9879.85
1594.19801	10617.65
1597.52172	11647.75
1600.84321	12184.45
1604.16251	11740.75
1607.47959	10770.65
1610.79447	9621.65
1614.10715	8578.85
1617.41763	7775.95
1620.7259	7304.75
1624.03199	7073.35
1627.33587	7066.35
1630.63757	7243.25
1633.93707	7670.05
1637.23439	8440.75
1640.52951	9572.15
1643.82246	11154.05
1647.11321	13043.55
1650.40179	14450.55
1653.68819	14210.65
1656.97241	12236.15
1660.25446	9815.85
1663.53433	8007.85
1666.81203	6928.75
1670.08756	6275.55
1673.36092	5889.55
1676.63211	5688.95
1679.90115	5507.75
1683.16801	5368.55
1686.43272	5288.25
1689.69527	5212.85
1692.95567	5174.75
1696.2139	5165.45
1699.46999	5162.75
1702.72392	5120.95
1705.97571	5099.85
1709.22535	5054.85
1712.47284	5044.85
1715.71819	5057.05
1718.96139	5058.35
1722.20246	5049.85
1725.44139	5011.35
1728.67818	4957.25
1731.91284	4920.25
1735.14537	4851.85
1738.37576	4810.85
1741.60403	4784.65
1744.83017	4753.15
1748.05418	4751.75
1751.27607	4726.15
1754.49584	4718.05
1757.71349	4730.25
1760.92903	4701.05
1764.14244	4688.25
1767.35375	4682.05
1770.56294	4641.35
1773.77002	4612.55
1776.97499	4565.75
1780.17785	4535.45
1783.37861	4508.35
1786.57727	4471.45
1789.77382	4475.45
1792.96828	4451.55
1796.16064	4458.95
1799.3509	4429.65
1802.53907	4427.85
1805.72514	4395.15
1808.90913	4393.05
1812.09102	4368.95
1815.27083	4357.65
1818.44856	4345.55
1821.6242	4323.65
1824.79776	4322.95
1827.96924	4321.05
1831.13864	4304.35
1834.30597	4291.35
1837.47122	4285.05
1840.6344	4276.55
1843.7955	4274.05
1846.95454	4269.15
1850.11151	4270.95
1853.26642	4261.85
1856.41926	4267.95
1859.57004	4267.25
1862.71876	4260.65
1865.86542	4277.15
1869.01003	4263.95
1872.15258	4267.75
1875.29308	4257.75
1878.43152	4257.25
1881.56792	4265.75
1884.70227	4251.45
1887.83457	4254.85
1890.96482	4245.25
1894.09304	4254.85
1897.21921	4270.75
1900.34335	4272.65
1903.46544	4271.85
1906.58551	4272.35
1909.70353	4280.75
1912.81953	4282.65
1915.93349	4276.45
1919.04543	4271.25
1922.15534	4251.75
1925.26322	4246.85
1928.36908	4234.75
1931.47292	4217.55
1934.57473	4174.45
1937.67453	4165.65
1940.77232	4140.55
1943.86808	4109.65
1946.96184	4089.25
1950.05358	4066.65
1953.14331	4051.45
1956.23103	4032.75
1959.31675	4021.35
1962.40046	3991.95
1965.48217	3992.15
1968.56188	3978.25
1971.63959	3971.35
1974.7153	3955.15
1977.78901	3935.05
1980.86073	3919.85
1983.93046	3904.15
1986.99819	3882.25
1990.06394	3866.75
1993.1277	3862.35
1996.18947	3828.15
1999.24925	3840.25
2002.30706	3798.75
2005.36288	3797.95
2008.41672	3785.55
2011.46859	3768.05
2014.51848	3755.85
2017.56639	3744.65
2020.61233	3735.65
2023.6563	3726.15
2026.6983	3697.65
2029.73833	3707.45
2032.7764	3686.95
2035.8125	3669.75
2038.84664	3670.25
2041.87881	3664.45
2044.90903	3662.75
2047.93729	3644.15
2050.96359	3655.05
2053.98794	3643.15
2057.01034	3630.05
2060.03078	3636.45
2063.04927	3614.85
2066.06582	3602.85
2069.08042	3604.35
2072.09307	3597.65
2075.10378	3595.35
2078.11255	3593.55
2081.11938	3595.45
2084.12426	3588.95
2087.12722	3577.85
2090.12824	3582.15
2093.12732	3583.95
2096.12447	3576.35
2099.11969	3581.55
2102.11299	3562.85
2105.10435	3569.55
2108.09379	3571.05
2111.08131	3572.35
2114.0669	3579.95
2117.05057	3567.95
2120.03233	3579.65
2123.01216	3573.45
2125.99008	3579.55
2128.96609	3586.45
2131.94018	3579.95
2134.91236	3568.95
2137.88263	3577.95
2140.851	3572.45
2143.81746	3573.25
2146.78201	3569.15
2149.74466	3561.45
2152.7054	3558.15
2155.66425	3546.45
2158.6212	3550.65
2161.57625	3548.65
2164.52941	3535.55
2167.48067	3534.05
2170.43004	3537.45
2173.37752	3526.95
2176.32311	3530.65
2179.26681	3521.15
2182.20863	3534.85
2185.14856	3530.85
2188.08661	3519.25
2191.02278	3523.55
2193.95707	3513.15
2196.88948	3502.85
2199.82001	3502.65
2202.74867	3491.85
2205.67545	3480.65
2208.60037	3483.95
2211.52341	3481.15
2214.44458	3475.25
2217.36388	3467.45
2220.28132	3454.25
2223.1969	3438.85
2226.11061	3444.05
2229.02246	3439.55
2231.93245	3425.15
2234.84058	3415.35
2237.74686	3401.85
2240.65128	3392.75
2243.55385	3395.25
2246.45456	3377.75
2249.35343	3386.65
2252.25044	3381.65
2255.14561	3391.35
2258.03893	3391.85
2260.93041	3403.45
2263.82004	3381.55
2266.70783	3369.55
2269.59378	3355.45
2272.4779	3351.65
2275.36017	3338.05
2278.24061	3339.35
2281.11922	3315.85
2283.996	3307.55
2286.87094	3311.55
2289.74405	3294.05
2292.61534	3281.25
2295.4848	3276.75
2298.35243	3262.15
2301.21824	3254.35
2304.08223	3252.05
2306.94439	3258.25
2309.80474	3248.95
2312.66327	3256.45
2315.51999	3251.65
2318.37489	3243.25
2321.22797	3247.65
2324.07925	3234.15
2326.92871	3229.85
2329.77637	3224.45
2332.62222	3224.85
2335.46626	3222.95
2338.3085	3202.15
2341.14893	3207.95
2343.98756	3212.25
2346.8244	3220.65
2349.65943	3222.75
2352.49267	3220.95
2355.32411	3222.95
2358.15376	3242.05
2360.98161	3238.25
2363.80768	3264.75
2366.63195	3244.55
2369.45444	3256.85
2372.27514	3262.85
2375.09405	3263.85
2377.91118	3219.25
2380.72652	3222.85
2383.54009	3195.45
2386.35187	3183.85
2389.16188	3167.55
2391.97011	3162.05
2394.77657	3143.75
2397.58125	3143.15
2400.38416	3133.55
2403.18529	3115.55
2405.98466	3112.55
2408.78226	3101.85
2411.57809	3093.45
2414.37216	3097.85
2417.16446	3090.55
2419.955	3079.45
2422.74378	3073.95
2425.5308	3071.65
2428.31606	3063.65
2431.09956	3082.25
2433.88131	3065.65
2436.6613	3054.15
2439.43954	3061.65
2442.21603	3053.25
2444.99077	3061.65
2447.76377	3074.45
2450.53501	3067.95
2453.30451	3070.35
2456.07226	3058.75
2458.83827	3064.65
2461.60254	3076.25
2464.36507	3050.55
2467.12586	3067.75
2469.88492	3061.55
2472.64224	3062.95
2475.39782	3070.75
2478.15167	3093.55
2480.90379	3082.15
2483.65417	3088.55
2486.40283	3099.95
2489.14976	3098.45
2491.89497	3115.65
2494.63845	3124.85
2497.3802	3121.35
2500.12024	3114.25
2502.85855	3100.35
2505.59514	3099.35
2508.33002	3072.15
2511.06318	3057.75
2513.79462	3037.55
2516.52435	3035.05
2519.25237	3020.85
2521.97867	2993.65
2524.70327	2993.45
2527.42616	2994.65
2530.14734	2984.65
2532.86681	2963.35
2535.58458	2972.45
2538.30065	2978.75
2541.01501	2976.35
2543.72768	2963.55
2546.43864	2976.35
2549.14791	2950.85
2551.85548	2969.15
2554.56136	2964.05
2557.26554	2959.25
2559.96803	2967.25
2562.66883	2954.15
2565.36794	2949.25
2568.06536	2948.95
2570.7611	2937.25
2573.45514	2945.55
2576.14751	2930.15
2578.83819	2932.25
2581.52719	2932.95
2584.21451	2907.05
2586.90015	2912.85
2589.58411	2915.15
2592.2664	2911.75
2594.94701	2902.75
2597.62594	2901.95
2600.30321	2896.35
2602.9788	2900.25
2605.65273	2899.65
2608.32498	2895.65
2610.99557	2890.75
2613.66449	2903.65
2616.33175	2893.75
2618.99734	2901.55
2621.66128	2884.15
2624.32355	2884.75
2626.98416	2890.25
2629.64311	2880.55
2632.30041	2886.15
2634.95605	2885.05
2637.61004	2870.65
2640.26238	2866.25
2642.91306	2856.45
2645.56209	2865.95
2648.20948	2856.65
2650.85521	2842.45
2653.4993	2845.45
2656.14175	2849.35
2658.78255	2858.45
2661.42171	2857.55
2664.05923	2857.15
2666.6951	2863.25
2669.32934	2875.55
2671.96194	2874.65
2674.59291	2882.95
2677.22224	2880.35
2679.84993	2881.65
2682.476	2876.45
2685.10043	2872.55
2687.72324	2867.85
2690.34441	2862.45
2692.96396	2872.35
2695.58188	2882.15
2698.19818	2880.95
2700.81285	2877.85
2703.4259	2917.65
2706.03733	2984.05
2708.64714	2933.25
2711.25533	2907.65
2713.86191	2913.35
2716.46687	2913.85
2719.07021	2924.45
2721.67194	2923.95
2724.27206	2908.25
2726.87057	2907.35
2729.46747	2903.85
2732.06276	2900.65
2734.65644	2899.65
2737.24852	2887.45
2739.83899	2885.55
2742.42786	2875.75
2745.01513	2859.05
2747.60079	2869.05
2750.18486	2868.15
2752.76733	2856.55
2755.3482	2855.05
2757.92747	2855.75
2760.50515	2850.15
2763.08123	2845.35
2765.65573	2848.85
2768.22863	2869.05
2770.79994	2845.35
2773.36967	2855.85
2775.9378	2862.15
2778.50435	2851.15
2781.06932	2850.05
2783.6327	2859.35
2786.1945	2856.55
2788.75471	2870.85
2791.31335	2863.85
2793.87041	2863.45
2796.42589	2867.85
2798.97979	2874.05
2801.53212	2876.05
2804.08288	2882.85
2806.63206	2883.65
2809.17967	2879.25
2811.72571	2898.45
2814.27018	2905.95
2816.81308	2917.45
2819.35442	2910.45
2821.89419	2930.85
2824.43239	2934.85
2826.96904	2940.05
2829.50412	2940.45
2832.03763	2935.65
2834.56959	2951.35
2837.1	2958.15
2839.62884	2977.75
2842.15613	3013.95
2844.68186	3064.05
2847.20604	3135.45
2849.72867	3172.55
2852.24974	3195.05
2854.76927	3206.95
2857.28724	3218.05
2859.80367	3165.95
2862.31855	3156.45
2864.83189	3148.35
2867.34368	3131.45
2869.85393	3135.55
2872.36264	3115.65
2874.8698	3118.15
2877.37543	3114.65
2879.87952	3108.65
2882.38207	3110.45
2884.88308	3099.55
2887.38256	3085.85
2889.88051	3088.45
2892.37692	3106.45
2894.8718	3098.75
2897.36515	3109.75
2899.85698	3103.25
2902.34727	3102.35
2904.83604	3100.55
2907.32328	3112.65
2909.809	3104.35
2912.29319	3088.55
2914.77587	3100.75
2917.25702	3101.35
2919.73665	3088.85
2922.21476	3083.55
2924.69136	3068.55
2927.16644	3073.05
2929.64	3066.95
2932.11205	3046.55
2934.58258	3017.35
2937.05161	3009.45
2939.51912	2991.85
2941.98513	2970.05
2944.44962	2938.35
2946.91261	2900.65
2949.37409	2877.35
2951.83407	2852.85
2954.29254	2831.75
2956.74951	2822.75
2959.20498	2808.95
2961.65895	2787.15
2964.11142	2773.95
2966.56239	2742.15
2969.01186	2737.65
2971.45984	2720.45
2973.90632	2712.15
2976.35131	2688.65
2978.7948	2686.35
2981.23681	2674.65
2983.67732	2658.05
2986.11635	2652.05
2988.55388	2637.25
2990.98993	2646.25
2993.4245	2633.65
2995.85758	2616.55
2998.28917	2604.85
3000.71928	2597.45
3003.14791	2590.15
3005.57506	2599.65
3008.00073	2596.95
3010.42493	2578.65
3012.84764	2592.15
3015.26888	2580.85
3017.68865	2574.85
3020.10694	2567.75
3022.52376	2565.05
3024.9391	2554.15
3027.35298	2563.85
3029.76539	2544.55
3032.17632	2557.55
3034.5858	2535.55
3036.9938	2538.05
3039.40034	2521.85
3041.80542	2514.55
3044.20903	2514.75
3046.61118	2514.95
3049.01187	2497.85
3051.4111	2503.35
3053.80888	2499.45
3056.20519	2489.05
3058.60005	2494.55
3060.99345	2482.95
3063.3854	2482.45
3065.7759	2482.85
3068.16494	2463.85
3070.55254	2461.25
3072.93868	2452.05
3075.32338	2442.65
3077.70662	2436.65
3080.08842	2430.25
3082.46878	2427.35
3084.84769	2409.45
3087.22515	2401.65
3089.60118	2405.45
3091.97576	2396.75
3094.3489	2404.45
3096.72061	2400.65
3099.09087	2397.55
3101.4597	2394.75
3103.82709	2384.35
3106.19305	2385.65
3108.55757	2391.35
3110.92066	2377.75
3113.28232	2377.45
3115.64255	2364.75
3118.00134	2363.35
3120.35871	2357.75
3122.71466	2358.65
3125.06917	2366.15
3127.42226	2361.45
3129.77393	2366.85
3132.12417	2357.85
3134.47299	2360.05
3136.82039	2373.55
3139.16636	2369.65
3141.51092	2374.75
3143.85406	2373.85
3146.19579	2381.95
3148.53609	2381.95
3150.87499	2384.85
3153.21246	2393.15
3155.54853	2402.75
3157.88318	2399.75
3160.21642	2398.65
3162.54826	2387.55
3164.87868	2399.25
3167.2077	2392.45
3169.5353	2402.45
3171.86151	2392.35
3174.18631	2401.15
3176.5097	2398.35
3178.83169	2405.05
3181.15228	2406.55
3183.47147	2400.25
3185.78926	2401.75
3188.10565	2397.15
3190.42065	2399.25
3192.73424	2399.65
3195.04645	2406.25
3197.35725	2407.95
3199.66667	2426.65
3201.97469	2420.15
3204.28132	2422.95
3206.58656	2424.95
3208.8904	2425.15
3211.19287	2421.85
3213.49394	2419.25
3215.79363	2440.45
3218.09193	2431.75
3220.38884	2437.05
3222.68438	2461.65
3224.97853	2440.85
3227.2713	2428.95
3229.56269	2429.35
3231.8527	2429.65
3234.14133	2420.75
3236.42858	2420.25
3238.71446	2421.25
3240.99896	2413.55
3243.28209	2417.15
3245.56384	2412.35
3247.84423	2407.05
3250.12324	2411.65
3252.40088	2406.95
3254.67715	2402.35
3256.95205	2401.15
3259.22558	2405.65
3261.49775	2390.25
3263.76855	2383.45
3266.03799	2385.15
3268.30606	2373.65
3270.57277	2368.85
3272.83812	2373.45
3275.10211	2362.85
3277.36474	2359.35
3279.62601	2362.45
3281.88593	2369.45
3284.14448	2373.15
3286.40168	2356.15
3288.65753	2340.15
3290.91202	2353.95
3293.16516	2348.05
3295.41695	2341.35
3297.66738	2326.45
3299.91647	2311.45
3302.16421	2298.75
3304.4106	2295.25
3306.65564	2277.95
3308.89933	2275.35
3311.14169	2255.75
3313.38269	2251.45
3315.62236	2234.65
3317.86068	2213.05
3320.09766	2188.45
3322.3333	2174.05
3324.5676	2168.85
3326.80056	2152.85
3329.03219	2133.35
3331.26248	1.05
3333.49143	-0.05
3335.71905	-0.65
