Data from AgNPs_FTO_APTES_UA_50um_CRN_0.1mM_R6G_10uM_NaF_0.1M_Addition_RamanShift__23__15-29-49-252.txt Node

Date: Tue Dec 21 15:29:49 GMT 2021
User: TCL
Spectrometer: QEP01345
Trigger mode: 4
Integration Time (sec): 7.000000E0
Scans to average: 10
Electric dark correction enabled: true
Nonlinearity correction enabled: false
Boxcar width: 0
XAxis mode: Raman Shifts
Number of Pixels in Spectrum: 1044
>>>>>Begin Spectral Data<<<<<
46.04893	0.65
50.45542	-0.55
54.85868	-1.35
59.25871	-0.05
63.6555	42.95
68.04907	49.65
72.43941	49.75
76.82654	50.05
81.21044	57.55
85.59113	57.65
89.96862	62.25
94.34289	62.35
98.71396	61.15
103.08183	65.55
107.4465	69.65
111.80798	72.35
116.16626	68.25
120.52136	71.95
124.87327	72.15
129.222	76.25
133.56755	81.25
137.90993	90.95
142.24913	90.75
146.58517	105.95
150.91804	115.35
155.24774	133.75
159.57429	164.55
163.89768	213.15
168.21792	272.85
172.53501	365.75
176.84895	509.35
181.15975	707.85
185.46741	993.85
189.77193	1371.75
194.07331	1842.85
198.37157	2378.45
202.6667	2945.45
206.9587	3528.05
211.24758	4084.65
215.53334	4649.15
219.81599	5256.05
224.09553	5898.25
228.37195	6607.95
232.64527	7453.35
236.91549	8269.25
241.18261	9133.75
245.44663	9946.45
249.70755	10605.45
253.96539	11220.25
258.22014	11695.45
262.4718	12112.45
266.72039	12409.75
270.96589	12586.95
275.20832	12565.25
279.44768	12475.05
283.68397	12336.25
287.91719	12226.05
292.14735	12170.25
296.37445	12191.85
300.59849	12274.15
304.81948	12336.15
309.03742	12318.65
313.25231	12141.75
317.46415	11848.45
321.67296	11419.65
325.87872	11116.85
330.08145	10967.95
334.28114	10973.45
338.47781	11058.75
342.67145	11230.45
346.86207	11427.35
351.04966	11658.75
355.23424	11984.05
359.4158	12199.75
363.59435	12408.75
367.76989	12521.65
371.94243	12654.15
376.11196	12677.45
380.27849	12754.45
384.44203	12838.95
388.60257	12875.95
392.76012	12952.45
396.91468	13081.05
401.06626	13258.15
405.21485	13409.75
409.36047	13314.25
413.50311	13048.85
417.64277	12817.15
421.77947	12677.25
425.9132	12660.15
430.04396	12722.55
434.17176	12794.95
438.2966	12900.15
442.41849	13094.25
446.53742	13451.35
450.6534	13789.05
454.76644	14097.55
458.87653	14166.05
462.98368	14120.45
467.08789	14005.75
471.18916	13852.65
475.2875	13780.45
479.38291	13696.45
483.4754	13627.05
487.56496	13489.55
491.6516	13286.55
495.73531	13145.25
499.81612	13033.25
503.89401	13077.45
507.96899	13095.75
512.04106	13076.15
516.11023	13078.05
520.1765	13006.35
524.23987	12998.05
528.30034	12946.05
532.35792	12909.65
536.41261	12795.75
540.46441	12669.55
544.51333	12563.45
548.55936	12606.35
552.60252	12745.85
556.64279	12978.25
560.6802	13150.35
564.71473	13216.95
568.7464	13373.15
572.7752	13573.45
576.80114	13655.75
580.82422	13636.45
584.84444	13728.15
588.86181	13895.15
592.87633	14142.95
596.888	14335.25
600.89682	14381.85
604.9028	14799.15
608.90594	16202.85
612.90624	17971.85
616.90371	17239.85
620.89834	14322.55
624.89015	12872.05
628.87913	12730.25
632.86528	12886.85
636.84862	13081.65
640.82913	12945.45
644.80683	12618.65
648.78172	12225.75
652.75379	12092.75
656.72306	12145.25
660.68952	12397.05
664.65319	12443.25
668.61405	12235.75
672.57211	12226.85
676.52738	12321.55
680.47986	12314.45
684.42955	12198.35
688.37646	12063.55
692.32058	11971.95
696.26192	12001.05
700.20048	12044.55
704.13626	12135.45
708.06928	12081.85
711.99952	12019.05
715.927	11955.05
719.85171	11940.45
723.77365	11967.85
727.69284	11934.45
731.60928	11897.05
735.52295	11904.75
739.43388	11879.15
743.34206	11915.75
747.24749	11938.75
751.15017	11940.55
755.05012	12036.05
758.94733	12309.75
762.8418	12912.75
766.73354	13970.95
770.62254	15208.25
774.50882	15795.15
778.39237	15274.55
782.27321	13949.35
786.15132	12766.35
790.02671	12036.75
793.89938	11649.55
797.76935	11505.55
801.6366	11493.15
805.50115	11471.35
809.36299	11441.75
813.22213	11386.05
817.07857	11346.55
820.93231	11291.85
824.78336	11224.75
828.63172	11178.95
832.47738	11113.25
836.32036	11101.95
840.16066	11081.25
843.99827	11058.15
847.8332	11020.95
851.66546	10996.05
855.49504	10968.75
859.32195	11026.75
863.1462	11029.05
866.96777	11020.85
870.78668	11017.65
874.60293	11052.25
878.41652	11030.95
882.22745	11043.35
886.03573	11103.95
889.84136	11095.95
893.64433	11019.55
897.44466	10932.15
901.24235	10863.05
905.0374	10751.85
908.8298	10707.55
912.61957	10641.85
916.40671	10687.75
920.19121	10793.65
923.97308	10851.15
927.75233	10886.95
931.52895	10841.75
935.30295	10728.05
939.07433	10551.85
942.84309	10417.75
946.60924	10358.85
950.37278	10297.25
954.13371	10269.75
957.89203	10263.45
961.64774	10227.75
965.40086	10136.75
969.15137	10081.95
972.89929	10015.15
976.64461	9969.15
980.38733	9945.55
984.12747	9947.95
987.86502	9987.65
991.59999	10035.75
995.33237	10140.65
999.06217	10302.75
1002.78939	10555.95
1006.51404	10723.95
1010.23611	10893.05
1013.95561	11038.75
1017.67255	11070.85
1021.38692	10950.55
1025.09872	10785.95
1028.80796	10653.95
1032.51465	10670.75
1036.21877	10775.25
1039.92035	10832.25
1043.61937	10827.65
1047.31584	10744.25
1051.00976	10704.85
1054.70114	10639.25
1058.38998	10636.75
1062.07627	10663.75
1065.76003	10746.45
1069.44126	10822.95
1073.11995	10887.15
1076.79611	10958.35
1080.46974	10977.25
1084.14085	11054.15
1087.80943	11137.55
1091.47549	11243.05
1095.13903	11241.25
1098.80005	11115.55
1102.45857	10931.95
1106.11456	10780.45
1109.76805	10741.65
1113.41903	10863.45
1117.06751	10986.65
1120.71348	11199.55
1124.35696	11393.75
1127.99793	11682.85
1131.63641	11874.55
1135.2724	11825.75
1138.90589	11657.35
1142.5369	11499.85
1146.16542	11348.45
1149.79145	11231.15
1153.415	11181.55
1157.03607	11245.45
1160.65467	11430.85
1164.27079	11811.95
1167.88443	12324.75
1171.49561	13013.45
1175.10432	13960.05
1178.71056	15192.15
1182.31434	16302.75
1185.91565	16823.65
1189.51451	16722.45
1193.11091	16211.85
1196.70485	15559.45
1200.29634	14906.25
1203.88538	14375.95
1207.47197	13906.75
1211.05612	13470.75
1214.63782	13104.45
1218.21708	12867.95
1221.79391	12716.65
1225.36829	12655.85
1228.94024	12551.65
1232.50976	12352.65
1236.07685	12204.85
1239.6415	12114.35
1243.20374	12119.25
1246.76355	12184.15
1250.32093	12301.25
1253.8759	12518.75
1257.42845	12818.35
1260.97859	13120.65
1264.52631	13421.75
1268.07163	13716.85
1271.61453	14012.75
1275.15503	14355.75
1278.69312	14650.45
1282.22882	14974.45
1285.76211	15301.65
1289.29301	15781.45
1292.82151	16391.65
1296.34761	17174.25
1299.87133	18113.35
1303.39266	19174.05
1306.9116	20330.15
1310.42815	21476.95
1313.94233	22243.75
1317.45412	22246.75
1320.96354	21772.25
1324.47058	21171.75
1327.97525	20525.25
1331.47754	20097.15
1334.97747	19871.15
1338.47502	19806.95
1341.97022	19849.45
1345.46305	19868.05
1348.95352	19894.75
1352.44163	20243.55
1355.92738	20890.25
1359.41078	22006.25
1362.89183	23028.75
1366.37053	22838.35
1369.84688	20736.95
1373.32088	18210.35
1376.79254	16450.85
1380.26186	15696.65
1383.72883	15427.35
1387.19347	15336.15
1390.65578	15226.25
1394.11575	15186.35
1397.57339	15356.25
1401.0287	15668.95
1404.48168	15974.65
1407.93234	16081.35
1411.38068	15951.45
1414.82669	15548.55
1418.27039	14960.65
1421.71177	14279.95
1425.15083	13652.95
1428.58758	13289.15
1432.02203	13270.65
1435.45416	13407.95
1438.88399	13721.55
1442.31151	13975.55
1445.73673	14211.75
1449.15965	14479.25
1452.58027	14692.05
1455.9986	14799.05
1459.41463	14954.55
1462.82837	15168.95
1466.23982	15480.65
1469.64898	15671.85
1473.05586	15791.95
1476.46045	15769.55
1479.86276	15712.55
1483.26279	15588.25
1486.66054	15509.15
1490.05602	15517.95
1493.44922	15618.65
1496.84016	15805.95
1500.22882	16180.45
1503.61521	16895.15
1506.99934	17832.25
1510.38121	18670.15
1513.76081	19040.95
1517.13816	18491.05
1520.51324	17365.45
1523.88607	16309.15
1527.25665	15617.15
1530.62498	15275.75
1533.99105	15119.65
1537.35488	15010.15
1540.71647	14830.25
1544.07581	14610.05
1547.4329	14386.15
1550.78776	14160.35
1554.14038	14068.45
1557.49077	13993.45
1560.83892	14083.65
1564.18484	14190.25
1567.52853	14318.55
1570.86999	14462.15
1574.20922	14580.55
1577.54624	14704.35
1580.88103	14571.85
1584.2136	14350.85
1587.54395	14400.55
1590.87208	14831.05
1594.19801	15545.85
1597.52172	16424.05
1600.84321	16863.45
1604.16251	16506.65
1607.47959	15409.65
1610.79447	14215.35
1614.10715	13048.35
1617.41763	12094.35
1620.7259	11441.35
1624.03199	11092.35
1627.33587	11028.85
1630.63757	11200.45
1633.93707	11761.15
1637.23439	12595.05
1640.52951	13961.85
1643.82246	15642.85
1647.11321	17262.05
1650.40179	18005.85
1653.68819	17369.05
1656.97241	15472.75
1660.25446	13332.85
1663.53433	11720.35
1666.81203	10638.45
1670.08756	9956.25
1673.36092	9523.65
1676.63211	9235.05
1679.90115	9008.75
1683.16801	8864.25
1686.43272	8737.65
1689.69527	8654.15
1692.95567	8555.55
1696.2139	8523.35
1699.46999	8455.45
1702.72392	8408.35
1705.97571	8345.55
1709.22535	8296.35
1712.47284	8234.25
1715.71819	8219.95
1718.96139	8191.05
1722.20246	8129.65
1725.44139	8097.25
1728.67818	8053.65
1731.91284	8011.15
1735.14537	7963.45
1738.37576	7923.95
1741.60403	7897.35
1744.83017	7898.75
1748.05418	7860.15
1751.27607	7876.35
1754.49584	7865.15
1757.71349	7875.95
1760.92903	7842.15
1764.14244	7808.75
1767.35375	7794.85
1770.56294	7754.55
1773.77002	7720.35
1776.97499	7684.05
1780.17785	7652.95
1783.37861	7623.15
1786.57727	7619.25
1789.77382	7565.55
1792.96828	7551.55
1796.16064	7547.75
1799.3509	7501.65
1802.53907	7500.75
1805.72514	7466.45
1808.90913	7458.25
1812.09102	7406.05
1815.27083	7399.45
1818.44856	7403.85
1821.6242	7362.85
1824.79776	7351.45
1827.96924	7345.35
1831.13864	7326.85
1834.30597	7322.05
1837.47122	7296.05
1840.6344	7309.05
1843.7955	7286.15
1846.95454	7285.65
1850.11151	7283.45
1853.26642	7255.35
1856.41926	7264.25
1859.57004	7267.65
1862.71876	7249.25
1865.86542	7249.25
1869.01003	7227.45
1872.15258	7222.15
1875.29308	7215.35
1878.43152	7204.45
1881.56792	7206.85
1884.70227	7209.55
1887.83457	7181.45
1890.96482	7170.45
1894.09304	7156.75
1897.21921	7164.95
1900.34335	7157.45
1903.46544	7145.95
1906.58551	7128.35
1909.70353	7126.95
1912.81953	7102.05
1915.93349	7095.95
1919.04543	7075.55
1922.15534	7056.45
1925.26322	7041.35
1928.36908	7011.25
1931.47292	7003.65
1934.57473	6979.45
1937.67453	6965.35
1940.77232	6930.85
1943.86808	6906.75
1946.96184	6896.35
1950.05358	6881.95
1953.14331	6833.55
1956.23103	6807.45
1959.31675	6810.85
1962.40046	6795.15
1965.48217	6763.55
1968.56188	6738.45
1971.63959	6725.85
1974.7153	6717.45
1977.78901	6675.05
1980.86073	6641.55
1983.93046	6634.15
1986.99819	6606.55
1990.06394	6577.65
1993.1277	6553.75
1996.18947	6515.65
1999.24925	6514.35
2002.30706	6497.35
2005.36288	6491.05
2008.41672	6459.55
2011.46859	6427.35
2014.51848	6409.65
2017.56639	6399.15
2020.61233	6378.35
2023.6563	6367.05
2026.6983	6339.75
2029.73833	6323.15
2032.7764	6307.75
2035.8125	6305.65
2038.84664	6272.75
2041.87881	6266.35
2044.90903	6258.25
2047.93729	6245.55
2050.96359	6250.35
2053.98794	6236.65
2057.01034	6209.75
2060.03078	6200.85
2063.04927	6191.05
2066.06582	6208.45
2069.08042	6180.35
2072.09307	6174.45
2075.10378	6162.95
2078.11255	6154.85
2081.11938	6155.45
2084.12426	6139.35
2087.12722	6140.05
2090.12824	6158.35
2093.12732	6133.65
2096.12447	6137.85
2099.11969	6130.25
2102.11299	6136.15
2105.10435	6134.45
2108.09379	6131.85
2111.08131	6123.45
2114.0669	6143.85
2117.05057	6132.05
2120.03233	6150.95
2123.01216	6138.25
2125.99008	6129.05
2128.96609	6124.05
2131.94018	6132.05
2134.91236	6129.95
2137.88263	6126.15
2140.851	6130.45
2143.81746	6129.55
2146.78201	6128.65
2149.74466	6112.15
2152.7054	6143.45
2155.66425	6114.65
2158.6212	6106.85
2161.57625	6111.65
2164.52941	6104.95
2167.48067	6100.05
2170.43004	6089.45
2173.37752	6065.65
2176.32311	6057.45
2179.26681	6073.15
2182.20863	6081.75
2185.14856	6067.75
2188.08661	6072.35
2191.02278	6075.05
2193.95707	6046.15
2196.88948	6039.55
2199.82001	6050.15
2202.74867	6044.55
2205.67545	6032.65
2208.60037	6018.35
2211.52341	6020.65
2214.44458	5997.05
2217.36388	5982.25
2220.28132	5967.35
2223.1969	5957.75
2226.11061	5953.95
2229.02246	5933.85
2231.93245	5933.95
2234.84058	5913.85
2237.74686	5890.55
2240.65128	5885.05
2243.55385	5883.65
2246.45456	5869.55
2249.35343	5869.85
2252.25044	5860.25
2255.14561	5839.85
2258.03893	5830.15
2260.93041	5842.55
2263.82004	5782.25
2266.70783	5786.95
2269.59378	5791.05
2272.4779	5742.05
2275.36017	5735.85
2278.24061	5733.05
2281.11922	5706.55
2283.996	5688.55
2286.87094	5695.05
2289.74405	5671.35
2292.61534	5675.45
2295.4848	5658.45
2298.35243	5664.65
2301.21824	5660.75
2304.08223	5643.05
2306.94439	5640.25
2309.80474	5627.25
2312.66327	5625.65
2315.51999	5630.55
2318.37489	5636.05
2321.22797	5619.75
2324.07925	5608.15
2326.92871	5596.25
2329.77637	5609.05
2332.62222	5600.05
2335.46626	5593.55
2338.3085	5567.45
2341.14893	5564.15
2343.98756	5556.55
2346.8244	5559.75
2349.65943	5554.15
2352.49267	5563.55
2355.32411	5538.65
2358.15376	5538.35
2360.98161	5548.15
2363.80768	5545.15
2366.63195	5538.75
2369.45444	5519.25
2372.27514	5522.95
2375.09405	5526.35
2377.91118	5498.45
2380.72652	5472.05
2383.54009	5466.85
2386.35187	5453.95
2389.16188	5435.65
2391.97011	5436.15
2394.77657	5419.75
2397.58125	5400.85
2400.38416	5415.95
2403.18529	5388.25
2405.98466	5378.85
2408.78226	5362.15
2411.57809	5347.45
2414.37216	5338.55
2417.16446	5351.85
2419.955	5315.45
2422.74378	5312.45
2425.5308	5307.35
2428.31606	5301.65
2431.09956	5300.65
2433.88131	5293.85
2436.6613	5290.25
2439.43954	5285.85
2442.21603	5268.05
2444.99077	5270.85
2447.76377	5287.95
2450.53501	5277.85
2453.30451	5267.55
2456.07226	5262.45
2458.83827	5257.95
2461.60254	5242.55
2464.36507	5254.85
2467.12586	5251.25
2469.88492	5249.65
2472.64224	5258.05
2475.39782	5254.85
2478.15167	5252.25
2480.90379	5240.35
2483.65417	5243.65
2486.40283	5243.15
2489.14976	5259.55
2491.89497	5241.15
2494.63845	5253.75
2497.3802	5242.55
2500.12024	5247.85
2502.85855	5243.15
2505.59514	5230.85
2508.33002	5210.55
2511.06318	5211.05
2513.79462	5188.05
2516.52435	5175.45
2519.25237	5174.85
2521.97867	5169.85
2524.70327	5145.35
2527.42616	5166.65
2530.14734	5144.35
2532.86681	5135.85
2535.58458	5128.05
2538.30065	5122.55
2541.01501	5129.95
2543.72768	5117.45
2546.43864	5094.95
2549.14791	5112.15
2551.85548	5090.35
2554.56136	5094.95
2557.26554	5076.35
2559.96803	5086.25
2562.66883	5067.45
2565.36794	5054.15
2568.06536	5054.15
2570.7611	5059.75
2573.45514	5065.45
2576.14751	5039.65
2578.83819	5037.45
2581.52719	5040.95
2584.21451	5026.05
2586.90015	5007.65
2589.58411	5019.35
2592.2664	5000.55
2594.94701	5002.65
2597.62594	5004.55
2600.30321	4986.15
2602.9788	4996.75
2605.65273	4986.95
2608.32498	4988.25
2610.99557	4970.65
2613.66449	4975.05
2616.33175	4968.55
2618.99734	4967.25
2621.66128	4967.65
2624.32355	4943.75
2626.98416	4950.85
2629.64311	4950.95
2632.30041	4939.55
2634.95605	4946.95
2637.61004	4932.05
2640.26238	4916.35
2642.91306	4915.95
2645.56209	4933.85
2648.20948	4912.35
2650.85521	4917.55
2653.4993	4927.35
2656.14175	4913.15
2658.78255	4911.35
2661.42171	4930.05
2664.05923	4924.55
2666.6951	4906.45
2669.32934	4921.65
2671.96194	4920.35
2674.59291	4924.85
2677.22224	4909.45
2679.84993	4922.15
2682.476	4892.35
2685.10043	4917.15
2687.72324	4893.05
2690.34441	4898.65
2692.96396	4903.75
2695.58188	4911.45
2698.19818	4887.45
2700.81285	4899.45
2703.4259	4919.55
2706.03733	4966.45
2708.64714	4922.45
2711.25533	4910.45
2713.86191	4904.75
2716.46687	4908.85
2719.07021	4914.95
2721.67194	4898.65
2724.27206	4896.15
2726.87057	4896.05
2729.46747	4899.05
2732.06276	4899.45
2734.65644	4891.25
2737.24852	4909.95
2739.83899	4885.25
2742.42786	4880.65
2745.01513	4886.35
2747.60079	4871.05
2750.18486	4874.05
2752.76733	4880.95
2755.3482	4859.15
2757.92747	4862.85
2760.50515	4848.05
2763.08123	4861.25
2765.65573	4854.25
2768.22863	4860.55
2770.79994	4837.35
2773.36967	4853.05
2775.9378	4846.35
2778.50435	4832.85
2781.06932	4821.95
2783.6327	4834.75
2786.1945	4829.25
2788.75471	4833.65
2791.31335	4821.55
2793.87041	4808.85
2796.42589	4780.65
2798.97979	4785.65
2801.53212	4780.35
2804.08288	4778.55
2806.63206	4767.65
2809.17967	4774.85
2811.72571	4732.75
2814.27018	4743.75
2816.81308	4743.75
2819.35442	4749.85
2821.89419	4733.15
2824.43239	4728.25
2826.96904	4726.05
2829.50412	4711.45
2832.03763	4712.05
2834.56959	4715.25
2837.1	4689.05
2839.62884	4693.25
2842.15613	4692.75
2844.68186	4700.75
2847.20604	4716.65
2849.72867	4701.45
2852.24974	4719.55
2854.76927	4727.35
2857.28724	4717.95
2859.80367	4707.75
2862.31855	4664.35
2864.83189	4679.95
2867.34368	4683.95
2869.85393	4674.25
2872.36264	4674.65
2874.8698	4680.55
2877.37543	4669.35
2879.87952	4681.75
2882.38207	4684.15
2884.88308	4670.45
2887.38256	4665.15
2889.88051	4677.95
2892.37692	4680.15
2894.8718	4673.25
2897.36515	4677.75
2899.85698	4682.95
2902.34727	4691.65
2904.83604	4684.05
2907.32328	4708.25
2909.809	4692.25
2912.29319	4709.45
2914.77587	4710.75
2917.25702	4709.85
2919.73665	4714.35
2922.21476	4709.55
2924.69136	4702.35
2927.16644	4703.45
2929.64	4701.45
2932.11205	4701.15
2934.58258	4684.55
2937.05161	4686.85
2939.51912	4708.25
2941.98513	4676.65
2944.44962	4665.65
2946.91261	4661.35
2949.37409	4647.75
2951.83407	4655.35
2954.29254	4646.25
2956.74951	4650.65
2959.20498	4646.65
2961.65895	4621.95
2964.11142	4615.55
2966.56239	4597.95
2969.01186	4606.45
2971.45984	4577.95
2973.90632	4551.75
2976.35131	4550.45
2978.7948	4533.85
2981.23681	4535.65
2983.67732	4510.15
2986.11635	4512.85
2988.55388	4486.55
2990.98993	4486.75
2993.4245	4469.65
2995.85758	4443.35
2998.28917	4455.25
3000.71928	4456.85
3003.14791	4452.65
3005.57506	4450.85
3008.00073	4434.35
3010.42493	4424.55
3012.84764	4414.45
3015.26888	4420.05
3017.68865	4406.35
3020.10694	4406.35
3022.52376	4386.85
3024.9391	4374.85
3027.35298	4389.75
3029.76539	4369.25
3032.17632	4342.95
3034.5858	4354.95
3036.9938	4350.75
3039.40034	4343.85
3041.80542	4344.05
3044.20903	4335.55
3046.61118	4329.55
3049.01187	4320.55
3051.4111	4317.25
3053.80888	4296.25
3056.20519	4305.55
3058.60005	4299.75
3060.99345	4287.25
3063.3854	4258.45
3065.7759	4254.15
3068.16494	4256.95
3070.55254	4251.95
3072.93868	4240.05
3075.32338	4225.15
3077.70662	4222.05
3080.08842	4208.65
3082.46878	4213.95
3084.84769	4211.75
3087.22515	4193.65
3089.60118	4212.55
3091.97576	4218.55
3094.3489	4200.35
3096.72061	4213.15
3099.09087	4197.65
3101.4597	4203.25
3103.82709	4187.85
3106.19305	4192.65
3108.55757	4178.55
3110.92066	4181.75
3113.28232	4190.65
3115.64255	4169.45
3118.00134	4159.55
3120.35871	4151.95
3122.71466	4145.05
3125.06917	4143.65
3127.42226	4132.85
3129.77393	4136.85
3132.12417	4158.75
3134.47299	4152.65
3136.82039	4149.25
3139.16636	4156.25
3141.51092	4157.45
3143.85406	4148.75
3146.19579	4147.65
3148.53609	4153.55
3150.87499	4148.65
3153.21246	4155.25
3155.54853	4179.85
3157.88318	4175.75
3160.21642	4171.35
3162.54826	4165.55
3164.87868	4169.55
3167.2077	4174.35
3169.5353	4163.35
3171.86151	4155.25
3174.18631	4185.35
3176.5097	4163.15
3178.83169	4177.35
3181.15228	4176.95
3183.47147	4177.05
3185.78926	4160.35
3188.10565	4170.25
3190.42065	4168.25
3192.73424	4161.35
3195.04645	4169.35
3197.35725	4171.65
3199.66667	4177.05
3201.97469	4171.55
3204.28132	4176.05
3206.58656	4194.85
3208.8904	4189.05
3211.19287	4184.55
3213.49394	4212.65
3215.79363	4182.65
3218.09193	4197.35
3220.38884	4204.65
3222.68438	4213.95
3224.97853	4199.15
3227.2713	4197.05
3229.56269	4184.45
3231.8527	4189.15
3234.14133	4173.05
3236.42858	4153.05
3238.71446	4175.85
3240.99896	4152.05
3243.28209	4165.15
3245.56384	4169.05
3247.84423	4155.55
3250.12324	4144.65
3252.40088	4152.15
3254.67715	4143.25
3256.95205	4135.95
3259.22558	4146.75
3261.49775	4138.15
3263.76855	4134.15
3266.03799	4110.95
3268.30606	4109.85
3270.57277	4102.45
3272.83812	4096.85
3275.10211	4087.75
3277.36474	4081.35
3279.62601	4071.45
3281.88593	4070.65
3284.14448	4079.25
3286.40168	4095.05
3288.65753	4083.35
3290.91202	4075.95
3293.16516	4064.55
3295.41695	4049.15
3297.66738	4036.35
3299.91647	4014.35
3302.16421	3993.65
3304.4106	3967.65
3306.65564	3948.45
3308.89933	3972.65
3311.14169	4000.15
3313.38269	3889.45
3315.62236	3864.65
3317.86068	3833.55
3320.09766	3769.45
3322.3333	3762.05
3324.5676	3770.75
3326.80056	3710.75
3329.03219	3698.55
3331.26248	2.35
3333.49143	-1.35
3335.71905	0.55
