Data from AgNPs_FTO_APTES_UA_100um_CRN_0.1mM_R6G_10uM_NaF_0.1M_Addition_RamanShift__24__16-12-59-292.txt Node

Date: Tue Dec 21 16:12:59 GMT 2021
User: TCL
Spectrometer: QEP01345
Trigger mode: 4
Integration Time (sec): 7.000000E0
Scans to average: 10
Electric dark correction enabled: true
Nonlinearity correction enabled: false
Boxcar width: 0
XAxis mode: Raman Shifts
Number of Pixels in Spectrum: 1044
>>>>>Begin Spectral Data<<<<<
46.04893	1.15
50.45542	-1.75
54.85868	-2.05
59.25871	0.95
63.6555	32.85
68.04907	39.85
72.43941	41.75
76.82654	43.45
81.21044	48.85
85.59113	49.35
89.96862	49.65
94.34289	50.15
98.71396	52.15
103.08183	53.25
107.4465	55.45
111.80798	58.15
116.16626	55.75
120.52136	57.95
124.87327	62.15
129.222	57.25
133.56755	62.65
137.90993	72.75
142.24913	73.15
146.58517	83.15
150.91804	92.25
155.24774	105.95
159.57429	129.15
163.89768	163.45
168.21792	211.95
172.53501	285.95
176.84895	393.35
181.15975	560.75
185.46741	773.05
189.77193	1072.25
194.07331	1445.55
198.37157	1870.15
202.6667	2320.75
206.9587	2754.55
211.24758	3204.85
215.53334	3645.65
219.81599	4101.05
224.09553	4596.45
228.37195	5144.15
232.64527	5749.35
236.91549	6429.75
241.18261	7061.75
245.44663	7688.65
249.70755	8262.85
253.96539	8752.55
258.22014	9168.45
262.4718	9471.45
266.72039	9728.75
270.96589	9852.85
275.20832	9853.45
279.44768	9766.95
283.68397	9663.15
287.91719	9576.75
292.14735	9501.55
296.37445	9489.55
300.59849	9520.05
304.81948	9566.95
309.03742	9568.25
313.25231	9430.15
317.46415	9220.45
321.67296	8931.55
325.87872	8711.25
330.08145	8609.75
334.28114	8610.55
338.47781	8675.75
342.67145	8798.05
346.86207	8957.35
351.04966	9158.55
355.23424	9397.25
359.4158	9607.25
363.59435	9737.65
367.76989	9852.55
371.94243	9931.35
376.11196	10005.05
380.27849	10058.05
384.44203	10127.85
388.60257	10112.85
392.76012	10201.25
396.91468	10268.75
401.06626	10405.15
405.21485	10521.25
409.36047	10489.95
413.50311	10337.45
417.64277	10094.45
421.77947	10022.25
425.9132	9963.45
430.04396	9966.55
434.17176	10036.75
438.2966	10082.95
442.41849	10216.05
446.53742	10368.05
450.6534	10550.25
454.76644	10723.05
458.87653	10777.05
462.98368	10785.95
467.08789	10715.25
471.18916	10627.25
475.2875	10593.55
479.38291	10554.35
483.4754	10500.45
487.56496	10439.55
491.6516	10371.75
495.73531	10291.55
499.81612	10253.95
503.89401	10256.55
507.96899	10263.25
512.04106	10275.25
516.11023	10282.05
520.1765	10317.85
524.23987	10313.05
528.30034	10273.15
532.35792	10233.75
536.41261	10126.25
540.46441	10033.95
544.51333	10006.45
548.55936	9981.85
552.60252	10074.25
556.64279	10199.25
560.6802	10267.45
564.71473	10294.05
568.7464	10371.95
572.7752	10473.55
576.80114	10458.05
580.82422	10419.35
584.84444	10428.35
588.86181	10467.85
592.87633	10563.75
596.888	10616.15
600.89682	10702.15
604.9028	11089.15
608.90594	12133.85
612.90624	13553.85
616.90371	13288.65
620.89834	11379.05
624.89015	10414.15
628.87913	10325.05
632.86528	10452.55
636.84862	10564.45
640.82913	10510.55
644.80683	10231.55
648.78172	9942.15
652.75379	9811.75
656.72306	9859.85
660.68952	10005.95
664.65319	10002.75
668.61405	9863.55
672.57211	9815.05
676.52738	9836.75
680.47986	9850.85
684.42955	9797.65
688.37646	9715.45
692.32058	9672.45
696.26192	9703.85
700.20048	9716.75
704.13626	9748.85
708.06928	9738.65
711.99952	9673.75
715.927	9636.75
719.85171	9638.95
723.77365	9630.55
727.69284	9603.15
731.60928	9574.15
735.52295	9530.65
739.43388	9510.75
743.34206	9507.95
747.24749	9536.55
751.15017	9526.65
755.05012	9564.55
758.94733	9764.65
762.8418	10114.05
766.73354	10800.05
770.62254	11564.65
774.50882	12033.65
778.39237	11703.45
782.27321	10857.05
786.15132	10097.35
790.02671	9609.75
793.89938	9406.85
797.76935	9305.65
801.6366	9299.35
805.50115	9305.95
809.36299	9340.95
813.22213	9346.35
817.07857	9339.25
820.93231	9255.05
824.78336	9170.95
828.63172	9111.85
832.47738	9065.95
836.32036	9043.35
840.16066	9005.35
843.99827	8966.55
847.8332	8955.85
851.66546	8936.35
855.49504	8924.65
859.32195	8889.75
863.1462	8899.85
866.96777	8900.75
870.78668	8899.25
874.60293	8907.45
878.41652	8953.15
882.22745	8985.45
886.03573	9011.45
889.84136	9018.05
893.64433	8953.05
897.44466	8864.35
901.24235	8803.65
905.0374	8721.65
908.8298	8676.75
912.61957	8638.25
916.40671	8642.55
920.19121	8680.95
923.97308	8675.15
927.75233	8703.75
931.52895	8689.15
935.30295	8641.35
939.07433	8522.35
942.84309	8460.95
946.60924	8384.05
950.37278	8346.35
954.13371	8320.35
957.89203	8282.55
961.64774	8270.35
965.40086	8209.25
969.15137	8173.05
972.89929	8128.25
976.64461	8091.55
980.38733	8078.35
984.12747	8077.55
987.86502	8108.15
991.59999	8132.45
995.33237	8159.05
999.06217	8262.55
1002.78939	8355.95
1006.51404	8514.35
1010.23611	8604.65
1013.95561	8688.35
1017.67255	8714.95
1021.38692	8656.25
1025.09872	8566.95
1028.80796	8494.95
1032.51465	8477.55
1036.21877	8498.55
1039.92035	8526.75
1043.61937	8497.35
1047.31584	8479.75
1051.00976	8439.05
1054.70114	8432.45
1058.38998	8420.85
1062.07627	8454.45
1065.76003	8502.95
1069.44126	8540.15
1073.11995	8585.35
1076.79611	8601.75
1080.46974	8621.25
1084.14085	8608.05
1087.80943	8656.85
1091.47549	8683.45
1095.13903	8707.85
1098.80005	8575.15
1102.45857	8459.65
1106.11456	8396.45
1109.76805	8375.05
1113.41903	8449.65
1117.06751	8539.95
1120.71348	8676.25
1124.35696	8865.95
1127.99793	9040.85
1131.63641	9194.95
1135.2724	9168.15
1138.90589	9015.25
1142.5369	8863.05
1146.16542	8737.35
1149.79145	8629.55
1153.415	8550.45
1157.03607	8494.45
1160.65467	8554.15
1164.27079	8732.05
1167.88443	8961.85
1171.49561	9312.45
1175.10432	9843.55
1178.71056	10533.05
1182.31434	11197.75
1185.91565	11507.25
1189.51451	11456.45
1193.11091	11189.75
1196.70485	10763.95
1200.29634	10460.65
1203.88538	10180.45
1207.47197	9911.75
1211.05612	9616.45
1214.63782	9379.75
1218.21708	9214.45
1221.79391	9081.95
1225.36829	9021.75
1228.94024	8944.65
1232.50976	8894.95
1236.07685	8828.85
1239.6415	8827.85
1243.20374	8846.15
1246.76355	8899.15
1250.32093	8977.45
1253.8759	9079.75
1257.42845	9248.55
1260.97859	9396.75
1264.52631	9507.15
1268.07163	9650.35
1271.61453	9803.65
1275.15503	9920.75
1278.69312	10061.05
1282.22882	10183.55
1285.76211	10317.05
1289.29301	10544.15
1292.82151	10821.85
1296.34761	11179.15
1299.87133	11612.95
1303.39266	12171.15
1306.9116	12850.95
1310.42815	13572.05
1313.94233	13987.95
1317.45412	13926.65
1320.96354	13607.75
1324.47058	13182.85
1327.97525	12775.55
1331.47754	12474.05
1334.97747	12368.45
1338.47502	12407.15
1341.97022	12521.85
1345.46305	12645.55
1348.95352	12764.55
1352.44163	13010.35
1355.92738	13492.75
1359.41078	14264.15
1362.89183	15118.75
1366.37053	15053.05
1369.84688	13727.95
1373.32088	12155.85
1376.79254	11121.35
1380.26186	10583.45
1383.72883	10394.65
1387.19347	10277.85
1390.65578	10140.25
1394.11575	10079.25
1397.57339	10038.75
1401.0287	10126.85
1404.48168	10206.05
1407.93234	10279.45
1411.38068	10213.35
1414.82669	10064.95
1418.27039	9810.85
1421.71177	9500.65
1425.15083	9231.25
1428.58758	9030.25
1432.02203	9012.35
1435.45416	9052.45
1438.88399	9130.35
1442.31151	9181.25
1445.73673	9289.15
1449.15965	9394.15
1452.58027	9450.55
1455.9986	9469.65
1459.41463	9522.95
1462.82837	9625.35
1466.23982	9775.05
1469.64898	9883.35
1473.05586	9954.05
1476.46045	9982.15
1479.86276	10014.45
1483.26279	10035.95
1486.66054	10081.55
1490.05602	10164.15
1493.44922	10323.25
1496.84016	10551.25
1500.22882	10966.55
1503.61521	11568.65
1506.99934	12335.05
1510.38121	13011.75
1513.76081	13223.35
1517.13816	12826.75
1520.51324	11971.55
1523.88607	11145.65
1527.25665	10584.15
1530.62498	10248.35
1533.99105	10100.15
1537.35488	9985.55
1540.71647	9906.75
1544.07581	9819.75
1547.4329	9730.05
1550.78776	9652.75
1554.14038	9633.65
1557.49077	9648.45
1560.83892	9717.85
1564.18484	9786.65
1567.52853	9896.55
1570.86999	9988.55
1574.20922	10061.55
1577.54624	10097.05
1580.88103	9947.75
1584.2136	9729.35
1587.54395	9626.45
1590.87208	9775.95
1594.19801	10090.35
1597.52172	10515.05
1600.84321	10751.25
1604.16251	10573.85
1607.47959	10113.25
1610.79447	9554.45
1614.10715	9006.55
1617.41763	8548.85
1620.7259	8223.35
1624.03199	8051.85
1627.33587	7988.45
1630.63757	8090.75
1633.93707	8288.85
1637.23439	8668.75
1640.52951	9245.75
1643.82246	9979.15
1647.11321	10795.75
1650.40179	11318.35
1653.68819	11162.25
1656.97241	10267.95
1660.25446	9167.55
1663.53433	8357.15
1666.81203	7765.95
1670.08756	7435.25
1673.36092	7189.85
1676.63211	7047.25
1679.90115	6937.85
1683.16801	6810.25
1686.43272	6751.55
1689.69527	6706.65
1692.95567	6662.35
1696.2139	6639.05
1699.46999	6627.75
1702.72392	6562.75
1705.97571	6521.15
1709.22535	6436.35
1712.47284	6393.75
1715.71819	6363.65
1718.96139	6329.75
1722.20246	6299.05
1725.44139	6272.45
1728.67818	6266.85
1731.91284	6211.55
1735.14537	6188.65
1738.37576	6161.75
1741.60403	6129.35
1744.83017	6126.75
1748.05418	6118.65
1751.27607	6121.45
1754.49584	6098.75
1757.71349	6106.95
1760.92903	6094.95
1764.14244	6066.65
1767.35375	6067.85
1770.56294	6063.75
1773.77002	6011.65
1776.97499	5991.65
1780.17785	5948.05
1783.37861	5942.65
1786.57727	5918.65
1789.77382	5881.15
1792.96828	5879.15
1796.16064	5858.85
1799.3509	5833.05
1802.53907	5840.15
1805.72514	5805.85
1808.90913	5796.55
1812.09102	5769.35
1815.27083	5755.85
1818.44856	5748.75
1821.6242	5727.05
1824.79776	5723.35
1827.96924	5690.25
1831.13864	5696.75
1834.30597	5675.95
1837.47122	5675.15
1840.6344	5664.75
1843.7955	5666.35
1846.95454	5658.35
1850.11151	5653.35
1853.26642	5635.15
1856.41926	5643.25
1859.57004	5622.55
1862.71876	5619.15
1865.86542	5602.25
1869.01003	5589.75
1872.15258	5598.05
1875.29308	5606.25
1878.43152	5592.45
1881.56792	5590.25
1884.70227	5558.15
1887.83457	5559.85
1890.96482	5536.65
1894.09304	5533.15
1897.21921	5525.75
1900.34335	5526.15
1903.46544	5509.75
1906.58551	5505.75
1909.70353	5500.15
1912.81953	5488.45
1915.93349	5478.45
1919.04543	5463.55
1922.15534	5458.85
1925.26322	5448.25
1928.36908	5444.75
1931.47292	5431.45
1934.57473	5411.85
1937.67453	5396.15
1940.77232	5367.15
1943.86808	5347.55
1946.96184	5337.45
1950.05358	5329.55
1953.14331	5322.55
1956.23103	5283.85
1959.31675	5279.15
1962.40046	5248.05
1965.48217	5240.75
1968.56188	5225.45
1971.63959	5200.35
1974.7153	5184.15
1977.78901	5178.05
1980.86073	5158.85
1983.93046	5132.05
1986.99819	5130.45
1990.06394	5097.25
1993.1277	5090.15
1996.18947	5055.55
1999.24925	5060.75
2002.30706	5040.55
2005.36288	5013.15
2008.41672	5003.95
2011.46859	4992.45
2014.51848	4961.75
2017.56639	4954.95
2020.61233	4951.95
2023.6563	4933.15
2026.6983	4901.95
2029.73833	4882.45
2032.7764	4877.25
2035.8125	4890.05
2038.84664	4849.15
2041.87881	4831.15
2044.90903	4854.35
2047.93729	4825.45
2050.96359	4838.25
2053.98794	4828.75
2057.01034	4815.05
2060.03078	4809.05
2063.04927	4787.55
2066.06582	4785.95
2069.08042	4760.25
2072.09307	4777.85
2075.10378	4760.65
2078.11255	4744.25
2081.11938	4757.05
2084.12426	4756.45
2087.12722	4730.35
2090.12824	4736.85
2093.12732	4742.65
2096.12447	4746.45
2099.11969	4740.35
2102.11299	4733.15
2105.10435	4724.55
2108.09379	4741.75
2111.08131	4738.65
2114.0669	4732.85
2117.05057	4729.35
2120.03233	4741.55
2123.01216	4729.15
2125.99008	4748.15
2128.96609	4737.65
2131.94018	4732.15
2134.91236	4733.75
2137.88263	4737.55
2140.851	4733.95
2143.81746	4744.95
2146.78201	4736.15
2149.74466	4747.35
2152.7054	4736.15
2155.66425	4731.85
2158.6212	4719.75
2161.57625	4724.35
2164.52941	4716.75
2167.48067	4711.45
2170.43004	4712.55
2173.37752	4701.95
2176.32311	4685.35
2179.26681	4707.95
2182.20863	4695.15
2185.14856	4717.25
2188.08661	4690.05
2191.02278	4676.75
2193.95707	4694.15
2196.88948	4672.15
2199.82001	4672.45
2202.74867	4662.35
2205.67545	4657.15
2208.60037	4650.65
2211.52341	4646.85
2214.44458	4632.15
2217.36388	4629.75
2220.28132	4610.75
2223.1969	4585.35
2226.11061	4596.45
2229.02246	4580.95
2231.93245	4568.65
2234.84058	4559.55
2237.74686	4564.15
2240.65128	4538.05
2243.55385	4545.35
2246.45456	4537.65
2249.35343	4509.75
2252.25044	4518.15
2255.14561	4501.55
2258.03893	4513.65
2260.93041	4495.55
2263.82004	4483.25
2266.70783	4465.15
2269.59378	4463.15
2272.4779	4445.45
2275.36017	4431.85
2278.24061	4425.65
2281.11922	4409.35
2283.996	4390.85
2286.87094	4398.35
2289.74405	4380.05
2292.61534	4390.45
2295.4848	4359.95
2298.35243	4363.85
2301.21824	4360.05
2304.08223	4347.15
2306.94439	4352.25
2309.80474	4358.45
2312.66327	4330.45
2315.51999	4340.55
2318.37489	4329.55
2321.22797	4304.35
2324.07925	4311.35
2326.92871	4326.05
2329.77637	4313.35
2332.62222	4305.15
2335.46626	4285.35
2338.3085	4276.85
2341.14893	4274.15
2343.98756	4261.25
2346.8244	4269.35
2349.65943	4254.25
2352.49267	4269.15
2355.32411	4248.65
2358.15376	4270.65
2360.98161	4248.85
2363.80768	4258.95
2366.63195	4255.25
2369.45444	4243.45
2372.27514	4233.45
2375.09405	4231.25
2377.91118	4218.25
2380.72652	4202.75
2383.54009	4203.85
2386.35187	4180.05
2389.16188	4179.65
2391.97011	4161.45
2394.77657	4152.35
2397.58125	4144.65
2400.38416	4149.25
2403.18529	4131.65
2405.98466	4121.05
2408.78226	4102.25
2411.57809	4094.05
2414.37216	4095.95
2417.16446	4100.75
2419.955	4066.65
2422.74378	4077.35
2425.5308	4070.35
2428.31606	4077.25
2431.09956	4057.65
2433.88131	4057.55
2436.6613	4056.45
2439.43954	4041.95
2442.21603	4044.05
2444.99077	4037.85
2447.76377	4054.65
2450.53501	4039.15
2453.30451	4021.15
2456.07226	4023.35
2458.83827	4013.15
2461.60254	4014.35
2464.36507	4010.85
2467.12586	4005.05
2469.88492	4007.15
2472.64224	3988.15
2475.39782	4011.25
2478.15167	4009.75
2480.90379	3990.05
2483.65417	3999.55
2486.40283	3986.85
2489.14976	4005.05
2491.89497	3987.65
2494.63845	4013.75
2497.3802	3988.25
2500.12024	3968.05
2502.85855	3960.65
2505.59514	3983.35
2508.33002	3960.45
2511.06318	3949.15
2513.79462	3944.85
2516.52435	3943.55
2519.25237	3934.25
2521.97867	3927.05
2524.70327	3904.45
2527.42616	3909.65
2530.14734	3911.75
2532.86681	3909.45
2535.58458	3891.55
2538.30065	3876.95
2541.01501	3896.15
2543.72768	3867.05
2546.43864	3870.75
2549.14791	3860.45
2551.85548	3859.75
2554.56136	3846.55
2557.26554	3839.45
2559.96803	3829.65
2562.66883	3831.45
2565.36794	3832.85
2568.06536	3812.55
2570.7611	3817.95
2573.45514	3810.65
2576.14751	3802.95
2578.83819	3789.45
2581.52719	3789.25
2584.21451	3786.65
2586.90015	3766.95
2589.58411	3772.85
2592.2664	3767.05
2594.94701	3760.65
2597.62594	3755.25
2600.30321	3765.25
2602.9788	3739.85
2605.65273	3740.85
2608.32498	3733.95
2610.99557	3730.15
2613.66449	3721.25
2616.33175	3722.85
2618.99734	3722.85
2621.66128	3720.25
2624.32355	3711.95
2626.98416	3709.15
2629.64311	3696.65
2632.30041	3697.35
2634.95605	3695.45
2637.61004	3683.15
2640.26238	3666.35
2642.91306	3694.15
2645.56209	3666.85
2648.20948	3684.65
2650.85521	3668.65
2653.4993	3660.15
2656.14175	3665.05
2658.78255	3664.95
2661.42171	3657.55
2664.05923	3670.15
2666.6951	3672.15
2669.32934	3660.85
2671.96194	3660.15
2674.59291	3666.15
2677.22224	3656.25
2679.84993	3659.75
2682.476	3658.95
2685.10043	3661.35
2687.72324	3657.85
2690.34441	3656.35
2692.96396	3646.45
2695.58188	3661.65
2698.19818	3654.15
2700.81285	3657.05
2703.4259	3666.65
2706.03733	3721.95
2708.64714	3686.85
2711.25533	3657.35
2713.86191	3658.35
2716.46687	3657.75
2719.07021	3658.95
2721.67194	3638.45
2724.27206	3652.55
2726.87057	3651.05
2729.46747	3637.95
2732.06276	3648.85
2734.65644	3642.85
2737.24852	3662.55
2739.83899	3637.55
2742.42786	3630.95
2745.01513	3622.25
2747.60079	3620.75
2750.18486	3619.65
2752.76733	3610.45
2755.3482	3596.15
2757.92747	3616.55
2760.50515	3601.25
2763.08123	3601.25
2765.65573	3601.15
2768.22863	3610.75
2770.79994	3586.45
2773.36967	3597.55
2775.9378	3593.75
2778.50435	3584.25
2781.06932	3571.95
2783.6327	3568.55
2786.1945	3568.75
2788.75471	3542.15
2791.31335	3539.15
2793.87041	3539.65
2796.42589	3540.65
2798.97979	3535.45
2801.53212	3527.15
2804.08288	3518.75
2806.63206	3514.95
2809.17967	3506.05
2811.72571	3504.75
2814.27018	3491.85
2816.81308	3486.75
2819.35442	3483.15
2821.89419	3484.15
2824.43239	3478.15
2826.96904	3460.55
2829.50412	3473.75
2832.03763	3455.45
2834.56959	3470.15
2837.1	3448.15
2839.62884	3454.15
2842.15613	3452.95
2844.68186	3450.15
2847.20604	3454.65
2849.72867	3468.55
2852.24974	3456.95
2854.76927	3457.85
2857.28724	3456.05
2859.80367	3445.05
2862.31855	3436.05
2864.83189	3445.15
2867.34368	3426.45
2869.85393	3414.85
2872.36264	3406.35
2874.8698	3418.45
2877.37543	3415.85
2879.87952	3429.45
2882.38207	3413.85
2884.88308	3427.15
2887.38256	3420.25
2889.88051	3419.45
2892.37692	3424.65
2894.8718	3411.85
2897.36515	3424.75
2899.85698	3411.05
2902.34727	3428.35
2904.83604	3420.05
2907.32328	3428.35
2909.809	3434.65
2912.29319	3418.65
2914.77587	3430.55
2917.25702	3418.65
2919.73665	3423.15
2922.21476	3429.85
2924.69136	3418.75
2927.16644	3422.65
2929.64	3430.75
2932.11205	3416.15
2934.58258	3400.75
2937.05161	3411.15
2939.51912	3411.75
2941.98513	3412.05
2944.44962	3404.35
2946.91261	3408.55
2949.37409	3409.05
2951.83407	3395.75
2954.29254	3395.15
2956.74951	3373.45
2959.20498	3381.05
2961.65895	3369.05
2964.11142	3368.95
2966.56239	3356.95
2969.01186	3351.75
2971.45984	3360.05
2973.90632	3333.25
2976.35131	3345.35
2978.7948	3322.35
2981.23681	3320.65
2983.67732	3302.15
2986.11635	3312.35
2988.55388	3306.25
2990.98993	3305.85
2993.4245	3289.15
2995.85758	3284.95
2998.28917	3279.55
3000.71928	3283.05
3003.14791	3261.85
3005.57506	3281.15
3008.00073	3250.05
3010.42493	3270.15
3012.84764	3255.25
3015.26888	3259.25
3017.68865	3249.85
3020.10694	3248.55
3022.52376	3230.55
3024.9391	3236.25
3027.35298	3221.35
3029.76539	3218.15
3032.17632	3227.85
3034.5858	3214.75
3036.9938	3219.25
3039.40034	3208.45
3041.80542	3192.65
3044.20903	3182.95
3046.61118	3196.55
3049.01187	3199.65
3051.4111	3182.15
3053.80888	3188.95
3056.20519	3178.35
3058.60005	3175.45
3060.99345	3172.35
3063.3854	3165.15
3065.7759	3160.35
3068.16494	3160.35
3070.55254	3142.25
3072.93868	3138.95
3075.32338	3146.95
3077.70662	3131.55
3080.08842	3132.15
3082.46878	3135.35
3084.84769	3131.65
3087.22515	3130.25
3089.60118	3139.05
3091.97576	3134.55
3094.3489	3131.55
3096.72061	3133.45
3099.09087	3135.45
3101.4597	3142.15
3103.82709	3128.75
3106.19305	3117.65
3108.55757	3130.05
3110.92066	3118.75
3113.28232	3134.85
3115.64255	3119.25
3118.00134	3108.95
3120.35871	3108.05
3122.71466	3116.25
3125.06917	3106.45
3127.42226	3093.65
3129.77393	3106.65
3132.12417	3111.55
3134.47299	3108.25
3136.82039	3103.25
3139.16636	3112.05
3141.51092	3117.15
3143.85406	3120.45
3146.19579	3126.15
3148.53609	3128.35
3150.87499	3136.45
3153.21246	3137.65
3155.54853	3135.35
3157.88318	3141.15
3160.21642	3152.05
3162.54826	3163.55
3164.87868	3137.35
3167.2077	3167.15
3169.5353	3152.45
3171.86151	3146.05
3174.18631	3149.85
3176.5097	3156.05
3178.83169	3147.75
3181.15228	3156.65
3183.47147	3143.15
3185.78926	3150.65
3188.10565	3158.45
3190.42065	3156.55
3192.73424	3149.35
3195.04645	3149.45
3197.35725	3169.55
3199.66667	3173.95
3201.97469	3180.25
3204.28132	3166.95
3206.58656	3180.65
3208.8904	3179.85
3211.19287	3176.95
3213.49394	3190.15
3215.79363	3184.55
3218.09193	3197.85
3220.38884	3199.55
3222.68438	3219.45
3224.97853	3194.45
3227.2713	3192.15
3229.56269	3186.95
3231.8527	3184.45
3234.14133	3180.05
3236.42858	3177.05
3238.71446	3159.05
3240.99896	3165.65
3243.28209	3165.85
3245.56384	3171.85
3247.84423	3169.15
3250.12324	3153.15
3252.40088	3163.45
3254.67715	3162.15
3256.95205	3177.35
3259.22558	3153.05
3261.49775	3145.85
3263.76855	3145.15
3266.03799	3142.45
3268.30606	3142.65
3270.57277	3132.05
3272.83812	3112.05
3275.10211	3105.75
3277.36474	3113.85
3279.62601	3114.25
3281.88593	3113.35
3284.14448	3121.95
3286.40168	3106.65
3288.65753	3096.75
3290.91202	3098.55
3293.16516	3083.45
3295.41695	3083.25
3297.66738	3053.35
3299.91647	3060.45
3302.16421	3024.75
3304.4106	3020.75
3306.65564	3017.05
3308.89933	2994.35
3311.14169	2980.75
3313.38269	2967.05
3315.62236	2942.55
3317.86068	2915.15
3320.09766	2881.25
3322.3333	2866.45
3324.5676	2884.85
3326.80056	2850.25
3329.03219	2826.25
3331.26248	0.85
3333.49143	1.15
3335.71905	-0.65
