Data from AgNPs_FTO_APTES_UA_0um_CRN_0.1mM_R6G_10uM_NaF_0.1M_Addition_RamanShift__6__10-18-18-896.txt Node

Date: Tue Dec 21 10:18:18 GMT 2021
User: TCL
Spectrometer: QEP01345
Trigger mode: 4
Integration Time (sec): 7.000000E0
Scans to average: 10
Electric dark correction enabled: true
Nonlinearity correction enabled: false
Boxcar width: 0
XAxis mode: Raman Shifts
Number of Pixels in Spectrum: 1044
>>>>>Begin Spectral Data<<<<<
46.04893	0.4125
50.45542	-0.9875
54.85868	-0.3875
59.25871	0.3125
63.6555	18.1125
68.04907	23.9125
72.43941	24.8125
76.82654	26.0125
81.21044	25.2125
85.59113	30.8125
89.96862	29.4125
94.34289	30.4125
98.71396	30.9125
103.08183	31.2125
107.4465	34.0125
111.80798	35.4125
116.16626	31.6125
120.52136	31.4125
124.87327	31.2125
129.222	29.2125
133.56755	33.5125
137.90993	37.0125
142.24913	34.1125
146.58517	37.5125
150.91804	38.0125
155.24774	42.9125
159.57429	48.2125
163.89768	57.7125
168.21792	70.1125
172.53501	86.3125
176.84895	108.0125
181.15975	150.4125
185.46741	193.8125
189.77193	265.7125
194.07331	361.7125
198.37157	474.9125
202.6667	601.3125
206.9587	744.7125
211.24758	890.1125
215.53334	1040.8125
219.81599	1195.4125
224.09553	1347.7125
228.37195	1513.4125
232.64527	1663.4125
236.91549	1799.7125
241.18261	1927.2125
245.44663	2043.9125
249.70755	2122.4125
253.96539	2198.1125
258.22014	2229.4125
262.4718	2251.3125
266.72039	2232.2125
270.96589	2193.3125
275.20832	2132.9125
279.44768	2067.5125
283.68397	1995.3125
287.91719	1914.6125
292.14735	1839.9125
296.37445	1777.6125
300.59849	1731.4125
304.81948	1685.8125
309.03742	1657.0125
313.25231	1622.0125
317.46415	1586.2125
321.67296	1550.2125
325.87872	1519.3125
330.08145	1502.9125
334.28114	1492.8125
338.47781	1490.1125
342.67145	1486.9125
346.86207	1486.0125
351.04966	1488.4125
355.23424	1495.1125
359.4158	1493.2125
363.59435	1498.6125
367.76989	1497.9125
371.94243	1492.8125
376.11196	1482.4125
380.27849	1479.0125
384.44203	1473.4125
388.60257	1480.8125
392.76012	1476.8125
396.91468	1477.2125
401.06626	1478.9125
405.21485	1488.9125
409.36047	1491.7125
413.50311	1485.7125
417.64277	1482.8125
421.77947	1487.5125
425.9132	1492.3125
430.04396	1514.0125
434.17176	1524.2125
438.2966	1539.7125
442.41849	1557.0125
446.53742	1569.8125
450.6534	1587.2125
454.76644	1601.2125
458.87653	1616.6125
462.98368	1618.3125
467.08789	1612.8125
471.18916	1615.2125
475.2875	1602.9125
479.38291	1622.6125
483.4754	1608.1125
487.56496	1605.2125
491.6516	1618.1125
495.73531	1608.3125
499.81612	1607.9125
503.89401	1603.5125
507.96899	1599.6125
512.04106	1599.2125
516.11023	1594.1125
520.1765	1585.7125
524.23987	1579.2125
528.30034	1560.9125
532.35792	1565.3125
536.41261	1561.9125
540.46441	1552.9125
544.51333	1551.5125
548.55936	1559.3125
552.60252	1548.4125
556.64279	1557.3125
560.6802	1554.0125
564.71473	1554.1125
568.7464	1550.5125
572.7752	1579.8125
576.80114	1575.0125
580.82422	1564.3125
584.84444	1553.3125
588.86181	1543.3125
592.87633	1555.5125
596.888	1547.8125
600.89682	1554.5125
604.9028	1573.8125
608.90594	1617.4125
612.90624	1705.3125
616.90371	1728.4125
620.89834	1653.1125
624.89015	1608.4125
628.87913	1601.0125
632.86528	1612.8125
636.84862	1635.5125
640.82913	1672.4125
644.80683	1696.2125
648.78172	1738.5125
652.75379	1746.0125
656.72306	1733.4125
660.68952	1704.3125
664.65319	1713.5125
668.61405	1740.9125
672.57211	1805.5125
676.52738	1938.0125
680.47986	2067.5125
684.42955	2127.3125
688.37646	2116.8125
692.32058	2021.8125
696.26192	1926.2125
700.20048	1861.5125
704.13626	1822.9125
708.06928	1794.2125
711.99952	1767.4125
715.927	1751.1125
719.85171	1741.0125
723.77365	1739.1125
727.69284	1740.7125
731.60928	1763.2125
735.52295	1756.6125
739.43388	1736.3125
743.34206	1712.5125
747.24749	1695.9125
751.15017	1700.2125
755.05012	1708.2125
758.94733	1720.5125
762.8418	1723.7125
766.73354	1745.8125
770.62254	1763.4125
774.50882	1762.0125
778.39237	1743.3125
782.27321	1705.5125
786.15132	1679.7125
790.02671	1659.0125
793.89938	1659.7125
797.76935	1663.4125
801.6366	1670.5125
805.50115	1674.3125
809.36299	1670.9125
813.22213	1665.2125
817.07857	1661.1125
820.93231	1654.1125
824.78336	1643.6125
828.63172	1634.7125
832.47738	1629.9125
836.32036	1620.3125
840.16066	1624.8125
843.99827	1620.3125
847.8332	1618.2125
851.66546	1602.0125
855.49504	1601.8125
859.32195	1608.5125
863.1462	1606.1125
866.96777	1617.8125
870.78668	1628.4125
874.60293	1633.7125
878.41652	1643.2125
882.22745	1646.2125
886.03573	1648.0125
889.84136	1656.4125
893.64433	1659.1125
897.44466	1678.0125
901.24235	1674.3125
905.0374	1694.7125
908.8298	1711.2125
912.61957	1728.9125
916.40671	1770.6125
920.19121	1843.5125
923.97308	1907.5125
927.75233	1944.4125
931.52895	1976.4125
935.30295	1975.8125
939.07433	1938.4125
942.84309	1899.9125
946.60924	1852.9125
950.37278	1820.3125
954.13371	1791.9125
957.89203	1781.9125
961.64774	1744.9125
965.40086	1731.2125
969.15137	1722.0125
972.89929	1704.2125
976.64461	1677.6125
980.38733	1674.2125
984.12747	1657.5125
987.86502	1649.1125
991.59999	1638.0125
995.33237	1628.6125
999.06217	1637.3125
1002.78939	1646.9125
1006.51404	1644.3125
1010.23611	1652.2125
1013.95561	1659.5125
1017.67255	1662.6125
1021.38692	1666.7125
1025.09872	1679.2125
1028.80796	1680.8125
1032.51465	1682.3125
1036.21877	1700.5125
1039.92035	1709.6125
1043.61937	1709.1125
1047.31584	1727.9125
1051.00976	1727.0125
1054.70114	1720.6125
1058.38998	1706.7125
1062.07627	1682.8125
1065.76003	1658.4125
1069.44126	1622.6125
1073.11995	1606.6125
1076.79611	1589.9125
1080.46974	1573.2125
1084.14085	1554.7125
1087.80943	1538.6125
1091.47549	1532.8125
1095.13903	1519.3125
1098.80005	1520.2125
1102.45857	1506.6125
1106.11456	1506.2125
1109.76805	1489.6125
1113.41903	1497.8125
1117.06751	1509.7125
1120.71348	1524.3125
1124.35696	1538.4125
1127.99793	1562.2125
1131.63641	1583.0125
1135.2724	1586.1125
1138.90589	1572.2125
1142.5369	1572.5125
1146.16542	1569.9125
1149.79145	1558.0125
1153.415	1556.1125
1157.03607	1540.6125
1160.65467	1545.6125
1164.27079	1538.6125
1167.88443	1558.4125
1171.49561	1562.2125
1175.10432	1582.5125
1178.71056	1611.8125
1182.31434	1638.8125
1185.91565	1659.8125
1189.51451	1651.9125
1193.11091	1637.1125
1196.70485	1633.5125
1200.29634	1620.1125
1203.88538	1602.4125
1207.47197	1592.4125
1211.05612	1575.1125
1214.63782	1571.3125
1218.21708	1581.1125
1221.79391	1585.1125
1225.36829	1590.3125
1228.94024	1596.8125
1232.50976	1614.6125
1236.07685	1634.9125
1239.6415	1641.4125
1243.20374	1651.1125
1246.76355	1670.7125
1250.32093	1675.9125
1253.8759	1692.7125
1257.42845	1702.2125
1260.97859	1724.5125
1264.52631	1725.1125
1268.07163	1743.0125
1271.61453	1751.4125
1275.15503	1758.7125
1278.69312	1782.7125
1282.22882	1798.4125
1285.76211	1810.1125
1289.29301	1834.1125
1292.82151	1865.8125
1296.34761	1897.1125
1299.87133	1921.2125
1303.39266	1964.8125
1306.9116	2004.5125
1310.42815	2058.2125
1313.94233	2076.9125
1317.45412	2068.7125
1320.96354	2038.9125
1324.47058	2005.4125
1327.97525	1986.4125
1331.47754	1982.8125
1334.97747	1991.6125
1338.47502	2008.2125
1341.97022	2039.3125
1345.46305	2085.9125
1348.95352	2136.1125
1352.44163	2202.2125
1355.92738	2266.8125
1359.41078	2341.4125
1362.89183	2418.8125
1366.37053	2441.9125
1369.84688	2397.3125
1373.32088	2314.3125
1376.79254	2250.0125
1380.26186	2211.8125
1383.72883	2192.8125
1387.19347	2171.3125
1390.65578	2150.2125
1394.11575	2145.2125
1397.57339	2135.2125
1401.0287	2117.3125
1404.48168	2133.1125
1407.93234	2143.4125
1411.38068	2149.8125
1414.82669	2191.2125
1418.27039	2212.9125
1421.71177	2241.7125
1425.15083	2216.0125
1428.58758	2170.5125
1432.02203	2102.1125
1435.45416	2054.9125
1438.88399	2033.1125
1442.31151	2010.3125
1445.73673	2008.3125
1449.15965	2013.9125
1452.58027	2003.4125
1455.9986	1994.2125
1459.41463	1981.8125
1462.82837	1991.4125
1466.23982	1979.4125
1469.64898	1986.5125
1473.05586	1964.3125
1476.46045	1946.7125
1479.86276	1939.4125
1483.26279	1917.1125
1486.66054	1905.5125
1490.05602	1902.0125
1493.44922	1889.6125
1496.84016	1889.0125
1500.22882	1901.0125
1503.61521	1925.9125
1506.99934	1966.3125
1510.38121	1990.4125
1513.76081	2009.4125
1517.13816	1988.9125
1520.51324	1935.5125
1523.88607	1875.6125
1527.25665	1847.4125
1530.62498	1822.6125
1533.99105	1819.5125
1537.35488	1804.5125
1540.71647	1803.5125
1544.07581	1801.7125
1547.4329	1798.7125
1550.78776	1807.7125
1554.14038	1809.3125
1557.49077	1803.8125
1560.83892	1797.8125
1564.18484	1782.9125
1567.52853	1786.8125
1570.86999	1780.4125
1574.20922	1768.7125
1577.54624	1750.0125
1580.88103	1726.0125
1584.2136	1694.4125
1587.54395	1674.0125
1590.87208	1644.2125
1594.19801	1650.6125
1597.52172	1644.6125
1600.84321	1643.4125
1604.16251	1626.2125
1607.47959	1619.7125
1610.79447	1607.9125
1614.10715	1593.6125
1617.41763	1583.9125
1620.7259	1579.1125
1624.03199	1576.9125
1627.33587	1584.9125
1630.63757	1586.7125
1633.93707	1581.0125
1637.23439	1577.2125
1640.52951	1577.0125
1643.82246	1586.1125
1647.11321	1588.3125
1650.40179	1603.7125
1653.68819	1596.9125
1656.97241	1537.2125
1660.25446	1491.5125
1663.53433	1443.5125
1666.81203	1407.5125
1670.08756	1373.0125
1673.36092	1345.5125
1676.63211	1318.7125
1679.90115	1292.8125
1683.16801	1283.7125
1686.43272	1251.0125
1689.69527	1230.1125
1692.95567	1206.3125
1696.2139	1187.0125
1699.46999	1171.0125
1702.72392	1149.5125
1705.97571	1149.6125
1709.22535	1144.2125
1712.47284	1133.4125
1715.71819	1125.1125
1718.96139	1124.2125
1722.20246	1119.6125
1725.44139	1108.4125
1728.67818	1115.8125
1731.91284	1112.7125
1735.14537	1108.3125
1738.37576	1109.5125
1741.60403	1110.4125
1744.83017	1118.4125
1748.05418	1143.8125
1751.27607	1163.9125
1754.49584	1196.5125
1757.71349	1221.3125
1760.92903	1217.1125
1764.14244	1200.3125
1767.35375	1166.8125
1770.56294	1130.2125
1773.77002	1085.8125
1776.97499	1061.6125
1780.17785	1047.3125
1783.37861	1028.0125
1786.57727	1023.4125
1789.77382	1008.7125
1792.96828	1001.4125
1796.16064	980.4125
1799.3509	971.1125
1802.53907	960.9125
1805.72514	955.4125
1808.90913	952.7125
1812.09102	935.7125
1815.27083	932.6125
1818.44856	924.3125
1821.6242	922.1125
1824.79776	922.3125
1827.96924	919.7125
1831.13864	918.3125
1834.30597	918.3125
1837.47122	913.5125
1840.6344	913.3125
1843.7955	906.5125
1846.95454	907.2125
1850.11151	910.8125
1853.26642	905.0125
1856.41926	905.1125
1859.57004	913.2125
1862.71876	905.8125
1865.86542	898.0125
1869.01003	891.4125
1872.15258	902.3125
1875.29308	896.8125
1878.43152	895.1125
1881.56792	892.7125
1884.70227	895.7125
1887.83457	885.6125
1890.96482	891.4125
1894.09304	888.1125
1897.21921	881.2125
1900.34335	880.5125
1903.46544	878.5125
1906.58551	870.1125
1909.70353	879.4125
1912.81953	872.9125
1915.93349	871.6125
1919.04543	871.0125
1922.15534	874.6125
1925.26322	872.3125
1928.36908	868.7125
1931.47292	865.3125
1934.57473	867.4125
1937.67453	864.5125
1940.77232	855.4125
1943.86808	857.4125
1946.96184	858.4125
1950.05358	849.4125
1953.14331	848.9125
1956.23103	838.9125
1959.31675	843.3125
1962.40046	840.7125
1965.48217	835.5125
1968.56188	827.6125
1971.63959	827.8125
1974.7153	830.9125
1977.78901	828.8125
1980.86073	825.5125
1983.93046	818.5125
1986.99819	814.4125
1990.06394	810.7125
1993.1277	811.7125
1996.18947	807.0125
1999.24925	806.9125
2002.30706	807.6125
2005.36288	795.2125
2008.41672	799.2125
2011.46859	793.9125
2014.51848	794.6125
2017.56639	789.6125
2020.61233	789.4125
2023.6563	789.8125
2026.6983	785.9125
2029.73833	794.3125
2032.7764	778.9125
2035.8125	772.8125
2038.84664	780.7125
2041.87881	774.1125
2044.90903	781.9125
2047.93729	772.7125
2050.96359	781.7125
2053.98794	779.1125
2057.01034	782.0125
2060.03078	783.6125
2063.04927	779.7125
2066.06582	783.5125
2069.08042	783.2125
2072.09307	791.2125
2075.10378	790.5125
2078.11255	793.7125
2081.11938	797.9125
2084.12426	803.9125
2087.12722	812.4125
2090.12824	816.8125
2093.12732	818.9125
2096.12447	822.5125
2099.11969	822.9125
2102.11299	831.7125
2105.10435	839.7125
2108.09379	841.0125
2111.08131	840.0125
2114.0669	839.7125
2117.05057	832.1125
2120.03233	844.1125
2123.01216	830.8125
2125.99008	834.2125
2128.96609	822.9125
2131.94018	821.9125
2134.91236	815.8125
2137.88263	812.8125
2140.851	811.0125
2143.81746	804.8125
2146.78201	795.5125
2149.74466	792.7125
2152.7054	788.2125
2155.66425	784.8125
2158.6212	780.2125
2161.57625	770.3125
2164.52941	763.5125
2167.48067	759.6125
2170.43004	758.4125
2173.37752	761.1125
2176.32311	751.5125
2179.26681	749.3125
2182.20863	753.8125
2185.14856	749.8125
2188.08661	749.4125
2191.02278	749.2125
2193.95707	746.8125
2196.88948	742.8125
2199.82001	740.9125
2202.74867	738.8125
2205.67545	746.5125
2208.60037	737.2125
2211.52341	735.4125
2214.44458	732.4125
2217.36388	728.4125
2220.28132	732.7125
2223.1969	722.5125
2226.11061	730.0125
2229.02246	712.1125
2231.93245	720.1125
2234.84058	719.5125
2237.74686	716.8125
2240.65128	717.4125
2243.55385	709.0125
2246.45456	713.9125
2249.35343	708.2125
2252.25044	704.5125
2255.14561	704.6125
2258.03893	706.6125
2260.93041	709.4125
2263.82004	706.8125
2266.70783	699.4125
2269.59378	700.9125
2272.4779	699.3125
2275.36017	694.7125
2278.24061	692.4125
2281.11922	690.4125
2283.996	696.5125
2286.87094	685.7125
2289.74405	685.2125
2292.61534	682.9125
2295.4848	688.1125
2298.35243	690.6125
2301.21824	681.5125
2304.08223	685.4125
2306.94439	682.2125
2309.80474	679.7125
2312.66327	678.5125
2315.51999	677.0125
2318.37489	670.4125
2321.22797	666.4125
2324.07925	659.8125
2326.92871	670.8125
2329.77637	678.4125
2332.62222	676.2125
2335.46626	669.1125
2338.3085	662.8125
2341.14893	672.1125
2343.98756	664.2125
2346.8244	658.1125
2349.65943	656.7125
2352.49267	657.9125
2355.32411	655.9125
2358.15376	660.7125
2360.98161	662.3125
2363.80768	657.7125
2366.63195	657.1125
2369.45444	653.2125
2372.27514	658.4125
2375.09405	641.5125
2377.91118	647.4125
2380.72652	653.6125
2383.54009	640.6125
2386.35187	651.5125
2389.16188	642.2125
2391.97011	641.9125
2394.77657	639.6125
2397.58125	642.3125
2400.38416	640.5125
2403.18529	638.1125
2405.98466	639.6125
2408.78226	638.6125
2411.57809	637.3125
2414.37216	636.2125
2417.16446	628.4125
2419.955	629.6125
2422.74378	622.8125
2425.5308	626.4125
2428.31606	623.8125
2431.09956	626.8125
2433.88131	625.5125
2436.6613	625.1125
2439.43954	623.6125
2442.21603	618.5125
2444.99077	621.3125
2447.76377	627.0125
2450.53501	616.5125
2453.30451	616.9125
2456.07226	623.6125
2458.83827	617.1125
2461.60254	610.0125
2464.36507	613.4125
2467.12586	619.1125
2469.88492	613.5125
2472.64224	609.8125
2475.39782	612.1125
2478.15167	611.3125
2480.90379	609.7125
2483.65417	612.1125
2486.40283	607.1125
2489.14976	609.6125
2491.89497	609.3125
2494.63845	608.7125
2497.3802	607.7125
2500.12024	608.1125
2502.85855	609.8125
2505.59514	613.0125
2508.33002	600.9125
2511.06318	597.6125
2513.79462	599.8125
2516.52435	605.5125
2519.25237	599.3125
2521.97867	594.8125
2524.70327	594.6125
2527.42616	590.9125
2530.14734	590.2125
2532.86681	591.2125
2535.58458	594.4125
2538.30065	585.1125
2541.01501	588.2125
2543.72768	589.1125
2546.43864	589.9125
2549.14791	589.9125
2551.85548	589.6125
2554.56136	588.5125
2557.26554	578.6125
2559.96803	581.0125
2562.66883	583.4125
2565.36794	583.1125
2568.06536	579.4125
2570.7611	576.0125
2573.45514	578.1125
2576.14751	574.1125
2578.83819	575.0125
2581.52719	575.0125
2584.21451	575.9125
2586.90015	568.2125
2589.58411	570.0125
2592.2664	569.1125
2594.94701	569.1125
2597.62594	570.8125
2600.30321	563.9125
2602.9788	564.2125
2605.65273	565.8125
2608.32498	562.8125
2610.99557	559.3125
2613.66449	553.3125
2616.33175	556.0125
2618.99734	558.7125
2621.66128	562.3125
2624.32355	556.3125
2626.98416	559.8125
2629.64311	555.1125
2632.30041	555.7125
2634.95605	559.7125
2637.61004	550.8125
2640.26238	553.8125
2642.91306	549.0125
2645.56209	551.9125
2648.20948	551.4125
2650.85521	554.1125
2653.4993	553.9125
2656.14175	549.6125
2658.78255	552.9125
2661.42171	553.8125
2664.05923	562.1125
2666.6951	554.9125
2669.32934	553.4125
2671.96194	557.8125
2674.59291	555.6125
2677.22224	555.7125
2679.84993	555.7125
2682.476	558.5125
2685.10043	554.1125
2687.72324	557.8125
2690.34441	553.3125
2692.96396	555.6125
2695.58188	557.2125
2698.19818	559.6125
2700.81285	558.7125
2703.4259	561.2125
2706.03733	561.7125
2708.64714	560.6125
2711.25533	558.0125
2713.86191	557.0125
2716.46687	562.7125
2719.07021	562.8125
2721.67194	556.4125
2724.27206	552.1125
2726.87057	557.7125
2729.46747	559.6125
2732.06276	564.6125
2734.65644	559.6125
2737.24852	561.1125
2739.83899	558.9125
2742.42786	554.7125
2745.01513	557.1125
2747.60079	555.1125
2750.18486	559.4125
2752.76733	550.3125
2755.3482	553.0125
2757.92747	552.1125
2760.50515	555.3125
2763.08123	553.9125
2765.65573	543.2125
2768.22863	551.8125
2770.79994	548.9125
2773.36967	552.9125
2775.9378	546.9125
2778.50435	546.7125
2781.06932	546.8125
2783.6327	547.7125
2786.1945	549.5125
2788.75471	548.3125
2791.31335	541.3125
2793.87041	550.3125
2796.42589	546.2125
2798.97979	551.9125
2801.53212	550.7125
2804.08288	554.9125
2806.63206	549.0125
2809.17967	551.8125
2811.72571	557.0125
2814.27018	557.7125
2816.81308	560.8125
2819.35442	556.4125
2821.89419	557.4125
2824.43239	551.1125
2826.96904	560.2125
2829.50412	555.2125
2832.03763	551.7125
2834.56959	558.0125
2837.1	553.0125
2839.62884	557.1125
2842.15613	560.1125
2844.68186	563.2125
2847.20604	565.1125
2849.72867	564.8125
2852.24974	571.8125
2854.76927	564.6125
2857.28724	569.3125
2859.80367	570.7125
2862.31855	568.3125
2864.83189	576.0125
2867.34368	572.4125
2869.85393	575.6125
2872.36264	576.7125
2874.8698	581.0125
2877.37543	587.4125
2879.87952	587.4125
2882.38207	601.2125
2884.88308	596.6125
2887.38256	604.1125
2889.88051	615.4125
2892.37692	620.7125
2894.8718	627.4125
2897.36515	635.4125
2899.85698	636.4125
2902.34727	654.3125
2904.83604	656.7125
2907.32328	666.2125
2909.809	679.3125
2912.29319	689.4125
2914.77587	705.5125
2917.25702	708.2125
2919.73665	717.9125
2922.21476	728.9125
2924.69136	743.6125
2927.16644	744.3125
2929.64	757.6125
2932.11205	767.9125
2934.58258	776.5125
2937.05161	787.3125
2939.51912	787.2125
2941.98513	796.5125
2944.44962	795.0125
2946.91261	788.5125
2949.37409	793.1125
2951.83407	782.0125
2954.29254	773.8125
2956.74951	766.5125
2959.20498	749.2125
2961.65895	739.3125
2964.11142	727.1125
2966.56239	706.1125
2969.01186	688.1125
2971.45984	684.2125
2973.90632	661.0125
2976.35131	659.1125
2978.7948	650.3125
2981.23681	651.8125
2983.67732	626.2125
2986.11635	634.2125
2988.55388	625.2125
2990.98993	614.9125
2993.4245	616.3125
2995.85758	617.2125
2998.28917	614.1125
3000.71928	621.9125
3003.14791	613.3125
3005.57506	615.9125
3008.00073	615.9125
3010.42493	610.7125
3012.84764	610.3125
3015.26888	615.2125
3017.68865	613.6125
3020.10694	604.6125
3022.52376	606.0125
3024.9391	601.2125
3027.35298	601.8125
3029.76539	593.3125
3032.17632	594.6125
3034.5858	585.0125
3036.9938	581.2125
3039.40034	578.7125
3041.80542	582.4125
3044.20903	571.6125
3046.61118	578.7125
3049.01187	568.5125
3051.4111	565.7125
3053.80888	569.0125
3056.20519	564.6125
3058.60005	563.7125
3060.99345	566.6125
3063.3854	569.6125
3065.7759	570.4125
3068.16494	568.0125
3070.55254	568.4125
3072.93868	564.3125
3075.32338	572.3125
3077.70662	571.8125
3080.08842	571.0125
3082.46878	576.4125
3084.84769	579.0125
3087.22515	579.0125
3089.60118	579.1125
3091.97576	584.8125
3094.3489	591.8125
3096.72061	594.5125
3099.09087	596.0125
3101.4597	595.7125
3103.82709	594.7125
3106.19305	598.0125
3108.55757	600.6125
3110.92066	610.7125
3113.28232	608.2125
3115.64255	616.8125
3118.00134	617.5125
3120.35871	622.3125
3122.71466	619.7125
3125.06917	625.9125
3127.42226	632.3125
3129.77393	631.0125
3132.12417	641.8125
3134.47299	644.4125
3136.82039	645.8125
3139.16636	646.5125
3141.51092	653.5125
3143.85406	653.4125
3146.19579	657.9125
3148.53609	672.2125
3150.87499	671.7125
3153.21246	671.4125
3155.54853	681.5125
3157.88318	689.9125
3160.21642	693.3125
3162.54826	702.9125
3164.87868	705.9125
3167.2077	708.5125
3169.5353	707.5125
3171.86151	716.8125
3174.18631	715.0125
3176.5097	723.2125
3178.83169	723.2125
3181.15228	725.8125
3183.47147	734.2125
3185.78926	731.5125
3188.10565	736.2125
3190.42065	738.6125
3192.73424	744.2125
3195.04645	744.0125
3197.35725	754.4125
3199.66667	758.5125
3201.97469	754.0125
3204.28132	757.9125
3206.58656	769.7125
3208.8904	769.5125
3211.19287	772.1125
3213.49394	771.4125
3215.79363	770.5125
3218.09193	780.0125
3220.38884	775.3125
3222.68438	780.6125
3224.97853	787.6125
3227.2713	784.0125
3229.56269	792.2125
3231.8527	784.5125
3234.14133	788.0125
3236.42858	786.3125
3238.71446	792.9125
3240.99896	789.0125
3243.28209	797.9125
3245.56384	795.5125
3247.84423	789.1125
3250.12324	796.0125
3252.40088	795.4125
3254.67715	792.2125
3256.95205	795.4125
3259.22558	791.9125
3261.49775	798.3125
3263.76855	795.2125
3266.03799	798.8125
3268.30606	797.9125
3270.57277	792.9125
3272.83812	794.7125
3275.10211	801.2125
3277.36474	795.4125
3279.62601	793.2125
3281.88593	798.4125
3284.14448	800.3125
3286.40168	798.8125
3288.65753	796.0125
3290.91202	796.5125
3293.16516	791.9125
3295.41695	798.0125
3297.66738	784.3125
3299.91647	790.3125
3302.16421	787.6125
3304.4106	780.8125
3306.65564	775.7125
3308.89933	777.2125
3311.14169	767.2125
3313.38269	771.3125
3315.62236	768.9125
3317.86068	758.1125
3320.09766	752.7125
3322.3333	752.2125
3324.5676	758.4125
3326.80056	735.2125
3329.03219	743.8125
3331.26248	0.0125
3333.49143	-0.2875
3335.71905	1.4125
