Data from AgNPs_FTO_APTES_UA_100um_CRN_0.1mM_R6G_10uM_NaF_0.1M_Addition_RamanShift__25__16-14-09-303.txt Node

Date: Tue Dec 21 16:14:09 GMT 2021
User: TCL
Spectrometer: QEP01345
Trigger mode: 4
Integration Time (sec): 7.000000E0
Scans to average: 10
Electric dark correction enabled: true
Nonlinearity correction enabled: false
Boxcar width: 0
XAxis mode: Raman Shifts
Number of Pixels in Spectrum: 1044
>>>>>Begin Spectral Data<<<<<
46.04893	-0.15
50.45542	0.15
54.85868	-0.55
59.25871	-0.45
63.6555	31.85
68.04907	42.25
72.43941	42.95
76.82654	40.45
81.21044	48.75
85.59113	47.55
89.96862	48.05
94.34289	52.45
98.71396	51.25
103.08183	57.45
107.4465	57.45
111.80798	60.35
116.16626	60.15
120.52136	57.55
124.87327	62.05
129.222	55.05
133.56755	63.75
137.90993	71.35
142.24913	73.15
146.58517	82.55
150.91804	91.25
155.24774	104.45
159.57429	126.15
163.89768	163.35
168.21792	210.35
172.53501	281.45
176.84895	396.05
181.15975	552.85
185.46741	773.45
189.77193	1066.45
194.07331	1435.75
198.37157	1843.85
202.6667	2287.95
206.9587	2737.15
211.24758	3168.35
215.53334	3613.55
219.81599	4054.55
224.09553	4550.05
228.37195	5092.45
232.64527	5700.65
236.91549	6345.75
241.18261	6997.55
245.44663	7594.65
249.70755	8160.55
253.96539	8625.35
258.22014	9057.65
262.4718	9378.45
266.72039	9594.65
270.96589	9702.15
275.20832	9711.75
279.44768	9656.55
283.68397	9533.05
287.91719	9402.15
292.14735	9340.55
296.37445	9337.05
300.59849	9389.95
304.81948	9459.95
309.03742	9484.05
313.25231	9349.75
317.46415	9138.55
321.67296	8825.45
325.87872	8574.75
330.08145	8475.15
334.28114	8473.95
338.47781	8558.35
342.67145	8670.75
346.86207	8861.95
351.04966	9070.95
355.23424	9334.85
359.4158	9526.95
363.59435	9685.95
367.76989	9786.75
371.94243	9858.75
376.11196	9918.25
380.27849	9976.75
384.44203	10014.55
388.60257	10015.65
392.76012	10037.45
396.91468	10138.85
401.06626	10278.95
405.21485	10401.55
409.36047	10374.45
413.50311	10188.35
417.64277	9967.85
421.77947	9856.75
425.9132	9788.15
430.04396	9813.95
434.17176	9863.35
438.2966	9931.55
442.41849	10062.45
446.53742	10199.65
450.6534	10366.45
454.76644	10535.25
458.87653	10606.75
462.98368	10588.15
467.08789	10513.75
471.18916	10454.35
475.2875	10374.95
479.38291	10334.05
483.4754	10297.55
487.56496	10238.35
491.6516	10159.95
495.73531	10098.85
499.81612	10051.45
503.89401	10044.45
507.96899	10057.45
512.04106	10088.35
516.11023	10099.85
520.1765	10115.55
524.23987	10141.45
528.30034	10068.85
532.35792	10002.65
536.41261	9951.95
540.46441	9837.75
544.51333	9764.55
548.55936	9784.75
552.60252	9850.35
556.64279	9977.75
560.6802	10079.05
564.71473	10083.05
568.7464	10179.95
572.7752	10279.35
576.80114	10284.95
580.82422	10203.95
584.84444	10197.95
588.86181	10241.45
592.87633	10332.05
596.888	10380.15
600.89682	10470.85
604.9028	10887.95
608.90594	12035.25
612.90624	13573.45
616.90371	13338.15
620.89834	11299.55
624.89015	10282.75
628.87913	10171.75
632.86528	10324.05
636.84862	10463.95
640.82913	10367.25
644.80683	10045.05
648.78172	9763.15
652.75379	9637.45
656.72306	9669.85
660.68952	9834.45
664.65319	9822.45
668.61405	9672.55
672.57211	9611.65
676.52738	9607.55
680.47986	9586.15
684.42955	9558.35
688.37646	9505.25
692.32058	9509.05
696.26192	9476.45
700.20048	9535.15
704.13626	9565.65
708.06928	9529.85
711.99952	9480.95
715.927	9445.65
719.85171	9440.65
723.77365	9439.55
727.69284	9422.15
731.60928	9365.55
735.52295	9330.75
739.43388	9307.25
743.34206	9313.85
747.24749	9345.15
751.15017	9325.05
755.05012	9410.75
758.94733	9571.35
762.8418	9965.65
766.73354	10664.35
770.62254	11453.55
774.50882	11891.15
778.39237	11564.95
782.27321	10724.35
786.15132	9925.85
790.02671	9475.85
793.89938	9224.35
797.76935	9145.25
801.6366	9131.05
805.50115	9154.15
809.36299	9201.65
813.22213	9226.15
817.07857	9203.35
820.93231	9143.25
824.78336	9053.55
828.63172	8956.75
832.47738	8921.25
836.32036	8887.55
840.16066	8846.75
843.99827	8829.05
847.8332	8808.25
851.66546	8792.95
855.49504	8768.95
859.32195	8748.75
863.1462	8704.75
866.96777	8721.35
870.78668	8721.75
874.60293	8744.55
878.41652	8799.65
882.22745	8847.05
886.03573	8855.85
889.84136	8880.55
893.64433	8800.75
897.44466	8734.65
901.24235	8664.45
905.0374	8562.85
908.8298	8508.05
912.61957	8482.85
916.40671	8484.05
920.19121	8525.45
923.97308	8555.55
927.75233	8558.25
931.52895	8531.65
935.30295	8496.15
939.07433	8385.15
942.84309	8283.75
946.60924	8212.45
950.37278	8176.05
954.13371	8166.35
957.89203	8123.85
961.64774	8110.15
965.40086	8070.55
969.15137	8030.15
972.89929	8014.25
976.64461	7952.25
980.38733	7937.75
984.12747	7941.65
987.86502	7957.95
991.59999	7997.95
995.33237	8027.15
999.06217	8125.95
1002.78939	8255.55
1006.51404	8358.15
1010.23611	8476.45
1013.95561	8551.85
1017.67255	8595.75
1021.38692	8543.95
1025.09872	8444.35
1028.80796	8393.65
1032.51465	8378.65
1036.21877	8382.05
1039.92035	8381.05
1043.61937	8369.35
1047.31584	8313.65
1051.00976	8279.05
1054.70114	8271.95
1058.38998	8261.65
1062.07627	8284.55
1065.76003	8343.15
1069.44126	8378.65
1073.11995	8397.35
1076.79611	8440.55
1080.46974	8462.85
1084.14085	8475.75
1087.80943	8498.45
1091.47549	8550.05
1095.13903	8526.65
1098.80005	8416.05
1102.45857	8297.25
1106.11456	8203.95
1109.76805	8218.95
1113.41903	8274.85
1117.06751	8394.65
1120.71348	8555.15
1124.35696	8736.35
1127.99793	8937.95
1131.63641	9078.65
1135.2724	9028.35
1138.90589	8882.45
1142.5369	8717.25
1146.16542	8565.75
1149.79145	8462.25
1153.415	8376.35
1157.03607	8354.35
1160.65467	8371.65
1164.27079	8541.85
1167.88443	8766.55
1171.49561	9100.05
1175.10432	9637.45
1178.71056	10378.15
1182.31434	11077.05
1185.91565	11372.05
1189.51451	11316.55
1193.11091	10982.65
1196.70485	10607.15
1200.29634	10275.75
1203.88538	10010.15
1207.47197	9727.95
1211.05612	9452.25
1214.63782	9184.95
1218.21708	9003.55
1221.79391	8889.85
1225.36829	8822.45
1228.94024	8752.05
1232.50976	8708.55
1236.07685	8658.95
1239.6415	8661.45
1243.20374	8675.05
1246.76355	8737.75
1250.32093	8786.75
1253.8759	8897.15
1257.42845	9069.55
1260.97859	9184.15
1264.52631	9317.85
1268.07163	9436.15
1271.61453	9576.25
1275.15503	9697.35
1278.69312	9830.05
1282.22882	9919.05
1285.76211	10072.65
1289.29301	10290.25
1292.82151	10523.65
1296.34761	10893.65
1299.87133	11322.75
1303.39266	11900.05
1306.9116	12634.45
1310.42815	13421.45
1313.94233	13873.25
1317.45412	13810.25
1320.96354	13401.05
1324.47058	12923.95
1327.97525	12498.65
1331.47754	12160.75
1334.97747	12056.55
1338.47502	12085.65
1341.97022	12226.15
1345.46305	12351.85
1348.95352	12517.25
1352.44163	12756.65
1355.92738	13290.55
1359.41078	14158.35
1362.89183	15122.05
1366.37053	15029.85
1369.84688	13658.05
1373.32088	12052.35
1376.79254	10962.75
1380.26186	10429.25
1383.72883	10190.75
1387.19347	10093.45
1390.65578	9943.15
1394.11575	9837.35
1397.57339	9805.75
1401.0287	9903.15
1404.48168	9986.05
1407.93234	10048.85
1411.38068	10019.45
1414.82669	9884.35
1418.27039	9639.35
1421.71177	9331.35
1425.15083	9066.35
1428.58758	8900.45
1432.02203	8865.35
1435.45416	8876.45
1438.88399	8949.15
1442.31151	8993.35
1445.73673	9075.05
1449.15965	9176.85
1452.58027	9232.35
1455.9986	9248.95
1459.41463	9296.05
1462.82837	9366.25
1466.23982	9493.65
1469.64898	9652.85
1473.05586	9731.15
1476.46045	9758.05
1479.86276	9778.45
1483.26279	9812.35
1486.66054	9886.75
1490.05602	9994.25
1493.44922	10161.85
1496.84016	10408.95
1500.22882	10862.65
1503.61521	11515.65
1506.99934	12346.15
1510.38121	13049.65
1513.76081	13302.05
1517.13816	12839.65
1520.51324	11924.05
1523.88607	11008.15
1527.25665	10397.65
1530.62498	10048.55
1533.99105	9862.95
1537.35488	9785.15
1540.71647	9729.15
1544.07581	9654.05
1547.4329	9555.55
1550.78776	9516.65
1554.14038	9486.45
1557.49077	9487.65
1560.83892	9559.35
1564.18484	9628.35
1567.52853	9742.85
1570.86999	9842.65
1574.20922	9940.55
1577.54624	9973.95
1580.88103	9815.75
1584.2136	9569.95
1587.54395	9457.25
1590.87208	9589.45
1594.19801	9930.65
1597.52172	10353.45
1600.84321	10580.95
1604.16251	10396.25
1607.47959	9937.35
1610.79447	9403.85
1614.10715	8859.95
1617.41763	8416.55
1620.7259	8085.95
1624.03199	7913.05
1627.33587	7892.05
1630.63757	7956.35
1633.93707	8148.45
1637.23439	8533.95
1640.52951	9082.95
1643.82246	9825.65
1647.11321	10646.85
1650.40179	11181.15
1653.68819	11041.95
1656.97241	10144.25
1660.25446	9052.75
1663.53433	8195.45
1666.81203	7655.05
1670.08756	7289.35
1673.36092	7064.65
1676.63211	6897.85
1679.90115	6785.75
1683.16801	6700.75
1686.43272	6641.85
1689.69527	6576.95
1692.95567	6575.05
1696.2139	6540.45
1699.46999	6514.55
1702.72392	6477.55
1705.97571	6409.35
1709.22535	6338.05
1712.47284	6278.45
1715.71819	6262.15
1718.96139	6238.05
1722.20246	6209.55
1725.44139	6171.05
1728.67818	6144.35
1731.91284	6118.05
1735.14537	6074.55
1738.37576	6059.25
1741.60403	6028.25
1744.83017	6020.45
1748.05418	6034.15
1751.27607	6006.45
1754.49584	6019.05
1757.71349	5989.35
1760.92903	5979.45
1764.14244	5976.95
1767.35375	5974.05
1770.56294	5934.35
1773.77002	5914.45
1776.97499	5885.15
1780.17785	5843.25
1783.37861	5846.25
1786.57727	5826.65
1789.77382	5792.75
1792.96828	5787.75
1796.16064	5756.05
1799.3509	5753.35
1802.53907	5722.35
1805.72514	5703.95
1808.90913	5691.25
1812.09102	5655.65
1815.27083	5654.35
1818.44856	5635.85
1821.6242	5628.05
1824.79776	5619.25
1827.96924	5601.15
1831.13864	5604.95
1834.30597	5600.85
1837.47122	5595.85
1840.6344	5558.55
1843.7955	5566.75
1846.95454	5556.25
1850.11151	5555.35
1853.26642	5551.95
1856.41926	5538.45
1859.57004	5542.45
1862.71876	5525.45
1865.86542	5522.45
1869.01003	5513.25
1872.15258	5516.05
1875.29308	5523.65
1878.43152	5485.85
1881.56792	5488.75
1884.70227	5477.15
1887.83457	5478.75
1890.96482	5461.35
1894.09304	5442.65
1897.21921	5444.05
1900.34335	5438.35
1903.46544	5434.15
1906.58551	5415.25
1909.70353	5423.15
1912.81953	5399.95
1915.93349	5385.85
1919.04543	5398.85
1922.15534	5366.35
1925.26322	5359.35
1928.36908	5354.85
1931.47292	5328.05
1934.57473	5320.15
1937.67453	5304.55
1940.77232	5281.75
1943.86808	5264.05
1946.96184	5277.45
1950.05358	5242.85
1953.14331	5229.85
1956.23103	5217.45
1959.31675	5211.25
1962.40046	5181.55
1965.48217	5155.35
1968.56188	5144.15
1971.63959	5127.45
1974.7153	5130.95
1977.78901	5094.05
1980.86073	5087.35
1983.93046	5061.25
1986.99819	5038.55
1990.06394	5028.15
1993.1277	5009.05
1996.18947	4986.05
1999.24925	4967.55
2002.30706	4942.85
2005.36288	4947.75
2008.41672	4926.65
2011.46859	4908.35
2014.51848	4892.85
2017.56639	4859.45
2020.61233	4859.85
2023.6563	4852.65
2026.6983	4827.35
2029.73833	4824.85
2032.7764	4798.85
2035.8125	4791.15
2038.84664	4794.15
2041.87881	4773.75
2044.90903	4751.45
2047.93729	4756.25
2050.96359	4739.85
2053.98794	4743.15
2057.01034	4736.35
2060.03078	4723.65
2063.04927	4711.45
2066.06582	4705.65
2069.08042	4698.55
2072.09307	4691.15
2075.10378	4687.75
2078.11255	4684.35
2081.11938	4685.55
2084.12426	4663.25
2087.12722	4663.45
2090.12824	4673.15
2093.12732	4668.15
2096.12447	4652.45
2099.11969	4654.15
2102.11299	4648.35
2105.10435	4670.75
2108.09379	4666.45
2111.08131	4658.65
2114.0669	4671.25
2117.05057	4660.65
2120.03233	4662.25
2123.01216	4668.65
2125.99008	4666.65
2128.96609	4656.95
2131.94018	4666.85
2134.91236	4663.45
2137.88263	4672.35
2140.851	4660.85
2143.81746	4677.85
2146.78201	4670.95
2149.74466	4658.95
2152.7054	4648.35
2155.66425	4651.95
2158.6212	4666.25
2161.57625	4659.95
2164.52941	4650.35
2167.48067	4651.75
2170.43004	4650.65
2173.37752	4624.95
2176.32311	4630.55
2179.26681	4619.45
2182.20863	4617.15
2185.14856	4623.25
2188.08661	4616.95
2191.02278	4630.35
2193.95707	4622.05
2196.88948	4605.95
2199.82001	4594.35
2202.74867	4587.35
2205.67545	4592.85
2208.60037	4570.65
2211.52341	4575.45
2214.44458	4565.65
2217.36388	4548.75
2220.28132	4540.75
2223.1969	4525.65
2226.11061	4534.75
2229.02246	4519.15
2231.93245	4497.35
2234.84058	4491.35
2237.74686	4482.85
2240.65128	4470.35
2243.55385	4470.65
2246.45456	4480.95
2249.35343	4461.35
2252.25044	4439.65
2255.14561	4442.85
2258.03893	4443.85
2260.93041	4446.85
2263.82004	4424.85
2266.70783	4406.15
2269.59378	4378.45
2272.4779	4390.85
2275.36017	4373.55
2278.24061	4355.35
2281.11922	4339.65
2283.996	4342.65
2286.87094	4332.05
2289.74405	4321.45
2292.61534	4324.25
2295.4848	4298.65
2298.35243	4290.75
2301.21824	4287.25
2304.08223	4294.75
2306.94439	4283.05
2309.80474	4277.05
2312.66327	4278.85
2315.51999	4277.25
2318.37489	4267.55
2321.22797	4269.05
2324.07925	4256.05
2326.92871	4253.65
2329.77637	4246.25
2332.62222	4231.85
2335.46626	4220.45
2338.3085	4230.75
2341.14893	4226.45
2343.98756	4225.65
2346.8244	4202.05
2349.65943	4212.15
2352.49267	4194.45
2355.32411	4214.55
2358.15376	4213.75
2360.98161	4202.45
2363.80768	4192.05
2366.63195	4191.35
2369.45444	4188.35
2372.27514	4185.55
2375.09405	4184.85
2377.91118	4166.35
2380.72652	4151.15
2383.54009	4146.55
2386.35187	4126.45
2389.16188	4114.45
2391.97011	4109.15
2394.77657	4097.15
2397.58125	4087.55
2400.38416	4077.75
2403.18529	4071.95
2405.98466	4052.25
2408.78226	4059.25
2411.57809	4058.55
2414.37216	4037.45
2417.16446	4029.35
2419.955	4015.35
2422.74378	4025.75
2425.5308	4017.15
2428.31606	4006.05
2431.09956	4008.15
2433.88131	3991.15
2436.6613	3988.05
2439.43954	3993.15
2442.21603	3978.55
2444.99077	3993.75
2447.76377	3980.55
2450.53501	3959.05
2453.30451	3962.95
2456.07226	3962.15
2458.83827	3968.95
2461.60254	3955.85
2464.36507	3944.45
2467.12586	3946.15
2469.88492	3946.45
2472.64224	3939.85
2475.39782	3956.95
2478.15167	3953.55
2480.90379	3934.45
2483.65417	3940.75
2486.40283	3924.25
2489.14976	3920.05
2491.89497	3927.55
2494.63845	3943.95
2497.3802	3943.45
2500.12024	3944.15
2502.85855	3925.05
2505.59514	3924.85
2508.33002	3906.25
2511.06318	3910.25
2513.79462	3896.65
2516.52435	3884.05
2519.25237	3890.65
2521.97867	3855.85
2524.70327	3872.35
2527.42616	3858.35
2530.14734	3858.25
2532.86681	3848.25
2535.58458	3839.25
2538.30065	3836.85
2541.01501	3830.25
2543.72768	3817.75
2546.43864	3820.85
2549.14791	3819.05
2551.85548	3796.45
2554.56136	3805.35
2557.26554	3792.65
2559.96803	3781.95
2562.66883	3762.85
2565.36794	3763.35
2568.06536	3769.75
2570.7611	3754.15
2573.45514	3760.15
2576.14751	3737.05
2578.83819	3738.35
2581.52719	3735.85
2584.21451	3731.25
2586.90015	3731.95
2589.58411	3725.65
2592.2664	3716.55
2594.94701	3718.25
2597.62594	3704.85
2600.30321	3702.55
2602.9788	3700.35
2605.65273	3688.05
2608.32498	3697.25
2610.99557	3682.35
2613.66449	3678.25
2616.33175	3658.25
2618.99734	3671.95
2621.66128	3658.85
2624.32355	3675.95
2626.98416	3641.15
2629.64311	3652.75
2632.30041	3643.15
2634.95605	3637.65
2637.61004	3643.25
2640.26238	3632.55
2642.91306	3631.85
2645.56209	3634.35
2648.20948	3632.65
2650.85521	3604.35
2653.4993	3604.15
2656.14175	3615.45
2658.78255	3604.55
2661.42171	3612.45
2664.05923	3617.05
2666.6951	3612.15
2669.32934	3602.35
2671.96194	3609.35
2674.59291	3622.85
2677.22224	3610.85
2679.84993	3601.95
2682.476	3607.05
2685.10043	3614.35
2687.72324	3600.85
2690.34441	3602.25
2692.96396	3595.45
2695.58188	3601.15
2698.19818	3591.25
2700.81285	3602.75
2703.4259	3604.85
2706.03733	3664.15
2708.64714	3637.15
2711.25533	3609.85
2713.86191	3610.05
2716.46687	3609.45
2719.07021	3605.15
2721.67194	3604.65
2724.27206	3578.55
2726.87057	3577.85
2729.46747	3588.75
2732.06276	3592.35
2734.65644	3607.45
2737.24852	3600.75
2739.83899	3594.25
2742.42786	3583.65
2745.01513	3577.75
2747.60079	3566.55
2750.18486	3550.85
2752.76733	3559.15
2755.3482	3565.35
2757.92747	3552.35
2760.50515	3543.35
2763.08123	3548.75
2765.65573	3538.45
2768.22863	3552.65
2770.79994	3545.25
2773.36967	3537.45
2775.9378	3518.95
2778.50435	3535.65
2781.06932	3515.95
2783.6327	3512.65
2786.1945	3521.55
2788.75471	3500.75
2791.31335	3495.35
2793.87041	3481.75
2796.42589	3494.95
2798.97979	3469.45
2801.53212	3472.35
2804.08288	3463.35
2806.63206	3468.15
2809.17967	3452.55
2811.72571	3444.25
2814.27018	3450.05
2816.81308	3444.45
2819.35442	3436.45
2821.89419	3429.55
2824.43239	3437.15
2826.96904	3428.25
2829.50412	3408.55
2832.03763	3412.05
2834.56959	3415.65
2837.1	3397.75
2839.62884	3401.15
2842.15613	3422.35
2844.68186	3408.05
2847.20604	3407.45
2849.72867	3401.35
2852.24974	3407.35
2854.76927	3416.55
2857.28724	3421.15
2859.80367	3405.45
2862.31855	3392.15
2864.83189	3380.85
2867.34368	3380.15
2869.85393	3371.05
2872.36264	3373.25
2874.8698	3364.35
2877.37543	3360.95
2879.87952	3380.05
2882.38207	3379.75
2884.88308	3370.05
2887.38256	3376.65
2889.88051	3370.15
2892.37692	3391.95
2894.8718	3362.95
2897.36515	3371.35
2899.85698	3370.15
2902.34727	3370.85
2904.83604	3381.75
2907.32328	3378.55
2909.809	3370.85
2912.29319	3393.95
2914.77587	3375.65
2917.25702	3386.55
2919.73665	3374.95
2922.21476	3372.45
2924.69136	3375.45
2927.16644	3364.25
2929.64	3372.35
2932.11205	3369.05
2934.58258	3351.95
2937.05161	3364.55
2939.51912	3354.25
2941.98513	3354.95
2944.44962	3346.85
2946.91261	3347.35
2949.37409	3359.95
2951.83407	3341.95
2954.29254	3348.15
2956.74951	3336.25
2959.20498	3332.45
2961.65895	3328.25
2964.11142	3308.65
2966.56239	3319.45
2969.01186	3305.65
2971.45984	3292.45
2973.90632	3297.75
2976.35131	3295.55
2978.7948	3277.95
2981.23681	3271.65
2983.67732	3269.05
2986.11635	3264.35
2988.55388	3260.75
2990.98993	3255.95
2993.4245	3253.35
2995.85758	3220.85
2998.28917	3235.95
3000.71928	3233.05
3003.14791	3223.75
3005.57506	3220.15
3008.00073	3214.35
3010.42493	3216.95
3012.84764	3203.95
3015.26888	3215.95
3017.68865	3203.55
3020.10694	3198.45
3022.52376	3197.05
3024.9391	3178.65
3027.35298	3182.35
3029.76539	3169.85
3032.17632	3177.85
3034.5858	3169.25
3036.9938	3161.65
3039.40034	3165.95
3041.80542	3158.25
3044.20903	3152.45
3046.61118	3160.35
3049.01187	3149.65
3051.4111	3145.75
3053.80888	3137.95
3056.20519	3137.45
3058.60005	3130.65
3060.99345	3119.65
3063.3854	3114.25
3065.7759	3113.25
3068.16494	3113.05
3070.55254	3112.55
3072.93868	3105.95
3075.32338	3095.55
3077.70662	3081.75
3080.08842	3098.25
3082.46878	3094.65
3084.84769	3084.55
3087.22515	3097.35
3089.60118	3090.15
3091.97576	3093.15
3094.3489	3100.15
3096.72061	3094.55
3099.09087	3088.35
3101.4597	3095.25
3103.82709	3099.05
3106.19305	3088.05
3108.55757	3076.85
3110.92066	3085.75
3113.28232	3083.15
3115.64255	3077.95
3118.00134	3073.65
3120.35871	3066.15
3122.71466	3070.65
3125.06917	3060.85
3127.42226	3052.65
3129.77393	3066.75
3132.12417	3068.05
3134.47299	3072.95
3136.82039	3067.65
3139.16636	3075.95
3141.51092	3073.85
3143.85406	3088.65
3146.19579	3082.25
3148.53609	3076.05
3150.87499	3093.45
3153.21246	3095.55
3155.54853	3118.65
3157.88318	3108.15
3160.21642	3112.95
3162.54826	3109.25
3164.87868	3112.75
3167.2077	3117.65
3169.5353	3112.25
3171.86151	3112.45
3174.18631	3113.05
3176.5097	3124.05
3178.83169	3120.15
3181.15228	3109.25
3183.47147	3110.05
3185.78926	3116.25
3188.10565	3116.95
3190.42065	3115.65
3192.73424	3125.85
3195.04645	3135.85
3197.35725	3112.05
3199.66667	3126.45
3201.97469	3130.65
3204.28132	3140.65
3206.58656	3146.25
3208.8904	3134.25
3211.19287	3146.95
3213.49394	3150.05
3215.79363	3148.95
3218.09193	3154.15
3220.38884	3166.25
3222.68438	3182.65
3224.97853	3159.95
3227.2713	3171.15
3229.56269	3144.95
3231.8527	3155.45
3234.14133	3144.35
3236.42858	3145.75
3238.71446	3130.95
3240.99896	3136.05
3243.28209	3137.15
3245.56384	3124.65
3247.84423	3130.95
3250.12324	3134.55
3252.40088	3117.85
3254.67715	3122.75
3256.95205	3121.45
3259.22558	3128.95
3261.49775	3116.25
3263.76855	3116.95
3266.03799	3107.15
3268.30606	3100.15
3270.57277	3091.55
3272.83812	3090.65
3275.10211	3081.45
3277.36474	3072.75
3279.62601	3088.45
3281.88593	3079.05
3284.14448	3076.55
3286.40168	3081.35
3288.65753	3066.55
3290.91202	3060.45
3293.16516	3053.45
3295.41695	3036.85
3297.66738	3036.65
3299.91647	3034.55
3302.16421	3010.25
3304.4106	2989.35
3306.65564	2971.75
3308.89933	2961.35
3311.14169	2955.85
3313.38269	2930.15
3315.62236	2919.85
3317.86068	2877.75
3320.09766	2866.65
3322.3333	2854.55
3324.5676	2853.55
3326.80056	2818.15
3329.03219	2797.75
3331.26248	0.85
3333.49143	-0.05
3335.71905	0.25
