Data from AgNPs_FTO_APTES_UA_1um_CRN_0.1mM_R6G_10uM_NaF_0.1M_Addition_RamanShift__5__11-39-58-989.txt Node

Date: Tue Dec 21 11:39:58 GMT 2021
User: TCL
Spectrometer: QEP01345
Trigger mode: 4
Integration Time (sec): 7.000000E0
Scans to average: 10
Electric dark correction enabled: true
Nonlinearity correction enabled: false
Boxcar width: 0
XAxis mode: Raman Shifts
Number of Pixels in Spectrum: 1044
>>>>>Begin Spectral Data<<<<<
46.04893	0.35
50.45542	-1.75
54.85868	-0.75
59.25871	0.55
63.6555	38.75
68.04907	45.55
72.43941	49.05
76.82654	47.45
81.21044	55.05
85.59113	54.05
89.96862	55.35
94.34289	58.05
98.71396	59.65
103.08183	60.85
107.4465	63.25
111.80798	66.95
116.16626	63.55
120.52136	65.75
124.87327	67.65
129.222	69.35
133.56755	73.85
137.90993	81.25
142.24913	81.75
146.58517	94.45
150.91804	107.05
155.24774	128.95
159.57429	150.95
163.89768	197.15
168.21792	252.95
172.53501	339.95
176.84895	469.35
181.15975	655.25
185.46741	919.85
189.77193	1266.25
194.07331	1705.35
198.37157	2189.15
202.6667	2705.55
206.9587	3239.95
211.24758	3767.25
215.53334	4288.25
219.81599	4875.05
224.09553	5516.85
228.37195	6209.95
232.64527	6972.85
236.91549	7722.75
241.18261	8436.55
245.44663	9057.25
249.70755	9566.35
253.96539	9978.65
258.22014	10291.35
262.4718	10554.35
266.72039	10706.75
270.96589	10753.35
275.20832	10641.75
279.44768	10467.85
283.68397	10287.85
287.91719	10127.45
292.14735	10045.45
296.37445	10075.75
300.59849	10223.15
304.81948	10426.45
309.03742	10644.65
313.25231	10717.05
317.46415	10596.85
321.67296	10264.15
325.87872	9984.55
330.08145	9775.15
334.28114	9685.75
338.47781	9715.05
342.67145	9861.35
346.86207	10075.85
351.04966	10294.65
355.23424	10537.45
359.4158	10716.25
363.59435	10779.05
367.76989	10797.25
371.94243	10752.35
376.11196	10682.35
380.27849	10715.25
384.44203	10756.85
388.60257	10849.85
392.76012	10932.45
396.91468	11080.15
401.06626	11299.55
405.21485	11469.65
409.36047	11399.45
413.50311	11176.35
417.64277	11023.65
421.77947	10982.35
425.9132	11025.65
430.04396	11072.75
434.17176	11081.85
438.2966	11150.45
442.41849	11443.75
446.53742	11920.55
450.6534	12468.15
454.76644	12695.45
458.87653	12522.35
462.98368	12169.65
467.08789	11776.45
471.18916	11420.05
475.2875	11053.85
479.38291	10758.05
483.4754	10631.05
487.56496	10532.55
491.6516	10433.35
495.73531	10361.95
499.81612	10365.55
503.89401	10443.25
507.96899	10487.75
512.04106	10407.05
516.11023	10266.35
520.1765	10171.25
524.23987	10206.65
528.30034	10246.95
532.35792	10207.75
536.41261	9979.55
540.46441	9704.15
544.51333	9550.05
548.55936	9637.75
552.60252	9932.65
556.64279	10372.05
560.6802	10692.05
564.71473	10757.25
568.7464	10842.75
572.7752	11167.25
576.80114	11491.45
580.82422	11908.45
584.84444	12727.95
588.86181	13950.35
592.87633	15239.35
596.888	15644.85
600.89682	14440.65
604.9028	13494.45
608.90594	14385.95
612.90624	16127.85
616.90371	15242.25
620.89834	11810.05
624.89015	10086.65
628.87913	9883.35
632.86528	9993.05
636.84862	10014.25
640.82913	9801.25
644.80683	9437.45
648.78172	9212.55
652.75379	9205.25
656.72306	9361.65
660.68952	9568.25
664.65319	9481.15
668.61405	9198.55
672.57211	9152.75
676.52738	9259.15
680.47986	9308.65
684.42955	9193.75
688.37646	9037.95
692.32058	8998.45
696.26192	9112.75
700.20048	9289.55
704.13626	9423.25
708.06928	9412.15
711.99952	9322.45
715.927	9339.35
719.85171	9408.25
723.77365	9400.85
727.69284	9240.85
731.60928	9069.25
735.52295	9024.95
739.43388	9082.65
743.34206	9134.35
747.24749	9215.25
751.15017	9329.55
755.05012	9538.65
758.94733	9901.45
762.8418	10687.35
766.73354	11957.95
770.62254	13218.35
774.50882	13438.55
778.39237	12692.25
782.27321	11475.35
786.15132	10357.65
790.02671	9619.55
793.89938	9245.15
797.76935	9070.35
801.6366	9036.75
805.50115	8986.45
809.36299	8908.35
813.22213	8780.55
817.07857	8668.45
820.93231	8592.35
824.78336	8563.05
828.63172	8519.85
832.47738	8538.35
836.32036	8544.95
840.16066	8573.65
843.99827	8561.85
847.8332	8539.65
851.66546	8496.85
855.49504	8455.05
859.32195	8477.05
863.1462	8417.75
866.96777	8379.95
870.78668	8376.75
874.60293	8391.25
878.41652	8365.85
882.22745	8434.75
886.03573	8486.45
889.84136	8489.15
893.64433	8462.25
897.44466	8440.55
901.24235	8416.05
905.0374	8350.35
908.8298	8287.45
912.61957	8280.95
916.40671	8315.15
920.19121	8447.15
923.97308	8646.65
927.75233	8837.35
931.52895	8859.25
935.30295	8656.35
939.07433	8357.75
942.84309	8134.35
946.60924	8004.15
950.37278	7947.45
954.13371	7917.05
957.89203	7885.65
961.64774	7890.05
965.40086	7863.05
969.15137	7848.45
972.89929	7815.75
976.64461	7772.05
980.38733	7738.35
984.12747	7760.65
987.86502	7811.75
991.59999	7894.45
995.33237	8055.65
999.06217	8333.25
1002.78939	8679.45
1006.51404	8946.45
1010.23611	9182.35
1013.95561	9328.95
1017.67255	9462.65
1021.38692	9337.85
1025.09872	9053.45
1028.80796	8878.65
1032.51465	8974.65
1036.21877	9152.55
1039.92035	9276.65
1043.61937	9214.25
1047.31584	9101.65
1051.00976	8918.35
1054.70114	8794.25
1058.38998	8735.05
1062.07627	8698.65
1065.76003	8747.35
1069.44126	8848.55
1073.11995	9100.95
1076.79611	9320.65
1080.46974	9403.05
1084.14085	9562.45
1087.80943	9735.25
1091.47549	9857.25
1095.13903	9806.75
1098.80005	9521.85
1102.45857	9173.05
1106.11456	8908.65
1109.76805	8824.55
1113.41903	8903.85
1117.06751	9030.45
1120.71348	9228.25
1124.35696	9486.35
1127.99793	9757.05
1131.63641	9865.85
1135.2724	9730.25
1138.90589	9569.85
1142.5369	9497.05
1146.16542	9504.55
1149.79145	9570.65
1153.415	9651.75
1157.03607	9770.35
1160.65467	10134.95
1164.27079	10828.85
1167.88443	11725.45
1171.49561	12849.85
1175.10432	14374.85
1178.71056	16275.75
1182.31434	17938.55
1185.91565	18445.65
1189.51451	17844.55
1193.11091	16687.85
1196.70485	15507.85
1200.29634	14399.45
1203.88538	13524.65
1207.47197	12882.75
1211.05612	12400.55
1214.63782	12076.95
1218.21708	11862.45
1221.79391	11873.75
1225.36829	12043.15
1228.94024	12135.95
1232.50976	11888.65
1236.07685	11474.05
1239.6415	11140.25
1243.20374	10975.15
1246.76355	10997.25
1250.32093	11139.85
1253.8759	11430.45
1257.42845	11868.95
1260.97859	12400.45
1264.52631	12930.95
1268.07163	13472.95
1271.61453	13983.35
1275.15503	14440.85
1278.69312	14952.05
1282.22882	15548.55
1285.76211	16345.85
1289.29301	17275.85
1292.82151	18273.05
1296.34761	19420.65
1299.87133	20799.25
1303.39266	22516.55
1306.9116	24400.15
1310.42815	26420.45
1313.94233	27737.85
1317.45412	27567.45
1320.96354	26146.55
1324.47058	24406.65
1327.97525	22992.15
1331.47754	21928.95
1334.97747	21185.85
1338.47502	20550.55
1341.97022	19889.15
1345.46305	19486.05
1348.95352	19651.05
1352.44163	20604.85
1355.92738	22336.15
1359.41078	24825.65
1362.89183	26972.05
1366.37053	27175.85
1369.84688	24564.85
1373.32088	20660.75
1376.79254	17797.25
1380.26186	16567.85
1383.72883	16178.65
1387.19347	15768.85
1390.65578	15219.05
1394.11575	15046.75
1397.57339	15331.65
1401.0287	15745.95
1404.48168	16012.95
1407.93234	16039.35
1411.38068	15795.85
1414.82669	15427.85
1418.27039	14970.75
1421.71177	14414.55
1425.15083	13786.75
1428.58758	13491.85
1432.02203	13636.05
1435.45416	14088.35
1438.88399	14522.55
1442.31151	14738.55
1445.73673	14835.95
1449.15965	14924.65
1452.58027	14831.95
1455.9986	14556.55
1459.41463	14458.25
1462.82837	14638.05
1466.23982	15119.35
1469.64898	15611.55
1473.05586	15988.65
1476.46045	16151.85
1479.86276	16294.55
1483.26279	16324.05
1486.66054	16477.25
1490.05602	16829.75
1493.44922	17282.85
1496.84016	17717.25
1500.22882	18293.95
1503.61521	19200.35
1506.99934	20306.65
1510.38121	21219.35
1513.76081	21409.85
1517.13816	20494.75
1520.51324	18931.15
1523.88607	17473.75
1527.25665	16673.55
1530.62498	16353.85
1533.99105	16095.15
1537.35488	15755.55
1540.71647	15309.95
1544.07581	14782.35
1547.4329	14202.85
1550.78776	13746.05
1554.14038	13341.65
1557.49077	13119.15
1560.83892	13051.55
1564.18484	13206.75
1567.52853	13423.85
1570.86999	13738.25
1574.20922	14069.05
1577.54624	14218.35
1580.88103	14065.35
1584.2136	13831.55
1587.54395	14068.95
1590.87208	14940.75
1594.19801	16359.15
1597.52172	17951.15
1600.84321	18817.35
1604.16251	18210.65
1607.47959	16456.75
1610.79447	14308.95
1614.10715	12470.35
1617.41763	11119.35
1620.7259	10337.45
1624.03199	9971.05
1627.33587	10007.05
1630.63757	10422.45
1633.93707	11290.25
1637.23439	12878.85
1640.52951	15404.15
1643.82246	18855.35
1647.11321	22009.85
1650.40179	23099.85
1653.68819	21252.65
1656.97241	17500.15
1660.25446	13880.35
1663.53433	11334.65
1666.81203	9811.65
1670.08756	8924.45
1673.36092	8429.85
1676.63211	8119.55
1679.90115	7851.05
1683.16801	7676.35
1686.43272	7548.75
1689.69527	7462.85
1692.95567	7387.05
1696.2139	7367.85
1699.46999	7332.85
1702.72392	7281.65
1705.97571	7255.15
1709.22535	7210.95
1712.47284	7183.25
1715.71819	7188.35
1718.96139	7157.25
1722.20246	7138.85
1725.44139	7097.35
1728.67818	7038.25
1731.91284	6977.15
1735.14537	6943.05
1738.37576	6906.55
1741.60403	6874.85
1744.83017	6857.45
1748.05418	6880.65
1751.27607	6887.55
1754.49584	6901.95
1757.71349	6911.05
1760.92903	6890.25
1764.14244	6844.15
1767.35375	6820.65
1770.56294	6777.35
1773.77002	6724.95
1776.97499	6688.45
1780.17785	6653.45
1783.37861	6618.05
1786.57727	6578.95
1789.77382	6574.05
1792.96828	6564.35
1796.16064	6511.75
1799.3509	6496.95
1802.53907	6490.65
1805.72514	6471.25
1808.90913	6438.65
1812.09102	6432.35
1815.27083	6416.95
1818.44856	6394.95
1821.6242	6402.95
1824.79776	6393.05
1827.96924	6388.25
1831.13864	6381.45
1834.30597	6396.45
1837.47122	6388.95
1840.6344	6384.85
1843.7955	6379.95
1846.95454	6393.05
1850.11151	6393.65
1853.26642	6378.55
1856.41926	6366.45
1859.57004	6362.75
1862.71876	6358.55
1865.86542	6373.35
1869.01003	6372.75
1872.15258	6356.65
1875.29308	6364.65
1878.43152	6358.25
1881.56792	6317.35
1884.70227	6322.75
1887.83457	6328.15
1890.96482	6307.75
1894.09304	6296.45
1897.21921	6303.15
1900.34335	6268.75
1903.46544	6276.55
1906.58551	6263.45
1909.70353	6236.75
1912.81953	6238.55
1915.93349	6208.75
1919.04543	6208.95
1922.15534	6172.95
1925.26322	6177.25
1928.36908	6135.85
1931.47292	6121.05
1934.57473	6090.35
1937.67453	6075.25
1940.77232	6066.35
1943.86808	6044.75
1946.96184	6032.35
1950.05358	6013.95
1953.14331	6002.15
1956.23103	5971.35
1959.31675	5963.05
1962.40046	5950.25
1965.48217	5929.15
1968.56188	5904.25
1971.63959	5878.55
1974.7153	5877.75
1977.78901	5853.65
1980.86073	5842.65
1983.93046	5814.75
1986.99819	5802.05
1990.06394	5786.05
1993.1277	5777.45
1996.18947	5755.65
1999.24925	5729.95
2002.30706	5708.15
2005.36288	5684.35
2008.41672	5663.35
2011.46859	5663.55
2014.51848	5661.85
2017.56639	5614.55
2020.61233	5633.25
2023.6563	5606.65
2026.6983	5604.45
2029.73833	5588.35
2032.7764	5562.15
2035.8125	5569.85
2038.84664	5568.15
2041.87881	5564.95
2044.90903	5539.45
2047.93729	5542.95
2050.96359	5546.45
2053.98794	5537.85
2057.01034	5517.55
2060.03078	5508.05
2063.04927	5514.65
2066.06582	5505.35
2069.08042	5483.55
2072.09307	5496.05
2075.10378	5496.35
2078.11255	5498.65
2081.11938	5487.85
2084.12426	5488.55
2087.12722	5489.35
2090.12824	5487.55
2093.12732	5494.05
2096.12447	5487.85
2099.11969	5478.05
2102.11299	5498.15
2105.10435	5495.15
2108.09379	5490.75
2111.08131	5482.15
2114.0669	5486.65
2117.05057	5503.15
2120.03233	5508.15
2123.01216	5489.85
2125.99008	5482.75
2128.96609	5511.75
2131.94018	5510.25
2134.91236	5504.15
2137.88263	5521.05
2140.851	5510.75
2143.81746	5531.05
2146.78201	5512.45
2149.74466	5509.85
2152.7054	5501.05
2155.66425	5483.75
2158.6212	5492.65
2161.57625	5491.95
2164.52941	5504.25
2167.48067	5502.55
2170.43004	5499.45
2173.37752	5481.15
2176.32311	5487.85
2179.26681	5476.15
2182.20863	5491.65
2185.14856	5495.25
2188.08661	5500.45
2191.02278	5484.55
2193.95707	5494.25
2196.88948	5481.25
2199.82001	5483.95
2202.74867	5489.75
2205.67545	5475.65
2208.60037	5470.35
2211.52341	5462.25
2214.44458	5468.85
2217.36388	5451.35
2220.28132	5432.25
2223.1969	5411.65
2226.11061	5429.05
2229.02246	5415.75
2231.93245	5404.45
2234.84058	5411.15
2237.74686	5401.65
2240.65128	5398.75
2243.55385	5409.95
2246.45456	5402.95
2249.35343	5378.25
2252.25044	5358.05
2255.14561	5348.75
2258.03893	5347.95
2260.93041	5349.85
2263.82004	5313.35
2266.70783	5312.25
2269.59378	5294.25
2272.4779	5283.65
2275.36017	5278.05
2278.24061	5252.85
2281.11922	5255.65
2283.996	5239.15
2286.87094	5241.45
2289.74405	5231.95
2292.61534	5220.55
2295.4848	5225.95
2298.35243	5221.35
2301.21824	5233.45
2304.08223	5212.55
2306.94439	5220.05
2309.80474	5225.75
2312.66327	5230.15
2315.51999	5211.45
2318.37489	5212.25
2321.22797	5211.85
2324.07925	5196.15
2326.92871	5212.15
2329.77637	5200.15
2332.62222	5208.45
2335.46626	5218.15
2338.3085	5211.75
2341.14893	5208.15
2343.98756	5201.05
2346.8244	5205.85
2349.65943	5203.75
2352.49267	5214.15
2355.32411	5196.75
2358.15376	5210.45
2360.98161	5209.65
2363.80768	5206.45
2366.63195	5209.15
2369.45444	5201.95
2372.27514	5203.85
2375.09405	5174.65
2377.91118	5192.35
2380.72652	5160.55
2383.54009	5141.95
2386.35187	5128.55
2389.16188	5120.45
2391.97011	5109.55
2394.77657	5107.25
2397.58125	5102.05
2400.38416	5084.05
2403.18529	5079.15
2405.98466	5066.45
2408.78226	5058.65
2411.57809	5054.95
2414.37216	5055.55
2417.16446	5030.25
2419.955	5038.85
2422.74378	5031.75
2425.5308	5050.75
2428.31606	5037.85
2431.09956	5015.15
2433.88131	5029.55
2436.6613	5031.15
2439.43954	5041.25
2442.21603	5029.25
2444.99077	5024.45
2447.76377	5044.55
2450.53501	5038.15
2453.30451	5034.15
2456.07226	5029.55
2458.83827	5048.75
2461.60254	5037.15
2464.36507	5044.75
2467.12586	5042.65
2469.88492	5038.45
2472.64224	5045.15
2475.39782	5052.55
2478.15167	5063.35
2480.90379	5057.95
2483.65417	5073.45
2486.40283	5060.05
2489.14976	5061.15
2491.89497	5054.25
2494.63845	5092.15
2497.3802	5099.95
2500.12024	5087.85
2502.85855	5060.75
2505.59514	5069.65
2508.33002	5054.35
2511.06318	5039.95
2513.79462	5029.15
2516.52435	5029.35
2519.25237	5024.15
2521.97867	5001.75
2524.70327	5014.45
2527.42616	5003.75
2530.14734	5003.15
2532.86681	5005.45
2535.58458	4985.65
2538.30065	4975.85
2541.01501	4987.75
2543.72768	4980.85
2546.43864	4966.55
2549.14791	4969.15
2551.85548	4972.95
2554.56136	4967.55
2557.26554	4954.55
2559.96803	4976.35
2562.66883	4986.65
2565.36794	4977.15
2568.06536	4975.45
2570.7611	4963.55
2573.45514	4989.65
2576.14751	4960.75
2578.83819	4992.75
2581.52719	4981.55
2584.21451	4981.15
2586.90015	4969.35
2589.58411	4950.45
2592.2664	4941.65
2594.94701	4936.15
2597.62594	4950.05
2600.30321	4927.75
2602.9788	4938.15
2605.65273	4923.65
2608.32498	4932.95
2610.99557	4925.85
2613.66449	4939.05
2616.33175	4920.55
2618.99734	4937.95
2621.66128	4939.95
2624.32355	4933.45
2626.98416	4940.15
2629.64311	4935.55
2632.30041	4930.65
2634.95605	4922.65
2637.61004	4915.65
2640.26238	4902.25
2642.91306	4902.05
2645.56209	4898.75
2648.20948	4902.05
2650.85521	4892.25
2653.4993	4912.45
2656.14175	4897.35
2658.78255	4899.35
2661.42171	4921.85
2664.05923	4924.05
2666.6951	4939.55
2669.32934	4924.15
2671.96194	4943.85
2674.59291	4941.35
2677.22224	4949.45
2679.84993	4943.05
2682.476	4936.35
2685.10043	4921.85
2687.72324	4928.05
2690.34441	4923.45
2692.96396	4912.15
2695.58188	4925.15
2698.19818	4921.05
2700.81285	4936.85
2703.4259	4945.75
2706.03733	4996.65
2708.64714	4967.25
2711.25533	4958.15
2713.86191	4945.05
2716.46687	4966.45
2719.07021	4954.85
2721.67194	4956.45
2724.27206	4970.55
2726.87057	4980.45
2729.46747	4965.85
2732.06276	4976.65
2734.65644	4967.15
2737.24852	4977.65
2739.83899	4962.75
2742.42786	4959.15
2745.01513	4958.15
2747.60079	4964.05
2750.18486	4941.95
2752.76733	4942.65
2755.3482	4968.25
2757.92747	4964.45
2760.50515	4958.95
2763.08123	4959.15
2765.65573	4948.95
2768.22863	4951.85
2770.79994	4945.45
2773.36967	4956.65
2775.9378	4974.45
2778.50435	4958.55
2781.06932	4946.75
2783.6327	4965.75
2786.1945	4964.25
2788.75471	4949.25
2791.31335	4962.05
2793.87041	4951.85
2796.42589	4917.05
2798.97979	4948.95
2801.53212	4931.45
2804.08288	4926.75
2806.63206	4934.85
2809.17967	4932.25
2811.72571	4929.75
2814.27018	4937.15
2816.81308	4916.45
2819.35442	4916.85
2821.89419	4937.05
2824.43239	4952.55
2826.96904	4937.45
2829.50412	4950.65
2832.03763	4931.65
2834.56959	4932.55
2837.1	4941.05
2839.62884	4940.85
2842.15613	4947.15
2844.68186	4962.05
2847.20604	4977.65
2849.72867	4979.15
2852.24974	4984.55
2854.76927	4980.15
2857.28724	4995.65
2859.80367	4988.15
2862.31855	4973.35
2864.83189	4964.25
2867.34368	4967.45
2869.85393	4978.95
2872.36264	4969.35
2874.8698	4978.95
2877.37543	4988.35
2879.87952	4990.25
2882.38207	4988.95
2884.88308	4991.55
2887.38256	4998.75
2889.88051	5007.95
2892.37692	5020.55
2894.8718	5021.75
2897.36515	5026.55
2899.85698	5038.55
2902.34727	5047.35
2904.83604	5053.95
2907.32328	5079.45
2909.809	5077.05
2912.29319	5104.35
2914.77587	5107.35
2917.25702	5110.85
2919.73665	5102.25
2922.21476	5114.75
2924.69136	5112.55
2927.16644	5118.55
2929.64	5097.45
2932.11205	5101.25
2934.58258	5100.05
2937.05161	5122.95
2939.51912	5105.65
2941.98513	5116.45
2944.44962	5088.15
2946.91261	5090.15
2949.37409	5087.45
2951.83407	5088.95
2954.29254	5052.65
2956.74951	5028.75
2959.20498	5051.95
2961.65895	5012.05
2964.11142	5004.25
2966.56239	4972.95
2969.01186	4974.75
2971.45984	4937.35
2973.90632	4939.05
2976.35131	4896.25
2978.7948	4889.25
2981.23681	4881.15
2983.67732	4854.55
2986.11635	4848.45
2988.55388	4821.55
2990.98993	4816.95
2993.4245	4825.85
2995.85758	4804.25
2998.28917	4795.55
3000.71928	4812.85
3003.14791	4784.35
3005.57506	4798.35
3008.00073	4776.95
3010.42493	4784.85
3012.84764	4768.55
3015.26888	4785.35
3017.68865	4761.65
3020.10694	4734.45
3022.52376	4723.95
3024.9391	4721.85
3027.35298	4700.15
3029.76539	4707.25
3032.17632	4690.95
3034.5858	4690.75
3036.9938	4686.85
3039.40034	4670.15
3041.80542	4679.45
3044.20903	4642.55
3046.61118	4655.35
3049.01187	4651.85
3051.4111	4640.55
3053.80888	4626.15
3056.20519	4628.85
3058.60005	4621.75
3060.99345	4622.45
3063.3854	4606.05
3065.7759	4593.55
3068.16494	4589.55
3070.55254	4584.15
3072.93868	4574.95
3075.32338	4569.75
3077.70662	4560.25
3080.08842	4539.55
3082.46878	4538.45
3084.84769	4543.05
3087.22515	4532.25
3089.60118	4532.05
3091.97576	4541.75
3094.3489	4537.35
3096.72061	4548.75
3099.09087	4546.15
3101.4597	4551.65
3103.82709	4540.05
3106.19305	4518.55
3108.55757	4541.15
3110.92066	4509.55
3113.28232	4516.65
3115.64255	4501.75
3118.00134	4500.05
3120.35871	4489.75
3122.71466	4488.15
3125.06917	4472.95
3127.42226	4492.35
3129.77393	4506.05
3132.12417	4484.45
3134.47299	4500.95
3136.82039	4496.95
3139.16636	4498.65
3141.51092	4499.85
3143.85406	4514.15
3146.19579	4523.75
3148.53609	4508.65
3150.87499	4495.85
3153.21246	4519.25
3155.54853	4514.15
3157.88318	4523.25
3160.21642	4538.55
3162.54826	4537.45
3164.87868	4540.65
3167.2077	4522.55
3169.5353	4530.35
3171.86151	4522.55
3174.18631	4530.95
3176.5097	4522.75
3178.83169	4535.05
3181.15228	4543.75
3183.47147	4529.45
3185.78926	4528.65
3188.10565	4527.85
3190.42065	4533.55
3192.73424	4538.75
3195.04645	4534.35
3197.35725	4532.15
3199.66667	4540.95
3201.97469	4541.55
3204.28132	4543.75
3206.58656	4554.15
3208.8904	4535.55
3211.19287	4545.95
3213.49394	4562.25
3215.79363	4533.85
3218.09193	4551.15
3220.38884	4557.75
3222.68438	4576.75
3224.97853	4570.75
3227.2713	4562.35
3229.56269	4553.55
3231.8527	4560.85
3234.14133	4551.15
3236.42858	4545.55
3238.71446	4547.35
3240.99896	4529.65
3243.28209	4537.25
3245.56384	4537.05
3247.84423	4554.55
3250.12324	4527.25
3252.40088	4540.45
3254.67715	4521.25
3256.95205	4536.05
3259.22558	4527.95
3261.49775	4502.45
3263.76855	4509.55
3266.03799	4499.15
3268.30606	4480.55
3270.57277	4469.65
3272.83812	4467.45
3275.10211	4467.25
3277.36474	4470.75
3279.62601	4458.05
3281.88593	4476.45
3284.14448	4479.75
3286.40168	4475.25
3288.65753	4477.05
3290.91202	4471.15
3293.16516	4469.65
3295.41695	4466.55
3297.66738	4443.65
3299.91647	4423.45
3302.16421	4392.75
3304.4106	4385.45
3306.65564	4367.35
3308.89933	4322.05
3311.14169	4307.35
3313.38269	4282.15
3315.62236	4240.15
3317.86068	4223.45
3320.09766	4188.25
3322.3333	4168.85
3324.5676	4160.15
3326.80056	4097.75
3329.03219	4068.95
3331.26248	1.65
3333.49143	-0.35
3335.71905	0.35
