Data from AgNPs_FTO_APTES_UA_2um_CRN_0.1mM_R6G_10uM_NaF_0.1M_Addition_RamanShift__22__12-40-39-059.txt Node

Date: Tue Dec 21 12:40:39 GMT 2021
User: TCL
Spectrometer: QEP01345
Trigger mode: 4
Integration Time (sec): 7.000000E0
Scans to average: 10
Electric dark correction enabled: true
Nonlinearity correction enabled: false
Boxcar width: 0
XAxis mode: Raman Shifts
Number of Pixels in Spectrum: 1044
>>>>>Begin Spectral Data<<<<<
46.04893	-0.85
50.45542	-0.45
54.85868	-0.05
59.25871	-0.25
63.6555	52.65
68.04907	55.95
72.43941	61.85
76.82654	67.25
81.21044	68.65
85.59113	68.25
89.96862	69.65
94.34289	69.75
98.71396	72.05
103.08183	75.85
107.4465	83.55
111.80798	82.35
116.16626	82.55
120.52136	86.75
124.87327	91.95
129.222	91.95
133.56755	102.45
137.90993	110.55
142.24913	120.45
146.58517	135.75
150.91804	152.85
155.24774	183.15
159.57429	225.15
163.89768	293.05
168.21792	375.45
172.53501	516.05
176.84895	712.55
181.15975	997.85
185.46741	1397.95
189.77193	1924.05
194.07331	2574.15
198.37157	3311.25
202.6667	4095.15
206.9587	4889.25
211.24758	5689.55
215.53334	6469.15
219.81599	7315.55
224.09553	8251.95
228.37195	9233.75
232.64527	10353.45
236.91549	11516.65
241.18261	12698.75
245.44663	13762.45
249.70755	14711.45
253.96539	15532.45
258.22014	16225.35
262.4718	16815.45
266.72039	17202.75
270.96589	17386.15
275.20832	17390.35
279.44768	17298.55
283.68397	17220.95
287.91719	17133.25
292.14735	17068.45
296.37445	17075.95
300.59849	17100.45
304.81948	17118.95
309.03742	17066.95
313.25231	16876.45
317.46415	16491.65
321.67296	15974.75
325.87872	15578.85
330.08145	15408.75
334.28114	15365.25
338.47781	15511.75
342.67145	15705.85
346.86207	15953.45
351.04966	16291.95
355.23424	16655.75
359.4158	16947.85
363.59435	17155.05
367.76989	17284.65
371.94243	17390.55
376.11196	17468.45
380.27849	17554.45
384.44203	17655.35
388.60257	17796.35
392.76012	17938.35
396.91468	18207.95
401.06626	18503.15
405.21485	18755.75
409.36047	18713.25
413.50311	18472.65
417.64277	18302.95
421.77947	18337.05
425.9132	18464.55
430.04396	18688.65
434.17176	18883.25
438.2966	19152.75
442.41849	19637.75
446.53742	20457.55
450.6534	21372.75
454.76644	22052.55
458.87653	22090.75
462.98368	21693.65
467.08789	21153.05
471.18916	20657.75
475.2875	20331.85
479.38291	20218.55
483.4754	20140.15
487.56496	19927.75
491.6516	19516.15
495.73531	19135.75
499.81612	18928.25
503.89401	18945.35
507.96899	18946.95
512.04106	18814.55
516.11023	18501.65
520.1765	18157.65
524.23987	18011.45
528.30034	17936.85
532.35792	17866.95
536.41261	17675.85
540.46441	17364.35
544.51333	17275.15
548.55936	17421.55
552.60252	17826.15
556.64279	18376.85
560.6802	18900.95
564.71473	19193.35
568.7464	19647.05
572.7752	20237.45
576.80114	20664.35
580.82422	21011.15
584.84444	21351.85
588.86181	22102.25
592.87633	23165.75
596.888	23806.55
600.89682	23425.65
604.9028	23269.65
608.90594	24451.55
612.90624	25826.15
616.90371	23849.65
620.89834	19715.95
624.89015	17883.25
628.87913	17756.45
632.86528	17893.05
636.84862	17906.25
640.82913	17657.95
644.80683	17101.85
648.78172	16663.25
652.75379	16492.65
656.72306	16602.85
660.68952	16861.15
664.65319	16816.65
668.61405	16573.65
672.57211	16572.15
676.52738	16681.95
680.47986	16638.85
684.42955	16522.55
688.37646	16365.15
692.32058	16342.25
696.26192	16433.35
700.20048	16661.85
704.13626	16816.05
708.06928	16802.55
711.99952	16678.35
715.927	16557.55
719.85171	16576.55
723.77365	16565.25
727.69284	16447.95
731.60928	16304.75
735.52295	16340.85
739.43388	16385.25
743.34206	16487.65
747.24749	16540.55
751.15017	16662.25
755.05012	16962.95
758.94733	17511.15
762.8418	18560.55
766.73354	20147.25
770.62254	21660.65
774.50882	21954.45
778.39237	20755.45
782.27321	18982.65
786.15132	17521.25
790.02671	16560.35
793.89938	16130.25
797.76935	15981.75
801.6366	15987.95
805.50115	15975.65
809.36299	15870.85
813.22213	15700.45
817.07857	15623.65
820.93231	15525.55
824.78336	15418.25
828.63172	15365.95
832.47738	15370.15
836.32036	15337.75
840.16066	15318.95
843.99827	15309.65
847.8332	15299.35
851.66546	15243.55
855.49504	15227.85
859.32195	15263.75
863.1462	15264.25
866.96777	15214.75
870.78668	15161.35
874.60293	15152.65
878.41652	15145.55
882.22745	15222.75
886.03573	15237.55
889.84136	15227.45
893.64433	15183.15
897.44466	15055.55
901.24235	14995.75
905.0374	14860.65
908.8298	14768.35
912.61957	14750.65
916.40671	14888.25
920.19121	15130.85
923.97308	15379.85
927.75233	15442.35
931.52895	15332.75
935.30295	15092.85
939.07433	14763.15
942.84309	14505.65
946.60924	14374.55
950.37278	14283.75
954.13371	14286.15
957.89203	14230.75
961.64774	14185.55
965.40086	14150.15
969.15137	14064.95
972.89929	13929.85
976.64461	13842.45
980.38733	13795.85
984.12747	13830.35
987.86502	13972.35
991.59999	14164.85
995.33237	14438.55
999.06217	14966.75
1002.78939	15659.85
1006.51404	16196.55
1010.23611	16492.45
1013.95561	16694.25
1017.67255	16719.05
1021.38692	16398.95
1025.09872	15941.95
1028.80796	15760.15
1032.51465	15903.75
1036.21877	16158.25
1039.92035	16270.55
1043.61937	16193.55
1047.31584	15918.25
1051.00976	15599.75
1054.70114	15449.85
1058.38998	15421.95
1062.07627	15487.55
1065.76003	15609.15
1069.44126	15740.05
1073.11995	15965.75
1076.79611	16145.95
1080.46974	16181.85
1084.14085	16322.45
1087.80943	16567.35
1091.47549	16789.25
1095.13903	16830.25
1098.80005	16612.05
1102.45857	16186.45
1106.11456	15823.95
1109.76805	15727.95
1113.41903	15800.05
1117.06751	15974.65
1120.71348	16233.75
1124.35696	16472.15
1127.99793	16761.45
1131.63641	16916.65
1135.2724	16888.15
1138.90589	16756.25
1142.5369	16703.85
1146.16542	16735.75
1149.79145	16823.75
1153.415	17018.15
1157.03607	17290.65
1160.65467	17860.05
1164.27079	18816.85
1167.88443	20123.45
1171.49561	21756.65
1175.10432	23808.35
1178.71056	26380.15
1182.31434	28694.25
1185.91565	29801.95
1189.51451	29457.25
1193.11091	28438.75
1196.70485	27082.95
1200.29634	25660.75
1203.88538	24515.65
1207.47197	23692.45
1211.05612	23034.25
1214.63782	22551.25
1218.21708	22285.85
1221.79391	22266.55
1225.36829	22222.45
1228.94024	21838.05
1232.50976	21183.05
1236.07685	20498.25
1239.6415	20104.55
1243.20374	20000.25
1246.76355	20029.35
1250.32093	20325.25
1253.8759	20834.95
1257.42845	21540.35
1260.97859	22233.25
1264.52631	22878.35
1268.07163	23592.15
1271.61453	24383.85
1275.15503	25308.15
1278.69312	26151.15
1282.22882	27085.85
1285.76211	28002.15
1289.29301	29159.25
1292.82151	30558.35
1296.34761	32368.35
1299.87133	34567.85
1303.39266	37048.35
1306.9116	39772.75
1310.42815	42489.95
1313.94233	44614.65
1317.45412	45171.05
1320.96354	44544.75
1324.47058	43459.45
1327.97525	42347.85
1331.47754	41506.05
1334.97747	41054.25
1338.47502	40901.45
1341.97022	40522.25
1345.46305	39659.85
1348.95352	38526.65
1352.44163	37968.55
1355.92738	38393.65
1359.41078	39815.25
1362.89183	41169.65
1366.37053	40802.15
1369.84688	37857.95
1373.32088	33534.05
1376.79254	30291.15
1380.26186	28855.65
1383.72883	28653.65
1387.19347	28682.15
1390.65578	28628.05
1394.11575	28968.35
1397.57339	29979.85
1401.0287	31488.65
1404.48168	32900.25
1407.93234	33724.25
1411.38068	33589.15
1414.82669	32520.65
1418.27039	30683.95
1421.71177	28624.75
1425.15083	26792.95
1428.58758	25745.45
1432.02203	25586.25
1435.45416	26085.75
1438.88399	26933.85
1442.31151	27796.55
1445.73673	28604.55
1449.15965	29428.75
1452.58027	29880.75
1455.9986	29968.15
1459.41463	30094.65
1462.82837	30598.65
1466.23982	31469.05
1469.64898	32402.05
1473.05586	32898.45
1476.46045	32880.65
1479.86276	32658.55
1483.26279	32161.55
1486.66054	31657.25
1490.05602	31406.05
1493.44922	31168.95
1496.84016	30643.25
1500.22882	30085.15
1503.61521	29908.05
1506.99934	30237.55
1510.38121	30661.55
1513.76081	30798.35
1517.13816	30148.75
1520.51324	29074.15
1523.88607	28133.75
1527.25665	27741.95
1530.62498	27698.45
1533.99105	27865.15
1537.35488	27944.35
1540.71647	27866.75
1544.07581	27481.85
1547.4329	26870.05
1550.78776	26170.55
1554.14038	25645.25
1557.49077	25270.75
1560.83892	25148.15
1564.18484	25053.15
1567.52853	25006.05
1570.86999	24970.95
1574.20922	25288.05
1577.54624	25597.25
1580.88103	25651.95
1584.2136	25870.55
1587.54395	26857.35
1590.87208	28722.35
1594.19801	31349.85
1597.52172	34252.75
1600.84321	35837.25
1604.16251	34823.25
1607.47959	31789.65
1610.79447	27989.95
1614.10715	24499.35
1617.41763	21816.55
1620.7259	19995.05
1624.03199	19106.55
1627.33587	18948.95
1630.63757	19517.45
1633.93707	21016.35
1637.23439	23587.25
1640.52951	27388.65
1643.82246	32075.15
1647.11321	36068.35
1650.40179	36988.75
1653.68819	34269.95
1656.97241	29167.15
1660.25446	24031.55
1663.53433	20173.55
1666.81203	17626.35
1670.08756	16078.35
1673.36092	15129.95
1676.63211	14505.45
1679.90115	14072.45
1683.16801	13734.35
1686.43272	13495.05
1689.69527	13327.35
1692.95567	13187.55
1696.2139	13117.55
1699.46999	13073.25
1702.72392	12996.15
1705.97571	12912.85
1709.22535	12853.55
1712.47284	12775.25
1715.71819	12746.75
1718.96139	12696.05
1722.20246	12652.65
1725.44139	12557.75
1728.67818	12486.95
1731.91284	12422.75
1735.14537	12353.65
1738.37576	12268.65
1741.60403	12214.65
1744.83017	12186.65
1748.05418	12193.65
1751.27607	12200.75
1754.49584	12178.85
1757.71349	12167.45
1760.92903	12140.35
1764.14244	12079.75
1767.35375	12053.15
1770.56294	12031.75
1773.77002	11977.25
1776.97499	11936.85
1780.17785	11860.65
1783.37861	11839.05
1786.57727	11803.15
1789.77382	11788.35
1792.96828	11755.35
1796.16064	11714.15
1799.3509	11685.95
1802.53907	11686.95
1805.72514	11642.75
1808.90913	11614.25
1812.09102	11577.95
1815.27083	11539.65
1818.44856	11522.45
1821.6242	11512.55
1824.79776	11505.25
1827.96924	11466.85
1831.13864	11464.65
1834.30597	11454.65
1837.47122	11438.45
1840.6344	11433.75
1843.7955	11443.35
1846.95454	11425.75
1850.11151	11444.15
1853.26642	11421.65
1856.41926	11454.85
1859.57004	11451.95
1862.71876	11437.55
1865.86542	11434.85
1869.01003	11429.75
1872.15258	11443.05
1875.29308	11442.45
1878.43152	11413.15
1881.56792	11414.45
1884.70227	11423.95
1887.83457	11442.45
1890.96482	11421.75
1894.09304	11425.95
1897.21921	11417.15
1900.34335	11450.05
1903.46544	11447.85
1906.58551	11411.15
1909.70353	11417.35
1912.81953	11392.55
1915.93349	11342.95
1919.04543	11342.55
1922.15534	11316.25
1925.26322	11261.45
1928.36908	11218.25
1931.47292	11158.65
1934.57473	11117.35
1937.67453	11091.15
1940.77232	11047.15
1943.86808	10998.05
1946.96184	10983.55
1950.05358	10904.55
1953.14331	10884.15
1956.23103	10835.35
1959.31675	10802.05
1962.40046	10768.65
1965.48217	10730.15
1968.56188	10726.25
1971.63959	10638.45
1974.7153	10621.65
1977.78901	10576.95
1980.86073	10545.05
1983.93046	10512.75
1986.99819	10476.45
1990.06394	10416.65
1993.1277	10388.55
1996.18947	10367.15
1999.24925	10338.65
2002.30706	10325.45
2005.36288	10297.25
2008.41672	10262.15
2011.46859	10204.95
2014.51848	10210.75
2017.56639	10165.55
2020.61233	10125.15
2023.6563	10099.45
2026.6983	10120.35
2029.73833	10091.35
2032.7764	10057.95
2035.8125	10043.15
2038.84664	10013.35
2041.87881	10025.15
2044.90903	9999.65
2047.93729	9965.45
2050.96359	10003.05
2053.98794	9988.85
2057.01034	9943.65
2060.03078	9932.75
2063.04927	9913.75
2066.06582	9889.25
2069.08042	9894.65
2072.09307	9859.15
2075.10378	9863.45
2078.11255	9872.05
2081.11938	9867.25
2084.12426	9821.95
2087.12722	9842.55
2090.12824	9816.95
2093.12732	9821.75
2096.12447	9820.45
2099.11969	9819.45
2102.11299	9807.85
2105.10435	9791.75
2108.09379	9808.55
2111.08131	9815.55
2114.0669	9785.15
2117.05057	9819.05
2120.03233	9815.25
2123.01216	9807.05
2125.99008	9800.65
2128.96609	9831.65
2131.94018	9814.75
2134.91236	9807.05
2137.88263	9810.35
2140.851	9783.35
2143.81746	9812.85
2146.78201	9807.05
2149.74466	9800.25
2152.7054	9805.65
2155.66425	9777.95
2158.6212	9766.55
2161.57625	9786.15
2164.52941	9771.05
2167.48067	9767.25
2170.43004	9768.85
2173.37752	9763.95
2176.32311	9749.85
2179.26681	9757.05
2182.20863	9741.75
2185.14856	9765.55
2188.08661	9733.15
2191.02278	9734.95
2193.95707	9745.15
2196.88948	9728.85
2199.82001	9740.45
2202.74867	9700.95
2205.67545	9696.15
2208.60037	9673.85
2211.52341	9703.55
2214.44458	9674.25
2217.36388	9658.85
2220.28132	9633.45
2223.1969	9602.85
2226.11061	9629.95
2229.02246	9582.05
2231.93245	9581.85
2234.84058	9570.05
2237.74686	9547.05
2240.65128	9526.55
2243.55385	9484.15
2246.45456	9498.15
2249.35343	9487.45
2252.25044	9456.25
2255.14561	9431.95
2258.03893	9410.35
2260.93041	9406.35
2263.82004	9355.75
2266.70783	9375.95
2269.59378	9287.55
2272.4779	9288.05
2275.36017	9250.45
2278.24061	9254.35
2281.11922	9225.75
2283.996	9191.25
2286.87094	9176.75
2289.74405	9180.15
2292.61534	9143.55
2295.4848	9155.05
2298.35243	9140.05
2301.21824	9146.55
2304.08223	9153.05
2306.94439	9140.45
2309.80474	9127.35
2312.66327	9124.65
2315.51999	9127.05
2318.37489	9129.95
2321.22797	9119.45
2324.07925	9124.25
2326.92871	9099.75
2329.77637	9092.65
2332.62222	9096.35
2335.46626	9060.65
2338.3085	9071.95
2341.14893	9076.05
2343.98756	9087.75
2346.8244	9097.65
2349.65943	9099.95
2352.49267	9080.05
2355.32411	9084.95
2358.15376	9067.75
2360.98161	9087.05
2363.80768	9079.05
2366.63195	9048.35
2369.45444	9039.15
2372.27514	9015.75
2375.09405	8991.85
2377.91118	8966.55
2380.72652	8946.25
2383.54009	8910.65
2386.35187	8902.15
2389.16188	8867.45
2391.97011	8877.55
2394.77657	8864.75
2397.58125	8841.15
2400.38416	8819.35
2403.18529	8813.45
2405.98466	8798.05
2408.78226	8780.45
2411.57809	8754.25
2414.37216	8744.05
2417.16446	8733.55
2419.955	8716.65
2422.74378	8713.65
2425.5308	8692.95
2428.31606	8694.95
2431.09956	8693.85
2433.88131	8678.65
2436.6613	8666.15
2439.43954	8672.05
2442.21603	8645.45
2444.99077	8646.55
2447.76377	8667.35
2450.53501	8655.45
2453.30451	8678.95
2456.07226	8655.05
2458.83827	8653.95
2461.60254	8647.05
2464.36507	8665.85
2467.12586	8636.65
2469.88492	8657.95
2472.64224	8671.35
2475.39782	8665.85
2478.15167	8695.25
2480.90379	8677.65
2483.65417	8680.35
2486.40283	8665.45
2489.14976	8682.55
2491.89497	8705.05
2494.63845	8687.85
2497.3802	8683.45
2500.12024	8703.35
2502.85855	8674.55
2505.59514	8659.25
2508.33002	8662.25
2511.06318	8665.75
2513.79462	8674.95
2516.52435	8653.85
2519.25237	8638.65
2521.97867	8594.85
2524.70327	8621.85
2527.42616	8621.65
2530.14734	8614.25
2532.86681	8596.15
2535.58458	8601.45
2538.30065	8590.35
2541.01501	8570.35
2543.72768	8570.05
2546.43864	8539.95
2549.14791	8539.75
2551.85548	8537.15
2554.56136	8546.95
2557.26554	8532.25
2559.96803	8524.65
2562.66883	8505.15
2565.36794	8522.55
2568.06536	8525.95
2570.7611	8508.25
2573.45514	8514.55
2576.14751	8517.35
2578.83819	8509.35
2581.52719	8508.95
2584.21451	8495.55
2586.90015	8487.15
2589.58411	8494.15
2592.2664	8509.15
2594.94701	8487.65
2597.62594	8500.35
2600.30321	8479.25
2602.9788	8476.25
2605.65273	8484.65
2608.32498	8473.75
2610.99557	8479.25
2613.66449	8493.05
2616.33175	8502.25
2618.99734	8522.45
2621.66128	8472.95
2624.32355	8508.45
2626.98416	8518.95
2629.64311	8500.35
2632.30041	8506.75
2634.95605	8492.45
2637.61004	8487.85
2640.26238	8501.65
2642.91306	8504.05
2645.56209	8478.25
2648.20948	8483.35
2650.85521	8477.95
2653.4993	8466.45
2656.14175	8486.55
2658.78255	8482.85
2661.42171	8470.85
2664.05923	8497.75
2666.6951	8494.45
2669.32934	8515.25
2671.96194	8502.95
2674.59291	8502.85
2677.22224	8498.45
2679.84993	8512.55
2682.476	8487.45
2685.10043	8471.35
2687.72324	8466.85
2690.34441	8466.45
2692.96396	8469.25
2695.58188	8466.75
2698.19818	8445.05
2700.81285	8464.25
2703.4259	8499.85
2706.03733	8540.95
2708.64714	8498.45
2711.25533	8504.15
2713.86191	8494.65
2716.46687	8493.75
2719.07021	8512.15
2721.67194	8500.95
2724.27206	8474.95
2726.87057	8528.05
2729.46747	8516.15
2732.06276	8510.35
2734.65644	8519.25
2737.24852	8512.85
2739.83899	8511.95
2742.42786	8522.85
2745.01513	8517.45
2747.60079	8494.35
2750.18486	8503.55
2752.76733	8517.05
2755.3482	8486.25
2757.92747	8514.75
2760.50515	8513.85
2763.08123	8515.55
2765.65573	8518.65
2768.22863	8531.25
2770.79994	8516.35
2773.36967	8522.85
2775.9378	8533.35
2778.50435	8530.65
2781.06932	8530.55
2783.6327	8531.05
2786.1945	8522.55
2788.75471	8536.25
2791.31335	8528.25
2793.87041	8516.75
2796.42589	8475.25
2798.97979	8483.15
2801.53212	8461.25
2804.08288	8486.75
2806.63206	8455.95
2809.17967	8440.45
2811.72571	8414.15
2814.27018	8412.75
2816.81308	8393.95
2819.35442	8396.95
2821.89419	8395.85
2824.43239	8369.85
2826.96904	8404.15
2829.50412	8373.95
2832.03763	8356.05
2834.56959	8342.15
2837.1	8324.65
2839.62884	8337.55
2842.15613	8324.65
2844.68186	8340.95
2847.20604	8323.15
2849.72867	8327.85
2852.24974	8334.65
2854.76927	8313.85
2857.28724	8317.25
2859.80367	8313.65
2862.31855	8287.05
2864.83189	8279.15
2867.34368	8285.15
2869.85393	8276.75
2872.36264	8240.65
2874.8698	8249.15
2877.37543	8269.45
2879.87952	8267.45
2882.38207	8269.25
2884.88308	8281.35
2887.38256	8278.75
2889.88051	8289.85
2892.37692	8300.35
2894.8718	8287.95
2897.36515	8298.25
2899.85698	8306.75
2902.34727	8346.15
2904.83604	8336.65
2907.32328	8359.35
2909.809	8349.25
2912.29319	8380.65
2914.77587	8358.45
2917.25702	8372.65
2919.73665	8368.25
2922.21476	8368.85
2924.69136	8375.15
2927.16644	8379.85
2929.64	8360.45
2932.11205	8359.35
2934.58258	8321.75
2937.05161	8333.25
2939.51912	8348.05
2941.98513	8338.95
2944.44962	8308.25
2946.91261	8283.45
2949.37409	8289.35
2951.83407	8268.95
2954.29254	8251.05
2956.74951	8255.55
2959.20498	8230.45
2961.65895	8202.95
2964.11142	8180.45
2966.56239	8134.55
2969.01186	8119.95
2971.45984	8097.75
2973.90632	8059.35
2976.35131	8031.05
2978.7948	8021.35
2981.23681	8015.35
2983.67732	7987.35
2986.11635	7954.55
2988.55388	7930.65
2990.98993	7899.95
2993.4245	7887.45
2995.85758	7895.65
2998.28917	7866.35
3000.71928	7845.75
3003.14791	7832.85
3005.57506	7832.65
3008.00073	7801.25
3010.42493	7788.75
3012.84764	7764.45
3015.26888	7761.65
3017.68865	7731.85
3020.10694	7710.05
3022.52376	7684.55
3024.9391	7686.45
3027.35298	7667.95
3029.76539	7644.15
3032.17632	7659.75
3034.5858	7596.95
3036.9938	7629.65
3039.40034	7626.65
3041.80542	7617.65
3044.20903	7602.35
3046.61118	7616.85
3049.01187	7574.55
3051.4111	7579.95
3053.80888	7542.75
3056.20519	7527.95
3058.60005	7524.45
3060.99345	7508.15
3063.3854	7454.85
3065.7759	7456.25
3068.16494	7418.65
3070.55254	7402.55
3072.93868	7369.15
3075.32338	7336.95
3077.70662	7341.85
3080.08842	7313.65
3082.46878	7315.15
3084.84769	7275.65
3087.22515	7275.95
3089.60118	7266.95
3091.97576	7281.85
3094.3489	7269.25
3096.72061	7277.35
3099.09087	7251.95
3101.4597	7256.35
3103.82709	7240.35
3106.19305	7222.75
3108.55757	7206.85
3110.92066	7177.75
3113.28232	7182.35
3115.64255	7146.55
3118.00134	7136.55
3120.35871	7106.55
3122.71466	7111.25
3125.06917	7114.05
3127.42226	7076.35
3129.77393	7076.95
3132.12417	7069.25
3134.47299	7074.05
3136.82039	7063.85
3139.16636	7071.65
3141.51092	7053.75
3143.85406	7030.55
3146.19579	7035.35
3148.53609	7039.65
3150.87499	7044.65
3153.21246	7018.65
3155.54853	7007.65
3157.88318	7035.95
3160.21642	7015.75
3162.54826	7025.75
3164.87868	7000.45
3167.2077	7010.55
3169.5353	7004.15
3171.86151	7000.55
3174.18631	6979.45
3176.5097	6981.65
3178.83169	6983.05
3181.15228	6979.45
3183.47147	6937.55
3185.78926	6966.55
3188.10565	6960.35
3190.42065	6962.25
3192.73424	6957.45
3195.04645	6969.55
3197.35725	6972.85
3199.66667	6963.05
3201.97469	6974.35
3204.28132	6949.45
3206.58656	6961.15
3208.8904	6963.25
3211.19287	6954.95
3213.49394	6937.75
3215.79363	6943.65
3218.09193	6964.85
3220.38884	6951.45
3222.68438	6957.45
3224.97853	6921.35
3227.2713	6918.75
3229.56269	6906.95
3231.8527	6928.75
3234.14133	6917.75
3236.42858	6903.25
3238.71446	6898.35
3240.99896	6876.15
3243.28209	6881.25
3245.56384	6864.15
3247.84423	6883.25
3250.12324	6851.25
3252.40088	6865.15
3254.67715	6858.35
3256.95205	6820.05
3259.22558	6814.65
3261.49775	6781.95
3263.76855	6804.55
3266.03799	6758.05
3268.30606	6753.85
3270.57277	6732.25
3272.83812	6717.45
3275.10211	6723.85
3277.36474	6719.65
3279.62601	6725.15
3281.88593	6695.95
3284.14448	6723.95
3286.40168	6720.55
3288.65753	6703.75
3290.91202	6701.45
3293.16516	6677.25
3295.41695	6659.45
3297.66738	6619.95
3299.91647	6580.55
3302.16421	6529.25
3304.4106	6512.75
3306.65564	6486.45
3308.89933	6439.25
3311.14169	6402.95
3313.38269	6360.75
3315.62236	6326.35
3317.86068	6256.15
3320.09766	6201.85
3322.3333	6150.65
3324.5676	6159.95
3326.80056	6065.05
3329.03219	6015.55
3331.26248	2.25
3333.49143	0.25
3335.71905	-0.05
