Data from AgNPs_FTO_APTES_UA_0um_CRN_0.1mM_R6G_10uM_NaF_0.1M_Addition_RamanShift__41__10-59-08-943.txt Node

Date: Tue Dec 21 10:59:08 GMT 2021
User: TCL
Spectrometer: QEP01345
Trigger mode: 4
Integration Time (sec): 7.000000E0
Scans to average: 10
Electric dark correction enabled: true
Nonlinearity correction enabled: false
Boxcar width: 0
XAxis mode: Raman Shifts
Number of Pixels in Spectrum: 1044
>>>>>Begin Spectral Data<<<<<
46.04893	-0.85
50.45542	-0.05
54.85868	-1.55
59.25871	0.95
63.6555	42.75
68.04907	50.65
72.43941	51.35
76.82654	50.55
81.21044	56.35
85.59113	56.85
89.96862	58.45
94.34289	60.75
98.71396	61.15
103.08183	62.85
107.4465	70.15
111.80798	71.05
116.16626	68.25
120.52136	68.05
124.87327	73.35
129.222	77.45
133.56755	81.85
137.90993	91.85
142.24913	98.95
146.58517	109.95
150.91804	131.15
155.24774	153.95
159.57429	196.95
163.89768	251.95
168.21792	327.95
172.53501	443.85
176.84895	620.45
181.15975	878.25
185.46741	1218.85
189.77193	1669.55
194.07331	2230.55
198.37157	2860.85
202.6667	3512.35
206.9587	4174.15
211.24758	4847.85
215.53334	5524.15
219.81599	6200.05
224.09553	7000.75
228.37195	7882.65
232.64527	8803.95
236.91549	9773.85
241.18261	10708.65
245.44663	11560.45
249.70755	12291.05
253.96539	12881.35
258.22014	13376.95
262.4718	13762.15
266.72039	14012.85
270.96589	14097.75
275.20832	14004.45
279.44768	13911.45
283.68397	13732.65
287.91719	13602.95
292.14735	13525.65
296.37445	13543.85
300.59849	13615.35
304.81948	13756.75
309.03742	13875.65
313.25231	13916.65
317.46415	13877.45
321.67296	13703.75
325.87872	13587.55
330.08145	13451.35
334.28114	13332.65
338.47781	13302.25
342.67145	13428.05
346.86207	13648.45
351.04966	13929.05
355.23424	14155.25
359.4158	14311.65
363.59435	14400.95
367.76989	14365.15
371.94243	14333.85
376.11196	14255.95
380.27849	14273.95
384.44203	14360.05
388.60257	14522.45
392.76012	14660.75
396.91468	14861.75
401.06626	15096.25
405.21485	15250.05
409.36047	15189.85
413.50311	15114.15
417.64277	15224.85
421.77947	15468.05
425.9132	15673.05
430.04396	15804.35
434.17176	15899.85
438.2966	16062.55
442.41849	16491.45
446.53742	17251.75
450.6534	18034.35
454.76644	18358.05
458.87653	18141.55
462.98368	17650.05
467.08789	17117.25
471.18916	16535.35
475.2875	15929.95
479.38291	15542.65
483.4754	15354.75
487.56496	15215.15
491.6516	15006.35
495.73531	14764.65
499.81612	14658.65
503.89401	14731.05
507.96899	14798.05
512.04106	14655.25
516.11023	14330.95
520.1765	13990.75
524.23987	13797.15
528.30034	13791.75
532.35792	13706.15
536.41261	13472.85
540.46441	13131.95
544.51333	13002.65
548.55936	13171.25
552.60252	13648.45
556.64279	14327.75
560.6802	14955.15
564.71473	15162.65
568.7464	15354.65
572.7752	16030.95
576.80114	16998.35
580.82422	18184.85
584.84444	19974.45
588.86181	22720.45
592.87633	25658.85
596.888	26192.45
600.89682	23342.05
604.9028	20207.45
608.90594	19345.45
612.90624	19595.45
616.90371	17967.35
620.89834	14926.15
624.89015	13490.25
628.87913	13380.25
632.86528	13578.85
636.84862	13473.05
640.82913	12992.35
644.80683	12566.85
648.78172	12420.75
652.75379	12494.35
656.72306	12659.45
660.68952	12754.15
664.65319	12560.95
668.61405	12254.75
672.57211	12206.95
676.52738	12363.65
680.47986	12418.65
684.42955	12255.85
688.37646	12059.25
692.32058	12129.45
696.26192	12447.95
700.20048	12810.35
704.13626	13006.25
708.06928	13157.35
711.99952	13220.25
715.927	13295.05
719.85171	13365.45
723.77365	13196.15
727.69284	12818.75
731.60928	12519.15
735.52295	12419.65
739.43388	12485.05
743.34206	12601.45
747.24749	12755.85
751.15017	13018.25
755.05012	13421.05
758.94733	13917.55
762.8418	14813.55
766.73354	16097.15
770.62254	17171.05
774.50882	17022.75
778.39237	15796.15
782.27321	14507.55
786.15132	13497.65
790.02671	12854.35
793.89938	12552.55
797.76935	12383.55
801.6366	12322.85
805.50115	12300.45
809.36299	12221.65
813.22213	12109.35
817.07857	11962.05
820.93231	11783.25
824.78336	11606.95
828.63172	11498.75
832.47738	11446.35
836.32036	11424.55
840.16066	11494.95
843.99827	11488.95
847.8332	11481.95
851.66546	11480.95
855.49504	11490.45
859.32195	11503.75
863.1462	11424.75
866.96777	11326.65
870.78668	11301.95
874.60293	11276.15
878.41652	11306.25
882.22745	11370.85
886.03573	11411.75
889.84136	11379.85
893.64433	11323.85
897.44466	11273.75
901.24235	11228.45
905.0374	11180.75
908.8298	11147.65
912.61957	11139.45
916.40671	11305.65
920.19121	11568.85
923.97308	11910.95
927.75233	12071.35
931.52895	11831.25
935.30295	11378.85
939.07433	10940.05
942.84309	10673.25
946.60924	10533.85
950.37278	10495.85
954.13371	10528.75
957.89203	10549.65
961.64774	10559.05
965.40086	10563.95
969.15137	10497.45
972.89929	10387.05
976.64461	10282.35
980.38733	10221.15
984.12747	10225.05
987.86502	10220.95
991.59999	10306.85
995.33237	10444.95
999.06217	10739.65
1002.78939	11081.75
1006.51404	11498.75
1010.23611	11933.75
1013.95561	12300.95
1017.67255	12465.05
1021.38692	12277.05
1025.09872	11756.95
1028.80796	11296.85
1032.51465	11162.45
1036.21877	11184.05
1039.92035	11269.05
1043.61937	11326.55
1047.31584	11373.75
1051.00976	11358.15
1054.70114	11357.55
1058.38998	11395.55
1062.07627	11481.35
1065.76003	11635.25
1069.44126	11917.45
1073.11995	12288.45
1076.79611	12568.15
1080.46974	12694.45
1084.14085	12845.85
1087.80943	13133.05
1091.47549	13367.85
1095.13903	13437.15
1098.80005	13097.65
1102.45857	12492.85
1106.11456	12032.45
1109.76805	11881.95
1113.41903	11918.45
1117.06751	12067.05
1120.71348	12261.85
1124.35696	12435.15
1127.99793	12652.45
1131.63641	12829.15
1135.2724	12870.75
1138.90589	12934.35
1142.5369	13128.05
1146.16542	13430.85
1149.79145	13749.15
1153.415	13986.55
1157.03607	14346.25
1160.65467	15103.45
1164.27079	16455.85
1167.88443	17993.75
1171.49561	19535.45
1175.10432	21315.65
1178.71056	23612.75
1182.31434	25552.15
1185.91565	25912.45
1189.51451	24676.25
1193.11091	23105.35
1196.70485	21915.95
1200.29634	20888.45
1203.88538	20246.45
1207.47197	20096.15
1211.05612	20073.35
1214.63782	19601.15
1218.21708	18924.55
1221.79391	18289.75
1225.36829	18107.55
1228.94024	18033.75
1232.50976	17605.75
1236.07685	16816.05
1239.6415	16164.25
1243.20374	15868.05
1246.76355	15918.15
1250.32093	16203.45
1253.8759	16693.85
1257.42845	17358.65
1260.97859	18109.45
1264.52631	18817.35
1268.07163	19572.35
1271.61453	20295.85
1275.15503	21127.45
1278.69312	22231.65
1282.22882	23762.35
1285.76211	25772.95
1289.29301	27960.35
1292.82151	30271.45
1296.34761	32866.15
1299.87133	35890.55
1303.39266	38752.75
1306.9116	41014.15
1310.42815	42495.05
1313.94233	43223.95
1317.45412	42508.75
1320.96354	40576.25
1324.47058	38777.15
1327.97525	37463.65
1331.47754	36540.85
1334.97747	35584.05
1338.47502	34362.25
1341.97022	32804.45
1345.46305	31370.05
1348.95352	30682.25
1352.44163	31290.45
1355.92738	33604.85
1359.41078	37039.55
1362.89183	39849.15
1366.37053	40459.25
1369.84688	37561.75
1373.32088	31866.65
1376.79254	27356.35
1380.26186	25852.35
1383.72883	26042.85
1387.19347	26090.35
1390.65578	25551.65
1394.11575	25472.45
1397.57339	26269.15
1401.0287	27252.15
1404.48168	27989.55
1407.93234	27872.65
1411.38068	26987.35
1414.82669	25657.85
1418.27039	24218.55
1421.71177	22815.85
1425.15083	21514.25
1428.58758	20851.15
1432.02203	21203.35
1435.45416	22217.55
1438.88399	23289.15
1442.31151	23890.75
1445.73673	24247.15
1449.15965	24388.85
1452.58027	24162.45
1455.9986	23629.65
1459.41463	23369.65
1462.82837	23624.45
1466.23982	24383.25
1469.64898	25257.25
1473.05586	25861.45
1476.46045	26188.05
1479.86276	26183.35
1483.26279	25982.55
1486.66054	25854.15
1490.05602	26023.45
1493.44922	26366.85
1496.84016	26435.15
1500.22882	26244.35
1503.61521	26079.35
1506.99934	26024.35
1510.38121	26019.05
1513.76081	25971.35
1517.13816	25746.45
1520.51324	25670.65
1523.88607	25933.95
1527.25665	26621.05
1530.62498	27179.05
1533.99105	27158.65
1537.35488	26478.05
1540.71647	25361.05
1544.07581	23957.65
1547.4329	22536.35
1550.78776	21310.15
1554.14038	20403.15
1557.49077	19794.55
1560.83892	19475.35
1564.18484	19374.75
1567.52853	19480.65
1570.86999	19833.25
1574.20922	20505.95
1577.54624	21187.65
1580.88103	21579.95
1584.2136	22176.15
1587.54395	23601.65
1590.87208	25963.15
1594.19801	28907.05
1597.52172	31638.15
1600.84321	32586.15
1604.16251	30548.65
1607.47959	26593.45
1610.79447	22345.65
1614.10715	18962.35
1617.41763	16675.75
1620.7259	15350.75
1624.03199	14806.45
1627.33587	14948.35
1630.63757	15742.15
1633.93707	17490.05
1637.23439	20607.65
1640.52951	25723.15
1643.82246	32461.55
1647.11321	38432.65
1650.40179	39702.15
1653.68819	35257.85
1656.97241	28027.95
1660.25446	21536.65
1663.53433	17083.25
1666.81203	14389.05
1670.08756	12840.75
1673.36092	11929.85
1676.63211	11322.35
1679.90115	10914.95
1683.16801	10598.25
1686.43272	10401.95
1689.69527	10232.45
1692.95567	10105.15
1696.2139	10027.35
1699.46999	9934.55
1702.72392	9877.95
1705.97571	9827.65
1709.22535	9762.65
1712.47284	9711.95
1715.71819	9699.45
1718.96139	9665.95
1722.20246	9579.55
1725.44139	9499.35
1728.67818	9418.15
1731.91284	9353.25
1735.14537	9265.05
1738.37576	9203.25
1741.60403	9134.35
1744.83017	9093.35
1748.05418	9072.25
1751.27607	9046.85
1754.49584	9040.05
1757.71349	9070.25
1760.92903	9054.85
1764.14244	8999.35
1767.35375	8991.55
1770.56294	8967.25
1773.77002	8894.95
1776.97499	8835.95
1780.17785	8827.65
1783.37861	8823.55
1786.57727	8799.25
1789.77382	8700.85
1792.96828	8668.25
1796.16064	8668.95
1799.3509	8614.45
1802.53907	8577.35
1805.72514	8542.55
1808.90913	8534.65
1812.09102	8509.25
1815.27083	8482.15
1818.44856	8492.15
1821.6242	8456.95
1824.79776	8453.95
1827.96924	8450.45
1831.13864	8441.45
1834.30597	8420.55
1837.47122	8409.35
1840.6344	8430.35
1843.7955	8429.75
1846.95454	8409.55
1850.11151	8406.35
1853.26642	8401.25
1856.41926	8398.55
1859.57004	8424.95
1862.71876	8391.05
1865.86542	8365.85
1869.01003	8345.25
1872.15258	8355.35
1875.29308	8342.05
1878.43152	8328.65
1881.56792	8305.05
1884.70227	8304.25
1887.83457	8299.55
1890.96482	8322.35
1894.09304	8310.65
1897.21921	8284.75
1900.34335	8273.85
1903.46544	8271.95
1906.58551	8216.75
1909.70353	8235.95
1912.81953	8195.35
1915.93349	8201.95
1919.04543	8173.95
1922.15534	8132.65
1925.26322	8101.15
1928.36908	8085.45
1931.47292	8058.05
1934.57473	8009.85
1937.67453	7975.35
1940.77232	7964.25
1943.86808	7932.45
1946.96184	7927.75
1950.05358	7904.55
1953.14331	7887.95
1956.23103	7871.25
1959.31675	7832.45
1962.40046	7806.05
1965.48217	7769.55
1968.56188	7727.45
1971.63959	7700.25
1974.7153	7695.45
1977.78901	7652.25
1980.86073	7642.75
1983.93046	7601.25
1986.99819	7567.85
1990.06394	7552.95
1993.1277	7549.35
1996.18947	7508.15
1999.24925	7473.35
2002.30706	7464.65
2005.36288	7434.55
2008.41672	7421.65
2011.46859	7400.85
2014.51848	7376.05
2017.56639	7335.85
2020.61233	7337.45
2023.6563	7320.55
2026.6983	7314.15
2029.73833	7301.05
2032.7764	7272.75
2035.8125	7249.25
2038.84664	7235.25
2041.87881	7243.45
2044.90903	7209.55
2047.93729	7185.65
2050.96359	7189.45
2053.98794	7178.85
2057.01034	7189.25
2060.03078	7173.15
2063.04927	7156.35
2066.06582	7156.15
2069.08042	7155.35
2072.09307	7141.05
2075.10378	7130.15
2078.11255	7143.45
2081.11938	7145.35
2084.12426	7120.65
2087.12722	7116.15
2090.12824	7134.45
2093.12732	7120.85
2096.12447	7141.75
2099.11969	7135.25
2102.11299	7137.35
2105.10435	7119.05
2108.09379	7108.85
2111.08131	7135.95
2114.0669	7115.75
2117.05057	7110.55
2120.03233	7110.35
2123.01216	7127.15
2125.99008	7112.85
2128.96609	7114.85
2131.94018	7104.75
2134.91236	7085.25
2137.88263	7103.85
2140.851	7102.25
2143.81746	7104.35
2146.78201	7071.95
2149.74466	7068.05
2152.7054	7058.85
2155.66425	7046.25
2158.6212	7049.95
2161.57625	7057.95
2164.52941	7031.55
2167.48067	7034.15
2170.43004	7030.55
2173.37752	7035.45
2176.32311	7053.75
2179.26681	7032.55
2182.20863	7045.95
2185.14856	7029.65
2188.08661	7040.85
2191.02278	7041.85
2193.95707	7034.25
2196.88948	7006.25
2199.82001	7033.25
2202.74867	7020.45
2205.67545	7004.15
2208.60037	6969.05
2211.52341	6937.85
2214.44458	6952.35
2217.36388	6927.55
2220.28132	6910.85
2223.1969	6902.25
2226.11061	6910.05
2229.02246	6896.55
2231.93245	6905.25
2234.84058	6878.25
2237.74686	6888.95
2240.65128	6883.75
2243.55385	6881.15
2246.45456	6869.45
2249.35343	6846.95
2252.25044	6797.85
2255.14561	6784.85
2258.03893	6767.45
2260.93041	6741.35
2263.82004	6707.15
2266.70783	6664.05
2269.59378	6681.35
2272.4779	6637.65
2275.36017	6640.05
2278.24061	6614.85
2281.11922	6599.45
2283.996	6594.45
2286.87094	6578.35
2289.74405	6547.75
2292.61534	6561.95
2295.4848	6565.55
2298.35243	6559.75
2301.21824	6545.85
2304.08223	6549.75
2306.94439	6548.35
2309.80474	6543.35
2312.66327	6523.05
2315.51999	6522.05
2318.37489	6524.65
2321.22797	6506.05
2324.07925	6486.95
2326.92871	6491.55
2329.77637	6481.85
2332.62222	6469.85
2335.46626	6461.55
2338.3085	6469.85
2341.14893	6477.15
2343.98756	6484.45
2346.8244	6470.85
2349.65943	6453.55
2352.49267	6460.65
2355.32411	6453.55
2358.15376	6466.75
2360.98161	6465.35
2363.80768	6473.75
2366.63195	6464.35
2369.45444	6446.05
2372.27514	6445.35
2375.09405	6420.25
2377.91118	6414.65
2380.72652	6393.45
2383.54009	6401.65
2386.35187	6363.65
2389.16188	6358.25
2391.97011	6324.95
2394.77657	6320.35
2397.58125	6332.55
2400.38416	6300.85
2403.18529	6297.85
2405.98466	6295.45
2408.78226	6297.35
2411.57809	6275.45
2414.37216	6266.25
2417.16446	6275.45
2419.955	6260.05
2422.74378	6262.65
2425.5308	6237.35
2428.31606	6227.35
2431.09956	6240.65
2433.88131	6244.95
2436.6613	6247.05
2439.43954	6240.65
2442.21603	6212.05
2444.99077	6222.15
2447.76377	6228.05
2450.53501	6231.15
2453.30451	6254.75
2456.07226	6223.15
2458.83827	6225.95
2461.60254	6236.55
2464.36507	6221.05
2467.12586	6220.75
2469.88492	6217.35
2472.64224	6230.85
2475.39782	6239.25
2478.15167	6247.35
2480.90379	6233.25
2483.65417	6229.45
2486.40283	6222.95
2489.14976	6226.55
2491.89497	6242.15
2494.63845	6243.45
2497.3802	6249.95
2500.12024	6243.85
2502.85855	6218.25
2505.59514	6219.15
2508.33002	6221.05
2511.06318	6195.55
2513.79462	6212.55
2516.52435	6185.45
2519.25237	6198.85
2521.97867	6177.75
2524.70327	6168.65
2527.42616	6171.35
2530.14734	6162.05
2532.86681	6155.65
2535.58458	6138.45
2538.30065	6153.15
2541.01501	6134.15
2543.72768	6141.55
2546.43864	6140.45
2549.14791	6122.15
2551.85548	6129.45
2554.56136	6121.15
2557.26554	6137.05
2559.96803	6133.25
2562.66883	6130.25
2565.36794	6123.85
2568.06536	6138.95
2570.7611	6156.85
2573.45514	6138.15
2576.14751	6136.75
2578.83819	6131.45
2581.52719	6128.15
2584.21451	6125.85
2586.90015	6128.05
2589.58411	6116.35
2592.2664	6114.55
2594.94701	6107.85
2597.62594	6098.55
2600.30321	6119.85
2602.9788	6102.05
2605.65273	6107.25
2608.32498	6124.75
2610.99557	6097.95
2613.66449	6123.75
2616.33175	6119.15
2618.99734	6102.45
2621.66128	6097.85
2624.32355	6098.55
2626.98416	6100.55
2629.64311	6092.35
2632.30041	6094.85
2634.95605	6077.65
2637.61004	6082.25
2640.26238	6085.05
2642.91306	6077.25
2645.56209	6077.45
2648.20948	6069.85
2650.85521	6077.55
2653.4993	6088.05
2656.14175	6092.25
2658.78255	6104.15
2661.42171	6113.55
2664.05923	6113.75
2666.6951	6139.45
2669.32934	6122.15
2671.96194	6129.15
2674.59291	6137.35
2677.22224	6118.95
2679.84993	6124.45
2682.476	6111.75
2685.10043	6113.15
2687.72324	6114.05
2690.34441	6097.85
2692.96396	6113.95
2695.58188	6122.65
2698.19818	6092.25
2700.81285	6096.55
2703.4259	6120.95
2706.03733	6181.35
2708.64714	6157.75
2711.25533	6159.15
2713.86191	6140.35
2716.46687	6166.65
2719.07021	6164.75
2721.67194	6165.55
2724.27206	6147.25
2726.87057	6173.45
2729.46747	6170.15
2732.06276	6198.45
2734.65644	6190.85
2737.24852	6197.45
2739.83899	6161.65
2742.42786	6172.95
2745.01513	6184.65
2747.60079	6190.75
2750.18486	6166.45
2752.76733	6151.85
2755.3482	6157.15
2757.92747	6179.05
2760.50515	6164.75
2763.08123	6173.55
2765.65573	6176.95
2768.22863	6171.75
2770.79994	6168.05
2773.36967	6187.25
2775.9378	6181.95
2778.50435	6183.95
2781.06932	6187.65
2783.6327	6188.95
2786.1945	6189.15
2788.75471	6177.85
2791.31335	6188.55
2793.87041	6170.75
2796.42589	6148.45
2798.97979	6157.35
2801.53212	6139.25
2804.08288	6149.95
2806.63206	6131.35
2809.17967	6143.35
2811.72571	6120.05
2814.27018	6116.55
2816.81308	6116.75
2819.35442	6098.85
2821.89419	6094.95
2824.43239	6095.05
2826.96904	6112.65
2829.50412	6121.35
2832.03763	6076.55
2834.56959	6090.85
2837.1	6106.95
2839.62884	6094.75
2842.15613	6104.65
2844.68186	6099.65
2847.20604	6126.75
2849.72867	6160.85
2852.24974	6137.65
2854.76927	6137.05
2857.28724	6139.85
2859.80367	6120.45
2862.31855	6115.75
2864.83189	6095.15
2867.34368	6089.15
2869.85393	6096.25
2872.36264	6070.65
2874.8698	6043.85
2877.37543	6073.65
2879.87952	6078.45
2882.38207	6081.25
2884.88308	6073.25
2887.38256	6086.85
2889.88051	6071.55
2892.37692	6097.35
2894.8718	6081.65
2897.36515	6103.95
2899.85698	6113.15
2902.34727	6123.45
2904.83604	6122.35
2907.32328	6149.15
2909.809	6128.55
2912.29319	6130.15
2914.77587	6149.95
2917.25702	6140.15
2919.73665	6146.15
2922.21476	6153.25
2924.69136	6140.75
2927.16644	6131.05
2929.64	6146.25
2932.11205	6109.25
2934.58258	6110.85
2937.05161	6133.05
2939.51912	6123.65
2941.98513	6121.85
2944.44962	6102.95
2946.91261	6073.95
2949.37409	6072.65
2951.83407	6073.95
2954.29254	6059.55
2956.74951	6058.55
2959.20498	6033.25
2961.65895	6024.75
2964.11142	6004.85
2966.56239	5962.15
2969.01186	5975.45
2971.45984	5937.15
2973.90632	5914.05
2976.35131	5883.55
2978.7948	5859.25
2981.23681	5842.35
2983.67732	5828.75
2986.11635	5818.15
2988.55388	5791.55
2990.98993	5768.85
2993.4245	5772.65
2995.85758	5740.45
2998.28917	5723.85
3000.71928	5736.75
3003.14791	5712.45
3005.57506	5702.15
3008.00073	5693.75
3010.42493	5669.55
3012.84764	5657.75
3015.26888	5665.55
3017.68865	5643.25
3020.10694	5636.95
3022.52376	5603.65
3024.9391	5587.25
3027.35298	5591.55
3029.76539	5585.05
3032.17632	5570.85
3034.5858	5551.25
3036.9938	5560.65
3039.40034	5553.75
3041.80542	5542.75
3044.20903	5551.05
3046.61118	5543.55
3049.01187	5518.55
3051.4111	5538.35
3053.80888	5515.25
3056.20519	5497.45
3058.60005	5476.15
3060.99345	5470.95
3063.3854	5483.25
3065.7759	5424.95
3068.16494	5421.65
3070.55254	5394.65
3072.93868	5372.55
3075.32338	5376.35
3077.70662	5359.95
3080.08842	5347.35
3082.46878	5331.35
3084.84769	5304.65
3087.22515	5314.25
3089.60118	5312.15
3091.97576	5295.45
3094.3489	5287.25
3096.72061	5288.55
3099.09087	5300.35
3101.4597	5275.15
3103.82709	5265.35
3106.19305	5268.05
3108.55757	5248.05
3110.92066	5232.45
3113.28232	5235.55
3115.64255	5220.15
3118.00134	5207.55
3120.35871	5179.65
3122.71466	5178.05
3125.06917	5164.95
3127.42226	5179.65
3129.77393	5186.95
3132.12417	5155.05
3134.47299	5176.55
3136.82039	5156.55
3139.16636	5166.05
3141.51092	5150.15
3143.85406	5149.25
3146.19579	5137.95
3148.53609	5164.65
3150.87499	5149.85
3153.21246	5144.25
3155.54853	5141.95
3157.88318	5133.05
3160.21642	5138.15
3162.54826	5132.25
3164.87868	5139.15
3167.2077	5109.35
3169.5353	5105.65
3171.86151	5111.55
3174.18631	5130.95
3176.5097	5105.85
3178.83169	5115.75
3181.15228	5121.95
3183.47147	5099.75
3185.78926	5109.05
3188.10565	5087.45
3190.42065	5093.05
3192.73424	5084.85
3195.04645	5092.75
3197.35725	5085.95
3199.66667	5082.55
3201.97469	5062.25
3204.28132	5061.15
3206.58656	5058.35
3208.8904	5051.55
3211.19287	5043.65
3213.49394	5036.75
3215.79363	5033.45
3218.09193	5033.95
3220.38884	5047.15
3222.68438	5070.35
3224.97853	5051.85
3227.2713	5047.35
3229.56269	5049.75
3231.8527	5039.65
3234.14133	5040.75
3236.42858	5030.95
3238.71446	5047.25
3240.99896	5039.75
3243.28209	5014.75
3245.56384	5009.65
3247.84423	5006.75
3250.12324	5004.65
3252.40088	4983.45
3254.67715	4987.55
3256.95205	4980.15
3259.22558	4946.05
3261.49775	4927.45
3263.76855	4920.15
3266.03799	4910.75
3268.30606	4882.85
3270.57277	4874.65
3272.83812	4875.45
3275.10211	4862.85
3277.36474	4881.35
3279.62601	4873.15
3281.88593	4889.45
3284.14448	4891.35
3286.40168	4904.85
3288.65753	4891.95
3290.91202	4893.05
3293.16516	4887.45
3295.41695	4872.65
3297.66738	4842.35
3299.91647	4797.05
3302.16421	4782.35
3304.4106	4749.75
3306.65564	4708.95
3308.89933	4692.85
3311.14169	4645.65
3313.38269	4609.95
3315.62236	4589.05
3317.86068	4535.95
3320.09766	4492.15
3322.3333	4453.45
3324.5676	4446.95
3326.80056	4387.35
3329.03219	4363.15
3331.26248	1.55
3333.49143	-0.15
3335.71905	0.25
