Data from AgNPs_FTO_APTES_UA_0um_CRN_0.1mM_R6G_10uM_NaF_0.1M_Addition_RamanShift__18__10-32-18-912.txt Node

Date: Tue Dec 21 10:32:18 GMT 2021
User: TCL
Spectrometer: QEP01345
Trigger mode: 4
Integration Time (sec): 7.000000E0
Scans to average: 10
Electric dark correction enabled: true
Nonlinearity correction enabled: false
Boxcar width: 0
XAxis mode: Raman Shifts
Number of Pixels in Spectrum: 1044
>>>>>Begin Spectral Data<<<<<
46.04893	-1.2875
50.45542	-0.1875
54.85868	0.8125
59.25871	1.0125
63.6555	14.6125
68.04907	20.7125
72.43941	23.4125
76.82654	20.0125
81.21044	25.3125
85.59113	27.0125
89.96862	27.8125
94.34289	25.7125
98.71396	28.4125
103.08183	31.6125
107.4465	33.3125
111.80798	31.0125
116.16626	31.8125
120.52136	30.7125
124.87327	31.7125
129.222	31.1125
133.56755	32.0125
137.90993	39.6125
142.24913	34.5125
146.58517	38.2125
150.91804	42.1125
155.24774	44.9125
159.57429	50.3125
163.89768	64.7125
168.21792	81.3125
172.53501	98.4125
176.84895	129.4125
181.15975	178.0125
185.46741	239.6125
189.77193	333.3125
194.07331	453.7125
198.37157	596.5125
202.6667	756.3125
206.9587	936.5125
211.24758	1106.2125
215.53334	1292.2125
219.81599	1467.8125
224.09553	1635.6125
228.37195	1809.6125
232.64527	1963.3125
236.91549	2116.2125
241.18261	2252.7125
245.44663	2362.0125
249.70755	2455.0125
253.96539	2505.6125
258.22014	2534.9125
262.4718	2541.7125
266.72039	2518.5125
270.96589	2472.5125
275.20832	2399.9125
279.44768	2322.8125
283.68397	2245.8125
287.91719	2174.7125
292.14735	2115.6125
296.37445	2077.4125
300.59849	2059.3125
304.81948	2059.3125
309.03742	2066.2125
313.25231	2045.6125
317.46415	2005.4125
321.67296	1938.7125
325.87872	1897.1125
330.08145	1873.1125
334.28114	1868.5125
338.47781	1887.5125
342.67145	1906.7125
346.86207	1953.1125
351.04966	1985.5125
355.23424	2034.5125
359.4158	2065.6125
363.59435	2101.7125
367.76989	2101.8125
371.94243	2115.1125
376.11196	2120.1125
380.27849	2117.4125
384.44203	2127.0125
388.60257	2115.1125
392.76012	2114.0125
396.91468	2123.1125
401.06626	2136.2125
405.21485	2155.7125
409.36047	2156.1125
413.50311	2134.2125
417.64277	2101.5125
421.77947	2107.7125
425.9132	2094.1125
430.04396	2102.8125
434.17176	2112.5125
438.2966	2146.9125
442.41849	2188.3125
446.53742	2224.7125
450.6534	2268.7125
454.76644	2295.4125
458.87653	2308.6125
462.98368	2310.3125
467.08789	2276.9125
471.18916	2257.4125
475.2875	2231.8125
479.38291	2211.4125
483.4754	2192.2125
487.56496	2182.7125
491.6516	2187.0125
495.73531	2183.4125
499.81612	2190.9125
503.89401	2197.1125
507.96899	2207.1125
512.04106	2193.2125
516.11023	2199.1125
520.1765	2189.6125
524.23987	2191.5125
528.30034	2177.1125
532.35792	2164.2125
536.41261	2150.3125
540.46441	2135.3125
544.51333	2134.5125
548.55936	2134.5125
552.60252	2139.4125
556.64279	2147.9125
560.6802	2176.4125
564.71473	2181.9125
568.7464	2215.6125
572.7752	2270.8125
576.80114	2270.8125
580.82422	2235.9125
584.84444	2191.0125
588.86181	2174.2125
592.87633	2176.8125
596.888	2208.2125
600.89682	2238.4125
604.9028	2303.1125
608.90594	2506.8125
612.90624	2801.6125
616.90371	2843.8125
620.89834	2504.6125
624.89015	2301.7125
628.87913	2287.3125
632.86528	2319.9125
636.84862	2363.9125
640.82913	2420.5125
644.80683	2477.0125
648.78172	2515.7125
652.75379	2555.7125
656.72306	2509.1125
660.68952	2469.1125
664.65319	2430.0125
668.61405	2431.3125
672.57211	2532.4125
676.52738	2692.5125
680.47986	2882.6125
684.42955	2942.6125
688.37646	2852.0125
692.32058	2702.1125
696.26192	2590.9125
700.20048	2522.6125
704.13626	2486.4125
708.06928	2441.6125
711.99952	2382.8125
715.927	2339.2125
719.85171	2332.6125
723.77365	2341.5125
727.69284	2357.2125
731.60928	2355.7125
735.52295	2363.6125
739.43388	2325.6125
743.34206	2332.2125
747.24749	2342.4125
751.15017	2357.6125
755.05012	2362.8125
758.94733	2406.0125
762.8418	2440.0125
766.73354	2504.0125
770.62254	2589.2125
774.50882	2628.6125
778.39237	2567.1125
782.27321	2424.5125
786.15132	2304.9125
790.02671	2221.4125
793.89938	2201.4125
797.76935	2184.5125
801.6366	2201.4125
805.50115	2215.7125
809.36299	2203.4125
813.22213	2184.1125
817.07857	2167.2125
820.93231	2151.5125
824.78336	2120.4125
828.63172	2134.6125
832.47738	2122.2125
836.32036	2122.6125
840.16066	2115.7125
843.99827	2109.8125
847.8332	2121.4125
851.66546	2124.8125
855.49504	2144.8125
859.32195	2166.1125
863.1462	2197.5125
866.96777	2207.1125
870.78668	2204.7125
874.60293	2178.7125
878.41652	2168.6125
882.22745	2155.8125
886.03573	2142.5125
889.84136	2130.1125
893.64433	2133.6125
897.44466	2129.3125
901.24235	2134.1125
905.0374	2116.6125
908.8298	2138.5125
912.61957	2137.3125
916.40671	2173.7125
920.19121	2224.6125
923.97308	2298.2125
927.75233	2382.8125
931.52895	2430.0125
935.30295	2442.5125
939.07433	2416.2125
942.84309	2344.0125
946.60924	2264.6125
950.37278	2202.7125
954.13371	2169.1125
957.89203	2140.5125
961.64774	2123.7125
965.40086	2102.7125
969.15137	2084.4125
972.89929	2054.8125
976.64461	2032.6125
980.38733	2018.3125
984.12747	1999.2125
987.86502	1995.3125
991.59999	1982.9125
995.33237	1984.0125
999.06217	1990.4125
1002.78939	2007.0125
1006.51404	2016.6125
1010.23611	2032.0125
1013.95561	2032.6125
1017.67255	2047.4125
1021.38692	2037.9125
1025.09872	2047.4125
1028.80796	2037.9125
1032.51465	2043.1125
1036.21877	2058.2125
1039.92035	2079.7125
1043.61937	2092.7125
1047.31584	2111.9125
1051.00976	2136.0125
1054.70114	2129.8125
1058.38998	2113.9125
1062.07627	2080.5125
1065.76003	2054.7125
1069.44126	2025.3125
1073.11995	1984.2125
1076.79611	1976.4125
1080.46974	1966.5125
1084.14085	1967.6125
1087.80943	1976.3125
1091.47549	1982.6125
1095.13903	1966.8125
1098.80005	1947.5125
1102.45857	1925.5125
1106.11456	1926.5125
1109.76805	1917.6125
1113.41903	1950.4125
1117.06751	1981.5125
1120.71348	2002.1125
1124.35696	2043.7125
1127.99793	2067.6125
1131.63641	2082.4125
1135.2724	2076.2125
1138.90589	2031.3125
1142.5369	2019.1125
1146.16542	2007.2125
1149.79145	1990.2125
1153.415	1969.0125
1157.03607	1963.3125
1160.65467	1964.7125
1164.27079	1976.4125
1167.88443	2001.0125
1171.49561	2038.9125
1175.10432	2110.0125
1178.71056	2212.4125
1182.31434	2304.4125
1185.91565	2323.6125
1189.51451	2281.8125
1193.11091	2231.6125
1196.70485	2161.6125
1200.29634	2111.5125
1203.88538	2082.5125
1207.47197	2048.1125
1211.05612	2023.3125
1214.63782	1987.8125
1218.21708	1982.2125
1221.79391	1996.6125
1225.36829	2009.0125
1228.94024	2012.9125
1232.50976	2024.6125
1236.07685	2036.1125
1239.6415	2040.9125
1243.20374	2059.4125
1246.76355	2088.3125
1250.32093	2096.6125
1253.8759	2109.0125
1257.42845	2134.5125
1260.97859	2153.8125
1264.52631	2182.5125
1268.07163	2206.4125
1271.61453	2205.2125
1275.15503	2216.7125
1278.69312	2223.4125
1282.22882	2225.1125
1285.76211	2239.4125
1289.29301	2266.5125
1292.82151	2287.8125
1296.34761	2331.1125
1299.87133	2384.9125
1303.39266	2459.9125
1306.9116	2571.5125
1310.42815	2717.5125
1313.94233	2818.0125
1317.45412	2808.2125
1320.96354	2700.7125
1324.47058	2595.3125
1327.97525	2490.4125
1331.47754	2450.3125
1334.97747	2462.5125
1338.47502	2500.1125
1341.97022	2569.5125
1345.46305	2650.4125
1348.95352	2774.9125
1352.44163	2942.8125
1355.92738	3118.4125
1359.41078	3352.6125
1362.89183	3602.2125
1366.37053	3619.5125
1369.84688	3369.3125
1373.32088	3047.8125
1376.79254	2811.2125
1380.26186	2656.8125
1383.72883	2571.9125
1387.19347	2495.5125
1390.65578	2429.0125
1394.11575	2395.2125
1397.57339	2367.4125
1401.0287	2365.9125
1404.48168	2382.0125
1407.93234	2406.8125
1411.38068	2444.5125
1414.82669	2524.2125
1418.27039	2596.6125
1421.71177	2651.2125
1425.15083	2654.9125
1428.58758	2615.9125
1432.02203	2568.5125
1435.45416	2531.9125
1438.88399	2499.3125
1442.31151	2438.0125
1445.73673	2414.9125
1449.15965	2396.5125
1452.58027	2366.5125
1455.9986	2345.2125
1459.41463	2326.8125
1462.82837	2298.9125
1466.23982	2290.7125
1469.64898	2283.8125
1473.05586	2279.5125
1476.46045	2255.6125
1479.86276	2242.1125
1483.26279	2212.8125
1486.66054	2214.5125
1490.05602	2197.9125
1493.44922	2210.9125
1496.84016	2240.7125
1500.22882	2321.0125
1503.61521	2442.8125
1506.99934	2574.1125
1510.38121	2747.4125
1513.76081	2838.6125
1517.13816	2783.4125
1520.51324	2588.2125
1523.88607	2394.5125
1527.25665	2262.2125
1530.62498	2190.9125
1533.99105	2150.6125
1537.35488	2138.7125
1540.71647	2126.4125
1544.07581	2121.8125
1547.4329	2138.2125
1550.78776	2146.4125
1554.14038	2166.5125
1557.49077	2169.4125
1560.83892	2194.0125
1564.18484	2212.1125
1567.52853	2238.3125
1570.86999	2247.4125
1574.20922	2245.2125
1577.54624	2242.6125
1580.88103	2187.6125
1584.2136	2126.7125
1587.54395	2058.8125
1590.87208	2044.0125
1594.19801	2058.0125
1597.52172	2082.8125
1600.84321	2121.2125
1604.16251	2095.5125
1607.47959	2067.5125
1610.79447	2012.7125
1614.10715	1984.5125
1617.41763	1950.8125
1620.7259	1933.4125
1624.03199	1933.0125
1627.33587	1940.9125
1630.63757	1951.5125
1633.93707	1970.4125
1637.23439	2016.7125
1640.52951	2059.8125
1643.82246	2148.9125
1647.11321	2276.2125
1650.40179	2375.5125
1653.68819	2382.5125
1656.97241	2253.8125
1660.25446	2101.6125
1663.53433	1999.3125
1666.81203	1925.2125
1670.08756	1887.1125
1673.36092	1842.3125
1676.63211	1818.8125
1679.90115	1763.8125
1683.16801	1716.1125
1686.43272	1661.7125
1689.69527	1615.5125
1692.95567	1578.5125
1696.2139	1532.0125
1699.46999	1498.8125
1702.72392	1481.9125
1705.97571	1475.2125
1709.22535	1480.7125
1712.47284	1493.0125
1715.71819	1509.2125
1718.96139	1497.4125
1722.20246	1509.9125
1725.44139	1508.1125
1728.67818	1508.2125
1731.91284	1509.5125
1735.14537	1499.8125
1738.37576	1491.9125
1741.60403	1504.9125
1744.83017	1521.7125
1748.05418	1545.6125
1751.27607	1553.2125
1754.49584	1559.4125
1757.71349	1533.2125
1760.92903	1481.6125
1764.14244	1420.2125
1767.35375	1369.6125
1770.56294	1312.4125
1773.77002	1283.4125
1776.97499	1262.7125
1780.17785	1237.9125
1783.37861	1224.8125
1786.57727	1210.0125
1789.77382	1199.7125
1792.96828	1181.0125
1796.16064	1163.7125
1799.3509	1142.9125
1802.53907	1142.6125
1805.72514	1138.8125
1808.90913	1112.6125
1812.09102	1113.1125
1815.27083	1104.8125
1818.44856	1102.5125
1821.6242	1097.7125
1824.79776	1094.1125
1827.96924	1091.5125
1831.13864	1087.3125
1834.30597	1078.9125
1837.47122	1078.7125
1840.6344	1077.4125
1843.7955	1067.9125
1846.95454	1068.2125
1850.11151	1069.9125
1853.26642	1066.4125
1856.41926	1063.1125
1859.57004	1059.4125
1862.71876	1055.7125
1865.86542	1056.5125
1869.01003	1050.1125
1872.15258	1051.3125
1875.29308	1047.9125
1878.43152	1043.8125
1881.56792	1048.6125
1884.70227	1040.3125
1887.83457	1034.5125
1890.96482	1039.0125
1894.09304	1033.1125
1897.21921	1033.0125
1900.34335	1021.8125
1903.46544	1025.5125
1906.58551	1013.8125
1909.70353	1029.6125
1912.81953	1026.0125
1915.93349	1011.9125
1919.04543	1015.6125
1922.15534	1015.3125
1925.26322	1012.6125
1928.36908	1001.1125
1931.47292	1005.9125
1934.57473	1001.1125
1937.67453	1001.0125
1940.77232	987.4125
1943.86808	991.0125
1946.96184	989.8125
1950.05358	984.4125
1953.14331	974.1125
1956.23103	969.7125
1959.31675	963.1125
1962.40046	961.5125
1965.48217	958.5125
1968.56188	949.3125
1971.63959	947.0125
1974.7153	955.1125
1977.78901	942.4125
1980.86073	944.6125
1983.93046	939.9125
1986.99819	934.1125
1990.06394	927.8125
1993.1277	928.7125
1996.18947	921.3125
1999.24925	924.0125
2002.30706	918.5125
2005.36288	914.4125
2008.41672	913.0125
2011.46859	905.7125
2014.51848	907.3125
2017.56639	894.3125
2020.61233	903.9125
2023.6563	901.6125
2026.6983	891.7125
2029.73833	895.5125
2032.7764	891.5125
2035.8125	891.4125
2038.84664	886.3125
2041.87881	883.2125
2044.90903	876.8125
2047.93729	879.0125
2050.96359	880.3125
2053.98794	873.1125
2057.01034	873.3125
2060.03078	875.8125
2063.04927	872.3125
2066.06582	862.0125
2069.08042	870.4125
2072.09307	869.9125
2075.10378	863.7125
2078.11255	862.1125
2081.11938	869.4125
2084.12426	862.1125
2087.12722	856.2125
2090.12824	866.4125
2093.12732	861.1125
2096.12447	865.4125
2099.11969	857.9125
2102.11299	859.4125
2105.10435	864.9125
2108.09379	864.5125
2111.08131	865.1125
2114.0669	857.1125
2117.05057	855.7125
2120.03233	857.4125
2123.01216	859.2125
2125.99008	854.4125
2128.96609	853.9125
2131.94018	853.1125
2134.91236	852.9125
2137.88263	850.3125
2140.851	852.6125
2143.81746	847.0125
2146.78201	848.6125
2149.74466	845.9125
2152.7054	845.9125
2155.66425	841.7125
2158.6212	841.8125
2161.57625	846.7125
2164.52941	844.6125
2167.48067	836.4125
2170.43004	833.4125
2173.37752	837.2125
2176.32311	836.7125
2179.26681	834.2125
2182.20863	829.1125
2185.14856	832.7125
2188.08661	836.5125
2191.02278	829.7125
2193.95707	828.2125
2196.88948	832.2125
2199.82001	823.9125
2202.74867	825.5125
2205.67545	816.3125
2208.60037	826.4125
2211.52341	820.8125
2214.44458	818.9125
2217.36388	814.1125
2220.28132	813.7125
2223.1969	811.2125
2226.11061	808.5125
2229.02246	802.1125
2231.93245	796.2125
2234.84058	791.8125
2237.74686	794.2125
2240.65128	787.0125
2243.55385	793.2125
2246.45456	791.2125
2249.35343	786.8125
2252.25044	787.5125
2255.14561	780.2125
2258.03893	779.5125
2260.93041	780.6125
2263.82004	774.3125
2266.70783	776.0125
2269.59378	772.9125
2272.4779	771.7125
2275.36017	764.3125
2278.24061	770.4125
2281.11922	765.8125
2283.996	764.3125
2286.87094	760.7125
2289.74405	752.9125
2292.61534	757.3125
2295.4848	756.8125
2298.35243	760.3125
2301.21824	751.1125
2304.08223	746.5125
2306.94439	753.2125
2309.80474	740.1125
2312.66327	743.1125
2315.51999	740.8125
2318.37489	744.9125
2321.22797	735.5125
2324.07925	741.0125
2326.92871	741.9125
2329.77637	741.2125
2332.62222	738.6125
2335.46626	734.4125
2338.3085	732.0125
2341.14893	729.8125
2343.98756	727.1125
2346.8244	722.0125
2349.65943	719.5125
2352.49267	727.1125
2355.32411	723.8125
2358.15376	728.6125
2360.98161	724.4125
2363.80768	721.1125
2366.63195	725.2125
2369.45444	712.3125
2372.27514	722.2125
2375.09405	722.4125
2377.91118	720.5125
2380.72652	710.7125
2383.54009	713.2125
2386.35187	708.5125
2389.16188	706.9125
2391.97011	698.5125
2394.77657	702.8125
2397.58125	700.7125
2400.38416	702.2125
2403.18529	705.4125
2405.98466	699.7125
2408.78226	688.5125
2411.57809	694.8125
2414.37216	692.5125
2417.16446	688.4125
2419.955	687.9125
2422.74378	689.1125
2425.5308	689.7125
2428.31606	682.4125
2431.09956	689.3125
2433.88131	682.0125
2436.6613	685.5125
2439.43954	681.3125
2442.21603	676.2125
2444.99077	678.6125
2447.76377	676.9125
2450.53501	675.3125
2453.30451	680.4125
2456.07226	679.4125
2458.83827	672.6125
2461.60254	662.8125
2464.36507	665.0125
2467.12586	668.4125
2469.88492	669.7125
2472.64224	664.5125
2475.39782	663.8125
2478.15167	662.7125
2480.90379	661.8125
2483.65417	664.8125
2486.40283	659.7125
2489.14976	663.3125
2491.89497	661.1125
2494.63845	661.4125
2497.3802	658.8125
2500.12024	656.2125
2502.85855	653.9125
2505.59514	651.7125
2508.33002	646.6125
2511.06318	641.9125
2513.79462	645.4125
2516.52435	646.1125
2519.25237	640.1125
2521.97867	634.0125
2524.70327	640.2125
2527.42616	645.0125
2530.14734	634.1125
2532.86681	638.2125
2535.58458	632.0125
2538.30065	625.0125
2541.01501	630.8125
2543.72768	623.4125
2546.43864	628.0125
2549.14791	631.1125
2551.85548	623.8125
2554.56136	619.4125
2557.26554	613.7125
2559.96803	625.4125
2562.66883	625.3125
2565.36794	619.8125
2568.06536	617.2125
2570.7611	615.3125
2573.45514	617.2125
2576.14751	619.6125
2578.83819	611.6125
2581.52719	612.5125
2584.21451	603.8125
2586.90015	605.5125
2589.58411	604.8125
2592.2664	604.6125
2594.94701	599.9125
2597.62594	603.3125
2600.30321	600.0125
2602.9788	593.0125
2605.65273	597.1125
2608.32498	593.7125
2610.99557	593.1125
2613.66449	600.3125
2616.33175	594.4125
2618.99734	592.1125
2621.66128	590.2125
2624.32355	587.3125
2626.98416	591.0125
2629.64311	586.4125
2632.30041	580.6125
2634.95605	593.4125
2637.61004	583.9125
2640.26238	579.1125
2642.91306	583.7125
2645.56209	580.6125
2648.20948	577.8125
2650.85521	575.6125
2653.4993	579.0125
2656.14175	584.3125
2658.78255	583.7125
2661.42171	588.7125
2664.05923	585.8125
2666.6951	580.6125
2669.32934	583.9125
2671.96194	584.1125
2674.59291	581.3125
2677.22224	588.7125
2679.84993	588.3125
2682.476	581.1125
2685.10043	586.9125
2687.72324	582.2125
2690.34441	584.3125
2692.96396	582.5125
2695.58188	584.1125
2698.19818	583.7125
2700.81285	584.8125
2703.4259	585.3125
2706.03733	578.9125
2708.64714	580.3125
2711.25533	584.3125
2713.86191	582.1125
2716.46687	588.4125
2719.07021	593.5125
2721.67194	589.9125
2724.27206	588.1125
2726.87057	585.9125
2729.46747	591.9125
2732.06276	587.8125
2734.65644	588.5125
2737.24852	583.0125
2739.83899	590.1125
2742.42786	579.0125
2745.01513	581.2125
2747.60079	587.7125
2750.18486	583.0125
2752.76733	583.8125
2755.3482	583.1125
2757.92747	583.0125
2760.50515	587.4125
2763.08123	580.3125
2765.65573	580.4125
2768.22863	589.4125
2770.79994	581.9125
2773.36967	591.2125
2775.9378	591.1125
2778.50435	588.2125
2781.06932	590.5125
2783.6327	587.9125
2786.1945	592.6125
2788.75471	594.8125
2791.31335	596.1125
2793.87041	594.9125
2796.42589	596.3125
2798.97979	606.7125
2801.53212	609.7125
2804.08288	614.1125
2806.63206	610.7125
2809.17967	616.2125
2811.72571	618.7125
2814.27018	627.3125
2816.81308	624.0125
2819.35442	628.2125
2821.89419	638.8125
2824.43239	635.9125
2826.96904	640.7125
2829.50412	639.9125
2832.03763	639.1125
2834.56959	639.4125
2837.1	643.0125
2839.62884	641.5125
2842.15613	650.3125
2844.68186	656.0125
2847.20604	651.6125
2849.72867	669.8125
2852.24974	665.5125
2854.76927	666.4125
2857.28724	672.0125
2859.80367	674.3125
2862.31855	671.9125
2864.83189	672.7125
2867.34368	681.9125
2869.85393	689.8125
2872.36264	690.8125
2874.8698	699.0125
2877.37543	709.9125
2879.87952	728.3125
2882.38207	734.6125
2884.88308	747.0125
2887.38256	760.6125
2889.88051	765.0125
2892.37692	779.0125
2894.8718	779.0125
2897.36515	803.7125
2899.85698	819.9125
2902.34727	841.3125
2904.83604	840.0125
2907.32328	860.6125
2909.809	873.3125
2912.29319	887.3125
2914.77587	898.5125
2917.25702	914.3125
2919.73665	923.5125
2922.21476	934.4125
2924.69136	946.6125
2927.16644	960.0125
2929.64	964.3125
2932.11205	977.6125
2934.58258	968.8125
2937.05161	973.3125
2939.51912	977.5125
2941.98513	972.9125
2944.44962	967.1125
2946.91261	965.0125
2949.37409	947.4125
2951.83407	939.4125
2954.29254	926.1125
2956.74951	914.9125
2959.20498	897.4125
2961.65895	860.6125
2964.11142	841.1125
2966.56239	821.3125
2969.01186	810.3125
2971.45984	785.2125
2973.90632	768.0125
2976.35131	754.7125
2978.7948	741.9125
2981.23681	732.4125
2983.67732	717.9125
2986.11635	719.4125
2988.55388	703.1125
2990.98993	696.5125
2993.4245	697.0125
2995.85758	690.3125
2998.28917	687.6125
3000.71928	697.9125
3003.14791	686.8125
3005.57506	692.7125
3008.00073	680.9125
3010.42493	680.5125
3012.84764	677.1125
3015.26888	675.6125
3017.68865	669.9125
3020.10694	665.6125
3022.52376	661.2125
3024.9391	654.9125
3027.35298	648.8125
3029.76539	636.1125
3032.17632	631.8125
3034.5858	624.1125
3036.9938	619.3125
3039.40034	613.3125
3041.80542	604.0125
3044.20903	606.2125
3046.61118	601.1125
3049.01187	595.2125
3051.4111	590.3125
3053.80888	584.6125
3056.20519	585.0125
3058.60005	585.8125
3060.99345	577.2125
3063.3854	582.6125
3065.7759	583.4125
3068.16494	579.2125
3070.55254	581.9125
3072.93868	577.4125
3075.32338	584.8125
3077.70662	576.7125
3080.08842	587.9125
3082.46878	586.5125
3084.84769	585.4125
3087.22515	592.2125
3089.60118	595.9125
3091.97576	592.4125
3094.3489	595.0125
3096.72061	594.3125
3099.09087	600.8125
3101.4597	605.3125
3103.82709	612.4125
3106.19305	612.2125
3108.55757	611.9125
3110.92066	612.9125
3113.28232	613.5125
3115.64255	620.7125
3118.00134	618.4125
3120.35871	624.6125
3122.71466	625.3125
3125.06917	630.1125
3127.42226	632.0125
3129.77393	633.7125
3132.12417	638.4125
3134.47299	639.8125
3136.82039	645.1125
3139.16636	644.4125
3141.51092	654.0125
3143.85406	657.7125
3146.19579	660.5125
3148.53609	668.9125
3150.87499	675.7125
3153.21246	679.8125
3155.54853	687.1125
3157.88318	687.8125
3160.21642	689.6125
3162.54826	695.0125
3164.87868	701.4125
3167.2077	697.5125
3169.5353	705.0125
3171.86151	707.6125
3174.18631	720.1125
3176.5097	719.7125
3178.83169	717.9125
3181.15228	726.1125
3183.47147	733.4125
3185.78926	730.5125
3188.10565	730.6125
3190.42065	742.0125
3192.73424	740.5125
3195.04645	742.7125
3197.35725	748.3125
3199.66667	762.0125
3201.97469	761.2125
3204.28132	755.6125
3206.58656	766.6125
3208.8904	764.2125
3211.19287	766.1125
3213.49394	767.3125
3215.79363	776.4125
3218.09193	776.9125
3220.38884	780.7125
3222.68438	779.9125
3224.97853	780.7125
3227.2713	784.7125
3229.56269	787.7125
3231.8527	793.1125
3234.14133	784.7125
3236.42858	789.3125
3238.71446	786.4125
3240.99896	790.9125
3243.28209	790.1125
3245.56384	795.4125
3247.84423	793.7125
3250.12324	785.5125
3252.40088	802.8125
3254.67715	794.4125
3256.95205	794.8125
3259.22558	796.9125
3261.49775	796.1125
3263.76855	789.9125
3266.03799	798.1125
3268.30606	794.1125
3270.57277	793.6125
3272.83812	784.5125
3275.10211	794.4125
3277.36474	789.3125
3279.62601	798.1125
3281.88593	796.4125
3284.14448	800.6125
3286.40168	799.9125
3288.65753	786.7125
3290.91202	797.9125
3293.16516	796.3125
3295.41695	790.0125
3297.66738	791.9125
3299.91647	783.8125
3302.16421	785.2125
3304.4106	786.6125
3306.65564	785.1125
3308.89933	781.4125
3311.14169	778.2125
3313.38269	770.1125
3315.62236	767.3125
3317.86068	763.2125
3320.09766	763.6125
3322.3333	763.9125
3324.5676	758.6125
3326.80056	739.7125
3329.03219	738.2125
3331.26248	0.8125
3333.49143	-1.0875
3335.71905	0.1125
