Data from AgNPs_FTO_APTES_UA_0um_CRN_0.1mM_R6G_10uM_NaF_0.1M_Addition_RamanShift__28__10-43-58-925.txt Node

Date: Tue Dec 21 10:43:58 GMT 2021
User: TCL
Spectrometer: QEP01345
Trigger mode: 4
Integration Time (sec): 7.000000E0
Scans to average: 10
Electric dark correction enabled: true
Nonlinearity correction enabled: false
Boxcar width: 0
XAxis mode: Raman Shifts
Number of Pixels in Spectrum: 1044
>>>>>Begin Spectral Data<<<<<
46.04893	-0.7875
50.45542	-0.9875
54.85868	0.5125
59.25871	1.6125
63.6555	20.2125
68.04907	22.0125
72.43941	23.1125
76.82654	26.8125
81.21044	29.2125
85.59113	33.1125
89.96862	30.7125
94.34289	29.6125
98.71396	29.5125
103.08183	32.2125
107.4465	34.2125
111.80798	33.8125
116.16626	36.0125
120.52136	35.4125
124.87327	34.9125
129.222	35.3125
133.56755	34.4125
137.90993	39.7125
142.24913	37.9125
146.58517	38.0125
150.91804	41.8125
155.24774	44.6125
159.57429	51.2125
163.89768	63.2125
168.21792	75.6125
172.53501	98.1125
176.84895	125.6125
181.15975	172.6125
185.46741	234.7125
189.77193	321.6125
194.07331	432.0125
198.37157	545.0125
202.6667	674.7125
206.9587	794.4125
211.24758	917.2125
215.53334	1044.2125
219.81599	1164.4125
224.09553	1317.7125
228.37195	1472.4125
232.64527	1654.5125
236.91549	1831.9125
241.18261	2015.7125
245.44663	2165.3125
249.70755	2290.7125
253.96539	2385.8125
258.22014	2430.5125
262.4718	2442.3125
266.72039	2444.6125
270.96589	2424.8125
275.20832	2395.5125
279.44768	2331.9125
283.68397	2278.1125
287.91719	2217.0125
292.14735	2205.9125
296.37445	2221.8125
300.59849	2320.5125
304.81948	2435.8125
309.03742	2545.1125
313.25231	2555.8125
317.46415	2428.7125
321.67296	2207.8125
325.87872	2026.8125
330.08145	1926.8125
334.28114	1924.5125
338.47781	1975.9125
342.67145	2038.6125
346.86207	2150.5125
351.04966	2321.8125
355.23424	2521.7125
359.4158	2666.7125
363.59435	2751.0125
367.76989	2761.9125
371.94243	2759.4125
376.11196	2730.7125
380.27849	2691.6125
384.44203	2639.9125
388.60257	2555.2125
392.76012	2523.4125
396.91468	2517.9125
401.06626	2590.4125
405.21485	2633.2125
409.36047	2601.9125
413.50311	2434.0125
417.64277	2286.6125
421.77947	2196.4125
425.9132	2157.0125
430.04396	2155.1125
434.17176	2179.6125
438.2966	2226.0125
442.41849	2289.9125
446.53742	2387.6125
450.6534	2467.5125
454.76644	2527.6125
458.87653	2522.1125
462.98368	2471.1125
467.08789	2408.9125
471.18916	2338.1125
475.2875	2263.6125
479.38291	2196.9125
483.4754	2153.4125
487.56496	2110.3125
491.6516	2099.9125
495.73531	2087.8125
499.81612	2095.7125
503.89401	2121.5125
507.96899	2170.6125
512.04106	2229.0125
516.11023	2307.4125
520.1765	2352.1125
524.23987	2338.2125
528.30034	2285.5125
532.35792	2197.0125
536.41261	2120.2125
540.46441	2047.2125
544.51333	2005.9125
548.55936	1997.7125
552.60252	2025.8125
556.64279	2096.3125
560.6802	2134.2125
564.71473	2173.9125
568.7464	2308.9125
572.7752	2381.1125
576.80114	2279.7125
580.82422	2130.9125
584.84444	2045.3125
588.86181	2023.9125
592.87633	2036.8125
596.888	2084.5125
600.89682	2178.4125
604.9028	2489.5125
608.90594	3284.2125
612.90624	4425.1125
616.90371	4473.6125
620.89834	3122.3125
624.89015	2329.8125
628.87913	2123.9125
632.86528	2075.7125
636.84862	2103.7125
640.82913	2110.7125
644.80683	2036.4125
648.78172	2010.0125
652.75379	2059.8125
656.72306	2231.7125
660.68952	2399.4125
664.65319	2329.3125
668.61405	2100.3125
672.57211	2000.6125
676.52738	2026.1125
680.47986	2053.5125
684.42955	2039.7125
688.37646	2036.5125
692.32058	2069.1125
696.26192	2135.5125
700.20048	2225.5125
704.13626	2286.2125
708.06928	2247.2125
711.99952	2139.5125
715.927	2062.0125
719.85171	2035.0125
723.77365	2024.7125
727.69284	2004.4125
731.60928	1979.4125
735.52295	1983.8125
739.43388	2000.5125
743.34206	2008.3125
747.24749	2001.5125
751.15017	2019.3125
755.05012	2067.2125
758.94733	2191.5125
762.8418	2413.6125
766.73354	2803.8125
770.62254	3247.4125
774.50882	3582.9125
778.39237	3567.8125
782.27321	3106.0125
786.15132	2548.2125
790.02671	2230.1125
793.89938	2119.1125
797.76935	2073.7125
801.6366	2055.4125
805.50115	2029.0125
809.36299	2042.7125
813.22213	2019.3125
817.07857	2014.3125
820.93231	2008.1125
824.78336	2000.1125
828.63172	2002.9125
832.47738	2008.1125
836.32036	1992.2125
840.16066	1990.4125
843.99827	1980.6125
847.8332	1997.7125
851.66546	2017.5125
855.49504	2059.9125
859.32195	2056.7125
863.1462	2047.0125
866.96777	1996.0125
870.78668	1969.6125
874.60293	1942.0125
878.41652	1936.9125
882.22745	1942.9125
886.03573	1940.3125
889.84136	1948.3125
893.64433	1935.3125
897.44466	1941.7125
901.24235	1932.0125
905.0374	1909.9125
908.8298	1901.1125
912.61957	1899.4125
916.40671	1919.5125
920.19121	1962.7125
923.97308	1987.4125
927.75233	2034.8125
931.52895	2060.1125
935.30295	2031.3125
939.07433	1950.1125
942.84309	1859.1125
946.60924	1769.1125
950.37278	1745.6125
954.13371	1711.3125
957.89203	1690.1125
961.64774	1667.1125
965.40086	1642.9125
969.15137	1639.1125
972.89929	1628.5125
976.64461	1626.1125
980.38733	1626.7125
984.12747	1630.4125
987.86502	1629.0125
991.59999	1630.6125
995.33237	1633.4125
999.06217	1649.9125
1002.78939	1681.6125
1006.51404	1704.0125
1010.23611	1743.7125
1013.95561	1773.0125
1017.67255	1791.0125
1021.38692	1775.0125
1025.09872	1760.6125
1028.80796	1763.9125
1032.51465	1814.1125
1036.21877	1918.4125
1039.92035	2038.9125
1043.61937	2103.4125
1047.31584	2070.3125
1051.00976	2003.3125
1054.70114	1920.4125
1058.38998	1837.5125
1062.07627	1794.7125
1065.76003	1766.7125
1069.44126	1751.6125
1073.11995	1783.1125
1076.79611	1835.1125
1080.46974	1909.7125
1084.14085	1983.3125
1087.80943	2029.4125
1091.47549	2024.1125
1095.13903	1952.8125
1098.80005	1865.8125
1102.45857	1777.6125
1106.11456	1767.7125
1109.76805	1808.9125
1113.41903	1887.2125
1117.06751	1995.7125
1120.71348	2116.5125
1124.35696	2286.2125
1127.99793	2411.7125
1131.63641	2364.6125
1135.2724	2173.2125
1138.90589	1993.2125
1142.5369	1896.3125
1146.16542	1829.3125
1149.79145	1797.8125
1153.415	1798.6125
1157.03607	1843.1125
1160.65467	1913.0125
1164.27079	1973.4125
1167.88443	2075.7125
1171.49561	2249.7125
1175.10432	2562.8125
1178.71056	2995.9125
1182.31434	3261.8125
1185.91565	3301.2125
1189.51451	3191.4125
1193.11091	3025.7125
1196.70485	2816.3125
1200.29634	2631.0125
1203.88538	2460.9125
1207.47197	2210.9125
1211.05612	2031.1125
1214.63782	1938.5125
1218.21708	1881.4125
1221.79391	1860.5125
1225.36829	1849.0125
1228.94024	1859.2125
1232.50976	1861.3125
1236.07685	1891.1125
1239.6415	1927.0125
1243.20374	1981.6125
1246.76355	2013.5125
1250.32093	2071.7125
1253.8759	2146.4125
1257.42845	2247.3125
1260.97859	2345.9125
1264.52631	2462.3125
1268.07163	2560.1125
1271.61453	2624.4125
1275.15503	2648.1125
1278.69312	2597.8125
1282.22882	2571.2125
1285.76211	2621.6125
1289.29301	2704.1125
1292.82151	2795.9125
1296.34761	2868.2125
1299.87133	2998.1125
1303.39266	3218.5125
1306.9116	3575.7125
1310.42815	4003.5125
1313.94233	4237.5125
1317.45412	4075.5125
1320.96354	3675.5125
1324.47058	3261.7125
1327.97525	2908.2125
1331.47754	2710.1125
1334.97747	2653.0125
1338.47502	2710.0125
1341.97022	2857.3125
1345.46305	3060.2125
1348.95352	3407.0125
1352.44163	3862.7125
1355.92738	4489.1125
1359.41078	5291.2125
1362.89183	5884.9125
1366.37053	5639.0125
1369.84688	4794.4125
1373.32088	3945.1125
1376.79254	3347.6125
1380.26186	2942.3125
1383.72883	2684.5125
1387.19347	2484.2125
1390.65578	2316.0125
1394.11575	2167.7125
1397.57339	2087.6125
1401.0287	2056.6125
1404.48168	2060.0125
1407.93234	2088.5125
1411.38068	2109.9125
1414.82669	2162.7125
1418.27039	2201.1125
1421.71177	2217.8125
1425.15083	2240.0125
1428.58758	2251.4125
1432.02203	2273.9125
1435.45416	2303.2125
1438.88399	2309.0125
1442.31151	2264.3125
1445.73673	2253.0125
1449.15965	2209.7125
1452.58027	2160.3125
1455.9986	2094.1125
1459.41463	2051.4125
1462.82837	2060.9125
1466.23982	2084.6125
1469.64898	2132.3125
1473.05586	2174.6125
1476.46045	2184.4125
1479.86276	2229.4125
1483.26279	2274.6125
1486.66054	2333.8125
1490.05602	2386.5125
1493.44922	2499.8125
1496.84016	2713.4125
1500.22882	3088.7125
1503.61521	3596.2125
1506.99934	4133.1125
1510.38121	4631.4125
1513.76081	4877.3125
1517.13816	4581.6125
1520.51324	3857.9125
1523.88607	3142.5125
1527.25665	2684.4125
1530.62498	2445.0125
1533.99105	2326.1125
1537.35488	2247.6125
1540.71647	2213.1125
1544.07581	2224.8125
1547.4329	2233.7125
1550.78776	2271.2125
1554.14038	2292.1125
1557.49077	2337.4125
1560.83892	2398.6125
1564.18484	2479.1125
1567.52853	2609.4125
1570.86999	2755.9125
1574.20922	2849.7125
1577.54624	2833.1125
1580.88103	2631.5125
1584.2136	2344.5125
1587.54395	2160.8125
1590.87208	2148.8125
1594.19801	2258.9125
1597.52172	2426.8125
1600.84321	2495.5125
1604.16251	2383.3125
1607.47959	2224.1125
1610.79447	2053.2125
1614.10715	1890.9125
1617.41763	1794.2125
1620.7259	1728.7125
1624.03199	1703.8125
1627.33587	1709.3125
1630.63757	1731.2125
1633.93707	1780.9125
1637.23439	1873.8125
1640.52951	2037.4125
1643.82246	2305.7125
1647.11321	2644.6125
1650.40179	2952.8125
1653.68819	2942.5125
1656.97241	2557.5125
1660.25446	2127.2125
1663.53433	1817.1125
1666.81203	1642.6125
1670.08756	1557.8125
1673.36092	1486.5125
1676.63211	1467.6125
1679.90115	1431.0125
1683.16801	1413.6125
1686.43272	1386.3125
1689.69527	1361.7125
1692.95567	1348.4125
1696.2139	1359.5125
1699.46999	1353.6125
1702.72392	1337.5125
1705.97571	1317.5125
1709.22535	1311.7125
1712.47284	1316.5125
1715.71819	1318.4125
1718.96139	1332.7125
1722.20246	1336.1125
1725.44139	1319.0125
1728.67818	1296.3125
1731.91284	1266.8125
1735.14537	1230.0125
1738.37576	1210.8125
1741.60403	1181.1125
1744.83017	1167.7125
1748.05418	1152.2125
1751.27607	1140.2125
1754.49584	1137.2125
1757.71349	1123.3125
1760.92903	1109.1125
1764.14244	1090.6125
1767.35375	1081.4125
1770.56294	1075.1125
1773.77002	1063.3125
1776.97499	1036.2125
1780.17785	1030.6125
1783.37861	1017.5125
1786.57727	1013.0125
1789.77382	1006.2125
1792.96828	998.8125
1796.16064	991.2125
1799.3509	985.5125
1802.53907	984.0125
1805.72514	978.3125
1808.90913	961.8125
1812.09102	960.4125
1815.27083	956.5125
1818.44856	955.6125
1821.6242	948.5125
1824.79776	943.4125
1827.96924	934.4125
1831.13864	940.2125
1834.30597	937.1125
1837.47122	932.6125
1840.6344	924.5125
1843.7955	927.2125
1846.95454	916.5125
1850.11151	921.8125
1853.26642	910.9125
1856.41926	916.9125
1859.57004	913.0125
1862.71876	907.0125
1865.86542	907.5125
1869.01003	908.3125
1872.15258	914.9125
1875.29308	904.5125
1878.43152	906.3125
1881.56792	897.2125
1884.70227	897.1125
1887.83457	893.3125
1890.96482	894.9125
1894.09304	894.7125
1897.21921	900.8125
1900.34335	886.2125
1903.46544	889.5125
1906.58551	888.7125
1909.70353	888.2125
1912.81953	882.1125
1915.93349	881.1125
1919.04543	874.0125
1922.15534	875.1125
1925.26322	873.2125
1928.36908	870.6125
1931.47292	864.4125
1934.57473	860.0125
1937.67453	866.5125
1940.77232	850.1125
1943.86808	855.9125
1946.96184	846.5125
1950.05358	846.0125
1953.14331	838.5125
1956.23103	838.9125
1959.31675	837.7125
1962.40046	840.6125
1965.48217	833.2125
1968.56188	828.8125
1971.63959	829.1125
1974.7153	832.4125
1977.78901	826.9125
1980.86073	817.6125
1983.93046	811.0125
1986.99819	814.7125
1990.06394	809.1125
1993.1277	799.6125
1996.18947	795.3125
1999.24925	794.1125
2002.30706	794.7125
2005.36288	784.3125
2008.41672	790.9125
2011.46859	782.9125
2014.51848	782.2125
2017.56639	781.4125
2020.61233	776.2125
2023.6563	769.7125
2026.6983	773.3125
2029.73833	764.7125
2032.7764	765.8125
2035.8125	757.3125
2038.84664	760.3125
2041.87881	755.3125
2044.90903	753.9125
2047.93729	751.3125
2050.96359	750.1125
2053.98794	747.2125
2057.01034	751.3125
2060.03078	747.0125
2063.04927	746.7125
2066.06582	740.2125
2069.08042	741.0125
2072.09307	741.2125
2075.10378	739.5125
2078.11255	739.5125
2081.11938	737.2125
2084.12426	738.8125
2087.12722	734.6125
2090.12824	744.0125
2093.12732	743.3125
2096.12447	738.0125
2099.11969	748.1125
2102.11299	739.6125
2105.10435	744.0125
2108.09379	750.3125
2111.08131	740.5125
2114.0669	748.9125
2117.05057	737.4125
2120.03233	737.6125
2123.01216	737.0125
2125.99008	743.0125
2128.96609	730.1125
2131.94018	731.7125
2134.91236	730.4125
2137.88263	733.1125
2140.851	733.5125
2143.81746	723.0125
2146.78201	732.9125
2149.74466	727.7125
2152.7054	724.5125
2155.66425	719.9125
2158.6212	720.2125
2161.57625	716.9125
2164.52941	723.8125
2167.48067	719.3125
2170.43004	716.5125
2173.37752	717.6125
2176.32311	712.6125
2179.26681	712.0125
2182.20863	712.1125
2185.14856	715.8125
2188.08661	711.1125
2191.02278	712.1125
2193.95707	714.0125
2196.88948	710.8125
2199.82001	708.5125
2202.74867	694.8125
2205.67545	706.0125
2208.60037	703.4125
2211.52341	701.2125
2214.44458	700.9125
2217.36388	695.1125
2220.28132	695.4125
2223.1969	691.4125
2226.11061	690.8125
2229.02246	681.5125
2231.93245	685.4125
2234.84058	685.7125
2237.74686	682.6125
2240.65128	678.5125
2243.55385	675.3125
2246.45456	680.7125
2249.35343	670.1125
2252.25044	674.2125
2255.14561	678.1125
2258.03893	677.7125
2260.93041	686.3125
2263.82004	672.3125
2266.70783	673.8125
2269.59378	670.1125
2272.4779	671.6125
2275.36017	665.3125
2278.24061	665.4125
2281.11922	657.5125
2283.996	657.5125
2286.87094	667.2125
2289.74405	652.8125
2292.61534	651.0125
2295.4848	649.5125
2298.35243	646.6125
2301.21824	647.2125
2304.08223	652.8125
2306.94439	644.5125
2309.80474	639.7125
2312.66327	644.6125
2315.51999	647.2125
2318.37489	634.9125
2321.22797	634.5125
2324.07925	638.4125
2326.92871	647.1125
2329.77637	641.7125
2332.62222	637.2125
2335.46626	628.9125
2338.3085	631.1125
2341.14893	637.1125
2343.98756	635.6125
2346.8244	629.4125
2349.65943	627.1125
2352.49267	628.6125
2355.32411	629.7125
2358.15376	636.4125
2360.98161	641.3125
2363.80768	635.5125
2366.63195	637.7125
2369.45444	633.0125
2372.27514	639.3125
2375.09405	643.9125
2377.91118	642.7125
2380.72652	629.8125
2383.54009	631.0125
2386.35187	626.6125
2389.16188	630.9125
2391.97011	624.0125
2394.77657	612.1125
2397.58125	613.9125
2400.38416	613.8125
2403.18529	612.4125
2405.98466	610.6125
2408.78226	609.1125
2411.57809	604.3125
2414.37216	601.9125
2417.16446	600.3125
2419.955	602.4125
2422.74378	602.8125
2425.5308	603.2125
2428.31606	600.1125
2431.09956	599.3125
2433.88131	603.3125
2436.6613	599.6125
2439.43954	602.3125
2442.21603	603.2125
2444.99077	598.5125
2447.76377	604.0125
2450.53501	603.9125
2453.30451	603.9125
2456.07226	597.8125
2458.83827	600.0125
2461.60254	599.3125
2464.36507	599.6125
2467.12586	597.2125
2469.88492	596.6125
2472.64224	604.4125
2475.39782	601.3125
2478.15167	610.9125
2480.90379	603.7125
2483.65417	610.4125
2486.40283	611.6125
2489.14976	609.0125
2491.89497	613.1125
2494.63845	619.5125
2497.3802	622.2125
2500.12024	613.8125
2502.85855	608.2125
2505.59514	601.9125
2508.33002	601.0125
2511.06318	598.5125
2513.79462	595.6125
2516.52435	590.3125
2519.25237	587.4125
2521.97867	585.6125
2524.70327	581.0125
2527.42616	585.4125
2530.14734	579.0125
2532.86681	585.7125
2535.58458	584.2125
2538.30065	581.5125
2541.01501	583.5125
2543.72768	586.0125
2546.43864	586.0125
2549.14791	581.6125
2551.85548	584.5125
2554.56136	584.8125
2557.26554	592.0125
2559.96803	589.4125
2562.66883	591.9125
2565.36794	586.0125
2568.06536	588.3125
2570.7611	592.6125
2573.45514	585.5125
2576.14751	592.4125
2578.83819	582.1125
2581.52719	587.1125
2584.21451	582.6125
2586.90015	581.7125
2589.58411	579.0125
2592.2664	581.5125
2594.94701	580.8125
2597.62594	578.1125
2600.30321	575.1125
2602.9788	575.4125
2605.65273	580.1125
2608.32498	576.4125
2610.99557	580.7125
2613.66449	580.5125
2616.33175	576.4125
2618.99734	580.3125
2621.66128	574.4125
2624.32355	577.9125
2626.98416	579.0125
2629.64311	571.2125
2632.30041	567.3125
2634.95605	576.3125
2637.61004	573.0125
2640.26238	577.2125
2642.91306	571.5125
2645.56209	567.9125
2648.20948	574.8125
2650.85521	575.8125
2653.4993	573.5125
2656.14175	582.6125
2658.78255	589.6125
2661.42171	592.0125
2664.05923	592.9125
2666.6951	601.2125
2669.32934	595.2125
2671.96194	608.8125
2674.59291	605.8125
2677.22224	613.2125
2679.84993	628.7125
2682.476	623.4125
2685.10043	632.7125
2687.72324	638.8125
2690.34441	639.8125
2692.96396	651.1125
2695.58188	657.6125
2698.19818	665.2125
2700.81285	676.0125
2703.4259	706.6125
2706.03733	743.2125
2708.64714	722.3125
2711.25533	716.3125
2713.86191	721.0125
2716.46687	730.5125
2719.07021	726.0125
2721.67194	728.9125
2724.27206	719.5125
2726.87057	712.8125
2729.46747	707.9125
2732.06276	701.3125
2734.65644	700.3125
2737.24852	693.5125
2739.83899	688.7125
2742.42786	692.6125
2745.01513	685.2125
2747.60079	680.8125
2750.18486	688.8125
2752.76733	690.5125
2755.3482	687.5125
2757.92747	698.4125
2760.50515	695.0125
2763.08123	701.3125
2765.65573	713.1125
2768.22863	729.0125
2770.79994	737.7125
2773.36967	755.4125
2775.9378	766.0125
2778.50435	783.1125
2781.06932	807.9125
2783.6327	818.1125
2786.1945	845.8125
2788.75471	869.0125
2791.31335	898.5125
2793.87041	915.9125
2796.42589	940.9125
2798.97979	975.2125
2801.53212	1012.4125
2804.08288	1042.9125
2806.63206	1071.4125
2809.17967	1103.6125
2811.72571	1139.1125
2814.27018	1163.5125
2816.81308	1179.7125
2819.35442	1183.3125
2821.89419	1193.7125
2824.43239	1184.3125
2826.96904	1170.6125
2829.50412	1162.5125
2832.03763	1155.0125
2834.56959	1149.0125
2837.1	1157.3125
2839.62884	1176.8125
2842.15613	1219.9125
2844.68186	1285.8125
2847.20604	1341.2125
2849.72867	1396.5125
2852.24974	1410.2125
2854.76927	1406.3125
2857.28724	1405.9125
2859.80367	1387.4125
2862.31855	1352.7125
2864.83189	1335.6125
2867.34368	1318.8125
2869.85393	1296.7125
2872.36264	1287.2125
2874.8698	1276.0125
2877.37543	1258.8125
2879.87952	1258.1125
2882.38207	1251.2125
2884.88308	1246.4125
2887.38256	1244.6125
2889.88051	1242.8125
2892.37692	1249.4125
2894.8718	1257.0125
2897.36515	1252.6125
2899.85698	1262.4125
2902.34727	1256.0125
2904.83604	1255.6125
2907.32328	1254.5125
2909.809	1253.9125
2912.29319	1256.4125
2914.77587	1252.4125
2917.25702	1237.9125
2919.73665	1233.8125
2922.21476	1228.3125
2924.69136	1220.6125
2927.16644	1214.0125
2929.64	1198.2125
2932.11205	1160.9125
2934.58258	1132.6125
2937.05161	1099.6125
2939.51912	1071.4125
2941.98513	1022.6125
2944.44962	983.5125
2946.91261	937.6125
2949.37409	908.0125
2951.83407	872.5125
2954.29254	843.5125
2956.74951	818.3125
2959.20498	797.1125
2961.65895	786.0125
2964.11142	767.1125
2966.56239	749.6125
2969.01186	745.3125
2971.45984	738.5125
2973.90632	716.1125
2976.35131	708.8125
2978.7948	704.5125
2981.23681	698.3125
2983.67732	686.1125
2986.11635	680.4125
2988.55388	674.7125
2990.98993	660.6125
2993.4245	651.4125
2995.85758	642.5125
2998.28917	633.0125
3000.71928	641.7125
3003.14791	627.0125
3005.57506	633.1125
3008.00073	625.6125
3010.42493	614.3125
3012.84764	607.4125
3015.26888	616.4125
3017.68865	614.6125
3020.10694	610.3125
3022.52376	613.0125
3024.9391	610.9125
3027.35298	610.6125
3029.76539	609.4125
3032.17632	611.5125
3034.5858	608.5125
3036.9938	614.9125
3039.40034	606.0125
3041.80542	608.0125
3044.20903	603.5125
3046.61118	603.6125
3049.01187	602.9125
3051.4111	604.4125
3053.80888	604.1125
3056.20519	601.1125
3058.60005	601.8125
3060.99345	608.9125
3063.3854	610.6125
3065.7759	613.2125
3068.16494	611.2125
3070.55254	604.5125
3072.93868	608.3125
3075.32338	610.4125
3077.70662	603.6125
3080.08842	603.3125
3082.46878	604.6125
3084.84769	589.7125
3087.22515	595.2125
3089.60118	598.6125
3091.97576	597.4125
3094.3489	597.1125
3096.72061	637.2125
3099.09087	598.3125
3101.4597	596.2125
3103.82709	596.6125
3106.19305	600.2125
3108.55757	599.1125
3110.92066	604.2125
3113.28232	601.0125
3115.64255	601.6125
3118.00134	602.2125
3120.35871	609.7125
3122.71466	611.8125
3125.06917	614.4125
3127.42226	620.5125
3129.77393	623.1125
3132.12417	632.6125
3134.47299	635.7125
3136.82039	638.7125
3139.16636	640.5125
3141.51092	647.8125
3143.85406	651.8125
3146.19579	657.1125
3148.53609	654.0125
3150.87499	664.4125
3153.21246	668.2125
3155.54853	682.2125
3157.88318	683.5125
3160.21642	689.6125
3162.54826	691.1125
3164.87868	696.6125
3167.2077	699.9125
3169.5353	699.6125
3171.86151	705.0125
3174.18631	716.9125
3176.5097	711.8125
3178.83169	713.8125
3181.15228	729.7125
3183.47147	730.4125
3185.78926	730.2125
3188.10565	734.1125
3190.42065	735.5125
3192.73424	749.3125
3195.04645	747.8125
3197.35725	749.8125
3199.66667	750.4125
3201.97469	755.9125
3204.28132	753.0125
3206.58656	766.2125
3208.8904	757.7125
3211.19287	762.8125
3213.49394	766.9125
3215.79363	780.2125
3218.09193	774.1125
3220.38884	782.9125
3222.68438	785.9125
3224.97853	785.9125
3227.2713	782.1125
3229.56269	784.2125
3231.8527	793.0125
3234.14133	787.3125
3236.42858	789.2125
3238.71446	787.3125
3240.99896	785.1125
3243.28209	789.4125
3245.56384	792.5125
3247.84423	793.2125
3250.12324	789.3125
3252.40088	790.1125
3254.67715	790.5125
3256.95205	803.3125
3259.22558	795.9125
3261.49775	795.9125
3263.76855	793.0125
3266.03799	791.3125
3268.30606	795.6125
3270.57277	797.7125
3272.83812	791.2125
3275.10211	800.2125
3277.36474	797.2125
3279.62601	798.3125
3281.88593	792.5125
3284.14448	801.7125
3286.40168	799.9125
3288.65753	800.3125
3290.91202	801.3125
3293.16516	799.7125
3295.41695	797.7125
3297.66738	790.5125
3299.91647	792.9125
3302.16421	784.4125
3304.4106	782.3125
3306.65564	778.9125
3308.89933	779.4125
3311.14169	776.7125
3313.38269	779.4125
3315.62236	769.7125
3317.86068	769.9125
3320.09766	750.8125
3322.3333	757.4125
3324.5676	757.5125
3326.80056	756.8125
3329.03219	754.4125
3331.26248	0.0125
3333.49143	-0.2875
3335.71905	0.1125
