Data from AgNPs_FTO_APTES_UA_5um_CRN_0.1mM_R6G_10uM_NaF_0.1M_Addition_RamanShift__19__13-19-09-103.txt Node

Date: Tue Dec 21 13:19:09 GMT 2021
User: TCL
Spectrometer: QEP01345
Trigger mode: 4
Integration Time (sec): 7.000000E0
Scans to average: 10
Electric dark correction enabled: true
Nonlinearity correction enabled: false
Boxcar width: 0
XAxis mode: Raman Shifts
Number of Pixels in Spectrum: 1044
>>>>>Begin Spectral Data<<<<<
46.04893	-0.35
50.45542	-0.85
54.85868	-0.35
59.25871	0.25
63.6555	49.35
68.04907	53.05
72.43941	55.35
76.82654	55.75
81.21044	60.05
85.59113	60.65
89.96862	65.45
94.34289	65.15
98.71396	66.85
103.08183	70.35
107.4465	74.85
111.80798	76.95
116.16626	77.15
120.52136	77.85
124.87327	81.25
129.222	81.95
133.56755	92.25
137.90993	101.95
142.24913	103.05
146.58517	119.65
150.91804	140.45
155.24774	159.95
159.57429	201.35
163.89768	258.25
168.21792	336.05
172.53501	460.05
176.84895	637.05
181.15975	900.75
185.46741	1260.15
189.77193	1736.05
194.07331	2311.25
198.37157	3007.65
202.6667	3722.35
206.9587	4445.95
211.24758	5154.55
215.53334	5843.95
219.81599	6607.75
224.09553	7414.15
228.37195	8328.35
232.64527	9317.65
236.91549	10382.85
241.18261	11445.65
245.44663	12426.25
249.70755	13308.15
253.96539	14070.25
258.22014	14690.15
262.4718	15187.95
266.72039	15494.85
270.96589	15637.65
275.20832	15678.35
279.44768	15561.85
283.68397	15464.45
287.91719	15385.65
292.14735	15312.45
296.37445	15340.75
300.59849	15321.95
304.81948	15398.05
309.03742	15277.95
313.25231	15050.75
317.46415	14694.65
321.67296	14280.05
325.87872	13910.65
330.08145	13723.55
334.28114	13649.45
338.47781	13754.65
342.67145	13937.55
346.86207	14161.05
351.04966	14387.55
355.23424	14691.55
359.4158	14935.05
363.59435	15138.25
367.76989	15276.45
371.94243	15355.15
376.11196	15427.95
380.27849	15495.85
384.44203	15637.25
388.60257	15797.25
392.76012	15933.85
396.91468	16158.65
401.06626	16436.15
405.21485	16615.55
409.36047	16594.65
413.50311	16379.45
417.64277	16188.25
421.77947	16107.45
425.9132	16126.75
430.04396	16248.25
434.17176	16358.35
438.2966	16513.45
442.41849	16804.65
446.53742	17277.65
450.6534	17818.95
454.76644	18273.35
458.87653	18401.45
462.98368	18364.35
467.08789	18161.95
471.18916	17915.85
475.2875	17779.35
479.38291	17787.05
483.4754	17745.05
487.56496	17586.55
491.6516	17265.55
495.73531	16967.85
499.81612	16802.65
503.89401	16774.85
507.96899	16797.35
512.04106	16650.05
516.11023	16458.55
520.1765	16288.45
524.23987	16175.75
528.30034	16118.05
532.35792	16089.25
536.41261	15976.35
540.46441	15806.45
544.51333	15711.15
548.55936	15797.45
552.60252	16045.95
556.64279	16395.75
560.6802	16686.55
564.71473	16886.15
568.7464	17168.45
572.7752	17584.25
576.80114	17901.35
580.82422	18144.15
584.84444	18415.15
588.86181	18684.35
592.87633	19115.25
596.888	19331.15
600.89682	19270.65
604.9028	19609.55
608.90594	20919.45
612.90624	22232.95
616.90371	20776.15
620.89834	17472.05
624.89015	15982.05
628.87913	15861.05
632.86528	16090.05
636.84862	16180.05
640.82913	16018.65
644.80683	15590.35
648.78172	15201.85
652.75379	15035.35
656.72306	15134.95
660.68952	15350.25
664.65319	15340.75
668.61405	15229.95
672.57211	15267.65
676.52738	15434.75
680.47986	15456.05
684.42955	15350.35
688.37646	15197.05
692.32058	15106.05
696.26192	15131.55
700.20048	15258.05
704.13626	15360.35
708.06928	15299.85
711.99952	15214.25
715.927	15147.85
719.85171	15113.25
723.77365	15113.95
727.69284	15064.35
731.60928	14992.55
735.52295	14987.35
739.43388	14992.85
743.34206	15013.65
747.24749	15053.05
751.15017	15137.95
755.05012	15297.25
758.94733	15722.85
762.8418	16508.45
766.73354	17781.15
770.62254	19048.25
774.50882	19487.75
778.39237	18701.55
782.27321	17252.25
786.15132	15969.65
790.02671	15153.95
793.89938	14710.45
797.76935	14528.75
801.6366	14489.45
805.50115	14497.65
809.36299	14452.05
813.22213	14311.95
817.07857	14234.25
820.93231	14164.95
824.78336	14088.45
828.63172	14034.75
832.47738	13990.35
836.32036	13992.85
840.16066	13959.65
843.99827	13973.75
847.8332	13898.35
851.66546	13858.85
855.49504	13890.95
859.32195	13908.35
863.1462	13964.45
866.96777	13939.05
870.78668	13923.55
874.60293	13895.65
878.41652	13887.55
882.22745	13905.45
886.03573	13972.45
889.84136	13960.85
893.64433	13919.75
897.44466	13824.15
901.24235	13718.75
905.0374	13577.95
908.8298	13515.15
912.61957	13507.55
916.40671	13608.95
920.19121	13751.25
923.97308	13969.95
927.75233	13984.95
931.52895	13917.15
935.30295	13750.15
939.07433	13484.65
942.84309	13264.15
946.60924	13151.85
950.37278	13081.25
954.13371	13079.85
957.89203	13014.05
961.64774	12968.35
965.40086	12928.55
969.15137	12853.55
972.89929	12776.45
976.64461	12674.75
980.38733	12626.65
984.12747	12668.35
987.86502	12753.15
991.59999	12852.55
995.33237	13076.05
999.06217	13410.75
1002.78939	13835.15
1006.51404	14161.55
1010.23611	14386.15
1013.95561	14537.55
1017.67255	14576.25
1021.38692	14420.75
1025.09872	14138.25
1028.80796	13999.35
1032.51465	14140.35
1036.21877	14352.55
1039.92035	14448.05
1043.61937	14428.95
1047.31584	14273.65
1051.00976	14097.55
1054.70114	14015.15
1058.38998	14013.55
1062.07627	14055.45
1065.76003	14154.35
1069.44126	14316.65
1073.11995	14486.75
1076.79611	14655.05
1080.46974	14683.05
1084.14085	14704.55
1087.80943	14834.45
1091.47549	14989.55
1095.13903	15079.15
1098.80005	14925.25
1102.45857	14594.95
1106.11456	14292.65
1109.76805	14171.15
1113.41903	14190.35
1117.06751	14297.65
1120.71348	14520.45
1124.35696	14742.65
1127.99793	14980.65
1131.63641	15168.05
1135.2724	15170.15
1138.90589	15069.85
1142.5369	14936.95
1146.16542	14912.85
1149.79145	14873.55
1153.415	15029.25
1157.03607	15196.45
1160.65467	15577.45
1164.27079	16266.05
1167.88443	17176.95
1171.49561	18278.15
1175.10432	19692.05
1178.71056	21434.05
1182.31434	23074.65
1185.91565	23921.65
1189.51451	23943.35
1193.11091	23351.75
1196.70485	22371.75
1200.29634	21286.55
1203.88538	20375.55
1207.47197	19749.85
1211.05612	19249.55
1214.63782	18843.55
1218.21708	18549.15
1221.79391	18374.25
1225.36829	18254.55
1228.94024	18004.35
1232.50976	17657.15
1236.07685	17325.25
1239.6415	17113.85
1243.20374	17072.45
1246.76355	17134.15
1250.32093	17311.95
1253.8759	17723.15
1257.42845	18291.75
1260.97859	18804.95
1264.52631	19333.85
1268.07163	19867.95
1271.61453	20483.05
1275.15503	21119.25
1278.69312	21823.45
1282.22882	22468.05
1285.76211	23145.75
1289.29301	23968.25
1292.82151	25024.25
1296.34761	26263.85
1299.87133	27813.25
1303.39266	29455.45
1306.9116	31083.25
1310.42815	32664.75
1313.94233	33776.55
1317.45412	33983.15
1320.96354	33557.35
1324.47058	32964.35
1327.97525	32366.35
1331.47754	31844.75
1334.97747	31608.55
1338.47502	31425.35
1341.97022	31227.05
1345.46305	30723.35
1348.95352	30169.15
1352.44163	29951.65
1355.92738	30343.85
1359.41078	31341.75
1362.89183	32194.25
1366.37053	31797.15
1369.84688	29586.05
1373.32088	26615.75
1376.79254	24332.75
1380.26186	23329.85
1383.72883	23056.65
1387.19347	23029.75
1390.65578	22910.85
1394.11575	23047.65
1397.57339	23559.25
1401.0287	24295.55
1404.48168	24956.65
1407.93234	25201.65
1411.38068	24962.05
1414.82669	24140.55
1418.27039	22990.15
1421.71177	21770.75
1425.15083	20710.35
1428.58758	20060.55
1432.02203	19971.95
1435.45416	20296.85
1438.88399	20840.75
1442.31151	21378.85
1445.73673	21907.75
1449.15965	22373.15
1452.58027	22783.25
1455.9986	23006.75
1459.41463	23233.45
1462.82837	23650.05
1466.23982	24151.15
1469.64898	24648.35
1473.05586	24831.65
1476.46045	24769.25
1479.86276	24560.15
1483.26279	24239.75
1486.66054	24013.65
1490.05602	23926.85
1493.44922	23994.15
1496.84016	23978.05
1500.22882	24100.45
1503.61521	24419.55
1506.99934	25074.75
1510.38121	25691.35
1513.76081	25814.45
1517.13816	25230.95
1520.51324	24327.15
1523.88607	23413.05
1527.25665	22960.65
1530.62498	22742.45
1533.99105	22679.35
1537.35488	22561.95
1540.71647	22324.35
1544.07581	21947.85
1547.4329	21427.95
1550.78776	21011.75
1554.14038	20640.05
1557.49077	20548.65
1560.83892	20527.55
1564.18484	20612.05
1567.52853	20648.25
1570.86999	20741.85
1574.20922	20982.05
1577.54624	21171.35
1580.88103	21247.75
1584.2136	21338.25
1587.54395	21863.75
1590.87208	22911.25
1594.19801	24395.15
1597.52172	25942.55
1600.84321	26612.75
1604.16251	25790.45
1607.47959	23752.85
1610.79447	21491.85
1614.10715	19388.35
1617.41763	17719.05
1620.7259	16546.85
1624.03199	15913.35
1627.33587	15828.45
1630.63757	16229.95
1633.93707	17218.65
1637.23439	18853.65
1640.52951	21358.25
1643.82246	24386.15
1647.11321	26949.55
1650.40179	27778.15
1653.68819	26187.75
1656.97241	22997.95
1660.25446	19541.65
1663.53433	16844.55
1666.81203	15026.65
1670.08756	13896.15
1673.36092	13194.05
1676.63211	12734.55
1679.90115	12419.05
1683.16801	12182.75
1686.43272	11973.05
1689.69527	11831.65
1692.95567	11716.05
1696.2139	11657.35
1699.46999	11606.45
1702.72392	11541.65
1705.97571	11494.75
1709.22535	11428.35
1712.47284	11381.45
1715.71819	11361.85
1718.96139	11306.45
1722.20246	11259.45
1725.44139	11213.55
1728.67818	11135.35
1731.91284	11108.05
1735.14537	11050.45
1738.37576	11036.55
1741.60403	10976.85
1744.83017	10950.15
1748.05418	10938.15
1751.27607	10921.15
1754.49584	10956.55
1757.71349	10926.85
1760.92903	10900.85
1764.14244	10853.25
1767.35375	10806.95
1770.56294	10766.75
1773.77002	10715.45
1776.97499	10667.15
1780.17785	10608.35
1783.37861	10611.55
1786.57727	10555.85
1789.77382	10519.75
1792.96828	10505.95
1796.16064	10478.15
1799.3509	10461.55
1802.53907	10436.45
1805.72514	10395.45
1808.90913	10364.95
1812.09102	10339.95
1815.27083	10323.05
1818.44856	10288.95
1821.6242	10240.35
1824.79776	10264.55
1827.96924	10248.75
1831.13864	10228.15
1834.30597	10207.45
1837.47122	10198.85
1840.6344	10214.05
1843.7955	10199.45
1846.95454	10195.55
1850.11151	10184.15
1853.26642	10183.75
1856.41926	10199.15
1859.57004	10206.55
1862.71876	10179.65
1865.86542	10171.15
1869.01003	10164.65
1872.15258	10170.15
1875.29308	10150.15
1878.43152	10135.05
1881.56792	10116.25
1884.70227	10131.85
1887.83457	10097.15
1890.96482	10107.35
1894.09304	10092.75
1897.21921	10098.55
1900.34335	10091.65
1903.46544	10087.95
1906.58551	10061.25
1909.70353	10053.35
1912.81953	10034.95
1915.93349	10009.05
1919.04543	9984.75
1922.15534	9970.35
1925.26322	9916.05
1928.36908	9894.85
1931.47292	9848.55
1934.57473	9829.65
1937.67453	9797.65
1940.77232	9779.95
1943.86808	9746.95
1946.96184	9718.35
1950.05358	9680.05
1953.14331	9658.45
1956.23103	9602.45
1959.31675	9574.45
1962.40046	9543.15
1965.48217	9535.15
1968.56188	9504.15
1971.63959	9458.45
1974.7153	9426.55
1977.78901	9400.45
1980.86073	9339.85
1983.93046	9336.35
1986.99819	9309.85
1990.06394	9271.05
1993.1277	9228.55
1996.18947	9202.75
1999.24925	9194.15
2002.30706	9153.95
2005.36288	9142.45
2008.41672	9097.05
2011.46859	9076.55
2014.51848	9076.25
2017.56639	9016.65
2020.61233	9003.75
2023.6563	8992.95
2026.6983	8987.65
2029.73833	8932.95
2032.7764	8949.15
2035.8125	8908.65
2038.84664	8906.85
2041.87881	8886.55
2044.90903	8872.25
2047.93729	8886.15
2050.96359	8865.85
2053.98794	8835.75
2057.01034	8828.85
2060.03078	8816.95
2063.04927	8791.55
2066.06582	8773.15
2069.08042	8781.65
2072.09307	8760.15
2075.10378	8769.55
2078.11255	8745.65
2081.11938	8763.15
2084.12426	8750.35
2087.12722	8712.25
2090.12824	8726.35
2093.12732	8709.75
2096.12447	8699.15
2099.11969	8697.95
2102.11299	8700.45
2105.10435	8706.75
2108.09379	8714.25
2111.08131	8716.45
2114.0669	8727.25
2117.05057	8710.35
2120.03233	8718.85
2123.01216	8707.95
2125.99008	8724.05
2128.96609	8737.15
2131.94018	8714.25
2134.91236	8755.65
2137.88263	8743.95
2140.851	8721.45
2143.81746	8730.25
2146.78201	8732.15
2149.74466	8733.65
2152.7054	8721.25
2155.66425	8707.15
2158.6212	8726.95
2161.57625	8702.35
2164.52941	8712.25
2167.48067	8672.75
2170.43004	8694.75
2173.37752	8681.65
2176.32311	8681.55
2179.26681	8677.65
2182.20863	8675.85
2185.14856	8672.25
2188.08661	8674.95
2191.02278	8677.85
2193.95707	8643.55
2196.88948	8655.65
2199.82001	8668.75
2202.74867	8633.85
2205.67545	8627.85
2208.60037	8615.45
2211.52341	8615.25
2214.44458	8608.35
2217.36388	8573.25
2220.28132	8569.35
2223.1969	8534.55
2226.11061	8544.45
2229.02246	8527.65
2231.93245	8506.15
2234.84058	8502.35
2237.74686	8471.05
2240.65128	8453.55
2243.55385	8445.15
2246.45456	8446.35
2249.35343	8411.75
2252.25044	8421.75
2255.14561	8376.15
2258.03893	8394.05
2260.93041	8377.45
2263.82004	8343.75
2266.70783	8317.35
2269.59378	8276.45
2272.4779	8270.75
2275.36017	8248.95
2278.24061	8223.45
2281.11922	8186.25
2283.996	8214.35
2286.87094	8174.55
2289.74405	8159.75
2292.61534	8152.05
2295.4848	8146.35
2298.35243	8154.25
2301.21824	8131.05
2304.08223	8125.55
2306.94439	8127.15
2309.80474	8118.25
2312.66327	8118.15
2315.51999	8117.85
2318.37489	8118.75
2321.22797	8083.75
2324.07925	8088.65
2326.92871	8075.55
2329.77637	8079.65
2332.62222	8077.75
2335.46626	8033.65
2338.3085	8061.35
2341.14893	8068.15
2343.98756	8034.25
2346.8244	8056.35
2349.65943	8057.35
2352.49267	8043.15
2355.32411	8032.95
2358.15376	8015.65
2360.98161	8024.65
2363.80768	8026.05
2366.63195	8029.95
2369.45444	7999.75
2372.27514	7985.85
2375.09405	7971.25
2377.91118	7950.05
2380.72652	7941.65
2383.54009	7911.05
2386.35187	7888.95
2389.16188	7863.85
2391.97011	7839.55
2394.77657	7840.15
2397.58125	7856.65
2400.38416	7813.95
2403.18529	7805.85
2405.98466	7805.55
2408.78226	7781.85
2411.57809	7784.75
2414.37216	7749.25
2417.16446	7746.15
2419.955	7736.55
2422.74378	7735.35
2425.5308	7719.05
2428.31606	7729.05
2431.09956	7719.45
2433.88131	7716.15
2436.6613	7698.35
2439.43954	7662.05
2442.21603	7661.15
2444.99077	7662.45
2447.76377	7663.85
2450.53501	7661.45
2453.30451	7663.75
2456.07226	7665.05
2458.83827	7683.25
2461.60254	7658.05
2464.36507	7669.35
2467.12586	7661.05
2469.88492	7635.45
2472.64224	7637.25
2475.39782	7658.75
2478.15167	7664.35
2480.90379	7671.25
2483.65417	7675.65
2486.40283	7670.05
2489.14976	7667.75
2491.89497	7657.25
2494.63845	7667.65
2497.3802	7673.05
2500.12024	7667.85
2502.85855	7650.85
2505.59514	7636.55
2508.33002	7650.85
2511.06318	7630.85
2513.79462	7631.15
2516.52435	7620.55
2519.25237	7602.95
2521.97867	7601.55
2524.70327	7594.95
2527.42616	7587.55
2530.14734	7572.95
2532.86681	7557.15
2535.58458	7552.85
2538.30065	7541.35
2541.01501	7552.65
2543.72768	7536.25
2546.43864	7517.75
2549.14791	7489.75
2551.85548	7516.05
2554.56136	7480.35
2557.26554	7477.75
2559.96803	7506.15
2562.66883	7475.65
2565.36794	7472.55
2568.06536	7469.55
2570.7611	7471.85
2573.45514	7462.85
2576.14751	7466.65
2578.83819	7465.55
2581.52719	7449.85
2584.21451	7439.95
2586.90015	7421.05
2589.58411	7424.45
2592.2664	7408.85
2594.94701	7420.45
2597.62594	7398.75
2600.30321	7386.55
2602.9788	7380.05
2605.65273	7372.85
2608.32498	7400.25
2610.99557	7398.75
2613.66449	7388.85
2616.33175	7374.05
2618.99734	7384.25
2621.66128	7363.75
2624.32355	7384.65
2626.98416	7375.95
2629.64311	7367.45
2632.30041	7377.75
2634.95605	7396.75
2637.61004	7371.15
2640.26238	7358.75
2642.91306	7352.75
2645.56209	7374.45
2648.20948	7346.45
2650.85521	7326.85
2653.4993	7349.25
2656.14175	7326.25
2658.78255	7319.55
2661.42171	7338.45
2664.05923	7344.45
2666.6951	7339.45
2669.32934	7337.25
2671.96194	7330.95
2674.59291	7347.65
2677.22224	7355.45
2679.84993	7347.15
2682.476	7344.75
2685.10043	7319.55
2687.72324	7303.55
2690.34441	7318.65
2692.96396	7310.25
2695.58188	7337.05
2698.19818	7313.85
2700.81285	7317.75
2703.4259	7331.05
2706.03733	7371.05
2708.64714	7355.35
2711.25533	7333.15
2713.86191	7325.35
2716.46687	7346.25
2719.07021	7323.15
2721.67194	7339.55
2724.27206	7339.45
2726.87057	7347.95
2729.46747	7352.95
2732.06276	7347.45
2734.65644	7345.55
2737.24852	7326.65
2739.83899	7341.65
2742.42786	7333.95
2745.01513	7325.85
2747.60079	7327.45
2750.18486	7322.15
2752.76733	7316.95
2755.3482	7321.05
2757.92747	7322.25
2760.50515	7326.05
2763.08123	7339.65
2765.65573	7314.65
2768.22863	7320.95
2770.79994	7297.25
2773.36967	7324.15
2775.9378	7317.25
2778.50435	7324.85
2781.06932	7286.85
2783.6327	7311.45
2786.1945	7314.55
2788.75471	7295.75
2791.31335	7277.45
2793.87041	7260.35
2796.42589	7239.95
2798.97979	7249.65
2801.53212	7224.85
2804.08288	7232.15
2806.63206	7216.85
2809.17967	7213.65
2811.72571	7194.05
2814.27018	7187.65
2816.81308	7176.65
2819.35442	7191.45
2821.89419	7184.35
2824.43239	7161.85
2826.96904	7175.25
2829.50412	7173.45
2832.03763	7132.95
2834.56959	7162.25
2837.1	7123.55
2839.62884	7121.55
2842.15613	7107.15
2844.68186	7106.85
2847.20604	7165.25
2849.72867	7124.15
2852.24974	7132.15
2854.76927	7118.35
2857.28724	7138.75
2859.80367	7100.05
2862.31855	7098.85
2864.83189	7081.25
2867.34368	7106.55
2869.85393	7087.05
2872.36264	7088.65
2874.8698	7075.05
2877.37543	7060.25
2879.87952	7080.95
2882.38207	7088.25
2884.88308	7111.55
2887.38256	7109.75
2889.88051	7125.25
2892.37692	7115.75
2894.8718	7102.95
2897.36515	7111.35
2899.85698	7115.15
2902.34727	7146.85
2904.83604	7140.65
2907.32328	7154.95
2909.809	7187.35
2912.29319	7168.15
2914.77587	7183.75
2917.25702	7177.05
2919.73665	7151.75
2922.21476	7180.65
2924.69136	7173.95
2927.16644	7182.35
2929.64	7174.15
2932.11205	7162.25
2934.58258	7136.55
2937.05161	7164.95
2939.51912	7168.25
2941.98513	7164.75
2944.44962	7150.65
2946.91261	7109.65
2949.37409	7108.35
2951.83407	7105.85
2954.29254	7096.05
2956.74951	7079.15
2959.20498	7048.45
2961.65895	7055.95
2964.11142	7035.35
2966.56239	7000.25
2969.01186	6996.05
2971.45984	6957.65
2973.90632	6939.45
2976.35131	6928.25
2978.7948	6895.85
2981.23681	6902.65
2983.67732	6874.45
2986.11635	6838.45
2988.55388	6837.85
2990.98993	6806.45
2993.4245	6789.85
2995.85758	6791.45
2998.28917	6759.45
3000.71928	6748.65
3003.14791	6727.75
3005.57506	6747.25
3008.00073	6715.75
3010.42493	6711.25
3012.84764	6699.95
3015.26888	6696.55
3017.68865	6673.05
3020.10694	6655.55
3022.52376	6644.65
3024.9391	6629.25
3027.35298	6621.15
3029.76539	6619.45
3032.17632	6613.05
3034.5858	6595.65
3036.9938	6568.25
3039.40034	6560.35
3041.80542	6574.85
3044.20903	6556.45
3046.61118	6528.55
3049.01187	6524.45
3051.4111	6535.55
3053.80888	6481.45
3056.20519	6487.35
3058.60005	6483.65
3060.99345	6467.35
3063.3854	6453.15
3065.7759	6409.55
3068.16494	6408.95
3070.55254	6377.85
3072.93868	6375.05
3075.32338	6356.65
3077.70662	6345.25
3080.08842	6341.35
3082.46878	6333.25
3084.84769	6322.85
3087.22515	6296.05
3089.60118	6313.45
3091.97576	6306.65
3094.3489	6322.05
3096.72061	6303.65
3099.09087	6303.75
3101.4597	6289.85
3103.82709	6312.15
3106.19305	6273.65
3108.55757	6281.25
3110.92066	6265.45
3113.28232	6240.55
3115.64255	6232.05
3118.00134	6215.75
3120.35871	6199.15
3122.71466	6191.65
3125.06917	6184.35
3127.42226	6157.65
3129.77393	6165.55
3132.12417	6162.55
3134.47299	6188.55
3136.82039	6160.45
3139.16636	6150.65
3141.51092	6145.55
3143.85406	6147.45
3146.19579	6166.95
3148.53609	6159.25
3150.87499	6162.75
3153.21246	6152.65
3155.54853	6164.25
3157.88318	6158.65
3160.21642	6163.65
3162.54826	6172.15
3164.87868	6145.95
3167.2077	6155.25
3169.5353	6136.95
3171.86151	6154.25
3174.18631	6153.55
3176.5097	6133.05
3178.83169	6126.35
3181.15228	6136.15
3183.47147	6118.85
3185.78926	6128.05
3188.10565	6115.05
3190.42065	6115.05
3192.73424	6120.25
3195.04645	6115.15
3197.35725	6118.65
3199.66667	6124.95
3201.97469	6122.55
3204.28132	6124.25
3206.58656	6112.75
3208.8904	6108.95
3211.19287	6132.85
3213.49394	6118.95
3215.79363	6118.05
3218.09193	6115.15
3220.38884	6119.95
3222.68438	6134.15
3224.97853	6117.25
3227.2713	6116.65
3229.56269	6086.65
3231.8527	6094.85
3234.14133	6095.65
3236.42858	6082.35
3238.71446	6089.75
3240.99896	6077.35
3243.28209	6062.75
3245.56384	6055.65
3247.84423	6064.35
3250.12324	6058.95
3252.40088	6040.25
3254.67715	6057.55
3256.95205	6032.95
3259.22558	6020.15
3261.49775	6018.45
3263.76855	5995.55
3266.03799	5992.05
3268.30606	5965.45
3270.57277	5950.75
3272.83812	5945.35
3275.10211	5933.45
3277.36474	5934.05
3279.62601	5931.95
3281.88593	5915.95
3284.14448	5948.25
3286.40168	5949.75
3288.65753	5923.95
3290.91202	5919.55
3293.16516	5901.35
3295.41695	5880.05
3297.66738	5856.05
3299.91647	5813.35
3302.16421	5800.85
3304.4106	5768.35
3306.65564	5745.25
3308.89933	5711.45
3311.14169	5672.55
3313.38269	5640.05
3315.62236	5605.95
3317.86068	5567.45
3320.09766	5500.25
3322.3333	5469.75
3324.5676	5464.95
3326.80056	5398.75
3329.03219	5348.55
3331.26248	1.35
3333.49143	-0.45
3335.71905	-0.35
