Data from AgNPs_FTO_APTES_UA_2um_CRN_0.1mM_R6G_10uM_NaF_0.1M_Addition_RamanShift__4__12-19-39-035.txt Node

Date: Tue Dec 21 12:19:39 GMT 2021
User: TCL
Spectrometer: QEP01345
Trigger mode: 4
Integration Time (sec): 7.000000E0
Scans to average: 10
Electric dark correction enabled: true
Nonlinearity correction enabled: false
Boxcar width: 0
XAxis mode: Raman Shifts
Number of Pixels in Spectrum: 1044
>>>>>Begin Spectral Data<<<<<
46.04893	0.15
50.45542	-0.65
54.85868	-1.45
59.25871	1.45
63.6555	49.85
68.04907	55.15
72.43941	58.95
76.82654	57.35
81.21044	61.65
85.59113	63.75
89.96862	66.85
94.34289	65.05
98.71396	68.35
103.08183	71.45
107.4465	72.95
111.80798	73.95
116.16626	75.35
120.52136	81.75
124.87327	81.35
129.222	85.55
133.56755	91.15
137.90993	103.35
142.24913	109.25
146.58517	118.25
150.91804	137.65
155.24774	164.85
159.57429	198.55
163.89768	261.35
168.21792	347.65
172.53501	465.45
176.84895	648.35
181.15975	911.05
185.46741	1273.05
189.77193	1745.55
194.07331	2338.55
198.37157	2999.45
202.6667	3707.95
206.9587	4415.85
211.24758	5114.35
215.53334	5840.05
219.81599	6580.25
224.09553	7431.35
228.37195	8366.45
232.64527	9395.25
236.91549	10431.85
241.18261	11430.85
245.44663	12331.25
249.70755	13121.15
253.96539	13761.85
258.22014	14282.85
262.4718	14724.95
266.72039	15021.05
270.96589	15143.05
275.20832	15071.25
279.44768	14907.85
283.68397	14736.65
287.91719	14620.85
292.14735	14515.75
296.37445	14533.15
300.59849	14619.55
304.81948	14766.75
309.03742	14916.45
313.25231	14946.65
317.46415	14825.05
321.67296	14559.45
325.87872	14288.95
330.08145	14049.05
334.28114	13910.65
338.47781	13946.55
342.67145	14090.65
346.86207	14354.35
351.04966	14629.05
355.23424	14894.45
359.4158	15151.35
363.59435	15300.95
367.76989	15293.75
371.94243	15305.25
376.11196	15318.35
380.27849	15388.25
384.44203	15506.95
388.60257	15705.55
392.76012	15840.85
396.91468	16049.35
401.06626	16320.35
405.21485	16479.35
409.36047	16387.05
413.50311	16208.85
417.64277	16119.45
421.77947	16248.35
425.9132	16378.05
430.04396	16487.65
434.17176	16612.65
438.2966	16728.95
442.41849	17096.45
446.53742	17856.05
450.6534	18631.55
454.76644	19081.35
458.87653	18895.95
462.98368	18420.55
467.08789	17901.15
471.18916	17388.75
475.2875	16820.75
479.38291	16473.45
483.4754	16290.65
487.56496	16158.85
491.6516	15936.05
495.73531	15753.15
499.81612	15666.05
503.89401	15777.35
507.96899	15834.25
512.04106	15700.45
516.11023	15463.15
520.1765	15230.35
524.23987	15087.75
528.30034	15105.35
532.35792	15009.95
536.41261	14731.55
540.46441	14376.35
544.51333	14239.05
548.55936	14391.15
552.60252	14861.45
556.64279	15570.05
560.6802	16101.45
564.71473	16242.65
568.7464	16408.85
572.7752	16929.45
576.80114	17622.25
580.82422	18451.85
584.84444	19730.85
588.86181	21663.35
592.87633	23633.95
596.888	24088.35
600.89682	22025.45
604.9028	20305.55
608.90594	20913.85
612.90624	22372.15
616.90371	20790.95
620.89834	16803.25
624.89015	14860.55
628.87913	14634.05
632.86528	14749.15
636.84862	14714.55
640.82913	14340.35
644.80683	13922.25
648.78172	13648.25
652.75379	13618.85
656.72306	13785.95
660.68952	13979.05
664.65319	13826.35
668.61405	13480.35
672.57211	13427.15
676.52738	13584.55
680.47986	13620.15
684.42955	13462.45
688.37646	13292.75
692.32058	13332.05
696.26192	13557.85
700.20048	13868.75
704.13626	14055.95
708.06928	14079.95
711.99952	13999.85
715.927	14022.35
719.85171	14130.35
723.77365	14077.45
727.69284	13791.85
731.60928	13543.75
735.52295	13498.85
739.43388	13537.35
743.34206	13616.75
747.24749	13749.25
751.15017	13925.35
755.05012	14237.55
758.94733	14797.15
762.8418	15764.65
766.73354	17278.15
770.62254	18700.05
774.50882	18875.95
778.39237	17802.95
782.27321	16256.25
786.15132	14954.85
790.02671	14100.65
793.89938	13696.95
797.76935	13571.85
801.6366	13531.85
805.50115	13490.05
809.36299	13343.15
813.22213	13140.55
817.07857	12992.55
820.93231	12843.15
824.78336	12708.25
828.63172	12659.85
832.47738	12598.75
836.32036	12645.55
840.16066	12712.65
843.99827	12704.55
847.8332	12658.35
851.66546	12613.65
855.49504	12593.05
859.32195	12590.45
863.1462	12517.85
866.96777	12458.45
870.78668	12426.85
874.60293	12433.75
878.41652	12458.25
882.22745	12515.95
886.03573	12600.15
889.84136	12576.15
893.64433	12524.05
897.44466	12480.85
901.24235	12408.65
905.0374	12320.45
908.8298	12226.95
912.61957	12221.35
916.40671	12348.85
920.19121	12577.95
923.97308	12865.45
927.75233	13001.95
931.52895	12916.45
935.30295	12570.45
939.07433	12172.05
942.84309	11913.15
946.60924	11779.25
950.37278	11711.25
954.13371	11714.45
957.89203	11706.85
961.64774	11707.75
965.40086	11697.15
969.15137	11640.35
972.89929	11545.95
976.64461	11478.15
980.38733	11444.85
984.12747	11477.05
987.86502	11553.25
991.59999	11732.85
995.33237	11948.45
999.06217	12379.65
1002.78939	12903.85
1006.51404	13356.25
1010.23611	13703.25
1013.95561	13995.75
1017.67255	14147.25
1021.38692	13956.45
1025.09872	13511.75
1028.80796	13196.15
1032.51465	13301.25
1036.21877	13556.55
1039.92035	13699.45
1043.61937	13671.05
1047.31584	13457.55
1051.00976	13203.15
1054.70114	12992.45
1058.38998	12949.95
1062.07627	12962.35
1065.76003	13077.85
1069.44126	13258.75
1073.11995	13550.15
1076.79611	13842.35
1080.46974	14014.25
1084.14085	14173.45
1087.80943	14450.25
1091.47549	14692.85
1095.13903	14673.35
1098.80005	14317.65
1102.45857	13830.85
1106.11456	13431.65
1109.76805	13292.15
1113.41903	13344.25
1117.06751	13491.15
1120.71348	13736.75
1124.35696	13996.25
1127.99793	14263.15
1131.63641	14414.45
1135.2724	14357.05
1138.90589	14280.25
1142.5369	14366.05
1146.16542	14501.15
1149.79145	14675.95
1153.415	14870.05
1157.03607	15156.85
1160.65467	15818.35
1164.27079	16992.05
1167.88443	18465.45
1171.49561	20124.85
1175.10432	22239.95
1178.71056	24822.25
1182.31434	27249.25
1185.91565	28125.35
1189.51451	27270.25
1193.11091	25738.85
1196.70485	24161.75
1200.29634	22659.15
1203.88538	21569.25
1207.47197	20940.85
1211.05612	20445.25
1214.63782	19976.75
1218.21708	19439.45
1221.79391	19233.55
1225.36829	19298.65
1228.94024	19271.15
1232.50976	18818.55
1236.07685	18081.35
1239.6415	17497.95
1243.20374	17254.75
1246.76355	17309.75
1250.32093	17574.35
1253.8759	18076.45
1257.42845	18792.35
1260.97859	19625.15
1264.52631	20457.65
1268.07163	21274.75
1271.61453	22080.25
1275.15503	22911.45
1278.69312	23861.35
1282.22882	24963.25
1285.76211	26339.95
1289.29301	28003.55
1292.82151	29795.35
1296.34761	31914.95
1299.87133	34467.85
1303.39266	37297.45
1306.9116	39918.75
1310.42815	42249.05
1313.94233	43769.05
1317.45412	43365.35
1320.96354	41582.55
1324.47058	39544.65
1327.97525	37961.35
1331.47754	36828.65
1334.97747	36035.25
1338.47502	35076.95
1341.97022	33936.15
1345.46305	32912.15
1348.95352	32519.45
1352.44163	33290.55
1355.92738	35393.05
1359.41078	38514.35
1362.89183	40996.05
1366.37053	41041.25
1369.84688	37641.45
1373.32088	32131.55
1376.79254	28032.15
1380.26186	26484.05
1383.72883	26284.45
1387.19347	26036.55
1390.65578	25479.35
1394.11575	25384.65
1397.57339	26013.15
1401.0287	26943.55
1404.48168	27635.25
1407.93234	27680.25
1411.38068	27051.85
1414.82669	26038.65
1418.27039	24838.75
1421.71177	23542.45
1425.15083	22332.85
1428.58758	21757.95
1432.02203	22082.85
1435.45416	22939.35
1438.88399	23893.35
1442.31151	24447.15
1445.73673	24779.75
1449.15965	24923.65
1452.58027	24789.85
1455.9986	24431.15
1459.41463	24232.05
1462.82837	24639.85
1466.23982	25395.95
1469.64898	26198.55
1473.05586	26712.25
1476.46045	26997.15
1479.86276	27001.75
1483.26279	26747.65
1486.66054	26652.55
1490.05602	26834.75
1493.44922	27190.45
1496.84016	27369.95
1500.22882	27531.25
1503.61521	27919.35
1506.99934	28674.85
1510.38121	29260.65
1513.76081	29294.55
1517.13816	28595.65
1520.51324	27449.55
1523.88607	26609.75
1527.25665	26410.05
1530.62498	26475.25
1533.99105	26502.65
1537.35488	26117.75
1540.71647	25406.95
1544.07581	24382.05
1547.4329	23325.25
1550.78776	22402.85
1554.14038	21645.45
1557.49077	21178.25
1560.83892	20959.55
1564.18484	20970.25
1567.52853	21116.45
1570.86999	21413.55
1574.20922	21957.65
1577.54624	22420.25
1580.88103	22501.25
1584.2136	22692.05
1587.54395	23607.85
1590.87208	25522.25
1594.19801	28095.95
1597.52172	30749.85
1600.84321	31952.75
1604.16251	30596.15
1607.47959	27262.55
1610.79447	23442.35
1614.10715	20207.45
1617.41763	17908.75
1620.7259	16492.85
1624.03199	15914.25
1627.33587	15954.15
1630.63757	16666.45
1633.93707	18252.55
1637.23439	21058.65
1640.52951	25464.15
1643.82246	31250.85
1647.11321	36112.35
1650.40179	37118.85
1653.68819	33444.95
1656.97241	27256.95
1660.25446	21542.75
1663.53433	17566.95
1666.81203	15148.65
1670.08756	13689.55
1673.36092	12842.35
1676.63211	12295.45
1679.90115	11881.15
1683.16801	11603.55
1686.43272	11437.45
1689.69527	11257.05
1692.95567	11146.85
1696.2139	11075.85
1699.46999	11053.65
1702.72392	10952.65
1705.97571	10899.15
1709.22535	10841.95
1712.47284	10797.35
1715.71819	10774.15
1718.96139	10731.15
1722.20246	10667.35
1725.44139	10601.35
1728.67818	10497.55
1731.91284	10443.95
1735.14537	10352.35
1738.37576	10283.85
1741.60403	10246.35
1744.83017	10179.35
1748.05418	10187.05
1751.27607	10175.45
1754.49584	10170.05
1757.71349	10190.05
1760.92903	10180.55
1764.14244	10167.75
1767.35375	10122.25
1770.56294	10079.85
1773.77002	10011.45
1776.97499	9948.25
1780.17785	9916.65
1783.37861	9900.95
1786.57727	9845.85
1789.77382	9806.25
1792.96828	9800.75
1796.16064	9757.85
1799.3509	9729.35
1802.53907	9693.45
1805.72514	9668.45
1808.90913	9671.15
1812.09102	9626.65
1815.27083	9569.25
1818.44856	9574.35
1821.6242	9578.65
1824.79776	9563.15
1827.96924	9560.45
1831.13864	9545.75
1834.30597	9586.65
1837.47122	9574.75
1840.6344	9560.25
1843.7955	9562.25
1846.95454	9589.65
1850.11151	9582.55
1853.26642	9556.25
1856.41926	9551.55
1859.57004	9544.45
1862.71876	9523.65
1865.86542	9505.65
1869.01003	9496.25
1872.15258	9503.45
1875.29308	9496.95
1878.43152	9468.75
1881.56792	9468.95
1884.70227	9450.75
1887.83457	9466.75
1890.96482	9465.25
1894.09304	9434.35
1897.21921	9435.55
1900.34335	9414.45
1903.46544	9410.85
1906.58551	9389.95
1909.70353	9364.95
1912.81953	9344.45
1915.93349	9311.85
1919.04543	9273.45
1922.15534	9261.45
1925.26322	9221.85
1928.36908	9200.45
1931.47292	9158.55
1934.57473	9145.35
1937.67453	9090.05
1940.77232	9059.35
1943.86808	9052.25
1946.96184	9031.35
1950.05358	8998.05
1953.14331	8993.55
1956.23103	8954.15
1959.31675	8911.25
1962.40046	8897.25
1965.48217	8857.05
1968.56188	8843.65
1971.63959	8797.45
1974.7153	8775.75
1977.78901	8730.65
1980.86073	8708.75
1983.93046	8673.35
1986.99819	8656.55
1990.06394	8640.75
1993.1277	8605.85
1996.18947	8581.15
1999.24925	8578.55
2002.30706	8545.95
2005.36288	8498.65
2008.41672	8486.25
2011.46859	8452.95
2014.51848	8429.45
2017.56639	8411.55
2020.61233	8403.45
2023.6563	8381.95
2026.6983	8368.55
2029.73833	8367.35
2032.7764	8335.45
2035.8125	8327.65
2038.84664	8294.05
2041.87881	8287.75
2044.90903	8292.45
2047.93729	8257.95
2050.96359	8265.75
2053.98794	8250.55
2057.01034	8236.25
2060.03078	8228.25
2063.04927	8225.05
2066.06582	8196.05
2069.08042	8209.35
2072.09307	8198.35
2075.10378	8190.95
2078.11255	8182.85
2081.11938	8172.15
2084.12426	8187.75
2087.12722	8178.95
2090.12824	8167.05
2093.12732	8152.35
2096.12447	8159.35
2099.11969	8174.45
2102.11299	8161.25
2105.10435	8166.65
2108.09379	8158.75
2111.08131	8168.65
2114.0669	8176.05
2117.05057	8169.55
2120.03233	8168.15
2123.01216	8169.75
2125.99008	8181.65
2128.96609	8191.35
2131.94018	8182.45
2134.91236	8191.85
2137.88263	8189.65
2140.851	8185.65
2143.81746	8162.95
2146.78201	8180.65
2149.74466	8182.55
2152.7054	8166.95
2155.66425	8150.95
2158.6212	8147.95
2161.57625	8171.75
2164.52941	8154.95
2167.48067	8158.15
2170.43004	8156.05
2173.37752	8159.65
2176.32311	8140.35
2179.26681	8128.95
2182.20863	8138.95
2185.14856	8156.85
2188.08661	8159.55
2191.02278	8139.05
2193.95707	8134.15
2196.88948	8131.95
2199.82001	8137.25
2202.74867	8142.95
2205.67545	8114.25
2208.60037	8114.95
2211.52341	8100.55
2214.44458	8087.05
2217.36388	8039.65
2220.28132	8038.45
2223.1969	8024.15
2226.11061	8021.55
2229.02246	8004.65
2231.93245	8028.35
2234.84058	8008.65
2237.74686	8016.15
2240.65128	8003.05
2243.55385	7975.75
2246.45456	7982.35
2249.35343	7981.35
2252.25044	7920.25
2255.14561	7894.95
2258.03893	7887.05
2260.93041	7894.65
2263.82004	7849.95
2266.70783	7821.15
2269.59378	7817.35
2272.4779	7783.55
2275.36017	7761.15
2278.24061	7742.65
2281.11922	7742.35
2283.996	7715.65
2286.87094	7739.35
2289.74405	7716.95
2292.61534	7700.85
2295.4848	7673.55
2298.35243	7693.35
2301.21824	7708.15
2304.08223	7677.85
2306.94439	7704.65
2309.80474	7710.25
2312.66327	7703.95
2315.51999	7702.65
2318.37489	7702.65
2321.22797	7674.05
2324.07925	7669.65
2326.92871	7672.15
2329.77637	7671.55
2332.62222	7670.35
2335.46626	7674.65
2338.3085	7653.75
2341.14893	7663.05
2343.98756	7679.75
2346.8244	7684.05
2349.65943	7660.85
2352.49267	7679.45
2355.32411	7677.95
2358.15376	7661.15
2360.98161	7669.55
2363.80768	7671.95
2366.63195	7675.95
2369.45444	7643.05
2372.27514	7642.15
2375.09405	7622.45
2377.91118	7610.95
2380.72652	7584.35
2383.54009	7572.65
2386.35187	7533.65
2389.16188	7518.05
2391.97011	7517.05
2394.77657	7507.35
2397.58125	7494.75
2400.38416	7481.85
2403.18529	7470.75
2405.98466	7461.85
2408.78226	7436.35
2411.57809	7433.35
2414.37216	7446.15
2417.16446	7428.85
2419.955	7417.35
2422.74378	7427.65
2425.5308	7395.05
2428.31606	7381.45
2431.09956	7408.35
2433.88131	7404.15
2436.6613	7406.75
2439.43954	7378.85
2442.21603	7380.95
2444.99077	7375.65
2447.76377	7395.95
2450.53501	7387.05
2453.30451	7405.95
2456.07226	7389.35
2458.83827	7404.05
2461.60254	7419.45
2464.36507	7408.65
2467.12586	7424.55
2469.88492	7407.15
2472.64224	7405.95
2475.39782	7425.65
2478.15167	7453.65
2480.90379	7421.95
2483.65417	7430.35
2486.40283	7418.95
2489.14976	7443.95
2491.89497	7433.15
2494.63845	7472.15
2497.3802	7464.15
2500.12024	7442.95
2502.85855	7431.95
2505.59514	7440.55
2508.33002	7432.85
2511.06318	7422.95
2513.79462	7407.35
2516.52435	7390.35
2519.25237	7388.65
2521.97867	7381.95
2524.70327	7368.95
2527.42616	7375.75
2530.14734	7368.55
2532.86681	7380.35
2535.58458	7356.95
2538.30065	7341.55
2541.01501	7367.75
2543.72768	7347.45
2546.43864	7340.55
2549.14791	7340.15
2551.85548	7335.15
2554.56136	7347.45
2557.26554	7338.65
2559.96803	7321.75
2562.66883	7340.45
2565.36794	7339.55
2568.06536	7352.05
2570.7611	7322.95
2573.45514	7326.25
2576.14751	7324.45
2578.83819	7328.15
2581.52719	7350.65
2584.21451	7337.45
2586.90015	7314.55
2589.58411	7299.85
2592.2664	7320.05
2594.94701	7312.55
2597.62594	7319.25
2600.30321	7300.85
2602.9788	7307.75
2605.65273	7299.55
2608.32498	7298.45
2610.99557	7314.35
2613.66449	7330.55
2616.33175	7298.75
2618.99734	7313.65
2621.66128	7316.55
2624.32355	7317.55
2626.98416	7300.55
2629.64311	7300.95
2632.30041	7321.35
2634.95605	7331.35
2637.61004	7291.85
2640.26238	7306.35
2642.91306	7293.75
2645.56209	7279.75
2648.20948	7299.85
2650.85521	7281.75
2653.4993	7292.05
2656.14175	7293.65
2658.78255	7309.85
2661.42171	7318.55
2664.05923	7327.35
2666.6951	7320.85
2669.32934	7316.15
2671.96194	7342.45
2674.59291	7352.55
2677.22224	7321.55
2679.84993	7323.05
2682.476	7325.35
2685.10043	7319.05
2687.72324	7321.25
2690.34441	7317.65
2692.96396	7303.45
2695.58188	7294.15
2698.19818	7296.05
2700.81285	7304.15
2703.4259	7343.15
2706.03733	7398.45
2708.64714	7366.55
2711.25533	7356.45
2713.86191	7336.25
2716.46687	7357.95
2719.07021	7362.15
2721.67194	7371.05
2724.27206	7370.75
2726.87057	7373.25
2729.46747	7382.55
2732.06276	7398.65
2734.65644	7396.55
2737.24852	7377.85
2739.83899	7396.35
2742.42786	7384.15
2745.01513	7372.35
2747.60079	7385.45
2750.18486	7377.55
2752.76733	7373.95
2755.3482	7387.15
2757.92747	7384.95
2760.50515	7378.95
2763.08123	7372.25
2765.65573	7388.85
2768.22863	7367.75
2770.79994	7382.75
2773.36967	7388.15
2775.9378	7412.35
2778.50435	7403.85
2781.06932	7389.55
2783.6327	7405.65
2786.1945	7395.85
2788.75471	7378.15
2791.31335	7364.95
2793.87041	7366.45
2796.42589	7340.75
2798.97979	7346.95
2801.53212	7349.05
2804.08288	7346.75
2806.63206	7348.25
2809.17967	7309.05
2811.72571	7319.35
2814.27018	7306.15
2816.81308	7305.55
2819.35442	7302.55
2821.89419	7281.45
2824.43239	7281.25
2826.96904	7300.05
2829.50412	7309.65
2832.03763	7286.15
2834.56959	7288.15
2837.1	7278.55
2839.62884	7289.95
2842.15613	7270.65
2844.68186	7305.05
2847.20604	7337.95
2849.72867	7338.35
2852.24974	7301.85
2854.76927	7326.85
2857.28724	7319.65
2859.80367	7305.75
2862.31855	7315.95
2864.83189	7266.25
2867.34368	7292.15
2869.85393	7275.95
2872.36264	7274.65
2874.8698	7291.45
2877.37543	7272.45
2879.87952	7291.15
2882.38207	7286.75
2884.88308	7276.15
2887.38256	7299.85
2889.88051	7291.45
2892.37692	7294.15
2894.8718	7285.65
2897.36515	7323.95
2899.85698	7313.45
2902.34727	7340.05
2904.83604	7340.45
2907.32328	7343.85
2909.809	7360.45
2912.29319	7372.25
2914.77587	7361.35
2917.25702	7382.85
2919.73665	7353.75
2922.21476	7381.45
2924.69136	7368.25
2927.16644	7374.25
2929.64	7372.45
2932.11205	7346.05
2934.58258	7322.15
2937.05161	7349.95
2939.51912	7345.95
2941.98513	7361.55
2944.44962	7346.95
2946.91261	7314.85
2949.37409	7318.45
2951.83407	7298.85
2954.29254	7289.05
2956.74951	7280.45
2959.20498	7270.45
2961.65895	7256.55
2964.11142	7233.85
2966.56239	7207.25
2969.01186	7195.25
2971.45984	7164.65
2973.90632	7167.15
2976.35131	7115.75
2978.7948	7101.15
2981.23681	7081.35
2983.67732	7051.95
2986.11635	7056.75
2988.55388	7017.65
2990.98993	7003.05
2993.4245	6987.05
2995.85758	6964.45
2998.28917	6977.75
3000.71928	6969.55
3003.14791	6943.05
3005.57506	6952.05
3008.00073	6935.95
3010.42493	6916.75
3012.84764	6926.95
3015.26888	6917.15
3017.68865	6897.85
3020.10694	6862.45
3022.52376	6834.05
3024.9391	6862.25
3027.35298	6818.05
3029.76539	6826.45
3032.17632	6832.05
3034.5858	6791.55
3036.9938	6785.05
3039.40034	6794.15
3041.80542	6790.85
3044.20903	6766.35
3046.61118	6768.35
3049.01187	6746.65
3051.4111	6757.95
3053.80888	6742.25
3056.20519	6725.35
3058.60005	6696.65
3060.99345	6711.75
3063.3854	6685.35
3065.7759	6668.15
3068.16494	6649.95
3070.55254	6632.55
3072.93868	6607.65
3075.32338	6608.25
3077.70662	6598.65
3080.08842	6581.25
3082.46878	6584.55
3084.84769	6560.25
3087.22515	6554.65
3089.60118	6532.45
3091.97576	6553.25
3094.3489	6550.95
3096.72061	6544.85
3099.09087	6548.05
3101.4597	6513.05
3103.82709	6531.05
3106.19305	6509.65
3108.55757	6499.65
3110.92066	6472.55
3113.28232	6471.95
3115.64255	6454.85
3118.00134	6443.55
3120.35871	6438.25
3122.71466	6402.35
3125.06917	6426.85
3127.42226	6413.55
3129.77393	6425.55
3132.12417	6394.65
3134.47299	6409.55
3136.82039	6398.85
3139.16636	6409.45
3141.51092	6405.35
3143.85406	6405.15
3146.19579	6426.35
3148.53609	6393.45
3150.87499	6420.75
3153.21246	6395.25
3155.54853	6406.95
3157.88318	6395.65
3160.21642	6411.35
3162.54826	6411.15
3164.87868	6404.35
3167.2077	6390.55
3169.5353	6393.75
3171.86151	6376.95
3174.18631	6375.15
3176.5097	6381.95
3178.83169	6378.65
3181.15228	6387.25
3183.47147	6377.05
3185.78926	6375.95
3188.10565	6358.95
3190.42065	6353.25
3192.73424	6360.65
3195.04645	6370.25
3197.35725	6363.25
3199.66667	6344.15
3201.97469	6361.25
3204.28132	6354.35
3206.58656	6344.95
3208.8904	6375.45
3211.19287	6337.85
3213.49394	6340.65
3215.79363	6345.15
3218.09193	6362.25
3220.38884	6355.05
3222.68438	6363.35
3224.97853	6365.95
3227.2713	6351.55
3229.56269	6337.25
3231.8527	6354.35
3234.14133	6344.55
3236.42858	6330.75
3238.71446	6322.35
3240.99896	6301.55
3243.28209	6326.55
3245.56384	6304.65
3247.84423	6316.25
3250.12324	6285.55
3252.40088	6314.05
3254.67715	6290.55
3256.95205	6257.05
3259.22558	6252.45
3261.49775	6220.65
3263.76855	6226.55
3266.03799	6225.85
3268.30606	6192.35
3270.57277	6192.55
3272.83812	6179.55
3275.10211	6179.65
3277.36474	6159.65
3279.62601	6182.35
3281.88593	6193.05
3284.14448	6179.75
3286.40168	6197.95
3288.65753	6183.85
3290.91202	6176.05
3293.16516	6174.65
3295.41695	6150.75
3297.66738	6099.15
3299.91647	6080.15
3302.16421	6053.85
3304.4106	6015.15
3306.65564	6017.15
3308.89933	5954.75
3311.14169	5921.85
3313.38269	5879.15
3315.62236	5852.05
3317.86068	5783.55
3320.09766	5739.85
3322.3333	5691.75
3324.5676	5700.65
3326.80056	5617.55
3329.03219	5580.45
3331.26248	2.25
3333.49143	-1.45
3335.71905	-0.25
