Data from AgNPs_FTO_APTES_UA_50um_CRN_0.1mM_R6G_10uM_NaF_0.1M_Addition_RamanShift__28__15-35-39-259.txt Node

Date: Tue Dec 21 15:35:39 GMT 2021
User: TCL
Spectrometer: QEP01345
Trigger mode: 4
Integration Time (sec): 7.000000E0
Scans to average: 10
Electric dark correction enabled: true
Nonlinearity correction enabled: false
Boxcar width: 0
XAxis mode: Raman Shifts
Number of Pixels in Spectrum: 1044
>>>>>Begin Spectral Data<<<<<
46.04893	-0.15
50.45542	-0.45
54.85868	-1.55
59.25871	-0.75
63.6555	40.55
68.04907	48.45
72.43941	52.25
76.82654	53.15
81.21044	56.55
85.59113	61.75
89.96862	60.75
94.34289	58.65
98.71396	58.75
103.08183	63.95
107.4465	65.75
111.80798	70.85
116.16626	66.05
120.52136	68.45
124.87327	70.55
129.222	75.65
133.56755	81.75
137.90993	89.35
142.24913	91.55
146.58517	102.95
150.91804	115.05
155.24774	129.95
159.57429	161.45
163.89768	207.35
168.21792	267.95
172.53501	358.25
176.84895	496.35
181.15975	692.85
185.46741	968.75
189.77193	1342.25
194.07331	1809.15
198.37157	2317.15
202.6667	2893.55
206.9587	3428.85
211.24758	3981.25
215.53334	4521.95
219.81599	5127.95
224.09553	5791.65
228.37195	6509.95
232.64527	7307.35
236.91549	8144.75
241.18261	8948.15
245.44663	9687.75
249.70755	10344.65
253.96539	10910.65
258.22014	11367.95
262.4718	11783.15
266.72039	12046.05
270.96589	12161.15
275.20832	12182.55
279.44768	12058.15
283.68397	11901.55
287.91719	11768.25
292.14735	11716.25
296.37445	11807.45
300.59849	11964.75
304.81948	12205.35
309.03742	12323.45
313.25231	12203.25
317.46415	11781.35
321.67296	11239.85
325.87872	10755.65
330.08145	10501.75
334.28114	10512.05
338.47781	10632.45
342.67145	10805.25
346.86207	11101.45
351.04966	11487.35
355.23424	11956.75
359.4158	12355.55
363.59435	12568.95
367.76989	12709.25
371.94243	12753.15
376.11196	12807.25
380.27849	12807.95
384.44203	12814.95
388.60257	12796.85
392.76012	12786.15
396.91468	12889.95
401.06626	13105.85
405.21485	13251.45
409.36047	13161.35
413.50311	12762.75
417.64277	12340.75
421.77947	12115.45
425.9132	12012.65
430.04396	12031.85
434.17176	12099.85
438.2966	12240.45
442.41849	12460.95
446.53742	12794.05
450.6534	13140.05
454.76644	13330.45
458.87653	13405.55
462.98368	13325.25
467.08789	13185.95
471.18916	13023.15
475.2875	12897.35
479.38291	12828.75
483.4754	12732.85
487.56496	12563.25
491.6516	12419.35
495.73531	12281.45
499.81612	12199.35
503.89401	12233.25
507.96899	12303.75
512.04106	12316.85
516.11023	12398.75
520.1765	12403.45
524.23987	12416.25
528.30034	12281.65
532.35792	12194.25
536.41261	11997.55
540.46441	11818.85
544.51333	11718.15
548.55936	11792.95
552.60252	11967.45
556.64279	12231.35
560.6802	12363.75
564.71473	12496.15
568.7464	12794.05
572.7752	13015.45
576.80114	12891.05
580.82422	12694.45
584.84444	12625.35
588.86181	12739.35
592.87633	12935.45
596.888	13102.05
600.89682	13215.15
604.9028	13942.95
608.90594	16098.35
612.90624	18995.25
616.90371	18506.95
620.89834	14501.55
624.89015	12496.05
628.87913	12213.55
632.86528	12352.45
636.84862	12523.45
640.82913	12377.45
644.80683	11932.35
648.78172	11564.05
652.75379	11409.05
656.72306	11577.35
660.68952	11881.35
664.65319	11847.95
668.61405	11545.25
672.57211	11376.95
676.52738	11388.65
680.47986	11405.45
684.42955	11317.85
688.37646	11249.75
692.32058	11257.35
696.26192	11310.95
700.20048	11358.05
704.13626	11432.45
708.06928	11399.15
711.99952	11302.95
715.927	11269.65
719.85171	11263.45
723.77365	11300.75
727.69284	11243.25
731.60928	11184.05
735.52295	11140.55
739.43388	11115.25
743.34206	11146.95
747.24749	11189.45
751.15017	11247.65
755.05012	11363.65
758.94733	11716.25
762.8418	12473.25
766.73354	13821.45
770.62254	15312.95
774.50882	16111.55
778.39237	15523.65
782.27321	13948.75
786.15132	12433.35
790.02671	11553.55
793.89938	11109.35
797.76935	10965.85
801.6366	10944.55
805.50115	10927.35
809.36299	10963.05
813.22213	10978.15
817.07857	10929.95
820.93231	10854.75
824.78336	10763.05
828.63172	10719.25
832.47738	10683.75
836.32036	10658.15
840.16066	10620.85
843.99827	10576.75
847.8332	10553.45
851.66546	10493.15
855.49504	10465.35
859.32195	10456.05
863.1462	10416.85
866.96777	10420.15
870.78668	10404.95
874.60293	10454.95
878.41652	10484.05
882.22745	10538.95
886.03573	10608.05
889.84136	10587.65
893.64433	10527.35
897.44466	10414.65
901.24235	10353.65
905.0374	10278.55
908.8298	10219.95
912.61957	10174.85
916.40671	10215.85
920.19121	10277.35
923.97308	10330.25
927.75233	10361.35
931.52895	10385.65
935.30295	10284.95
939.07433	10116.95
942.84309	9928.95
946.60924	9837.05
950.37278	9768.65
954.13371	9744.15
957.89203	9704.35
961.64774	9679.65
965.40086	9624.95
969.15137	9593.55
972.89929	9530.95
976.64461	9485.15
980.38733	9482.25
984.12747	9482.55
987.86502	9494.35
991.59999	9555.85
995.33237	9675.05
999.06217	9816.85
1002.78939	10069.75
1006.51404	10296.05
1010.23611	10482.45
1013.95561	10605.75
1017.67255	10626.85
1021.38692	10513.65
1025.09872	10334.45
1028.80796	10245.65
1032.51465	10273.95
1036.21877	10349.55
1039.92035	10364.65
1043.61937	10339.15
1047.31584	10272.15
1051.00976	10207.25
1054.70114	10152.05
1058.38998	10140.15
1062.07627	10188.65
1065.76003	10254.65
1069.44126	10294.05
1073.11995	10363.15
1076.79611	10420.45
1080.46974	10494.85
1084.14085	10620.15
1087.80943	10761.95
1091.47549	10880.85
1095.13903	10799.45
1098.80005	10610.25
1102.45857	10370.45
1106.11456	10233.75
1109.76805	10259.45
1113.41903	10408.55
1117.06751	10643.95
1120.71348	10919.15
1124.35696	11241.75
1127.99793	11525.75
1131.63641	11644.55
1135.2724	11459.65
1138.90589	11141.25
1142.5369	10933.65
1146.16542	10734.95
1149.79145	10588.75
1153.415	10532.55
1157.03607	10590.55
1160.65467	10722.15
1164.27079	11006.25
1167.88443	11456.95
1171.49561	12184.85
1175.10432	13240.35
1178.71056	14698.85
1182.31434	16024.95
1185.91565	16564.15
1189.51451	16300.75
1193.11091	15572.95
1196.70485	14758.95
1200.29634	14079.35
1203.88538	13612.85
1207.47197	13071.25
1211.05612	12526.95
1214.63782	12144.45
1218.21708	11928.95
1221.79391	11859.25
1225.36829	11773.05
1228.94024	11664.05
1232.50976	11489.35
1236.07685	11404.45
1239.6415	11373.95
1243.20374	11410.55
1246.76355	11479.35
1250.32093	11594.85
1253.8759	11803.05
1257.42845	12074.05
1260.97859	12348.05
1264.52631	12596.25
1268.07163	12888.05
1271.61453	13144.65
1275.15503	13387.75
1278.69312	13594.25
1282.22882	13778.65
1285.76211	14087.65
1289.29301	14513.05
1292.82151	15060.25
1296.34761	15759.65
1299.87133	16601.15
1303.39266	17755.35
1306.9116	19291.35
1310.42815	20881.45
1313.94233	21835.55
1317.45412	21636.15
1320.96354	20738.05
1324.47058	19712.05
1327.97525	18772.55
1331.47754	18128.05
1334.97747	17843.25
1338.47502	17890.95
1341.97022	18087.15
1345.46305	18294.75
1348.95352	18599.55
1352.44163	19190.45
1355.92738	20249.25
1359.41078	22116.65
1362.89183	24080.15
1366.37053	23800.85
1369.84688	21014.55
1373.32088	17934.35
1376.79254	15895.05
1380.26186	14914.25
1383.72883	14551.15
1387.19347	14349.35
1390.65578	14110.65
1394.11575	14002.35
1397.57339	14082.15
1401.0287	14340.75
1404.48168	14603.65
1407.93234	14750.45
1411.38068	14757.45
1414.82669	14463.45
1418.27039	13957.65
1421.71177	13406.95
1425.15083	12868.45
1428.58758	12570.05
1432.02203	12491.75
1435.45416	12599.25
1438.88399	12790.45
1442.31151	12927.65
1445.73673	13089.05
1449.15965	13266.85
1452.58027	13425.15
1455.9986	13457.65
1459.41463	13553.45
1462.82837	13733.65
1466.23982	13947.65
1469.64898	14171.35
1473.05586	14315.45
1476.46045	14288.25
1479.86276	14302.15
1483.26279	14345.35
1486.66054	14448.75
1490.05602	14611.85
1493.44922	14912.75
1496.84016	15415.55
1500.22882	16200.65
1503.61521	17529.35
1506.99934	19141.55
1510.38121	20604.05
1513.76081	21113.05
1517.13816	20193.05
1520.51324	18299.45
1523.88607	16510.55
1527.25665	15278.15
1530.62498	14627.05
1533.99105	14343.25
1537.35488	14127.35
1540.71647	14032.75
1544.07581	13855.25
1547.4329	13759.75
1550.78776	13627.15
1554.14038	13524.95
1557.49077	13548.45
1560.83892	13642.05
1564.18484	13842.15
1567.52853	14087.95
1570.86999	14267.65
1574.20922	14478.95
1577.54624	14525.55
1580.88103	14212.65
1584.2136	13735.45
1587.54395	13582.25
1590.87208	13872.15
1594.19801	14542.55
1597.52172	15496.75
1600.84321	15970.35
1604.16251	15582.25
1607.47959	14670.85
1610.79447	13506.35
1614.10715	12413.85
1617.41763	11527.75
1620.7259	10964.35
1624.03199	10641.75
1627.33587	10563.75
1630.63757	10767.35
1633.93707	11199.75
1637.23439	11974.35
1640.52951	13150.45
1643.82246	14680.75
1647.11321	16363.95
1650.40179	17449.15
1653.68819	16994.85
1656.97241	15103.85
1660.25446	12885.65
1663.53433	11267.65
1666.81203	10231.75
1670.08756	9606.95
1673.36092	9178.35
1676.63211	8929.45
1679.90115	8752.15
1683.16801	8588.05
1686.43272	8508.15
1689.69527	8396.55
1692.95567	8359.05
1696.2139	8317.75
1699.46999	8261.15
1702.72392	8193.35
1705.97571	8147.85
1709.22535	8077.95
1712.47284	8060.95
1715.71819	8018.85
1718.96139	8003.15
1722.20246	7982.65
1725.44139	7925.95
1728.67818	7877.45
1731.91284	7805.45
1735.14537	7747.75
1738.37576	7751.05
1741.60403	7726.65
1744.83017	7716.25
1748.05418	7681.55
1751.27607	7658.15
1754.49584	7660.75
1757.71349	7672.25
1760.92903	7640.15
1764.14244	7613.25
1767.35375	7585.05
1770.56294	7575.65
1773.77002	7531.15
1776.97499	7506.15
1780.17785	7466.95
1783.37861	7460.35
1786.57727	7445.25
1789.77382	7407.95
1792.96828	7417.45
1796.16064	7376.85
1799.3509	7368.45
1802.53907	7363.25
1805.72514	7334.75
1808.90913	7300.55
1812.09102	7293.75
1815.27083	7267.35
1818.44856	7245.65
1821.6242	7224.05
1824.79776	7201.35
1827.96924	7206.85
1831.13864	7189.95
1834.30597	7176.45
1837.47122	7162.15
1840.6344	7161.35
1843.7955	7154.75
1846.95454	7153.05
1850.11151	7140.85
1853.26642	7129.85
1856.41926	7119.15
1859.57004	7130.45
1862.71876	7110.45
1865.86542	7124.25
1869.01003	7109.35
1872.15258	7103.75
1875.29308	7115.45
1878.43152	7070.55
1881.56792	7092.75
1884.70227	7073.15
1887.83457	7077.65
1890.96482	7056.25
1894.09304	7050.75
1897.21921	7045.25
1900.34335	7038.85
1903.46544	7047.25
1906.58551	7018.55
1909.70353	7007.15
1912.81953	7019.65
1915.93349	6994.65
1919.04543	7031.55
1922.15534	6984.55
1925.26322	6938.75
1928.36908	6931.05
1931.47292	6918.75
1934.57473	6897.15
1937.67453	6871.75
1940.77232	6854.95
1943.86808	6830.55
1946.96184	6807.35
1950.05358	6782.95
1953.14331	6762.05
1956.23103	6745.25
1959.31675	6727.05
1962.40046	6709.55
1965.48217	6677.85
1968.56188	6665.95
1971.63959	6647.25
1974.7153	6637.75
1977.78901	6600.15
1980.86073	6599.45
1983.93046	6549.05
1986.99819	6533.85
1990.06394	6507.05
1993.1277	6500.45
1996.18947	6463.05
1999.24925	6453.05
2002.30706	6434.25
2005.36288	6414.35
2008.41672	6390.25
2011.46859	6366.85
2014.51848	6355.05
2017.56639	6317.05
2020.61233	6310.25
2023.6563	6297.45
2026.6983	6258.65
2029.73833	6242.55
2032.7764	6232.85
2035.8125	6225.95
2038.84664	6240.45
2041.87881	6209.45
2044.90903	6192.65
2047.93729	6175.65
2050.96359	6183.15
2053.98794	6157.35
2057.01034	6151.45
2060.03078	6162.35
2063.04927	6141.65
2066.06582	6141.35
2069.08042	6103.95
2072.09307	6126.35
2075.10378	6101.35
2078.11255	6098.95
2081.11938	6106.95
2084.12426	6100.65
2087.12722	6095.35
2090.12824	6098.95
2093.12732	6081.85
2096.12447	6089.75
2099.11969	6070.55
2102.11299	6064.75
2105.10435	6071.15
2108.09379	6090.85
2111.08131	6085.65
2114.0669	6070.15
2117.05057	6077.65
2120.03233	6083.25
2123.01216	6074.15
2125.99008	6092.25
2128.96609	6073.65
2131.94018	6080.65
2134.91236	6081.95
2137.88263	6088.05
2140.851	6098.85
2143.81746	6081.05
2146.78201	6088.45
2149.74466	6094.55
2152.7054	6067.45
2155.66425	6073.05
2158.6212	6083.35
2161.57625	6052.05
2164.52941	6078.75
2167.48067	6059.75
2170.43004	6067.15
2173.37752	6027.65
2176.32311	6031.65
2179.26681	6041.65
2182.20863	6021.95
2185.14856	6028.05
2188.08661	6034.25
2191.02278	6032.75
2193.95707	6036.05
2196.88948	6022.95
2199.82001	6024.95
2202.74867	5996.35
2205.67545	6004.45
2208.60037	5986.95
2211.52341	5973.35
2214.44458	5977.25
2217.36388	5952.05
2220.28132	5942.65
2223.1969	5942.45
2226.11061	5916.05
2229.02246	5892.15
2231.93245	5881.65
2234.84058	5890.55
2237.74686	5869.75
2240.65128	5867.95
2243.55385	5853.45
2246.45456	5870.55
2249.35343	5844.35
2252.25044	5828.25
2255.14561	5820.75
2258.03893	5804.85
2260.93041	5814.15
2263.82004	5796.15
2266.70783	5769.65
2269.59378	5776.85
2272.4779	5746.85
2275.36017	5741.25
2278.24061	5712.35
2281.11922	5710.85
2283.996	5690.05
2286.87094	5695.55
2289.74405	5686.55
2292.61534	5647.35
2295.4848	5652.25
2298.35243	5657.85
2301.21824	5650.55
2304.08223	5666.45
2306.94439	5638.25
2309.80474	5638.95
2312.66327	5646.45
2315.51999	5634.75
2318.37489	5607.85
2321.22797	5584.45
2324.07925	5617.15
2326.92871	5603.05
2329.77637	5606.45
2332.62222	5597.15
2335.46626	5584.75
2338.3085	5580.45
2341.14893	5565.45
2343.98756	5562.45
2346.8244	5589.05
2349.65943	5567.25
2352.49267	5574.55
2355.32411	5571.85
2358.15376	5573.75
2360.98161	5575.05
2363.80768	5570.85
2366.63195	5567.55
2369.45444	5562.95
2372.27514	5556.85
2375.09405	5531.25
2377.91118	5511.85
2380.72652	5506.55
2383.54009	5472.15
2386.35187	5482.55
2389.16188	5461.55
2391.97011	5454.15
2394.77657	5428.95
2397.58125	5418.45
2400.38416	5410.45
2403.18529	5402.25
2405.98466	5390.85
2408.78226	5376.05
2411.57809	5356.55
2414.37216	5369.35
2417.16446	5359.85
2419.955	5331.25
2422.74378	5335.95
2425.5308	5332.95
2428.31606	5322.35
2431.09956	5310.05
2433.88131	5303.55
2436.6613	5298.35
2439.43954	5311.15
2442.21603	5285.45
2444.99077	5293.15
2447.76377	5277.05
2450.53501	5313.35
2453.30451	5292.15
2456.07226	5281.65
2458.83827	5285.05
2461.60254	5268.75
2464.36507	5268.35
2467.12586	5264.05
2469.88492	5255.35
2472.64224	5262.45
2475.39782	5277.45
2478.15167	5276.95
2480.90379	5266.35
2483.65417	5257.95
2486.40283	5291.95
2489.14976	5290.85
2491.89497	5280.65
2494.63845	5290.25
2497.3802	5300.05
2500.12024	5266.25
2502.85855	5260.15
2505.59514	5257.55
2508.33002	5246.35
2511.06318	5217.85
2513.79462	5229.05
2516.52435	5215.15
2519.25237	5194.25
2521.97867	5179.25
2524.70327	5181.85
2527.42616	5154.75
2530.14734	5170.95
2532.86681	5158.75
2535.58458	5139.95
2538.30065	5121.95
2541.01501	5132.45
2543.72768	5138.95
2546.43864	5130.35
2549.14791	5108.95
2551.85548	5109.35
2554.56136	5109.95
2557.26554	5095.85
2559.96803	5093.45
2562.66883	5099.35
2565.36794	5082.75
2568.06536	5064.15
2570.7611	5061.45
2573.45514	5082.75
2576.14751	5054.45
2578.83819	5051.45
2581.52719	5044.55
2584.21451	5026.75
2586.90015	5023.05
2589.58411	5033.95
2592.2664	5015.25
2594.94701	5011.85
2597.62594	5012.25
2600.30321	4979.65
2602.9788	4981.55
2605.65273	4984.55
2608.32498	4997.65
2610.99557	4978.35
2613.66449	4972.55
2616.33175	4969.35
2618.99734	4982.35
2621.66128	4973.15
2624.32355	4978.45
2626.98416	4966.15
2629.64311	4961.15
2632.30041	4956.65
2634.95605	4956.85
2637.61004	4943.35
2640.26238	4935.05
2642.91306	4933.95
2645.56209	4924.95
2648.20948	4911.65
2650.85521	4909.05
2653.4993	4906.65
2656.14175	4915.15
2658.78255	4922.25
2661.42171	4921.25
2664.05923	4919.65
2666.6951	4924.85
2669.32934	4925.25
2671.96194	4918.45
2674.59291	4941.05
2677.22224	4938.15
2679.84993	4929.95
2682.476	4921.95
2685.10043	4935.35
2687.72324	4909.85
2690.34441	4918.75
2692.96396	4925.55
2695.58188	4918.25
2698.19818	4904.25
2700.81285	4923.95
2703.4259	4942.05
2706.03733	4988.35
2708.64714	4947.75
2711.25533	4920.95
2713.86191	4917.55
2716.46687	4936.35
2719.07021	4937.65
2721.67194	4904.65
2724.27206	4899.45
2726.87057	4917.85
2729.46747	4922.95
2732.06276	4943.45
2734.65644	4904.55
2737.24852	4905.85
2739.83899	4899.55
2742.42786	4882.35
2745.01513	4882.45
2747.60079	4891.45
2750.18486	4889.65
2752.76733	4863.95
2755.3482	4872.95
2757.92747	4893.85
2760.50515	4858.25
2763.08123	4871.25
2765.65573	4861.65
2768.22863	4855.75
2770.79994	4839.95
2773.36967	4852.95
2775.9378	4845.45
2778.50435	4849.25
2781.06932	4834.75
2783.6327	4840.85
2786.1945	4831.05
2788.75471	4836.15
2791.31335	4816.25
2793.87041	4821.05
2796.42589	4781.95
2798.97979	4793.25
2801.53212	4784.25
2804.08288	4788.25
2806.63206	4791.35
2809.17967	4774.65
2811.72571	4754.85
2814.27018	4757.65
2816.81308	4747.25
2819.35442	4730.65
2821.89419	4737.75
2824.43239	4741.65
2826.96904	4735.15
2829.50412	4722.15
2832.03763	4728.25
2834.56959	4737.15
2837.1	4719.95
2839.62884	4733.55
2842.15613	4719.85
2844.68186	4747.55
2847.20604	4748.15
2849.72867	4749.55
2852.24974	4731.05
2854.76927	4740.15
2857.28724	4753.55
2859.80367	4722.95
2862.31855	4712.25
2864.83189	4700.85
2867.34368	4702.65
2869.85393	4709.95
2872.36264	4697.35
2874.8698	4689.25
2877.37543	4692.35
2879.87952	4703.75
2882.38207	4686.45
2884.88308	4696.25
2887.38256	4690.15
2889.88051	4695.15
2892.37692	4707.75
2894.8718	4697.85
2897.36515	4697.25
2899.85698	4685.95
2902.34727	4711.55
2904.83604	4693.75
2907.32328	4696.95
2909.809	4708.25
2912.29319	4727.25
2914.77587	4711.75
2917.25702	4708.95
2919.73665	4699.75
2922.21476	4692.85
2924.69136	4697.25
2927.16644	4697.85
2929.64	4700.35
2932.11205	4696.45
2934.58258	4678.05
2937.05161	4685.25
2939.51912	4676.65
2941.98513	4669.15
2944.44962	4650.05
2946.91261	4637.05
2949.37409	4650.95
2951.83407	4645.15
2954.29254	4635.15
2956.74951	4630.25
2959.20498	4625.15
2961.65895	4608.25
2964.11142	4610.25
2966.56239	4601.15
2969.01186	4581.95
2971.45984	4565.25
2973.90632	4564.45
2976.35131	4541.55
2978.7948	4548.05
2981.23681	4524.25
2983.67732	4520.75
2986.11635	4509.85
2988.55388	4493.95
2990.98993	4486.65
2993.4245	4478.35
2995.85758	4463.25
2998.28917	4475.35
3000.71928	4461.15
3003.14791	4451.55
3005.57506	4454.25
3008.00073	4445.85
3010.42493	4436.25
3012.84764	4425.95
3015.26888	4435.15
3017.68865	4426.65
3020.10694	4413.65
3022.52376	4419.65
3024.9391	4404.05
3027.35298	4408.05
3029.76539	4384.45
3032.17632	4384.95
3034.5858	4369.75
3036.9938	4373.55
3039.40034	4354.45
3041.80542	4347.35
3044.20903	4351.25
3046.61118	4340.95
3049.01187	4354.55
3051.4111	4335.55
3053.80888	4313.95
3056.20519	4323.75
3058.60005	4308.95
3060.99345	4307.55
3063.3854	4296.05
3065.7759	4283.25
3068.16494	4263.55
3070.55254	4262.95
3072.93868	4252.15
3075.32338	4254.95
3077.70662	4244.05
3080.08842	4224.75
3082.46878	4236.95
3084.84769	4222.85
3087.22515	4223.25
3089.60118	4220.55
3091.97576	4225.15
3094.3489	4232.95
3096.72061	4213.45
3099.09087	4212.65
3101.4597	4215.45
3103.82709	4224.85
3106.19305	4214.85
3108.55757	4215.15
3110.92066	4194.55
3113.28232	4190.25
3115.64255	4179.25
3118.00134	4173.95
3120.35871	4175.75
3122.71466	4166.55
3125.06917	4181.45
3127.42226	4164.65
3129.77393	4161.95
3132.12417	4154.15
3134.47299	4170.65
3136.82039	4163.55
3139.16636	4174.45
3141.51092	4172.35
3143.85406	4181.65
3146.19579	4178.15
3148.53609	4168.75
3150.87499	4195.85
3153.21246	4184.25
3155.54853	4197.65
3157.88318	4201.95
3160.21642	4209.35
3162.54826	4190.75
3164.87868	4195.35
3167.2077	4188.45
3169.5353	4197.65
3171.86151	4198.85
3174.18631	4193.75
3176.5097	4191.85
3178.83169	4188.85
3181.15228	4192.65
3183.47147	4194.05
3185.78926	4201.95
3188.10565	4199.05
3190.42065	4190.35
3192.73424	4186.15
3195.04645	4198.35
3197.35725	4198.75
3199.66667	4205.65
3201.97469	4217.25
3204.28132	4210.05
3206.58656	4236.45
3208.8904	4217.95
3211.19287	4223.65
3213.49394	4210.25
3215.79363	4215.65
3218.09193	4231.85
3220.38884	4236.85
3222.68438	4251.65
3224.97853	4236.65
3227.2713	4219.65
3229.56269	4219.35
3231.8527	4213.95
3234.14133	4201.75
3236.42858	4195.55
3238.71446	4215.55
3240.99896	4180.65
3243.28209	4183.75
3245.56384	4188.85
3247.84423	4187.95
3250.12324	4194.15
3252.40088	4176.45
3254.67715	4186.25
3256.95205	4181.95
3259.22558	4177.35
3261.49775	4160.75
3263.76855	4163.05
3266.03799	4147.15
3268.30606	4129.15
3270.57277	4122.75
3272.83812	4131.35
3275.10211	4133.85
3277.36474	4130.05
3279.62601	4121.55
3281.88593	4109.65
3284.14448	4113.35
3286.40168	4109.05
3288.65753	4103.55
3290.91202	4114.25
3293.16516	4089.15
3295.41695	4088.85
3297.66738	4064.05
3299.91647	4036.45
3302.16421	4011.15
3304.4106	3990.15
3306.65564	3996.35
3308.89933	3960.85
3311.14169	3962.75
3313.38269	3933.65
3315.62236	3884.55
3317.86068	3856.85
3320.09766	3820.75
3322.3333	3788.95
3324.5676	3796.85
3326.80056	3739.75
3329.03219	3723.05
3331.26248	1.55
3333.49143	0.75
3335.71905	0.65
