Data from AgNPs_FTO_APTES_UA_50um_CRN_0.1mM_R6G_10uM_NaF_0.1M_Addition_RamanShift__19__15-25-09-247.txt Node

Date: Tue Dec 21 15:25:09 GMT 2021
User: TCL
Spectrometer: QEP01345
Trigger mode: 4
Integration Time (sec): 7.000000E0
Scans to average: 10
Electric dark correction enabled: true
Nonlinearity correction enabled: false
Boxcar width: 0
XAxis mode: Raman Shifts
Number of Pixels in Spectrum: 1044
>>>>>Begin Spectral Data<<<<<
46.04893	1.05
50.45542	-0.55
54.85868	-1.15
59.25871	0.35
63.6555	38.95
68.04907	45.35
72.43941	49.85
76.82654	49.85
81.21044	54.85
85.59113	50.75
89.96862	55.85
94.34289	58.15
98.71396	60.15
103.08183	62.35
107.4465	65.75
111.80798	67.65
116.16626	64.95
120.52136	65.95
124.87327	66.95
129.222	69.15
133.56755	76.35
137.90993	80.45
142.24913	82.85
146.58517	92.05
150.91804	106.55
155.24774	122.55
159.57429	146.55
163.89768	190.75
168.21792	242.55
172.53501	328.85
176.84895	454.65
181.15975	628.25
185.46741	877.45
189.77193	1213.25
194.07331	1633.75
198.37157	2107.65
202.6667	2609.15
206.9587	3111.05
211.24758	3610.65
215.53334	4127.75
219.81599	4639.05
224.09553	5225.85
228.37195	5863.85
232.64527	6563.05
236.91549	7293.45
241.18261	8042.75
245.44663	8726.35
249.70755	9318.55
253.96539	9822.45
258.22014	10245.55
262.4718	10599.25
266.72039	10853.65
270.96589	10975.85
275.20832	11008.55
279.44768	10882.25
283.68397	10769.15
287.91719	10664.55
292.14735	10601.55
296.37445	10605.95
300.59849	10669.35
304.81948	10716.45
309.03742	10730.95
313.25231	10605.15
317.46415	10345.65
321.67296	10012.25
325.87872	9733.05
330.08145	9555.95
334.28114	9568.85
338.47781	9656.15
342.67145	9776.05
346.86207	9920.05
351.04966	10127.75
355.23424	10363.45
359.4158	10549.65
363.59435	10686.75
367.76989	10814.35
371.94243	10900.65
376.11196	10924.95
380.27849	10979.15
384.44203	11035.05
388.60257	11070.45
392.76012	11152.35
396.91468	11290.05
401.06626	11396.55
405.21485	11526.95
409.36047	11440.75
413.50311	11218.25
417.64277	11039.45
421.77947	10895.65
425.9132	10882.35
430.04396	10915.45
434.17176	11004.45
438.2966	11075.15
442.41849	11249.65
446.53742	11492.75
450.6534	11789.35
454.76644	12009.15
458.87653	12072.35
462.98368	12057.75
467.08789	11965.75
471.18916	11856.85
475.2875	11785.75
479.38291	11766.45
483.4754	11705.55
487.56496	11574.55
491.6516	11377.35
495.73531	11225.35
499.81612	11179.35
503.89401	11221.35
507.96899	11258.35
512.04106	11254.45
516.11023	11199.65
520.1765	11147.35
524.23987	11093.05
528.30034	10999.75
532.35792	10940.95
536.41261	10869.85
540.46441	10794.45
544.51333	10737.65
548.55936	10791.15
552.60252	10958.55
556.64279	11135.65
560.6802	11245.25
564.71473	11329.75
568.7464	11465.25
572.7752	11694.35
576.80114	11783.15
580.82422	11865.15
584.84444	11992.25
588.86181	12116.75
592.87633	12258.65
596.888	12307.55
600.89682	12308.85
604.9028	12625.95
608.90594	13795.45
612.90624	15181.85
616.90371	14538.55
620.89834	12110.35
624.89015	10883.15
628.87913	10754.85
632.86528	10888.95
636.84862	11041.15
640.82913	10957.75
644.80683	10694.95
648.78172	10399.45
652.75379	10277.75
656.72306	10369.15
660.68952	10543.95
664.65319	10542.25
668.61405	10381.85
672.57211	10386.35
676.52738	10471.15
680.47986	10512.55
684.42955	10463.75
688.37646	10350.35
692.32058	10268.55
696.26192	10240.95
700.20048	10311.55
704.13626	10341.15
708.06928	10331.45
711.99952	10264.25
715.927	10228.05
719.85171	10218.55
723.77365	10206.25
727.69284	10205.45
731.60928	10132.55
735.52295	10102.65
739.43388	10094.85
743.34206	10107.85
747.24749	10101.35
751.15017	10128.05
755.05012	10226.85
758.94733	10485.55
762.8418	10975.75
766.73354	11870.05
770.62254	12889.65
774.50882	13356.65
778.39237	12840.95
782.27321	11776.85
786.15132	10823.25
790.02671	10244.05
793.89938	9915.85
797.76935	9799.55
801.6366	9764.95
805.50115	9759.45
809.36299	9687.05
813.22213	9627.95
817.07857	9604.05
820.93231	9543.15
824.78336	9497.85
828.63172	9451.45
832.47738	9421.35
836.32036	9386.15
840.16066	9394.35
843.99827	9363.25
847.8332	9319.35
851.66546	9292.85
855.49504	9269.35
859.32195	9266.85
863.1462	9290.05
866.96777	9303.45
870.78668	9283.95
874.60293	9287.35
878.41652	9292.65
882.22745	9325.15
886.03573	9364.05
889.84136	9350.15
893.64433	9302.35
897.44466	9238.15
901.24235	9173.55
905.0374	9113.45
908.8298	9055.65
912.61957	9031.25
916.40671	9079.05
920.19121	9155.85
923.97308	9199.95
927.75233	9207.15
931.52895	9151.05
935.30295	9067.55
939.07433	8934.45
942.84309	8780.95
946.60924	8697.35
950.37278	8665.35
954.13371	8647.25
957.89203	8626.45
961.64774	8599.35
965.40086	8559.35
969.15137	8510.35
972.89929	8462.85
976.64461	8398.65
980.38733	8400.75
984.12747	8401.15
987.86502	8380.95
991.59999	8466.55
995.33237	8496.45
999.06217	8655.85
1002.78939	8790.25
1006.51404	8953.65
1010.23611	9071.25
1013.95561	9150.35
1017.67255	9196.55
1021.38692	9137.85
1025.09872	8984.45
1028.80796	8891.15
1032.51465	8862.95
1036.21877	8924.35
1039.92035	8959.45
1043.61937	8971.65
1047.31584	8960.65
1051.00976	8964.35
1054.70114	8936.05
1058.38998	8955.55
1062.07627	9001.75
1065.76003	9081.45
1069.44126	9134.55
1073.11995	9229.85
1076.79611	9293.25
1080.46974	9351.85
1084.14085	9409.15
1087.80943	9417.55
1091.47549	9528.15
1095.13903	9562.85
1098.80005	9448.15
1102.45857	9281.75
1106.11456	9131.25
1109.76805	9109.35
1113.41903	9137.25
1117.06751	9234.05
1120.71348	9385.25
1124.35696	9533.65
1127.99793	9747.15
1131.63641	9925.95
1135.2724	9857.75
1138.90589	9771.85
1142.5369	9639.55
1146.16542	9573.45
1149.79145	9495.75
1153.415	9507.55
1157.03607	9595.15
1160.65467	9783.15
1164.27079	10105.95
1167.88443	10570.05
1171.49561	11153.75
1175.10432	12012.85
1178.71056	13028.55
1182.31434	13962.75
1185.91565	14433.45
1189.51451	14317.45
1193.11091	13872.15
1196.70485	13295.15
1200.29634	12700.15
1203.88538	12269.75
1207.47197	11846.05
1211.05612	11497.85
1214.63782	11197.65
1218.21708	10962.55
1221.79391	10782.45
1225.36829	10722.95
1228.94024	10617.65
1232.50976	10456.75
1236.07685	10325.45
1239.6415	10273.45
1243.20374	10266.95
1246.76355	10322.85
1250.32093	10435.55
1253.8759	10595.95
1257.42845	10869.75
1260.97859	11113.45
1264.52631	11380.75
1268.07163	11663.25
1271.61453	11935.05
1275.15503	12223.75
1278.69312	12511.55
1282.22882	12810.55
1285.76211	13103.05
1289.29301	13536.35
1292.82151	14096.85
1296.34761	14757.35
1299.87133	15554.45
1303.39266	16378.95
1306.9116	17293.15
1310.42815	18173.85
1313.94233	18796.25
1317.45412	18831.55
1320.96354	18520.85
1324.47058	18058.05
1327.97525	17603.85
1331.47754	17223.55
1334.97747	16967.35
1338.47502	16885.85
1341.97022	16825.45
1345.46305	16801.15
1348.95352	16837.65
1352.44163	17121.45
1355.92738	17644.15
1359.41078	18527.25
1362.89183	19411.45
1366.37053	19280.85
1369.84688	17615.75
1373.32088	15549.05
1376.79254	14088.55
1380.26186	13437.45
1383.72883	13224.85
1387.19347	13149.75
1390.65578	12986.95
1394.11575	12911.45
1397.57339	12992.65
1401.0287	13178.55
1404.48168	13308.05
1407.93234	13309.85
1411.38068	13110.95
1414.82669	12678.85
1418.27039	12221.05
1421.71177	11704.95
1425.15083	11250.55
1428.58758	10954.15
1432.02203	10967.35
1435.45416	11109.95
1438.88399	11373.05
1442.31151	11600.65
1445.73673	11816.25
1449.15965	12042.75
1452.58027	12219.75
1455.9986	12308.05
1459.41463	12411.25
1462.82837	12574.45
1466.23982	12761.25
1469.64898	12920.75
1473.05586	13063.25
1476.46045	13061.35
1479.86276	13017.65
1483.26279	12906.45
1486.66054	12868.05
1490.05602	12888.75
1493.44922	13014.55
1496.84016	13258.55
1500.22882	13685.15
1503.61521	14386.95
1506.99934	15194.25
1510.38121	15956.15
1513.76081	16263.55
1517.13816	15798.45
1520.51324	14930.05
1523.88607	14018.45
1527.25665	13446.15
1530.62498	13153.25
1533.99105	13015.35
1537.35488	12850.65
1540.71647	12633.85
1544.07581	12353.35
1547.4329	12080.45
1550.78776	11849.85
1554.14038	11700.05
1557.49077	11680.35
1560.83892	11760.75
1564.18484	11867.75
1567.52853	12002.95
1570.86999	12119.55
1574.20922	12308.75
1577.54624	12429.75
1580.88103	12343.35
1584.2136	12189.95
1587.54395	12187.85
1590.87208	12469.55
1594.19801	13002.75
1597.52172	13674.95
1600.84321	13973.05
1604.16251	13567.65
1607.47959	12721.35
1610.79447	11747.75
1614.10715	10866.95
1617.41763	10091.95
1620.7259	9524.15
1624.03199	9194.45
1627.33587	9152.65
1630.63757	9324.05
1633.93707	9736.15
1637.23439	10528.15
1640.52951	11704.45
1643.82246	13200.75
1647.11321	14624.65
1650.40179	15296.85
1653.68819	14776.55
1656.97241	13180.05
1660.25446	11360.15
1663.53433	9904.05
1666.81203	8946.45
1670.08756	8366.95
1673.36092	7945.05
1676.63211	7707.15
1679.90115	7527.15
1683.16801	7383.45
1686.43272	7277.15
1689.69527	7180.25
1692.95567	7106.35
1696.2139	7055.35
1699.46999	7049.85
1702.72392	6978.15
1705.97571	6921.35
1709.22535	6877.95
1712.47284	6832.65
1715.71819	6793.95
1718.96139	6777.25
1722.20246	6716.15
1725.44139	6680.05
1728.67818	6664.25
1731.91284	6617.35
1735.14537	6574.95
1738.37576	6553.35
1741.60403	6513.85
1744.83017	6506.15
1748.05418	6505.55
1751.27607	6501.15
1754.49584	6504.85
1757.71349	6501.05
1760.92903	6498.45
1764.14244	6474.25
1767.35375	6449.75
1770.56294	6395.15
1773.77002	6380.05
1776.97499	6324.85
1780.17785	6271.25
1783.37861	6266.45
1786.57727	6233.35
1789.77382	6206.75
1792.96828	6200.05
1796.16064	6161.45
1799.3509	6141.55
1802.53907	6117.55
1805.72514	6094.85
1808.90913	6081.75
1812.09102	6069.75
1815.27083	6036.25
1818.44856	6033.85
1821.6242	6017.55
1824.79776	6000.65
1827.96924	5979.05
1831.13864	5959.45
1834.30597	5977.95
1837.47122	5954.75
1840.6344	5954.45
1843.7955	5934.85
1846.95454	5942.55
1850.11151	5911.75
1853.26642	5932.45
1856.41926	5907.25
1859.57004	5903.15
1862.71876	5870.25
1865.86542	5857.95
1869.01003	5860.65
1872.15258	5881.25
1875.29308	5856.25
1878.43152	5849.45
1881.56792	5835.05
1884.70227	5832.35
1887.83457	5832.75
1890.96482	5797.45
1894.09304	5797.15
1897.21921	5797.65
1900.34335	5779.55
1903.46544	5765.65
1906.58551	5755.15
1909.70353	5742.25
1912.81953	5743.35
1915.93349	5724.25
1919.04543	5720.75
1922.15534	5700.75
1925.26322	5690.95
1928.36908	5651.45
1931.47292	5647.85
1934.57473	5633.55
1937.67453	5613.15
1940.77232	5586.35
1943.86808	5573.95
1946.96184	5572.05
1950.05358	5536.95
1953.14331	5526.65
1956.23103	5497.65
1959.31675	5493.65
1962.40046	5467.35
1965.48217	5441.65
1968.56188	5434.65
1971.63959	5400.75
1974.7153	5398.25
1977.78901	5391.85
1980.86073	5359.25
1983.93046	5334.75
1986.99819	5307.55
1990.06394	5295.25
1993.1277	5288.35
1996.18947	5267.75
1999.24925	5254.95
2002.30706	5215.45
2005.36288	5191.15
2008.41672	5193.15
2011.46859	5187.55
2014.51848	5167.85
2017.56639	5148.45
2020.61233	5120.75
2023.6563	5114.85
2026.6983	5099.85
2029.73833	5078.05
2032.7764	5052.85
2035.8125	5044.95
2038.84664	5025.25
2041.87881	5043.35
2044.90903	5018.25
2047.93729	5002.35
2050.96359	5013.25
2053.98794	5004.35
2057.01034	5011.35
2060.03078	4989.45
2063.04927	4972.05
2066.06582	4966.45
2069.08042	4948.25
2072.09307	4949.35
2075.10378	4937.85
2078.11255	4941.45
2081.11938	4942.05
2084.12426	4932.45
2087.12722	4931.35
2090.12824	4937.15
2093.12732	4935.05
2096.12447	4910.15
2099.11969	4924.45
2102.11299	4927.45
2105.10435	4899.95
2108.09379	4910.95
2111.08131	4911.45
2114.0669	4915.35
2117.05057	4914.05
2120.03233	4923.45
2123.01216	4910.15
2125.99008	4915.35
2128.96609	4914.95
2131.94018	4921.85
2134.91236	4906.75
2137.88263	4908.95
2140.851	4910.45
2143.81746	4906.75
2146.78201	4909.05
2149.74466	4903.35
2152.7054	4894.95
2155.66425	4905.65
2158.6212	4889.85
2161.57625	4886.65
2164.52941	4879.95
2167.48067	4887.85
2170.43004	4862.15
2173.37752	4851.05
2176.32311	4858.45
2179.26681	4849.05
2182.20863	4848.55
2185.14856	4858.25
2188.08661	4865.35
2191.02278	4850.55
2193.95707	4844.45
2196.88948	4833.95
2199.82001	4829.75
2202.74867	4829.25
2205.67545	4820.45
2208.60037	4802.15
2211.52341	4788.55
2214.44458	4784.35
2217.36388	4765.05
2220.28132	4764.65
2223.1969	4751.15
2226.11061	4749.95
2229.02246	4727.65
2231.93245	4712.05
2234.84058	4709.35
2237.74686	4698.25
2240.65128	4684.95
2243.55385	4685.35
2246.45456	4683.25
2249.35343	4658.45
2252.25044	4660.15
2255.14561	4639.95
2258.03893	4641.15
2260.93041	4649.35
2263.82004	4638.35
2266.70783	4602.85
2269.59378	4604.15
2272.4779	4570.15
2275.36017	4579.85
2278.24061	4558.55
2281.11922	4545.65
2283.996	4532.85
2286.87094	4528.15
2289.74405	4502.25
2292.61534	4495.55
2295.4848	4500.05
2298.35243	4494.65
2301.21824	4489.05
2304.08223	4493.75
2306.94439	4471.15
2309.80474	4452.75
2312.66327	4452.05
2315.51999	4463.15
2318.37489	4464.65
2321.22797	4465.65
2324.07925	4436.85
2326.92871	4449.85
2329.77637	4439.65
2332.62222	4432.55
2335.46626	4416.05
2338.3085	4415.25
2341.14893	4407.85
2343.98756	4416.15
2346.8244	4406.85
2349.65943	4397.05
2352.49267	4388.85
2355.32411	4397.95
2358.15376	4394.15
2360.98161	4392.05
2363.80768	4388.55
2366.63195	4401.55
2369.45444	4372.15
2372.27514	4373.75
2375.09405	4360.85
2377.91118	4356.35
2380.72652	4327.05
2383.54009	4321.75
2386.35187	4329.25
2389.16188	4299.35
2391.97011	4302.05
2394.77657	4279.85
2397.58125	4263.65
2400.38416	4255.85
2403.18529	4259.45
2405.98466	4255.05
2408.78226	4222.65
2411.57809	4223.15
2414.37216	4219.35
2417.16446	4221.85
2419.955	4211.45
2422.74378	4214.25
2425.5308	4188.25
2428.31606	4195.25
2431.09956	4172.05
2433.88131	4177.55
2436.6613	4188.85
2439.43954	4175.55
2442.21603	4163.35
2444.99077	4159.15
2447.76377	4176.95
2450.53501	4162.65
2453.30451	4149.35
2456.07226	4153.65
2458.83827	4160.35
2461.60254	4157.15
2464.36507	4155.95
2467.12586	4155.45
2469.88492	4129.55
2472.64224	4150.05
2475.39782	4134.95
2478.15167	4153.55
2480.90379	4141.95
2483.65417	4139.75
2486.40283	4139.75
2489.14976	4134.55
2491.89497	4129.55
2494.63845	4129.55
2497.3802	4138.15
2500.12024	4140.65
2502.85855	4142.95
2505.59514	4135.55
2508.33002	4101.15
2511.06318	4099.95
2513.79462	4093.45
2516.52435	4071.15
2519.25237	4074.75
2521.97867	4076.05
2524.70327	4061.45
2527.42616	4051.65
2530.14734	4052.85
2532.86681	4045.75
2535.58458	4040.65
2538.30065	4028.65
2541.01501	4022.65
2543.72768	4032.25
2546.43864	4031.35
2549.14791	4010.45
2551.85548	4011.85
2554.56136	3990.85
2557.26554	3994.95
2559.96803	3997.35
2562.66883	3985.15
2565.36794	3986.35
2568.06536	3978.65
2570.7611	3975.25
2573.45514	3955.85
2576.14751	3954.75
2578.83819	3947.15
2581.52719	3947.05
2584.21451	3941.45
2586.90015	3930.85
2589.58411	3936.05
2592.2664	3923.15
2594.94701	3918.35
2597.62594	3915.55
2600.30321	3909.65
2602.9788	3907.85
2605.65273	3889.45
2608.32498	3899.65
2610.99557	3893.25
2613.66449	3883.85
2616.33175	3885.85
2618.99734	3872.85
2621.66128	3875.75
2624.32355	3876.55
2626.98416	3877.15
2629.64311	3863.45
2632.30041	3864.45
2634.95605	3856.85
2637.61004	3862.15
2640.26238	3856.75
2642.91306	3851.25
2645.56209	3848.75
2648.20948	3842.65
2650.85521	3839.05
2653.4993	3831.15
2656.14175	3854.85
2658.78255	3832.45
2661.42171	3841.15
2664.05923	3847.35
2666.6951	3828.65
2669.32934	3844.95
2671.96194	3836.55
2674.59291	3843.35
2677.22224	3841.45
2679.84993	3837.25
2682.476	3825.15
2685.10043	3855.05
2687.72324	3828.65
2690.34441	3822.25
2692.96396	3824.05
2695.58188	3825.85
2698.19818	3816.95
2700.81285	3819.25
2703.4259	3851.95
2706.03733	3891.95
2708.64714	3851.75
2711.25533	3829.05
2713.86191	3833.35
2716.46687	3825.35
2719.07021	3824.45
2721.67194	3813.85
2724.27206	3819.05
2726.87057	3824.95
2729.46747	3802.55
2732.06276	3808.45
2734.65644	3802.95
2737.24852	3835.95
2739.83899	3808.75
2742.42786	3794.85
2745.01513	3786.25
2747.60079	3796.15
2750.18486	3797.55
2752.76733	3794.25
2755.3482	3785.25
2757.92747	3794.65
2760.50515	3781.55
2763.08123	3775.95
2765.65573	3773.75
2768.22863	3775.95
2770.79994	3750.75
2773.36967	3781.85
2775.9378	3769.95
2778.50435	3761.85
2781.06932	3761.65
2783.6327	3759.65
2786.1945	3757.55
2788.75471	3752.75
2791.31335	3752.35
2793.87041	3734.35
2796.42589	3723.85
2798.97979	3736.45
2801.53212	3710.75
2804.08288	3715.45
2806.63206	3717.65
2809.17967	3708.05
2811.72571	3671.95
2814.27018	3704.75
2816.81308	3697.95
2819.35442	3676.35
2821.89419	3678.85
2824.43239	3679.75
2826.96904	3667.55
2829.50412	3673.15
2832.03763	3664.35
2834.56959	3660.55
2837.1	3656.65
2839.62884	3659.65
2842.15613	3647.45
2844.68186	3674.95
2847.20604	3664.25
2849.72867	3652.35
2852.24974	3680.95
2854.76927	3678.25
2857.28724	3681.35
2859.80367	3665.05
2862.31855	3646.65
2864.83189	3656.25
2867.34368	3633.55
2869.85393	3648.25
2872.36264	3633.15
2874.8698	3628.65
2877.37543	3628.25
2879.87952	3643.35
2882.38207	3635.65
2884.88308	3639.05
2887.38256	3641.45
2889.88051	3639.55
2892.37692	3635.05
2894.8718	3637.95
2897.36515	3639.15
2899.85698	3645.05
2902.34727	3654.45
2904.83604	3662.05
2907.32328	3656.45
2909.809	3655.85
2912.29319	3664.85
2914.77587	3651.35
2917.25702	3669.25
2919.73665	3668.55
2922.21476	3671.65
2924.69136	3668.35
2927.16644	3661.85
2929.64	3670.75
2932.11205	3668.85
2934.58258	3649.75
2937.05161	3657.05
2939.51912	3659.55
2941.98513	3655.05
2944.44962	3639.65
2946.91261	3640.35
2949.37409	3635.95
2951.83407	3624.85
2954.29254	3630.55
2956.74951	3618.55
2959.20498	3607.45
2961.65895	3593.25
2964.11142	3609.25
2966.56239	3590.35
2969.01186	3571.05
2971.45984	3552.15
2973.90632	3542.95
2976.35131	3540.15
2978.7948	3527.25
2981.23681	3517.05
2983.67732	3516.95
2986.11635	3504.75
2988.55388	3498.35
2990.98993	3477.25
2993.4245	3472.35
2995.85758	3468.35
2998.28917	3457.75
3000.71928	3456.85
3003.14791	3445.05
3005.57506	3449.35
3008.00073	3435.45
3010.42493	3427.25
3012.84764	3438.15
3015.26888	3432.45
3017.68865	3422.35
3020.10694	3416.15
3022.52376	3404.95
3024.9391	3410.85
3027.35298	3414.05
3029.76539	3396.95
3032.17632	3387.15
3034.5858	3377.05
3036.9938	3379.45
3039.40034	3356.75
3041.80542	3356.85
3044.20903	3358.55
3046.61118	3368.35
3049.01187	3363.95
3051.4111	3345.55
3053.80888	3333.35
3056.20519	3336.65
3058.60005	3345.05
3060.99345	3319.65
3063.3854	3322.95
3065.7759	3312.35
3068.16494	3297.05
3070.55254	3297.75
3072.93868	3284.05
3075.32338	3296.65
3077.70662	3292.85
3080.08842	3267.35
3082.46878	3275.55
3084.84769	3268.45
3087.22515	3271.85
3089.60118	3285.95
3091.97576	3285.15
3094.3489	3284.85
3096.72061	3278.25
3099.09087	3272.75
3101.4597	3273.65
3103.82709	3266.95
3106.19305	3265.15
3108.55757	3276.65
3110.92066	3259.85
3113.28232	3262.75
3115.64255	3239.85
3118.00134	3251.65
3120.35871	3246.05
3122.71466	3242.15
3125.06917	3238.05
3127.42226	3241.15
3129.77393	3249.45
3132.12417	3239.25
3134.47299	3250.85
3136.82039	3245.95
3139.16636	3243.45
3141.51092	3238.15
3143.85406	3263.15
3146.19579	3258.95
3148.53609	3260.05
3150.87499	3252.55
3153.21246	3250.95
3155.54853	3268.85
3157.88318	3276.95
3160.21642	3262.25
3162.54826	3281.85
3164.87868	3268.15
3167.2077	3278.65
3169.5353	3287.75
3171.86151	3279.45
3174.18631	3285.55
3176.5097	3276.75
3178.83169	3285.35
3181.15228	3279.15
3183.47147	3274.45
3185.78926	3280.85
3188.10565	3275.05
3190.42065	3276.65
3192.73424	3280.95
3195.04645	3292.95
3197.35725	3290.55
3199.66667	3301.75
3201.97469	3293.45
3204.28132	3304.55
3206.58656	3307.55
3208.8904	3295.05
3211.19287	3300.15
3213.49394	3300.65
3215.79363	3304.95
3218.09193	3309.35
3220.38884	3312.15
3222.68438	3333.25
3224.97853	3310.15
3227.2713	3316.15
3229.56269	3306.45
3231.8527	3303.45
3234.14133	3294.95
3236.42858	3283.05
3238.71446	3292.05
3240.99896	3275.75
3243.28209	3282.45
3245.56384	3290.25
3247.84423	3273.05
3250.12324	3287.75
3252.40088	3293.95
3254.67715	3275.85
3256.95205	3272.25
3259.22558	3275.25
3261.49775	3252.15
3263.76855	3257.55
3266.03799	3253.85
3268.30606	3244.75
3270.57277	3231.95
3272.83812	3210.15
3275.10211	3227.65
3277.36474	3219.45
3279.62601	3232.25
3281.88593	3229.75
3284.14448	3223.65
3286.40168	3229.55
3288.65753	3221.75
3290.91202	3219.55
3293.16516	3209.55
3295.41695	3200.15
3297.66738	3181.55
3299.91647	3178.25
3302.16421	3147.75
3304.4106	3139.35
3306.65564	3127.95
3308.89933	3098.95
3311.14169	3096.25
3313.38269	3069.15
3315.62236	3054.35
3317.86068	3030.55
3320.09766	2999.45
3322.3333	2976.65
3324.5676	2977.85
3326.80056	2938.25
3329.03219	2922.05
3331.26248	0.25
3333.49143	-0.25
3335.71905	0.35
