Data from AgNP_FTO_APTES_CRN_0uM_R6G_10uM_NaF_0.1M_Addition_RamanShift__31__12-05-52-933.txt Node

Date: Wed Dec 15 12:05:52 GMT 2021
User: TCL
Spectrometer: QEP01345
Trigger mode: 4
Integration Time (sec): 7.000000E0
Scans to average: 10
Electric dark correction enabled: true
Nonlinearity correction enabled: false
Boxcar width: 0
XAxis mode: Raman Shifts
Number of Pixels in Spectrum: 1044
>>>>>Begin Spectral Data<<<<<
46.04893	1.65
50.45542	-1.45
54.85868	-0.05
59.25871	0.05
63.6555	62.75
68.04907	72.85
72.43941	74.35
76.82654	75.65
81.21044	83.75
85.59113	91.55
89.96862	95.85
94.34289	95.45
98.71396	104.85
103.08183	106.75
107.4465	106.55
111.80798	111.55
116.16626	108.85
120.52136	109.45
124.87327	106.35
129.222	107.45
133.56755	100.95
137.90993	107.35
142.24913	107.85
146.58517	113.45
150.91804	115.25
155.24774	126.25
159.57429	142.65
163.89768	168.35
168.21792	193.15
172.53501	240.65
176.84895	316.65
181.15975	406.65
185.46741	543.65
189.77193	728.05
194.07331	956.75
198.37157	1214.75
202.6667	1481.25
206.9587	1736.75
211.24758	1999.45
215.53334	2258.55
219.81599	2539.75
224.09553	2841.25
228.37195	3191.35
232.64527	3575.05
236.91549	3944.85
241.18261	4323.25
245.44663	4626.55
249.70755	4867.85
253.96539	5081.85
258.22014	5244.35
262.4718	5374.35
266.72039	5464.55
270.96589	5502.75
275.20832	5487.65
279.44768	5359.35
283.68397	5261.15
287.91719	5155.65
292.14735	5120.25
296.37445	5163.15
300.59849	5258.45
304.81948	5427.65
309.03742	5540.75
313.25231	5534.05
317.46415	5327.65
321.67296	5025.35
325.87872	4779.45
330.08145	4675.35
334.28114	4655.75
338.47781	4707.25
342.67145	4811.35
346.86207	4956.75
351.04966	5162.35
355.23424	5418.05
359.4158	5670.05
363.59435	5808.95
367.76989	5885.75
371.94243	5876.65
376.11196	5892.15
380.27849	5857.85
384.44203	5846.35
388.60257	5758.05
392.76012	5717.95
396.91468	5724.35
401.06626	5831.35
405.21485	5906.65
409.36047	5826.55
413.50311	5593.85
417.64277	5334.25
421.77947	5222.55
425.9132	5172.25
430.04396	5182.75
434.17176	5235.45
438.2966	5354.45
442.41849	5542.95
446.53742	5752.75
450.6534	5944.85
454.76644	6024.45
458.87653	5986.65
462.98368	5870.35
467.08789	5736.75
471.18916	5607.65
475.2875	5480.95
479.38291	5361.35
483.4754	5266.95
487.56496	5196.25
491.6516	5142.05
495.73531	5126.95
499.81612	5134.35
503.89401	5208.35
507.96899	5284.25
512.04106	5397.05
516.11023	5527.45
520.1765	5649.25
524.23987	5710.65
528.30034	5640.25
532.35792	5541.75
536.41261	5420.55
540.46441	5272.95
544.51333	5189.55
548.55936	5191.85
552.60252	5268.45
556.64279	5394.95
560.6802	5463.95
564.71473	5467.35
568.7464	5571.35
572.7752	5626.15
576.80114	5477.65
580.82422	5302.85
584.84444	5245.25
588.86181	5389.15
592.87633	5610.15
596.888	5784.75
600.89682	5843.35
604.9028	6185.45
608.90594	7442.85
612.90624	9154.45
616.90371	8900.05
620.89834	6529.85
624.89015	5302.05
628.87913	5038.45
632.86528	5026.15
636.84862	5055.75
640.82913	4999.95
644.80683	4850.15
648.78172	4750.75
652.75379	4776.75
656.72306	4971.25
660.68952	5202.05
664.65319	5148.55
668.61405	4895.65
672.57211	4763.75
676.52738	4768.15
680.47986	4767.25
684.42955	4738.45
688.37646	4738.35
692.32058	4757.85
696.26192	4815.95
700.20048	4920.85
704.13626	4985.65
708.06928	4975.95
711.99952	4945.75
715.927	4918.05
719.85171	4926.55
723.77365	4904.55
727.69284	4855.35
731.60928	4822.75
735.52295	4813.55
739.43388	4861.65
743.34206	4873.45
747.24749	4902.95
751.15017	4904.15
755.05012	4974.05
758.94733	5139.75
762.8418	5532.95
766.73354	6286.35
770.62254	7213.05
774.50882	7800.05
778.39237	7569.45
782.27321	6638.85
786.15132	5726.45
790.02671	5190.55
793.89938	4932.15
797.76935	4824.15
801.6366	4755.85
805.50115	4718.75
809.36299	4697.95
813.22213	4657.35
817.07857	4636.25
820.93231	4638.75
824.78336	4635.05
828.63172	4676.15
832.47738	4706.25
836.32036	4712.55
840.16066	4713.45
843.99827	4701.65
847.8332	4665.85
851.66546	4678.45
855.49504	4674.65
859.32195	4639.15
863.1462	4610.55
866.96777	4583.25
870.78668	4558.15
874.60293	4550.05
878.41652	4555.65
882.22745	4585.75
886.03573	4603.05
889.84136	4615.55
893.64433	4612.45
897.44466	4625.75
901.24235	4665.85
905.0374	4675.75
908.8298	4715.15
912.61957	4746.45
916.40671	4819.95
920.19121	4888.25
923.97308	4962.75
927.75233	5015.95
931.52895	5080.05
935.30295	5011.95
939.07433	4899.15
942.84309	4765.75
946.60924	4685.15
950.37278	4617.95
954.13371	4570.75
957.89203	4519.85
961.64774	4472.55
965.40086	4461.65
969.15137	4428.65
972.89929	4392.15
976.64461	4397.05
980.38733	4417.55
984.12747	4402.45
987.86502	4414.55
991.59999	4447.05
995.33237	4510.35
999.06217	4580.35
1002.78939	4671.05
1006.51404	4752.75
1010.23611	4816.05
1013.95561	4841.75
1017.67255	4804.05
1021.38692	4712.45
1025.09872	4607.95
1028.80796	4545.55
1032.51465	4558.55
1036.21877	4659.75
1039.92035	4768.15
1043.61937	4822.65
1047.31584	4835.55
1051.00976	4835.05
1054.70114	4805.95
1058.38998	4784.65
1062.07627	4798.65
1065.76003	4816.15
1069.44126	4887.75
1073.11995	4992.65
1076.79611	5118.95
1080.46974	5209.45
1084.14085	5225.05
1087.80943	5215.75
1091.47549	5110.15
1095.13903	4936.95
1098.80005	4724.05
1102.45857	4540.55
1106.11456	4470.65
1109.76805	4497.65
1113.41903	4591.15
1117.06751	4710.55
1120.71348	4874.55
1124.35696	5058.15
1127.99793	5209.75
1131.63641	5215.15
1135.2724	4994.05
1138.90589	4754.75
1142.5369	4585.35
1146.16542	4475.45
1149.79145	4416.85
1153.415	4410.35
1157.03607	4440.15
1160.65467	4536.25
1164.27079	4704.45
1167.88443	5028.05
1171.49561	5481.35
1175.10432	6230.05
1178.71056	7212.15
1182.31434	7980.65
1185.91565	8214.65
1189.51451	7972.55
1193.11091	7459.15
1196.70485	6864.55
1200.29634	6337.15
1203.88538	5861.85
1207.47197	5389.25
1211.05612	5061.25
1214.63782	4895.15
1218.21708	4913.85
1221.79391	4951.45
1225.36829	5012.45
1228.94024	4994.55
1232.50976	4929.75
1236.07685	4880.45
1239.6415	4835.05
1243.20374	4815.05
1246.76355	4811.65
1250.32093	4841.15
1253.8759	4933.35
1257.42845	5056.85
1260.97859	5222.15
1264.52631	5404.15
1268.07163	5590.05
1271.61453	5730.45
1275.15503	5852.35
1278.69312	5922.25
1282.22882	5966.05
1285.76211	6137.45
1289.29301	6391.05
1292.82151	6675.45
1296.34761	6959.45
1299.87133	7332.15
1303.39266	7860.05
1306.9116	8638.55
1310.42815	9606.55
1313.94233	10225.85
1317.45412	10049.75
1320.96354	9279.45
1324.47058	8359.85
1327.97525	7602.65
1331.47754	7112.75
1334.97747	6999.25
1338.47502	7023.85
1341.97022	7150.65
1345.46305	7365.05
1348.95352	7867.05
1352.44163	8712.05
1355.92738	9855.35
1359.41078	11335.75
1362.89183	12751.85
1366.37053	12716.75
1369.84688	11031.45
1373.32088	9116.85
1376.79254	7797.95
1380.26186	7036.95
1383.72883	6624.75
1387.19347	6335.05
1390.65578	6065.95
1394.11575	5826.15
1397.57339	5717.75
1401.0287	5680.05
1404.48168	5679.95
1407.93234	5690.55
1411.38068	5686.35
1414.82669	5612.45
1418.27039	5531.45
1421.71177	5442.75
1425.15083	5374.55
1428.58758	5376.25
1432.02203	5421.45
1435.45416	5515.05
1438.88399	5586.75
1442.31151	5575.25
1445.73673	5569.65
1449.15965	5530.15
1452.58027	5448.05
1455.9986	5308.95
1459.41463	5258.05
1462.82837	5278.05
1466.23982	5407.85
1469.64898	5548.25
1473.05586	5627.15
1476.46045	5700.45
1479.86276	5743.45
1483.26279	5786.55
1486.66054	5843.85
1490.05602	5918.95
1493.44922	6075.25
1496.84016	6337.75
1500.22882	6842.35
1503.61521	7637.05
1506.99934	8601.35
1510.38121	9567.55
1513.76081	10076.15
1517.13816	9664.65
1520.51324	8540.35
1523.88607	7353.15
1527.25665	6586.75
1530.62498	6187.65
1533.99105	6001.85
1537.35488	5871.15
1540.71647	5762.25
1544.07581	5693.35
1547.4329	5604.65
1550.78776	5533.35
1554.14038	5488.85
1557.49077	5474.45
1560.83892	5520.65
1564.18484	5659.85
1567.52853	5850.25
1570.86999	6191.05
1574.20922	6519.55
1577.54624	6733.65
1580.88103	6595.35
1584.2136	6127.35
1587.54395	5707.65
1590.87208	5603.25
1594.19801	5838.35
1597.52172	6273.65
1600.84321	6558.75
1604.16251	6402.45
1607.47959	5913.95
1610.79447	5359.15
1614.10715	4841.25
1617.41763	4459.45
1620.7259	4243.25
1624.03199	4157.55
1627.33587	4126.45
1630.63757	4201.45
1633.93707	4386.85
1637.23439	4764.15
1640.52951	5307.65
1643.82246	6054.95
1647.11321	6900.65
1650.40179	7428.75
1653.68819	7191.85
1656.97241	6188.35
1660.25446	5100.95
1663.53433	4312.95
1666.81203	3875.75
1670.08756	3621.25
1673.36092	3475.35
1676.63211	3357.05
1679.90115	3299.35
1683.16801	3248.65
1686.43272	3205.45
1689.69527	3166.55
1692.95567	3143.55
1696.2139	3126.95
1699.46999	3115.15
1702.72392	3072.45
1705.97571	3073.15
1709.22535	3058.45
1712.47284	3057.15
1715.71819	3065.75
1718.96139	3057.65
1722.20246	3050.35
1725.44139	3033.75
1728.67818	3005.95
1731.91284	2958.15
1735.14537	2925.25
1738.37576	2909.15
1741.60403	2880.85
1744.83017	2867.95
1748.05418	2851.45
1751.27607	2826.45
1754.49584	2823.65
1757.71349	2805.95
1760.92903	2791.25
1764.14244	2788.45
1767.35375	2788.85
1770.56294	2774.75
1773.77002	2765.35
1776.97499	2767.95
1780.17785	2746.75
1783.37861	2745.35
1786.57727	2748.75
1789.77382	2742.85
1792.96828	2721.85
1796.16064	2716.05
1799.3509	2698.55
1802.53907	2698.35
1805.72514	2688.65
1808.90913	2678.65
1812.09102	2667.95
1815.27083	2658.55
1818.44856	2666.05
1821.6242	2655.25
1824.79776	2633.35
1827.96924	2648.55
1831.13864	2636.75
1834.30597	2628.95
1837.47122	2611.75
1840.6344	2618.15
1843.7955	2618.55
1846.95454	2603.15
1850.11151	2590.15
1853.26642	2593.65
1856.41926	2594.75
1859.57004	2592.85
1862.71876	2590.85
1865.86542	2580.75
1869.01003	2584.55
1872.15258	2583.65
1875.29308	2585.25
1878.43152	2571.35
1881.56792	2580.15
1884.70227	2570.25
1887.83457	2560.25
1890.96482	2580.75
1894.09304	2582.15
1897.21921	2571.55
1900.34335	2581.25
1903.46544	2578.75
1906.58551	2579.55
1909.70353	2568.75
1912.81953	2563.75
1915.93349	2564.75
1919.04543	2554.55
1922.15534	2552.15
1925.26322	2536.85
1928.36908	2542.65
1931.47292	2519.95
1934.57473	2508.45
1937.67453	2490.75
1940.77232	2480.95
1943.86808	2481.55
1946.96184	2460.85
1950.05358	2443.35
1953.14331	2445.65
1956.23103	2435.55
1959.31675	2438.15
1962.40046	2416.05
1965.48217	2412.25
1968.56188	2410.55
1971.63959	2395.55
1974.7153	2399.15
1977.78901	2379.75
1980.86073	2377.05
1983.93046	2356.25
1986.99819	2346.45
1990.06394	2344.35
1993.1277	2335.15
1996.18947	2330.75
1999.24925	2308.15
2002.30706	2300.65
2005.36288	2301.05
2008.41672	2296.35
2011.46859	2286.95
2014.51848	2279.85
2017.56639	2267.15
2020.61233	2255.95
2023.6563	2253.15
2026.6983	2243.45
2029.73833	2242.35
2032.7764	2225.25
2035.8125	2238.35
2038.84664	2214.75
2041.87881	2217.15
2044.90903	2220.15
2047.93729	2212.05
2050.96359	2205.55
2053.98794	2194.15
2057.01034	2197.85
2060.03078	2191.55
2063.04927	2187.95
2066.06582	2183.95
2069.08042	2197.95
2072.09307	2186.25
2075.10378	2191.15
2078.11255	2175.95
2081.11938	2175.85
2084.12426	2167.65
2087.12722	2167.75
2090.12824	2164.85
2093.12732	2177.85
2096.12447	2179.45
2099.11969	2168.65
2102.11299	2171.25
2105.10435	2172.75
2108.09379	2174.05
2111.08131	2171.55
2114.0669	2174.75
2117.05057	2163.95
2120.03233	2167.55
2123.01216	2170.85
2125.99008	2171.75
2128.96609	2165.15
2131.94018	2172.75
2134.91236	2167.45
2137.88263	2164.15
2140.851	2168.15
2143.81746	2171.25
2146.78201	2167.35
2149.74466	2164.65
2152.7054	2162.95
2155.66425	2159.25
2158.6212	2159.65
2161.57625	2157.05
2164.52941	2152.85
2167.48067	2155.05
2170.43004	2153.85
2173.37752	2150.85
2176.32311	2151.75
2179.26681	2146.35
2182.20863	2140.45
2185.14856	2153.95
2188.08661	2145.25
2191.02278	2156.45
2193.95707	2141.95
2196.88948	2140.15
2199.82001	2142.75
2202.74867	2138.85
2205.67545	2123.95
2208.60037	2126.95
2211.52341	2111.45
2214.44458	2117.75
2217.36388	2100.85
2220.28132	2114.05
2223.1969	2099.75
2226.11061	2104.45
2229.02246	2083.55
2231.93245	2073.65
2234.84058	2067.65
2237.74686	2070.05
2240.65128	2066.35
2243.55385	2067.85
2246.45456	2065.05
2249.35343	2053.55
2252.25044	2055.95
2255.14561	2048.35
2258.03893	2058.25
2260.93041	2052.25
2263.82004	2045.15
2266.70783	2037.95
2269.59378	2021.75
2272.4779	2028.15
2275.36017	2016.55
2278.24061	2024.25
2281.11922	2011.15
2283.996	2002.75
2286.87094	2009.75
2289.74405	1986.05
2292.61534	1986.65
2295.4848	1977.65
2298.35243	1976.75
2301.21824	1977.55
2304.08223	1974.45
2306.94439	1978.45
2309.80474	1975.95
2312.66327	1973.25
2315.51999	1958.85
2318.37489	1969.85
2321.22797	1964.25
2324.07925	1960.55
2326.92871	1955.25
2329.77637	1956.05
2332.62222	1954.05
2335.46626	1949.55
2338.3085	1936.35
2341.14893	1937.05
2343.98756	1938.95
2346.8244	1931.55
2349.65943	1935.55
2352.49267	1927.35
2355.32411	1936.25
2358.15376	1934.25
2360.98161	1931.65
2363.80768	1935.45
2366.63195	1946.85
2369.45444	1941.15
2372.27514	1941.15
2375.09405	1947.25
2377.91118	1938.95
2380.72652	1925.95
2383.54009	1921.95
2386.35187	1908.35
2389.16188	1906.35
2391.97011	1904.75
2394.77657	1899.95
2397.58125	1889.85
2400.38416	1879.25
2403.18529	1874.35
2405.98466	1871.45
2408.78226	1857.55
2411.57809	1857.95
2414.37216	1852.75
2417.16446	1868.15
2419.955	1857.45
2422.74378	1855.85
2425.5308	1858.15
2428.31606	1858.25
2431.09956	1837.75
2433.88131	1853.45
2436.6613	1839.25
2439.43954	1849.05
2442.21603	1839.55
2444.99077	1841.25
2447.76377	1834.65
2450.53501	1838.45
2453.30451	1846.15
2456.07226	1836.75
2458.83827	1834.35
2461.60254	1836.35
2464.36507	1834.45
2467.12586	1830.45
2469.88492	1826.75
2472.64224	1822.25
2475.39782	1809.65
2478.15167	1832.75
2480.90379	1821.45
2483.65417	1834.65
2486.40283	1840.15
2489.14976	1845.85
2491.89497	1840.25
2494.63845	1831.85
2497.3802	1840.35
2500.12024	1831.85
2502.85855	1830.55
2505.59514	1831.85
2508.33002	1826.05
2511.06318	1809.45
2513.79462	1808.45
2516.52435	1788.15
2519.25237	1799.55
2521.97867	1778.75
2524.70327	1791.45
2527.42616	1785.55
2530.14734	1780.05
2532.86681	1777.95
2535.58458	1780.25
2538.30065	1780.75
2541.01501	1774.35
2543.72768	1777.35
2546.43864	1776.55
2549.14791	1779.45
2551.85548	1776.35
2554.56136	1770.65
2557.26554	1770.75
2559.96803	1765.75
2562.66883	1768.55
2565.36794	1775.35
2568.06536	1761.35
2570.7611	1763.25
2573.45514	1752.95
2576.14751	1760.65
2578.83819	1754.15
2581.52719	1759.55
2584.21451	1740.25
2586.90015	1757.95
2589.58411	1740.95
2592.2664	1749.65
2594.94701	1738.05
2597.62594	1730.85
2600.30321	1738.05
2602.9788	1729.85
2605.65273	1729.75
2608.32498	1732.15
2610.99557	1724.75
2613.66449	1734.55
2616.33175	1729.85
2618.99734	1725.55
2621.66128	1723.75
2624.32355	1740.85
2626.98416	1723.55
2629.64311	1728.75
2632.30041	1732.75
2634.95605	1718.35
2637.61004	1732.95
2640.26238	1723.15
2642.91306	1718.45
2645.56209	1726.85
2648.20948	1724.45
2650.85521	1763.15
2653.4993	1740.25
2656.14175	1732.05
2658.78255	1736.75
2661.42171	1746.85
2664.05923	1744.75
2666.6951	1751.45
2669.32934	1753.85
2671.96194	1753.15
2674.59291	1750.05
2677.22224	1754.35
2679.84993	1771.85
2682.476	1758.65
2685.10043	1760.05
2687.72324	1754.55
2690.34441	1770.05
2692.96396	1770.35
2695.58188	1764.65
2698.19818	1775.55
2700.81285	1789.25
2703.4259	1785.85
2706.03733	1791.35
2708.64714	1798.65
2711.25533	1820.85
2713.86191	1825.85
2716.46687	1838.85
2719.07021	1844.95
2721.67194	1852.25
2724.27206	1853.65
2726.87057	1870.25
2729.46747	1879.15
2732.06276	1895.95
2734.65644	1900.65
2737.24852	1914.05
2739.83899	1912.55
2742.42786	1920.85
2745.01513	1937.25
2747.60079	1947.15
2750.18486	1960.65
2752.76733	1981.35
2755.3482	1994.55
2757.92747	1998.65
2760.50515	2017.75
2763.08123	2015.15
2765.65573	2034.85
2768.22863	2041.95
2770.79994	2060.35
2773.36967	2068.55
2775.9378	2075.95
2778.50435	2097.55
2781.06932	2103.35
2783.6327	2129.15
2786.1945	2145.15
2788.75471	2158.15
2791.31335	2178.75
2793.87041	2181.75
2796.42589	2203.15
2798.97979	2229.45
2801.53212	2240.05
2804.08288	2253.75
2806.63206	2282.45
2809.17967	2296.15
2811.72571	2325.95
2814.27018	2344.95
2816.81308	2362.65
2819.35442	2369.35
2821.89419	2371.35
2824.43239	2381.25
2826.96904	2388.65
2829.50412	2388.35
2832.03763	2390.65
2834.56959	2407.15
2837.1	2401.45
2839.62884	2436.75
2842.15613	2464.25
2844.68186	2534.25
2847.20604	2598.95
2849.72867	2645.15
2852.24974	2669.05
2854.76927	2706.65
2857.28724	2691.25
2859.80367	2687.05
2862.31855	2698.05
2864.83189	2687.95
2867.34368	2686.95
2869.85393	2662.25
2872.36264	2664.15
2874.8698	2656.95
2877.37543	2644.35
2879.87952	2648.15
2882.38207	2637.45
2884.88308	2628.15
2887.38256	2623.75
2889.88051	2622.55
2892.37692	2623.25
2894.8718	2604.85
2897.36515	2609.55
2899.85698	2595.45
2902.34727	2585.85
2904.83604	2583.95
2907.32328	2585.45
2909.809	2576.15
2912.29319	2566.05
2914.77587	2550.25
2917.25702	2555.45
2919.73665	2545.65
2922.21476	2552.45
2924.69136	2536.45
2927.16644	2523.15
2929.64	2507.45
2932.11205	2487.75
2934.58258	2454.95
2937.05161	2417.75
2939.51912	2389.75
2941.98513	2328.85
2944.44962	2261.95
2946.91261	2209.55
2949.37409	2164.95
2951.83407	2100.95
2954.29254	2060.55
2956.74951	2012.45
2959.20498	1989.55
2961.65895	1953.35
2964.11142	1933.95
2966.56239	1900.65
2969.01186	1873.55
2971.45984	1836.55
2973.90632	1817.75
2976.35131	1799.65
2978.7948	1778.95
2981.23681	1766.85
2983.67732	1740.35
2986.11635	1728.35
2988.55388	1705.75
2990.98993	1689.25
2993.4245	1675.55
2995.85758	1656.45
2998.28917	1660.55
3000.71928	1643.25
3003.14791	1635.05
3005.57506	1630.05
3008.00073	1621.85
3010.42493	1618.75
3012.84764	1618.95
3015.26888	1605.75
3017.68865	1612.95
3020.10694	1604.15
3022.52376	1601.65
3024.9391	1593.45
3027.35298	1598.05
3029.76539	1589.45
3032.17632	1599.05
3034.5858	1590.85
3036.9938	1591.95
3039.40034	1592.45
3041.80542	1586.85
3044.20903	1582.85
3046.61118	1586.25
3049.01187	1585.95
3051.4111	1583.35
3053.80888	1588.65
3056.20519	1586.55
3058.60005	1586.95
3060.99345	1591.55
3063.3854	1585.35
3065.7759	1586.45
3068.16494	1585.35
3070.55254	1598.15
3072.93868	1596.95
3075.32338	1586.75
3077.70662	1589.65
3080.08842	1584.05
3082.46878	1596.05
3084.84769	1592.45
3087.22515	1586.15
3089.60118	1591.95
3091.97576	1585.35
3094.3489	1592.85
3096.72061	1596.35
3099.09087	1593.45
3101.4597	1603.55
3103.82709	1598.65
3106.19305	1596.95
3108.55757	1612.15
3110.92066	1607.55
3113.28232	1604.65
3115.64255	1614.75
3118.00134	1612.25
3120.35871	1619.75
3122.71466	1624.65
3125.06917	1624.65
3127.42226	1634.15
3129.77393	1636.15
3132.12417	1652.55
3134.47299	1653.35
3136.82039	1668.55
3139.16636	1671.85
3141.51092	1678.75
3143.85406	1677.55
3146.19579	1695.55
3148.53609	1700.35
3150.87499	1704.75
3153.21246	1720.25
3155.54853	1724.05
3157.88318	1738.15
3160.21642	1743.45
3162.54826	1740.45
3164.87868	1749.05
3167.2077	1749.65
3169.5353	1767.55
3171.86151	1776.95
3174.18631	1772.35
3176.5097	1779.35
3178.83169	1770.65
3181.15228	1793.05
3183.47147	1796.25
3185.78926	1797.55
3188.10565	1805.25
3190.42065	1817.75
3192.73424	1827.95
3195.04645	1819.95
3197.35725	1826.65
3199.66667	1823.25
3201.97469	1836.15
3204.28132	1838.35
3206.58656	1842.05
3208.8904	1849.55
3211.19287	1855.15
3213.49394	1861.35
3215.79363	1872.85
3218.09193	1873.25
3220.38884	1874.75
3222.68438	1880.65
3224.97853	1881.45
3227.2713	1883.35
3229.56269	1886.35
3231.8527	1885.35
3234.14133	1886.95
3236.42858	1894.05
3238.71446	1891.65
3240.99896	1898.95
3243.28209	1886.45
3245.56384	1901.25
3247.84423	1910.25
3250.12324	1914.75
3252.40088	1919.45
3254.67715	1929.65
3256.95205	1919.15
3259.22558	1931.15
3261.49775	1924.85
3263.76855	1942.95
3266.03799	1934.05
3268.30606	1934.95
3270.57277	1941.85
3272.83812	1940.75
3275.10211	1937.65
3277.36474	1946.95
3279.62601	1938.45
3281.88593	1932.85
3284.14448	1944.35
3286.40168	1944.05
3288.65753	1932.65
3290.91202	1924.45
3293.16516	1916.55
3295.41695	1909.85
3297.66738	1899.95
3299.91647	1880.95
3302.16421	1871.15
3304.4106	1874.15
3306.65564	1856.65
3308.89933	1843.85
3311.14169	1821.15
3313.38269	1809.65
3315.62236	1806.25
3317.86068	1773.55
3320.09766	1773.15
3322.3333	1745.15
3324.5676	1753.35
3326.80056	1720.15
3329.03219	1710.35
3331.26248	0.75
3333.49143	-0.55
3335.71905	0.55
