Data from AgNP_FTO_APTES_CRN_1000uM_R6G_10uM_NaF_0.1M_Addition_RamanShift__10__21-01-58-276.txt Node

Date: Wed Dec 15 21:01:58 GMT 2021
User: TCL
Spectrometer: QEP01345
Trigger mode: 4
Integration Time (sec): 7.000000E0
Scans to average: 10
Electric dark correction enabled: true
Nonlinearity correction enabled: false
Boxcar width: 0
XAxis mode: Raman Shifts
Number of Pixels in Spectrum: 1044
>>>>>Begin Spectral Data<<<<<
46.04893	0.85
50.45542	-0.85
54.85868	-0.35
59.25871	-1.15
63.6555	60.75
68.04907	63.65
72.43941	71.35
76.82654	73.65
81.21044	71.55
85.59113	76.15
89.96862	83.15
94.34289	80.55
98.71396	88.05
103.08183	89.05
107.4465	93.05
111.80798	94.05
116.16626	96.15
120.52136	98.95
124.87327	99.15
129.222	105.55
133.56755	110.95
137.90993	116.55
142.24913	127.35
146.58517	145.15
150.91804	166.55
155.24774	195.75
159.57429	241.55
163.89768	303.25
168.21792	396.25
172.53501	537.65
176.84895	753.85
181.15975	1055.25
185.46741	1479.35
189.77193	2042.15
194.07331	2729.95
198.37157	3514.85
202.6667	4358.75
206.9587	5184.35
211.24758	5978.55
215.53334	6783.55
219.81599	7638.05
224.09553	8519.45
228.37195	9502.45
232.64527	10600.15
236.91549	11761.15
241.18261	12962.05
245.44663	14102.35
249.70755	15168.95
253.96539	16072.35
258.22014	16877.55
262.4718	17502.75
266.72039	17953.35
270.96589	18184.45
275.20832	18272.25
279.44768	18187.85
283.68397	18068.85
287.91719	17952.75
292.14735	17849.45
296.37445	17849.45
300.59849	17835.45
304.81948	17764.75
309.03742	17679.35
313.25231	17503.85
317.46415	17216.75
321.67296	16863.85
325.87872	16577.75
330.08145	16429.75
334.28114	16436.75
338.47781	16570.65
342.67145	16720.85
346.86207	16932.95
351.04966	17191.65
355.23424	17407.75
359.4158	17573.45
363.59435	17746.35
367.76989	17875.05
371.94243	17927.95
376.11196	17998.55
380.27849	18049.65
384.44203	18147.75
388.60257	18278.65
392.76012	18468.45
396.91468	18658.25
401.06626	18909.45
405.21485	19127.65
409.36047	19105.35
413.50311	18976.95
417.64277	18885.45
421.77947	18904.45
425.9132	18991.45
430.04396	19117.15
434.17176	19240.25
438.2966	19360.95
442.41849	19522.25
446.53742	19827.05
450.6534	20136.15
454.76644	20390.25
458.87653	20554.75
462.98368	20579.95
467.08789	20575.75
471.18916	20541.25
475.2875	20520.75
479.38291	20514.85
483.4754	20438.55
487.56496	20243.55
491.6516	20006.35
495.73531	19777.65
499.81612	19660.45
503.89401	19703.05
507.96899	19811.65
512.04106	19846.35
516.11023	19823.05
520.1765	19738.45
524.23987	19611.35
528.30034	19509.65
532.35792	19358.65
536.41261	19247.65
540.46441	19155.15
544.51333	19159.55
548.55936	19367.15
552.60252	19681.75
556.64279	20020.75
560.6802	20273.35
564.71473	20368.25
568.7464	20637.75
572.7752	21103.05
576.80114	21579.75
580.82422	21945.55
584.84444	22255.25
588.86181	22467.45
592.87633	22576.05
596.888	22371.75
600.89682	22035.95
604.9028	22017.05
608.90594	22692.85
612.90624	23393.55
616.90371	22378.75
620.89834	20272.35
624.89015	19329.55
628.87913	19259.85
632.86528	19346.05
636.84862	19468.95
640.82913	19358.75
644.80683	19113.15
648.78172	18911.05
652.75379	18860.15
656.72306	18928.95
660.68952	19058.95
664.65319	19068.65
668.61405	18934.65
672.57211	18946.25
676.52738	19061.65
680.47986	19105.45
684.42955	19073.65
688.37646	18993.75
692.32058	18992.35
696.26192	19100.45
700.20048	19218.75
704.13626	19351.25
708.06928	19410.35
711.99952	19433.75
715.927	19357.65
719.85171	19311.75
723.77365	19174.25
727.69284	19017.15
731.60928	18863.85
735.52295	18753.75
739.43388	18746.65
743.34206	18779.85
747.24749	18862.15
751.15017	18988.35
755.05012	19139.35
758.94733	19520.45
762.8418	20124.65
766.73354	21030.35
770.62254	21831.75
774.50882	21933.45
778.39237	21192.75
782.27321	20245.35
786.15132	19508.95
790.02671	19002.95
793.89938	18703.15
797.76935	18604.65
801.6366	18575.35
805.50115	18575.25
809.36299	18496.85
813.22213	18449.35
817.07857	18395.05
820.93231	18405.35
824.78336	18359.15
828.63172	18284.35
832.47738	18239.35
836.32036	18249.25
840.16066	18260.95
843.99827	18196.55
847.8332	18202.25
851.66546	18164.55
855.49504	18190.05
859.32195	18187.05
863.1462	18182.55
866.96777	18133.35
870.78668	18150.35
874.60293	18157.15
878.41652	18159.95
882.22745	18171.75
886.03573	18229.65
889.84136	18262.35
893.64433	18226.65
897.44466	18195.25
901.24235	18148.85
905.0374	18122.25
908.8298	18093.65
912.61957	18155.55
916.40671	18308.55
920.19121	18449.55
923.97308	18452.55
927.75233	18393.95
931.52895	18235.05
935.30295	18072.65
939.07433	17863.75
942.84309	17716.25
946.60924	17606.65
950.37278	17521.55
954.13371	17539.25
957.89203	17485.85
961.64774	17492.25
965.40086	17492.65
969.15137	17442.35
972.89929	17317.65
976.64461	17262.15
980.38733	17225.75
984.12747	17248.25
987.86502	17266.05
991.59999	17292.15
995.33237	17345.55
999.06217	17501.45
1002.78939	17692.25
1006.51404	17845.35
1010.23611	18032.55
1013.95561	18185.55
1017.67255	18201.05
1021.38692	18168.85
1025.09872	18000.15
1028.80796	17877.95
1032.51465	17834.35
1036.21877	17834.35
1039.92035	17903.65
1043.61937	18009.45
1047.31584	18065.45
1051.00976	18136.55
1054.70114	18283.95
1058.38998	18473.25
1062.07627	18769.75
1065.76003	19172.15
1069.44126	19546.45
1073.11995	19935.35
1076.79611	20068.55
1080.46974	19893.15
1084.14085	19650.65
1087.80943	19463.85
1091.47549	19408.15
1095.13903	19337.95
1098.80005	19231.55
1102.45857	18915.85
1106.11456	18634.65
1109.76805	18426.75
1113.41903	18388.95
1117.06751	18405.25
1120.71348	18524.45
1124.35696	18676.65
1127.99793	18891.25
1131.63641	19056.15
1135.2724	19000.25
1138.90589	18920.05
1142.5369	18907.15
1146.16542	18948.25
1149.79145	19070.15
1153.415	19245.25
1157.03607	19424.45
1160.65467	19786.15
1164.27079	20355.35
1167.88443	21101.75
1171.49561	21945.45
1175.10432	22927.65
1178.71056	24167.95
1182.31434	25304.45
1185.91565	25929.65
1189.51451	26057.95
1193.11091	25809.05
1196.70485	25220.05
1200.29634	24481.85
1203.88538	23916.15
1207.47197	23573.25
1211.05612	23312.45
1214.63782	22967.45
1218.21708	22436.25
1221.79391	21876.45
1225.36829	21450.05
1228.94024	21209.85
1232.50976	21050.35
1236.07685	20923.95
1239.6415	20911.85
1243.20374	20898.25
1246.76355	21032.35
1250.32093	21211.35
1253.8759	21530.95
1257.42845	21944.85
1260.97859	22324.75
1264.52631	22754.35
1268.07163	23133.35
1271.61453	23564.05
1275.15503	23936.75
1278.69312	24440.55
1282.22882	24901.15
1285.76211	25452.75
1289.29301	26156.65
1292.82151	27130.35
1296.34761	28132.95
1299.87133	29402.75
1303.39266	30494.45
1306.9116	31463.45
1310.42815	32144.85
1313.94233	32431.95
1317.45412	32348.75
1320.96354	32171.35
1324.47058	32037.45
1327.97525	32096.05
1331.47754	32154.85
1334.97747	32234.05
1338.47502	32275.85
1341.97022	32373.45
1345.46305	32258.45
1348.95352	32046.25
1352.44163	31806.75
1355.92738	31682.85
1359.41078	31839.75
1362.89183	32070.05
1366.37053	31525.05
1369.84688	29839.35
1373.32088	27762.85
1376.79254	26259.25
1380.26186	25651.85
1383.72883	25599.35
1387.19347	25640.85
1390.65578	25573.35
1394.11575	25575.95
1397.57339	25609.45
1401.0287	25734.05
1404.48168	25758.65
1407.93234	25456.95
1411.38068	24939.95
1414.82669	24135.25
1418.27039	23221.75
1421.71177	22457.15
1425.15083	21834.75
1428.58758	21539.45
1432.02203	21620.35
1435.45416	22003.85
1438.88399	22474.95
1442.31151	22773.35
1445.73673	23095.35
1449.15965	23354.75
1452.58027	23591.15
1455.9986	23757.65
1459.41463	23930.15
1462.82837	24229.55
1466.23982	24563.85
1469.64898	24761.65
1473.05586	24863.25
1476.46045	24833.35
1479.86276	24660.65
1483.26279	24459.85
1486.66054	24430.55
1490.05602	24453.95
1493.44922	24737.55
1496.84016	25068.15
1500.22882	25637.95
1503.61521	26399.85
1506.99934	27155.45
1510.38121	27678.25
1513.76081	27725.15
1517.13816	27435.25
1520.51324	26932.65
1523.88607	26588.75
1527.25665	26434.95
1530.62498	26433.95
1533.99105	26331.15
1537.35488	26090.15
1540.71647	25600.45
1544.07581	25028.65
1547.4329	24422.25
1550.78776	23952.45
1554.14038	23647.65
1557.49077	23443.55
1560.83892	23354.85
1564.18484	23403.45
1567.52853	23564.35
1570.86999	23931.45
1574.20922	24559.25
1577.54624	25216.15
1580.88103	25599.45
1584.2136	25700.75
1587.54395	25701.75
1590.87208	25904.15
1594.19801	26348.85
1597.52172	26896.95
1600.84321	26919.15
1604.16251	26096.25
1607.47959	24732.35
1610.79447	23376.35
1614.10715	22033.45
1617.41763	20786.75
1620.7259	19925.65
1624.03199	19394.35
1627.33587	19235.15
1630.63757	19535.35
1633.93707	20276.35
1637.23439	21670.55
1640.52951	23653.45
1643.82246	25900.35
1647.11321	27633.65
1650.40179	28111.95
1653.68819	26752.35
1656.97241	24328.55
1660.25446	21751.25
1663.53433	19721.25
1666.81203	18289.35
1670.08756	17358.15
1673.36092	16752.25
1676.63211	16345.85
1679.90115	16043.35
1683.16801	15835.35
1686.43272	15671.55
1689.69527	15554.35
1692.95567	15450.65
1696.2139	15374.55
1699.46999	15343.55
1702.72392	15286.25
1705.97571	15280.05
1709.22535	15215.55
1712.47284	15177.45
1715.71819	15156.75
1718.96139	15083.15
1722.20246	15046.05
1725.44139	14964.45
1728.67818	14909.25
1731.91284	14854.05
1735.14537	14766.05
1738.37576	14712.05
1741.60403	14663.25
1744.83017	14647.35
1748.05418	14614.55
1751.27607	14582.95
1754.49584	14594.95
1757.71349	14587.45
1760.92903	14584.25
1764.14244	14573.25
1767.35375	14538.65
1770.56294	14505.35
1773.77002	14442.05
1776.97499	14424.25
1780.17785	14375.35
1783.37861	14349.95
1786.57727	14292.05
1789.77382	14262.15
1792.96828	14226.85
1796.16064	14205.15
1799.3509	14177.35
1802.53907	14119.35
1805.72514	14091.55
1808.90913	14043.05
1812.09102	14034.45
1815.27083	14000.45
1818.44856	13974.95
1821.6242	13897.45
1824.79776	13948.15
1827.96924	13915.45
1831.13864	13912.35
1834.30597	13923.95
1837.47122	13876.65
1840.6344	13884.75
1843.7955	13890.25
1846.95454	13829.75
1850.11151	13816.55
1853.26642	13802.05
1856.41926	13785.95
1859.57004	13764.55
1862.71876	13764.65
1865.86542	13766.35
1869.01003	13733.75
1872.15258	13712.25
1875.29308	13703.75
1878.43152	13662.05
1881.56792	13649.65
1884.70227	13627.15
1887.83457	13630.25
1890.96482	13619.45
1894.09304	13575.75
1897.21921	13541.55
1900.34335	13542.55
1903.46544	13505.55
1906.58551	13478.35
1909.70353	13452.25
1912.81953	13454.45
1915.93349	13403.55
1919.04543	13386.65
1922.15534	13353.25
1925.26322	13343.15
1928.36908	13329.35
1931.47292	13273.35
1934.57473	13248.55
1937.67453	13248.45
1940.77232	13178.05
1943.86808	13136.45
1946.96184	13118.55
1950.05358	13077.85
1953.14331	13021.75
1956.23103	12994.05
1959.31675	12963.85
1962.40046	12926.05
1965.48217	12878.85
1968.56188	12830.75
1971.63959	12818.25
1974.7153	12774.25
1977.78901	12685.65
1980.86073	12666.65
1983.93046	12634.45
1986.99819	12592.75
1990.06394	12556.35
1993.1277	12526.35
1996.18947	12465.95
1999.24925	12457.15
2002.30706	12395.15
2005.36288	12349.25
2008.41672	12327.65
2011.46859	12276.75
2014.51848	12258.65
2017.56639	12232.15
2020.61233	12197.15
2023.6563	12163.35
2026.6983	12157.75
2029.73833	12122.25
2032.7764	12090.25
2035.8125	12048.25
2038.84664	12012.75
2041.87881	11986.75
2044.90903	11963.75
2047.93729	11936.25
2050.96359	11928.05
2053.98794	11879.15
2057.01034	11875.25
2060.03078	11871.95
2063.04927	11861.05
2066.06582	11851.65
2069.08042	11871.75
2072.09307	11829.25
2075.10378	11798.05
2078.11255	11834.55
2081.11938	11813.25
2084.12426	11778.05
2087.12722	11770.35
2090.12824	11777.45
2093.12732	11779.85
2096.12447	11768.35
2099.11969	11763.25
2102.11299	11764.85
2105.10435	11754.65
2108.09379	11775.05
2111.08131	11783.85
2114.0669	11782.95
2117.05057	11754.65
2120.03233	11792.45
2123.01216	11792.65
2125.99008	11788.65
2128.96609	11818.55
2131.94018	11822.25
2134.91236	11796.75
2137.88263	11821.85
2140.851	11808.75
2143.81746	11815.15
2146.78201	11820.85
2149.74466	11811.05
2152.7054	11829.55
2155.66425	11852.95
2158.6212	11844.15
2161.57625	11815.95
2164.52941	11778.45
2167.48067	11788.55
2170.43004	11766.65
2173.37752	11775.25
2176.32311	11755.05
2179.26681	11746.15
2182.20863	11748.15
2185.14856	11763.85
2188.08661	11708.35
2191.02278	11710.25
2193.95707	11689.45
2196.88948	11679.25
2199.82001	11692.95
2202.74867	11662.25
2205.67545	11672.15
2208.60037	11677.55
2211.52341	11615.35
2214.44458	11599.05
2217.36388	11560.25
2220.28132	11550.45
2223.1969	11502.25
2226.11061	11490.05
2229.02246	11470.15
2231.93245	11468.25
2234.84058	11453.45
2237.74686	11408.45
2240.65128	11397.25
2243.55385	11359.65
2246.45456	11346.55
2249.35343	11328.75
2252.25044	11324.85
2255.14561	11263.15
2258.03893	11267.05
2260.93041	11272.05
2263.82004	11217.15
2266.70783	11216.85
2269.59378	11155.15
2272.4779	11135.35
2275.36017	11103.65
2278.24061	11069.25
2281.11922	11032.05
2283.996	11039.85
2286.87094	11010.95
2289.74405	10973.75
2292.61534	10955.65
2295.4848	10923.25
2298.35243	10947.05
2301.21824	10900.45
2304.08223	10917.95
2306.94439	10899.35
2309.80474	10868.95
2312.66327	10893.95
2315.51999	10868.45
2318.37489	10848.25
2321.22797	10845.45
2324.07925	10848.85
2326.92871	10821.05
2329.77637	10823.15
2332.62222	10776.35
2335.46626	10749.05
2338.3085	10748.15
2341.14893	10736.35
2343.98756	10718.15
2346.8244	10720.65
2349.65943	10666.95
2352.49267	10689.75
2355.32411	10668.45
2358.15376	10663.15
2360.98161	10655.25
2363.80768	10680.85
2366.63195	10629.85
2369.45444	10629.75
2372.27514	10616.75
2375.09405	10596.65
2377.91118	10578.15
2380.72652	10560.55
2383.54009	10537.65
2386.35187	10534.95
2389.16188	10475.95
2391.97011	10476.15
2394.77657	10443.75
2397.58125	10409.95
2400.38416	10398.15
2403.18529	10385.75
2405.98466	10374.35
2408.78226	10342.75
2411.57809	10339.15
2414.37216	10315.25
2417.16446	10316.35
2419.955	10275.85
2422.74378	10264.45
2425.5308	10274.35
2428.31606	10230.15
2431.09956	10233.65
2433.88131	10216.75
2436.6613	10215.75
2439.43954	10213.45
2442.21603	10191.85
2444.99077	10171.65
2447.76377	10174.75
2450.53501	10147.75
2453.30451	10153.85
2456.07226	10120.45
2458.83827	10130.05
2461.60254	10129.05
2464.36507	10100.55
2467.12586	10104.95
2469.88492	10087.15
2472.64224	10050.25
2475.39782	10041.45
2478.15167	10073.85
2480.90379	10041.75
2483.65417	10042.05
2486.40283	10050.35
2489.14976	10036.35
2491.89497	10030.95
2494.63845	10044.95
2497.3802	10009.35
2500.12024	9991.25
2502.85855	10001.95
2505.59514	9991.45
2508.33002	9968.05
2511.06318	9944.05
2513.79462	9953.95
2516.52435	9963.15
2519.25237	9922.85
2521.97867	9900.15
2524.70327	9887.75
2527.42616	9888.75
2530.14734	9868.15
2532.86681	9847.85
2535.58458	9860.25
2538.30065	9834.55
2541.01501	9827.45
2543.72768	9804.55
2546.43864	9803.85
2549.14791	9765.45
2551.85548	9736.95
2554.56136	9724.95
2557.26554	9725.55
2559.96803	9705.35
2562.66883	9681.65
2565.36794	9674.45
2568.06536	9673.55
2570.7611	9666.45
2573.45514	9625.35
2576.14751	9612.35
2578.83819	9584.75
2581.52719	9574.55
2584.21451	9566.15
2586.90015	9560.25
2589.58411	9535.45
2592.2664	9537.75
2594.94701	9466.95
2597.62594	9501.15
2600.30321	9479.25
2602.9788	9456.15
2605.65273	9439.25
2608.32498	9407.15
2610.99557	9421.65
2613.66449	9407.65
2616.33175	9351.55
2618.99734	9361.65
2621.66128	9349.25
2624.32355	9370.45
2626.98416	9362.85
2629.64311	9322.35
2632.30041	9334.85
2634.95605	9321.05
2637.61004	9324.85
2640.26238	9304.75
2642.91306	9287.75
2645.56209	9270.05
2648.20948	9274.85
2650.85521	9259.45
2653.4993	9259.35
2656.14175	9255.45
2658.78255	9273.05
2661.42171	9243.35
2664.05923	9258.45
2666.6951	9248.05
2669.32934	9274.35
2671.96194	9238.65
2674.59291	9230.95
2677.22224	9225.45
2679.84993	9208.85
2682.476	9229.95
2685.10043	9224.75
2687.72324	9185.35
2690.34441	9219.75
2692.96396	9177.65
2695.58188	9214.15
2698.19818	9215.25
2700.81285	9206.35
2703.4259	9200.65
2706.03733	9266.35
2708.64714	9231.45
2711.25533	9240.35
2713.86191	9219.55
2716.46687	9228.75
2719.07021	9215.05
2721.67194	9212.55
2724.27206	9181.15
2726.87057	9196.55
2729.46747	9206.55
2732.06276	9202.15
2734.65644	9189.45
2737.24852	9186.05
2739.83899	9159.85
2742.42786	9151.35
2745.01513	9127.05
2747.60079	9126.55
2750.18486	9126.95
2752.76733	9125.95
2755.3482	9119.45
2757.92747	9114.45
2760.50515	9089.85
2763.08123	9074.55
2765.65573	9053.45
2768.22863	9037.85
2770.79994	9058.05
2773.36967	9041.45
2775.9378	9052.25
2778.50435	9013.85
2781.06932	8986.05
2783.6327	8970.75
2786.1945	8983.85
2788.75471	8971.55
2791.31335	8945.05
2793.87041	8953.75
2796.42589	8903.95
2798.97979	8884.85
2801.53212	8865.55
2804.08288	8861.65
2806.63206	8839.35
2809.17967	8804.45
2811.72571	8781.05
2814.27018	8774.15
2816.81308	8761.45
2819.35442	8763.15
2821.89419	8755.55
2824.43239	8717.95
2826.96904	8705.75
2829.50412	8704.15
2832.03763	8681.25
2834.56959	8699.45
2837.1	8688.55
2839.62884	8679.95
2842.15613	8709.75
2844.68186	8733.65
2847.20604	8746.55
2849.72867	8743.65
2852.24974	8739.05
2854.76927	8718.15
2857.28724	8713.65
2859.80367	8697.85
2862.31855	8667.15
2864.83189	8679.95
2867.34368	8653.05
2869.85393	8640.75
2872.36264	8623.25
2874.8698	8637.05
2877.37543	8609.85
2879.87952	8625.85
2882.38207	8631.35
2884.88308	8606.65
2887.38256	8626.85
2889.88051	8596.35
2892.37692	8556.35
2894.8718	8559.35
2897.36515	8583.65
2899.85698	8592.65
2902.34727	8611.45
2904.83604	8590.35
2907.32328	8632.05
2909.809	8623.35
2912.29319	8606.45
2914.77587	8599.65
2917.25702	8596.55
2919.73665	8605.75
2922.21476	8617.25
2924.69136	8583.95
2927.16644	8615.85
2929.64	8593.85
2932.11205	8575.45
2934.58258	8533.55
2937.05161	8578.25
2939.51912	8568.75
2941.98513	8569.25
2944.44962	8523.75
2946.91261	8474.05
2949.37409	8499.45
2951.83407	8466.65
2954.29254	8481.95
2956.74951	8428.85
2959.20498	8424.35
2961.65895	8429.45
2964.11142	8414.45
2966.56239	8388.55
2969.01186	8406.75
2971.45984	8355.15
2973.90632	8321.55
2976.35131	8312.15
2978.7948	8292.35
2981.23681	8257.85
2983.67732	8260.15
2986.11635	8235.55
2988.55388	8204.75
2990.98993	8212.75
2993.4245	8180.45
2995.85758	8162.25
2998.28917	8142.05
3000.71928	8116.25
3003.14791	8084.25
3005.57506	8094.55
3008.00073	8097.95
3010.42493	8065.45
3012.84764	8051.75
3015.26888	8024.15
3017.68865	8020.25
3020.10694	8038.95
3022.52376	7984.75
3024.9391	7978.65
3027.35298	7997.15
3029.76539	7973.35
3032.17632	7963.85
3034.5858	7965.35
3036.9938	7956.05
3039.40034	7930.35
3041.80542	7940.65
3044.20903	7906.35
3046.61118	7899.65
3049.01187	7883.05
3051.4111	7873.85
3053.80888	7869.45
3056.20519	7837.55
3058.60005	7839.55
3060.99345	7818.05
3063.3854	7813.75
3065.7759	7796.95
3068.16494	7789.35
3070.55254	7758.15
3072.93868	7754.45
3075.32338	7736.15
3077.70662	7727.55
3080.08842	7693.95
3082.46878	7683.65
3084.84769	7680.75
3087.22515	7684.15
3089.60118	7666.95
3091.97576	7680.45
3094.3489	7687.15
3096.72061	7685.45
3099.09087	7672.45
3101.4597	7667.35
3103.82709	7672.65
3106.19305	7651.95
3108.55757	7643.85
3110.92066	7600.85
3113.28232	7599.85
3115.64255	7604.55
3118.00134	7565.95
3120.35871	7585.05
3122.71466	7580.05
3125.06917	7558.75
3127.42226	7553.75
3129.77393	7555.05
3132.12417	7555.95
3134.47299	7570.75
3136.82039	7574.85
3139.16636	7564.95
3141.51092	7566.15
3143.85406	7569.95
3146.19579	7564.95
3148.53609	7588.15
3150.87499	7571.55
3153.21246	7570.15
3155.54853	7603.75
3157.88318	7592.15
3160.21642	7578.65
3162.54826	7579.15
3164.87868	7573.95
3167.2077	7587.35
3169.5353	7583.55
3171.86151	7578.15
3174.18631	7597.85
3176.5097	7585.65
3178.83169	7568.15
3181.15228	7579.45
3183.47147	7587.45
3185.78926	7553.65
3188.10565	7545.35
3190.42065	7553.55
3192.73424	7564.95
3195.04645	7555.05
3197.35725	7556.75
3199.66667	7554.05
3201.97469	7559.75
3204.28132	7547.65
3206.58656	7550.65
3208.8904	7549.25
3211.19287	7555.15
3213.49394	7563.75
3215.79363	7553.55
3218.09193	7545.55
3220.38884	7550.05
3222.68438	7567.15
3224.97853	7565.75
3227.2713	7529.85
3229.56269	7533.95
3231.8527	7527.65
3234.14133	7499.45
3236.42858	7484.05
3238.71446	7493.85
3240.99896	7481.75
3243.28209	7468.75
3245.56384	7478.75
3247.84423	7476.65
3250.12324	7450.85
3252.40088	7465.65
3254.67715	7423.75
3256.95205	7416.55
3259.22558	7433.45
3261.49775	7401.85
3263.76855	7412.45
3266.03799	7402.55
3268.30606	7372.05
3270.57277	7371.75
3272.83812	7344.95
3275.10211	7313.75
3277.36474	7305.35
3279.62601	7327.35
3281.88593	7305.05
3284.14448	7322.15
3286.40168	7334.25
3288.65753	7300.05
3290.91202	7279.55
3293.16516	7265.15
3295.41695	7234.25
3297.66738	7199.05
3299.91647	7161.65
3302.16421	7138.65
3304.4106	7094.05
3306.65564	7050.35
3308.89933	7013.85
3311.14169	6995.15
3313.38269	6922.25
3315.62236	6882.85
3317.86068	6810.15
3320.09766	6757.85
3322.3333	6684.15
3324.5676	6690.85
3326.80056	6588.35
3329.03219	6554.35
3331.26248	3.95
3333.49143	-0.55
3335.71905	-1.25
