Data from AgNP_FTO_APTES_CRN_20uM_R6G_10uM_NaF_0.1M_Addition_RamanShift__29__17-34-18-041.txt Node

Date: Wed Dec 15 17:34:18 GMT 2021
User: TCL
Spectrometer: QEP01345
Trigger mode: 4
Integration Time (sec): 7.000000E0
Scans to average: 10
Electric dark correction enabled: true
Nonlinearity correction enabled: false
Boxcar width: 0
XAxis mode: Raman Shifts
Number of Pixels in Spectrum: 1044
>>>>>Begin Spectral Data<<<<<
46.04893	0.15
50.45542	-1.75
54.85868	-0.25
59.25871	-0.55
63.6555	58.05
68.04907	68.55
72.43941	68.95
76.82654	75.05
81.21044	75.25
85.59113	79.55
89.96862	80.55
94.34289	80.05
98.71396	86.45
103.08183	91.05
107.4465	92.65
111.80798	93.45
116.16626	95.95
120.52136	96.45
124.87327	96.35
129.222	102.05
133.56755	104.15
137.90993	115.35
142.24913	124.95
146.58517	136.65
150.91804	158.85
155.24774	184.35
159.57429	225.25
163.89768	285.75
168.21792	370.65
172.53501	502.85
176.84895	701.25
181.15975	977.35
185.46741	1366.95
189.77193	1889.65
194.07331	2527.25
198.37157	3253.45
202.6667	4033.45
206.9587	4776.45
211.24758	5550.35
215.53334	6308.05
219.81599	7125.25
224.09553	8066.45
228.37195	9085.75
232.64527	10200.85
236.91549	11341.55
241.18261	12493.55
245.44663	13529.85
249.70755	14392.35
253.96539	15179.15
258.22014	15872.95
262.4718	16463.55
266.72039	16850.55
270.96589	17129.85
275.20832	17213.15
279.44768	17110.85
283.68397	16930.25
287.91719	16804.05
292.14735	16764.55
296.37445	16872.55
300.59849	17107.35
304.81948	17418.65
309.03742	17585.65
313.25231	17479.65
317.46415	16937.25
321.67296	16167.15
325.87872	15494.25
330.08145	15170.45
334.28114	15155.65
338.47781	15346.45
342.67145	15628.35
346.86207	16080.05
351.04966	16628.55
355.23424	17283.85
359.4158	17836.35
363.59435	18121.25
367.76989	18250.95
371.94243	18316.15
376.11196	18354.65
380.27849	18324.45
384.44203	18299.85
388.60257	18223.25
392.76012	18269.75
396.91468	18433.75
401.06626	18763.55
405.21485	19073.55
409.36047	18946.05
413.50311	18424.55
417.64277	17877.95
421.77947	17663.95
425.9132	17583.55
430.04396	17630.35
434.17176	17727.85
438.2966	17895.75
442.41849	18239.75
446.53742	18654.15
450.6534	19101.65
454.76644	19510.85
458.87653	19669.85
462.98368	19593.45
467.08789	19387.05
471.18916	19075.55
475.2875	18705.25
479.38291	18474.75
483.4754	18215.15
487.56496	18050.25
491.6516	17864.05
495.73531	17691.85
499.81612	17665.85
503.89401	17808.65
507.96899	17948.85
512.04106	18046.75
516.11023	18191.95
520.1765	18313.95
524.23987	18337.15
528.30034	18185.05
532.35792	17911.25
536.41261	17628.15
540.46441	17384.45
544.51333	17301.15
548.55936	17405.35
552.60252	17683.95
556.64279	17994.95
560.6802	18132.95
564.71473	18243.15
568.7464	18575.05
572.7752	18876.15
576.80114	18729.95
580.82422	18537.45
584.84444	18537.35
588.86181	18566.45
592.87633	18695.35
596.888	18950.25
600.89682	19422.55
604.9028	20660.75
608.90594	23839.85
612.90624	27729.35
616.90371	26778.45
620.89834	21228.65
624.89015	18623.35
628.87913	18206.15
632.86528	18145.65
636.84862	18137.05
640.82913	17889.95
644.80683	17389.85
648.78172	17082.85
652.75379	17095.85
656.72306	17433.25
660.68952	17960.45
664.65319	17919.25
668.61405	17429.95
672.57211	17232.75
676.52738	17189.35
680.47986	17197.15
684.42955	17152.65
688.37646	17121.45
692.32058	17233.55
696.26192	17298.95
700.20048	17468.55
704.13626	17611.25
708.06928	17592.15
711.99952	17431.75
715.927	17382.75
719.85171	17407.95
723.77365	17380.55
727.69284	17197.65
731.60928	17119.45
735.52295	17082.65
739.43388	17119.85
743.34206	17191.05
747.24749	17270.65
751.15017	17383.65
755.05012	17642.75
758.94733	18189.65
762.8418	19263.75
766.73354	21102.95
770.62254	23101.25
774.50882	23936.05
778.39237	23026.45
782.27321	20905.25
786.15132	19017.45
790.02671	17901.45
793.89938	17382.75
797.76935	17246.65
801.6366	17138.05
805.50115	17097.45
809.36299	17030.35
813.22213	16915.85
817.07857	16918.25
820.93231	16909.85
824.78336	16916.55
828.63172	16991.05
832.47738	17043.45
836.32036	17101.95
840.16066	17138.75
843.99827	17104.45
847.8332	17052.15
851.66546	16967.55
855.49504	16952.75
859.32195	16933.85
863.1462	16831.95
866.96777	16783.95
870.78668	16752.05
874.60293	16763.95
878.41652	16776.65
882.22745	16845.45
886.03573	16887.25
889.84136	16834.65
893.64433	16763.75
897.44466	16698.85
901.24235	16713.85
905.0374	16705.55
908.8298	16678.55
912.61957	16689.85
916.40671	16784.25
920.19121	16959.65
923.97308	17064.95
927.75233	17190.45
931.52895	17260.35
935.30295	17132.95
939.07433	16806.35
942.84309	16544.15
946.60924	16404.55
950.37278	16320.95
954.13371	16239.75
957.89203	16165.55
961.64774	16064.85
965.40086	16061.85
969.15137	15998.85
972.89929	15939.25
976.64461	15917.85
980.38733	15899.85
984.12747	15999.05
987.86502	16118.65
991.59999	16258.15
995.33237	16540.65
999.06217	16955.45
1002.78939	17409.05
1006.51404	17711.15
1010.23611	17916.05
1013.95561	18080.85
1017.67255	18089.75
1021.38692	17920.45
1025.09872	17805.55
1028.80796	17945.45
1032.51465	18388.75
1036.21877	18819.75
1039.92035	18917.15
1043.61937	18678.55
1047.31584	18268.55
1051.00976	17874.15
1054.70114	17662.85
1058.38998	17650.25
1062.07627	17726.55
1065.76003	17924.95
1069.44126	18100.25
1073.11995	18434.25
1076.79611	18723.85
1080.46974	18932.85
1084.14085	18999.95
1087.80943	18997.35
1091.47549	18888.65
1095.13903	18511.75
1098.80005	18071.15
1102.45857	17665.35
1106.11456	17521.05
1109.76805	17565.25
1113.41903	17719.05
1117.06751	17999.25
1120.71348	18307.35
1124.35696	18677.25
1127.99793	19006.35
1131.63641	19067.25
1135.2724	18631.45
1138.90589	18249.25
1142.5369	17956.25
1146.16542	17735.85
1149.79145	17641.45
1153.415	17703.45
1157.03607	17822.05
1160.65467	18084.05
1164.27079	18541.75
1167.88443	19274.35
1171.49561	20353.85
1175.10432	22055.15
1178.71056	24254.25
1182.31434	26066.75
1185.91565	26723.55
1189.51451	26403.35
1193.11091	25255.25
1196.70485	23789.05
1200.29634	22543.05
1203.88538	21665.45
1207.47197	20889.05
1211.05612	20185.15
1214.63782	19829.85
1218.21708	19754.45
1221.79391	19776.85
1225.36829	19856.95
1228.94024	19840.45
1232.50976	19745.35
1236.07685	19678.45
1239.6415	19711.25
1243.20374	19759.35
1246.76355	19909.05
1250.32093	20152.15
1253.8759	20574.65
1257.42845	21108.05
1260.97859	21581.95
1264.52631	21959.85
1268.07163	22374.35
1271.61453	22868.65
1275.15503	23318.25
1278.69312	23720.65
1282.22882	24087.45
1285.76211	24365.65
1289.29301	24811.35
1292.82151	25320.45
1296.34761	25965.35
1299.87133	26921.65
1303.39266	28386.25
1306.9116	30579.55
1310.42815	33014.25
1313.94233	34610.95
1317.45412	34485.65
1320.96354	33165.45
1324.47058	31579.85
1327.97525	30148.25
1331.47754	29219.55
1334.97747	28876.75
1338.47502	29129.85
1341.97022	29601.15
1345.46305	29986.05
1348.95352	30356.45
1352.44163	31089.15
1355.92738	32546.65
1359.41078	35328.55
1362.89183	38259.15
1366.37053	37820.85
1369.84688	33728.25
1373.32088	29441.35
1376.79254	26547.35
1380.26186	25134.45
1383.72883	24458.95
1387.19347	24002.35
1390.65578	23443.15
1394.11575	23060.35
1397.57339	22954.95
1401.0287	23172.65
1404.48168	23449.35
1407.93234	23793.15
1411.38068	23984.35
1414.82669	23896.15
1418.27039	23433.65
1421.71177	22840.55
1425.15083	22266.25
1428.58758	21920.55
1432.02203	21914.55
1435.45416	22086.65
1438.88399	22279.95
1442.31151	22391.45
1445.73673	22509.05
1449.15965	22682.35
1452.58027	22741.15
1455.9986	22662.95
1459.41463	22642.05
1462.82837	22821.15
1466.23982	23194.55
1469.64898	23599.95
1473.05586	23951.85
1476.46045	24164.05
1479.86276	24421.55
1483.26279	24704.25
1486.66054	25049.15
1490.05602	25432.35
1493.44922	26005.65
1496.84016	26673.45
1500.22882	27665.65
1503.61521	29096.75
1506.99934	31052.45
1510.38121	32991.05
1513.76081	34144.35
1517.13816	33454.25
1520.51324	31157.55
1523.88607	28627.75
1527.25665	26669.85
1530.62498	25548.75
1533.99105	24866.45
1537.35488	24528.05
1540.71647	24210.95
1544.07581	24049.85
1547.4329	23833.85
1550.78776	23725.05
1554.14038	23614.05
1557.49077	23708.15
1560.83892	23875.75
1564.18484	24161.95
1567.52853	24475.05
1570.86999	24761.65
1574.20922	25129.75
1577.54624	25452.75
1580.88103	25274.85
1584.2136	24785.65
1587.54395	24456.95
1590.87208	24626.45
1594.19801	25554.95
1597.52172	26950.65
1600.84321	27550.55
1604.16251	26782.15
1607.47959	25180.75
1610.79447	23443.05
1614.10715	21858.65
1617.41763	20615.25
1620.7259	19746.55
1624.03199	19367.65
1627.33587	19396.75
1630.63757	19795.45
1633.93707	20543.35
1637.23439	21669.85
1640.52951	23153.95
1643.82246	24912.85
1647.11321	26715.95
1650.40179	27870.95
1653.68819	27165.15
1656.97241	24652.35
1660.25446	21688.45
1663.53433	19493.75
1666.81203	18119.45
1670.08756	17292.35
1673.36092	16778.65
1676.63211	16430.65
1679.90115	16192.35
1683.16801	15977.25
1686.43272	15873.95
1689.69527	15757.95
1692.95567	15724.65
1696.2139	15685.15
1699.46999	15683.55
1702.72392	15654.35
1705.97571	15639.95
1709.22535	15580.55
1712.47284	15609.95
1715.71819	15599.45
1718.96139	15549.25
1722.20246	15542.65
1725.44139	15515.25
1728.67818	15419.15
1731.91284	15352.15
1735.14537	15285.15
1738.37576	15207.65
1741.60403	15202.15
1744.83017	15167.65
1748.05418	15170.05
1751.27607	15109.65
1754.49584	15076.05
1757.71349	15088.95
1760.92903	15062.35
1764.14244	15085.45
1767.35375	15088.65
1770.56294	15041.55
1773.77002	15040.35
1776.97499	15029.45
1780.17785	14970.75
1783.37861	14985.25
1786.57727	14943.55
1789.77382	14922.75
1792.96828	14927.55
1796.16064	14895.45
1799.3509	14876.15
1802.53907	14864.15
1805.72514	14840.15
1808.90913	14792.65
1812.09102	14749.15
1815.27083	14710.55
1818.44856	14712.95
1821.6242	14701.35
1824.79776	14698.45
1827.96924	14713.45
1831.13864	14686.95
1834.30597	14692.45
1837.47122	14678.15
1840.6344	14681.25
1843.7955	14670.95
1846.95454	14651.95
1850.11151	14674.35
1853.26642	14602.65
1856.41926	14656.45
1859.57004	14666.95
1862.71876	14649.15
1865.86542	14663.85
1869.01003	14649.55
1872.15258	14668.85
1875.29308	14647.65
1878.43152	14614.75
1881.56792	14612.85
1884.70227	14626.15
1887.83457	14617.25
1890.96482	14615.05
1894.09304	14604.05
1897.21921	14572.35
1900.34335	14591.25
1903.46544	14582.15
1906.58551	14608.45
1909.70353	14566.05
1912.81953	14557.15
1915.93349	14547.55
1919.04543	14524.25
1922.15534	14512.15
1925.26322	14473.15
1928.36908	14448.25
1931.47292	14437.95
1934.57473	14385.45
1937.67453	14362.75
1940.77232	14330.35
1943.86808	14270.25
1946.96184	14205.85
1950.05358	14201.35
1953.14331	14180.05
1956.23103	14118.45
1959.31675	14090.65
1962.40046	14055.65
1965.48217	14007.35
1968.56188	13989.35
1971.63959	13916.55
1974.7153	13902.85
1977.78901	13857.75
1980.86073	13792.45
1983.93046	13768.65
1986.99819	13774.35
1990.06394	13712.45
1993.1277	13639.95
1996.18947	13577.15
1999.24925	13572.05
2002.30706	13498.95
2005.36288	13488.55
2008.41672	13460.55
2011.46859	13433.05
2014.51848	13385.65
2017.56639	13370.95
2020.61233	13330.25
2023.6563	13295.85
2026.6983	13302.75
2029.73833	13288.85
2032.7764	13266.45
2035.8125	13228.15
2038.84664	13181.35
2041.87881	13155.75
2044.90903	13147.25
2047.93729	13115.35
2050.96359	13114.05
2053.98794	13107.85
2057.01034	13106.95
2060.03078	13056.95
2063.04927	13073.25
2066.06582	13075.45
2069.08042	13036.15
2072.09307	13044.25
2075.10378	13021.45
2078.11255	12983.45
2081.11938	12985.95
2084.12426	12989.45
2087.12722	12986.35
2090.12824	12969.25
2093.12732	13006.15
2096.12447	13017.25
2099.11969	13015.95
2102.11299	12992.15
2105.10435	13018.75
2108.09379	13015.05
2111.08131	13015.05
2114.0669	13048.55
2117.05057	13061.65
2120.03233	13053.15
2123.01216	13032.45
2125.99008	13058.05
2128.96609	13076.25
2131.94018	13094.65
2134.91236	13079.75
2137.88263	13100.35
2140.851	13117.65
2143.81746	13135.45
2146.78201	13162.45
2149.74466	13134.65
2152.7054	13143.45
2155.66425	13140.35
2158.6212	13170.35
2161.57625	13151.35
2164.52941	13150.75
2167.48067	13141.45
2170.43004	13122.05
2173.37752	13124.75
2176.32311	13113.75
2179.26681	13129.75
2182.20863	13123.75
2185.14856	13131.55
2188.08661	13109.15
2191.02278	13117.65
2193.95707	13131.35
2196.88948	13154.95
2199.82001	13113.05
2202.74867	13086.55
2205.67545	13132.65
2208.60037	13095.05
2211.52341	13082.95
2214.44458	13107.35
2217.36388	13056.75
2220.28132	13069.05
2223.1969	13020.55
2226.11061	13009.15
2229.02246	13002.15
2231.93245	12973.95
2234.84058	12931.75
2237.74686	12927.95
2240.65128	12941.55
2243.55385	12889.75
2246.45456	12871.35
2249.35343	12855.45
2252.25044	12848.45
2255.14561	12803.85
2258.03893	12831.85
2260.93041	12829.85
2263.82004	12795.25
2266.70783	12741.15
2269.59378	12714.75
2272.4779	12721.75
2275.36017	12650.05
2278.24061	12640.65
2281.11922	12600.05
2283.996	12589.45
2286.87094	12593.55
2289.74405	12537.35
2292.61534	12567.35
2295.4848	12532.35
2298.35243	12564.35
2301.21824	12516.35
2304.08223	12542.65
2306.94439	12530.05
2309.80474	12526.45
2312.66327	12558.35
2315.51999	12539.85
2318.37489	12553.05
2321.22797	12520.15
2324.07925	12525.25
2326.92871	12483.45
2329.77637	12500.65
2332.62222	12473.65
2335.46626	12465.85
2338.3085	12496.65
2341.14893	12472.55
2343.98756	12496.55
2346.8244	12480.65
2349.65943	12484.45
2352.49267	12490.95
2355.32411	12516.65
2358.15376	12458.75
2360.98161	12475.15
2363.80768	12448.55
2366.63195	12454.15
2369.45444	12429.15
2372.27514	12397.05
2375.09405	12379.45
2377.91118	12361.75
2380.72652	12317.85
2383.54009	12299.25
2386.35187	12290.65
2389.16188	12241.35
2391.97011	12246.05
2394.77657	12226.15
2397.58125	12176.55
2400.38416	12178.35
2403.18529	12155.55
2405.98466	12137.15
2408.78226	12108.75
2411.57809	12079.75
2414.37216	12070.35
2417.16446	12055.45
2419.955	12021.65
2422.74378	12019.15
2425.5308	11990.15
2428.31606	11993.75
2431.09956	11984.05
2433.88131	11951.35
2436.6613	11985.75
2439.43954	11978.95
2442.21603	11945.05
2444.99077	11956.75
2447.76377	11953.35
2450.53501	11958.45
2453.30451	11923.25
2456.07226	11916.75
2458.83827	11905.15
2461.60254	11903.45
2464.36507	11882.55
2467.12586	11898.75
2469.88492	11887.55
2472.64224	11883.55
2475.39782	11923.35
2478.15167	11930.85
2480.90379	11934.05
2483.65417	11929.95
2486.40283	11939.55
2489.14976	11952.75
2491.89497	11919.85
2494.63845	11937.15
2497.3802	11942.95
2500.12024	11936.95
2502.85855	11917.45
2505.59514	11906.25
2508.33002	11906.55
2511.06318	11890.35
2513.79462	11846.05
2516.52435	11831.45
2519.25237	11816.95
2521.97867	11805.85
2524.70327	11790.25
2527.42616	11798.35
2530.14734	11778.95
2532.86681	11734.95
2535.58458	11782.45
2538.30065	11728.55
2541.01501	11738.85
2543.72768	11714.65
2546.43864	11740.75
2549.14791	11684.75
2551.85548	11690.65
2554.56136	11672.15
2557.26554	11662.05
2559.96803	11643.55
2562.66883	11641.75
2565.36794	11660.55
2568.06536	11625.95
2570.7611	11609.15
2573.45514	11600.25
2576.14751	11592.75
2578.83819	11576.75
2581.52719	11589.35
2584.21451	11552.65
2586.90015	11582.45
2589.58411	11527.25
2592.2664	11541.85
2594.94701	11518.65
2597.62594	11522.85
2600.30321	11498.35
2602.9788	11499.05
2605.65273	11488.75
2608.32498	11477.25
2610.99557	11479.05
2613.66449	11472.95
2616.33175	11454.15
2618.99734	11465.75
2621.66128	11439.15
2624.32355	11462.55
2626.98416	11460.75
2629.64311	11450.85
2632.30041	11437.15
2634.95605	11462.15
2637.61004	11418.45
2640.26238	11423.55
2642.91306	11393.85
2645.56209	11367.15
2648.20948	11376.65
2650.85521	11368.95
2653.4993	11335.65
2656.14175	11343.35
2658.78255	11350.35
2661.42171	11362.55
2664.05923	11350.75
2666.6951	11369.65
2669.32934	11362.05
2671.96194	11372.95
2674.59291	11368.55
2677.22224	11364.75
2679.84993	11357.25
2682.476	11387.45
2685.10043	11380.85
2687.72324	11353.45
2690.34441	11389.35
2692.96396	11344.55
2695.58188	11380.55
2698.19818	11369.15
2700.81285	11350.85
2703.4259	11384.75
2706.03733	11426.65
2708.64714	11394.35
2711.25533	11365.55
2713.86191	11384.75
2716.46687	11419.45
2719.07021	11382.05
2721.67194	11393.85
2724.27206	11360.85
2726.87057	11385.75
2729.46747	11357.95
2732.06276	11374.05
2734.65644	11353.55
2737.24852	11369.65
2739.83899	11360.05
2742.42786	11358.95
2745.01513	11330.15
2747.60079	11330.55
2750.18486	11316.95
2752.76733	11332.75
2755.3482	11348.95
2757.92747	11319.45
2760.50515	11323.65
2763.08123	11294.45
2765.65573	11293.15
2768.22863	11281.45
2770.79994	11261.25
2773.36967	11286.15
2775.9378	11251.15
2778.50435	11239.75
2781.06932	11222.85
2783.6327	11247.65
2786.1945	11224.05
2788.75471	11206.95
2791.31335	11187.75
2793.87041	11171.85
2796.42589	11119.65
2798.97979	11126.95
2801.53212	11119.65
2804.08288	11112.45
2806.63206	11080.55
2809.17967	11062.65
2811.72571	11041.45
2814.27018	11038.45
2816.81308	11017.95
2819.35442	11035.65
2821.89419	11016.95
2824.43239	11002.25
2826.96904	11016.25
2829.50412	11024.45
2832.03763	10977.75
2834.56959	11009.75
2837.1	10993.15
2839.62884	10989.35
2842.15613	10959.05
2844.68186	10986.95
2847.20604	10999.45
2849.72867	11029.05
2852.24974	10999.75
2854.76927	11002.05
2857.28724	11008.35
2859.80367	10975.85
2862.31855	10956.65
2864.83189	10928.45
2867.34368	10925.95
2869.85393	10942.45
2872.36264	10940.85
2874.8698	10934.85
2877.37543	10934.35
2879.87952	10931.15
2882.38207	10934.85
2884.88308	10941.85
2887.38256	10929.75
2889.88051	10934.25
2892.37692	10922.65
2894.8718	10917.45
2897.36515	10934.55
2899.85698	10928.35
2902.34727	10953.35
2904.83604	10955.85
2907.32328	10952.05
2909.809	10963.35
2912.29319	10979.35
2914.77587	10974.15
2917.25702	10963.45
2919.73665	10934.85
2922.21476	10951.35
2924.69136	10943.75
2927.16644	10949.15
2929.64	10915.75
2932.11205	10933.75
2934.58258	10872.35
2937.05161	10900.55
2939.51912	10901.85
2941.98513	10887.65
2944.44962	10858.95
2946.91261	10811.75
2949.37409	10856.85
2951.83407	10832.15
2954.29254	10848.15
2956.74951	10809.15
2959.20498	10820.15
2961.65895	10800.65
2964.11142	10782.15
2966.56239	10770.65
2969.01186	10743.05
2971.45984	10752.25
2973.90632	10696.65
2976.35131	10651.85
2978.7948	10655.95
2981.23681	10630.95
2983.67732	10635.45
2986.11635	10614.35
2988.55388	10589.25
2990.98993	10551.15
2993.4245	10560.55
2995.85758	10543.75
2998.28917	10523.55
3000.71928	10516.55
3003.14791	10499.65
3005.57506	10475.55
3008.00073	10461.55
3010.42493	10480.05
3012.84764	10434.75
3015.26888	10443.45
3017.68865	10398.25
3020.10694	10398.85
3022.52376	10374.35
3024.9391	10376.85
3027.35298	10374.55
3029.76539	10339.85
3032.17632	10356.45
3034.5858	10322.05
3036.9938	10319.95
3039.40034	10308.85
3041.80542	10306.45
3044.20903	10256.85
3046.61118	10285.15
3049.01187	10268.15
3051.4111	10239.85
3053.80888	10239.65
3056.20519	10223.75
3058.60005	10180.65
3060.99345	10173.75
3063.3854	10150.75
3065.7759	10120.95
3068.16494	10106.35
3070.55254	10084.25
3072.93868	10084.45
3075.32338	10041.15
3077.70662	10032.05
3080.08842	9987.05
3082.46878	10000.95
3084.84769	9987.55
3087.22515	9965.85
3089.60118	9981.15
3091.97576	9962.15
3094.3489	9976.95
3096.72061	9948.55
3099.09087	9949.45
3101.4597	9960.25
3103.82709	9945.75
3106.19305	9922.35
3108.55757	9931.65
3110.92066	9903.95
3113.28232	9910.65
3115.64255	9883.15
3118.00134	9841.25
3120.35871	9851.05
3122.71466	9838.65
3125.06917	9812.85
3127.42226	9808.95
3129.77393	9825.25
3132.12417	9810.65
3134.47299	9824.45
3136.82039	9845.25
3139.16636	9831.65
3141.51092	9826.15
3143.85406	9855.95
3146.19579	9840.55
3148.53609	9839.45
3150.87499	9836.45
3153.21246	9848.95
3155.54853	9878.85
3157.88318	9831.95
3160.21642	9852.45
3162.54826	9832.45
3164.87868	9832.75
3167.2077	9838.45
3169.5353	9839.35
3171.86151	9825.85
3174.18631	9833.85
3176.5097	9814.05
3178.83169	9805.65
3181.15228	9811.95
3183.47147	9779.55
3185.78926	9787.75
3188.10565	9797.95
3190.42065	9786.05
3192.73424	9768.55
3195.04645	9806.65
3197.35725	9795.45
3199.66667	9781.35
3201.97469	9813.25
3204.28132	9799.45
3206.58656	9811.15
3208.8904	9836.65
3211.19287	9850.25
3213.49394	9843.25
3215.79363	9814.85
3218.09193	9834.15
3220.38884	9818.05
3222.68438	9847.65
3224.97853	9825.45
3227.2713	9810.45
3229.56269	9804.05
3231.8527	9793.45
3234.14133	9773.25
3236.42858	9763.75
3238.71446	9739.85
3240.99896	9731.05
3243.28209	9740.45
3245.56384	9722.75
3247.84423	9737.25
3250.12324	9719.95
3252.40088	9732.15
3254.67715	9719.65
3256.95205	9694.75
3259.22558	9710.15
3261.49775	9693.65
3263.76855	9693.35
3266.03799	9668.25
3268.30606	9644.45
3270.57277	9646.35
3272.83812	9621.95
3275.10211	9596.75
3277.36474	9599.75
3279.62601	9622.95
3281.88593	9598.55
3284.14448	9594.75
3286.40168	9604.75
3288.65753	9563.95
3290.91202	9562.35
3293.16516	9547.25
3295.41695	9506.75
3297.66738	9457.35
3299.91647	9438.85
3302.16421	9367.25
3304.4106	9339.95
3306.65564	9297.85
3308.89933	9255.85
3311.14169	9210.15
3313.38269	9126.95
3315.62236	9084.25
3317.86068	9008.55
3320.09766	8930.35
3322.3333	8862.95
3324.5676	8881.25
3326.80056	8731.75
3329.03219	8671.75
3331.26248	3.55
3333.49143	-0.65
3335.71905	-0.85
