Data from AgNP_FTO_APTES_CRN_20uM_R6G_10uM_NaF_0.1M_Addition_RamanShift__37__17-43-38-051.txt Node

Date: Wed Dec 15 17:43:38 GMT 2021
User: TCL
Spectrometer: QEP01345
Trigger mode: 4
Integration Time (sec): 7.000000E0
Scans to average: 10
Electric dark correction enabled: true
Nonlinearity correction enabled: false
Boxcar width: 0
XAxis mode: Raman Shifts
Number of Pixels in Spectrum: 1044
>>>>>Begin Spectral Data<<<<<
46.04893	0.95
50.45542	-0.95
54.85868	-0.05
59.25871	-0.45
63.6555	39.85
68.04907	45.95
72.43941	47.95
76.82654	52.65
81.21044	52.15
85.59113	55.45
89.96862	61.35
94.34289	58.45
98.71396	67.15
103.08183	66.55
107.4465	68.05
111.80798	68.85
116.16626	67.85
120.52136	71.15
124.87327	68.45
129.222	71.55
133.56755	70.05
137.90993	73.95
142.24913	77.85
146.58517	84.45
150.91804	90.25
155.24774	101.45
159.57429	121.35
163.89768	149.45
168.21792	188.55
172.53501	248.35
176.84895	341.25
181.15975	462.75
185.46741	640.05
189.77193	884.55
194.07331	1181.65
198.37157	1518.15
202.6667	1863.35
206.9587	2221.45
211.24758	2568.95
215.53334	2942.05
219.81599	3370.45
224.09553	3837.65
228.37195	4358.85
232.64527	4927.85
236.91549	5469.55
241.18261	5965.55
245.44663	6365.95
249.70755	6664.55
253.96539	6929.55
258.22014	7174.25
262.4718	7416.45
266.72039	7595.55
270.96589	7717.65
275.20832	7735.65
279.44768	7664.15
283.68397	7544.15
287.91719	7479.35
292.14735	7543.85
296.37445	7693.45
300.59849	8008.85
304.81948	8386.05
309.03742	8695.55
313.25231	8688.85
317.46415	8287.95
321.67296	7616.35
325.87872	7035.15
330.08145	6747.55
334.28114	6721.95
338.47781	6816.25
342.67145	7040.55
346.86207	7363.85
351.04966	7838.15
355.23424	8388.15
359.4158	8777.95
363.59435	8969.05
367.76989	9000.25
371.94243	8976.35
376.11196	8884.25
380.27849	8802.15
384.44203	8723.45
388.60257	8580.75
392.76012	8492.65
396.91468	8582.25
401.06626	8806.15
405.21485	8985.55
409.36047	8830.95
413.50311	8322.35
417.64277	7870.05
421.77947	7586.85
425.9132	7475.95
430.04396	7453.45
434.17176	7466.05
438.2966	7576.45
442.41849	7778.55
446.53742	8007.95
450.6534	8204.35
454.76644	8357.45
458.87653	8371.75
462.98368	8312.65
467.08789	8147.45
471.18916	7969.45
475.2875	7785.75
479.38291	7606.65
483.4754	7459.15
487.56496	7360.65
491.6516	7288.45
495.73531	7281.15
499.81612	7286.95
503.89401	7396.65
507.96899	7492.35
512.04106	7647.75
516.11023	7803.95
520.1765	7935.95
524.23987	7938.35
528.30034	7793.15
532.35792	7592.55
536.41261	7390.75
540.46441	7208.35
544.51333	7085.95
548.55936	7117.35
552.60252	7288.55
556.64279	7493.65
560.6802	7622.15
564.71473	7728.15
568.7464	8026.35
572.7752	8239.35
576.80114	8009.05
580.82422	7702.95
584.84444	7544.15
588.86181	7510.65
592.87633	7554.15
596.888	7653.75
600.89682	7937.35
604.9028	8879.55
608.90594	11507.75
612.90624	15094.35
616.90371	14674.15
620.89834	10101.05
624.89015	7817.05
628.87913	7363.85
632.86528	7398.45
636.84862	7556.85
640.82913	7475.35
644.80683	7159.05
648.78172	6961.75
652.75379	6998.15
656.72306	7315.15
660.68952	7715.85
664.65319	7634.05
668.61405	7232.25
672.57211	7012.15
676.52738	6977.35
680.47986	6998.45
684.42955	6963.75
688.37646	6939.25
692.32058	6938.25
696.26192	6999.95
700.20048	7101.95
704.13626	7164.75
708.06928	7176.25
711.99952	7111.95
715.927	7065.25
719.85171	7093.75
723.77365	7079.75
727.69284	7000.55
731.60928	6932.85
735.52295	6931.45
739.43388	6953.85
743.34206	6997.25
747.24749	7022.45
751.15017	7058.85
755.05012	7205.45
758.94733	7566.95
762.8418	8389.25
766.73354	9893.95
770.62254	11491.65
774.50882	12328.45
778.39237	11808.35
782.27321	10236.35
786.15132	8604.85
790.02671	7651.85
793.89938	7220.55
797.76935	7047.75
801.6366	6977.25
805.50115	6900.95
809.36299	6867.25
813.22213	6862.35
817.07857	6846.45
820.93231	6852.65
824.78336	6865.05
828.63172	6921.35
832.47738	6938.85
836.32036	6932.15
840.16066	6865.35
843.99827	6841.25
847.8332	6802.25
851.66546	6796.25
855.49504	6800.75
859.32195	6786.15
863.1462	6726.75
866.96777	6716.65
870.78668	6713.95
874.60293	6727.35
878.41652	6738.05
882.22745	6760.65
886.03573	6793.35
889.84136	6781.25
893.64433	6733.75
897.44466	6711.75
901.24235	6716.95
905.0374	6710.75
908.8298	6698.95
912.61957	6690.65
916.40671	6726.65
920.19121	6751.05
923.97308	6800.15
927.75233	6889.15
931.52895	6954.15
935.30295	6908.75
939.07433	6685.25
942.84309	6525.75
946.60924	6420.05
950.37278	6367.75
954.13371	6299.25
957.89203	6297.95
961.64774	6294.05
965.40086	6255.95
969.15137	6245.05
972.89929	6214.25
976.64461	6214.15
980.38733	6210.65
984.12747	6219.45
987.86502	6241.35
991.59999	6257.85
995.33237	6299.35
999.06217	6435.25
1002.78939	6570.25
1006.51404	6705.85
1010.23611	6852.55
1013.95561	6974.45
1017.67255	6959.05
1021.38692	6851.45
1025.09872	6748.75
1028.80796	6673.35
1032.51465	6691.25
1036.21877	6795.45
1039.92035	6865.05
1043.61937	6905.95
1047.31584	6864.95
1051.00976	6877.95
1054.70114	6829.95
1058.38998	6859.35
1062.07627	6878.55
1065.76003	6984.85
1069.44126	7084.85
1073.11995	7231.95
1076.79611	7388.75
1080.46974	7522.35
1084.14085	7671.45
1087.80943	7812.85
1091.47549	7795.55
1095.13903	7569.35
1098.80005	7268.55
1102.45857	7016.65
1106.11456	6940.35
1109.76805	6974.45
1113.41903	7113.25
1117.06751	7325.25
1120.71348	7649.45
1124.35696	7996.05
1127.99793	8311.85
1131.63641	8299.25
1135.2724	7896.45
1138.90589	7509.95
1142.5369	7257.55
1146.16542	7098.85
1149.79145	7003.15
1153.415	7007.15
1157.03607	7060.35
1160.65467	7183.75
1164.27079	7443.15
1167.88443	7837.25
1171.49561	8518.25
1175.10432	9633.65
1178.71056	11116.15
1182.31434	12098.75
1185.91565	12202.75
1189.51451	11749.05
1193.11091	10940.45
1196.70485	9986.75
1200.29634	9342.45
1203.88538	8885.95
1207.47197	8358.25
1211.05612	7906.35
1214.63782	7648.95
1218.21708	7564.85
1221.79391	7569.55
1225.36829	7594.55
1228.94024	7641.15
1232.50976	7673.65
1236.07685	7690.15
1239.6415	7762.95
1243.20374	7795.55
1246.76355	7857.65
1250.32093	7960.75
1253.8759	8131.65
1257.42845	8341.75
1260.97859	8618.95
1264.52631	8860.75
1268.07163	9113.75
1271.61453	9326.35
1275.15503	9507.45
1278.69312	9532.05
1282.22882	9530.65
1285.76211	9686.75
1289.29301	9966.15
1292.82151	10285.65
1296.34761	10596.85
1299.87133	11053.35
1303.39266	11916.75
1306.9116	13252.05
1310.42815	14906.15
1313.94233	15980.65
1317.45412	15733.65
1320.96354	14617.45
1324.47058	13296.05
1327.97525	12171.35
1331.47754	11502.05
1334.97747	11266.35
1338.47502	11352.55
1341.97022	11627.85
1345.46305	12111.05
1348.95352	12889.85
1352.44163	13965.95
1355.92738	15500.75
1359.41078	17874.75
1362.89183	20373.05
1366.37053	20085.55
1369.84688	16950.65
1373.32088	13713.65
1376.79254	11657.15
1380.26186	10644.35
1383.72883	10124.65
1387.19347	9733.95
1390.65578	9303.55
1394.11575	8924.65
1397.57339	8740.95
1401.0287	8671.15
1404.48168	8757.45
1407.93234	8863.85
1411.38068	8963.45
1414.82669	9009.25
1418.27039	8899.65
1421.71177	8735.85
1425.15083	8588.55
1428.58758	8480.55
1432.02203	8510.65
1435.45416	8615.15
1438.88399	8663.25
1442.31151	8647.45
1445.73673	8688.95
1449.15965	8722.75
1452.58027	8689.15
1455.9986	8599.35
1459.41463	8536.35
1462.82837	8612.15
1466.23982	8786.75
1469.64898	8976.45
1473.05586	9183.55
1476.46045	9290.65
1479.86276	9519.25
1483.26279	9739.15
1486.66054	10025.85
1490.05602	10408.05
1493.44922	10874.35
1496.84016	11610.85
1500.22882	12770.35
1503.61521	14349.05
1506.99934	16192.45
1510.38121	18008.45
1513.76081	19003.65
1517.13816	18308.35
1520.51324	16038.05
1523.88607	13641.35
1527.25665	11951.75
1530.62498	10955.45
1533.99105	10411.25
1537.35488	10017.85
1540.71647	9795.55
1544.07581	9686.15
1547.4329	9645.75
1550.78776	9591.25
1554.14038	9575.35
1557.49077	9669.25
1560.83892	9867.65
1564.18484	10190.55
1567.52853	10579.45
1570.86999	10940.25
1574.20922	11201.65
1577.54624	11271.35
1580.88103	10843.85
1584.2136	10075.15
1587.54395	9514.95
1590.87208	9379.35
1594.19801	9730.75
1597.52172	10351.75
1600.84321	10691.05
1604.16251	10362.85
1607.47959	9744.55
1610.79447	9074.45
1614.10715	8400.25
1617.41763	7884.95
1620.7259	7536.35
1624.03199	7359.85
1627.33587	7359.65
1630.63757	7494.45
1633.93707	7776.85
1637.23439	8276.65
1640.52951	9054.15
1643.82246	10110.05
1647.11321	11499.25
1650.40179	12687.75
1653.68819	12646.05
1656.97241	11138.15
1660.25446	9306.35
1663.53433	7933.35
1666.81203	7127.85
1670.08756	6658.05
1673.36092	6401.55
1676.63211	6216.35
1679.90115	6082.75
1683.16801	6011.15
1686.43272	5945.25
1689.69527	5927.25
1692.95567	5877.05
1696.2139	5864.75
1699.46999	5882.05
1702.72392	5860.25
1705.97571	5826.65
1709.22535	5810.15
1712.47284	5793.75
1715.71819	5802.15
1718.96139	5802.15
1722.20246	5790.15
1725.44139	5766.75
1728.67818	5718.45
1731.91284	5669.05
1735.14537	5619.45
1738.37576	5597.75
1741.60403	5576.25
1744.83017	5563.85
1748.05418	5550.25
1751.27607	5541.85
1754.49584	5538.35
1757.71349	5544.65
1760.92903	5536.25
1764.14244	5509.85
1767.35375	5503.15
1770.56294	5501.85
1773.77002	5488.85
1776.97499	5459.55
1780.17785	5431.45
1783.37861	5425.15
1786.57727	5397.25
1789.77382	5388.75
1792.96828	5379.65
1796.16064	5378.45
1799.3509	5351.45
1802.53907	5357.25
1805.72514	5342.25
1808.90913	5324.65
1812.09102	5291.65
1815.27083	5276.85
1818.44856	5277.45
1821.6242	5262.35
1824.79776	5263.65
1827.96924	5237.35
1831.13864	5246.05
1834.30597	5248.65
1837.47122	5251.65
1840.6344	5211.15
1843.7955	5224.15
1846.95454	5200.55
1850.11151	5215.45
1853.26642	5201.45
1856.41926	5213.25
1859.57004	5197.45
1862.71876	5193.85
1865.86542	5195.55
1869.01003	5202.05
1872.15258	5200.95
1875.29308	5205.95
1878.43152	5184.65
1881.56792	5198.65
1884.70227	5179.95
1887.83457	5187.85
1890.96482	5170.25
1894.09304	5175.95
1897.21921	5172.05
1900.34335	5166.35
1903.46544	5171.95
1906.58551	5173.75
1909.70353	5146.15
1912.81953	5159.05
1915.93349	5151.25
1919.04543	5138.25
1922.15534	5131.35
1925.26322	5105.45
1928.36908	5116.05
1931.47292	5093.85
1934.57473	5058.75
1937.67453	5052.55
1940.77232	5022.45
1943.86808	5020.45
1946.96184	5005.55
1950.05358	4986.85
1953.14331	4982.45
1956.23103	4948.85
1959.31675	4945.05
1962.40046	4938.55
1965.48217	4909.45
1968.56188	4910.55
1971.63959	4886.35
1974.7153	4879.95
1977.78901	4859.95
1980.86073	4843.65
1983.93046	4807.95
1986.99819	4803.55
1990.06394	4800.85
1993.1277	4782.95
1996.18947	4751.45
1999.24925	4729.65
2002.30706	4728.25
2005.36288	4706.15
2008.41672	4704.75
2011.46859	4689.95
2014.51848	4656.25
2017.56639	4658.45
2020.61233	4633.35
2023.6563	4622.85
2026.6983	4607.55
2029.73833	4600.05
2032.7764	4592.55
2035.8125	4591.35
2038.84664	4559.45
2041.87881	4562.15
2044.90903	4550.95
2047.93729	4546.05
2050.96359	4533.15
2053.98794	4538.05
2057.01034	4515.75
2060.03078	4512.55
2063.04927	4510.85
2066.06582	4502.65
2069.08042	4493.85
2072.09307	4485.35
2075.10378	4483.15
2078.11255	4483.75
2081.11938	4484.75
2084.12426	4480.75
2087.12722	4479.45
2090.12824	4474.45
2093.12732	4469.35
2096.12447	4472.65
2099.11969	4471.15
2102.11299	4478.25
2105.10435	4471.25
2108.09379	4471.95
2111.08131	4480.35
2114.0669	4479.85
2117.05057	4488.25
2120.03233	4489.75
2123.01216	4496.85
2125.99008	4479.55
2128.96609	4507.05
2131.94018	4502.15
2134.91236	4499.25
2137.88263	4497.05
2140.851	4494.15
2143.81746	4503.25
2146.78201	4497.55
2149.74466	4477.05
2152.7054	4503.25
2155.66425	4510.85
2158.6212	4487.45
2161.57625	4490.65
2164.52941	4473.45
2167.48067	4472.95
2170.43004	4466.65
2173.37752	4464.15
2176.32311	4477.95
2179.26681	4467.85
2182.20863	4456.85
2185.14856	4466.35
2188.08661	4463.65
2191.02278	4455.05
2193.95707	4449.55
2196.88948	4438.25
2199.82001	4436.65
2202.74867	4425.65
2205.67545	4432.55
2208.60037	4429.35
2211.52341	4408.25
2214.44458	4413.45
2217.36388	4412.75
2220.28132	4377.05
2223.1969	4379.15
2226.11061	4369.65
2229.02246	4381.05
2231.93245	4350.75
2234.84058	4347.75
2237.74686	4338.65
2240.65128	4331.95
2243.55385	4322.15
2246.45456	4311.65
2249.35343	4303.55
2252.25044	4303.35
2255.14561	4317.25
2258.03893	4316.75
2260.93041	4320.95
2263.82004	4307.25
2266.70783	4297.35
2269.59378	4272.35
2272.4779	4268.25
2275.36017	4249.05
2278.24061	4241.25
2281.11922	4233.55
2283.996	4223.55
2286.87094	4207.35
2289.74405	4201.25
2292.61534	4176.15
2295.4848	4174.45
2298.35243	4190.15
2301.21824	4175.85
2304.08223	4164.45
2306.94439	4159.65
2309.80474	4149.35
2312.66327	4147.25
2315.51999	4163.05
2318.37489	4144.35
2321.22797	4138.45
2324.07925	4135.15
2326.92871	4128.55
2329.77637	4138.35
2332.62222	4127.15
2335.46626	4130.35
2338.3085	4112.45
2341.14893	4106.65
2343.98756	4101.15
2346.8244	4107.65
2349.65943	4111.15
2352.49267	4108.95
2355.32411	4112.95
2358.15376	4111.55
2360.98161	4122.25
2363.80768	4136.65
2366.63195	4136.75
2369.45444	4135.95
2372.27514	4121.15
2375.09405	4104.75
2377.91118	4093.15
2380.72652	4089.25
2383.54009	4069.65
2386.35187	4055.35
2389.16188	4039.15
2391.97011	4028.65
2394.77657	4005.85
2397.58125	3998.55
2400.38416	3989.65
2403.18529	3979.95
2405.98466	3986.05
2408.78226	3970.75
2411.57809	3963.15
2414.37216	3964.85
2417.16446	3948.85
2419.955	3947.55
2422.74378	3943.75
2425.5308	3933.05
2428.31606	3909.55
2431.09956	3905.95
2433.88131	3926.45
2436.6613	3916.25
2439.43954	3911.35
2442.21603	3908.35
2444.99077	3916.45
2447.76377	3920.55
2450.53501	3919.45
2453.30451	3905.95
2456.07226	3906.75
2458.83827	3914.55
2461.60254	3895.25
2464.36507	3891.55
2467.12586	3890.55
2469.88492	3890.95
2472.64224	3877.35
2475.39782	3884.15
2478.15167	3901.15
2480.90379	3903.65
2483.65417	3905.45
2486.40283	3910.95
2489.14976	3925.35
2491.89497	3910.55
2494.63845	3937.95
2497.3802	3928.95
2500.12024	3908.75
2502.85855	3877.35
2505.59514	3883.45
2508.33002	3863.45
2511.06318	3846.35
2513.79462	3855.15
2516.52435	3831.45
2519.25237	3811.35
2521.97867	3815.85
2524.70327	3795.35
2527.42616	3794.85
2530.14734	3791.55
2532.86681	3776.35
2535.58458	3770.25
2538.30065	3775.75
2541.01501	3759.95
2543.72768	3765.25
2546.43864	3762.95
2549.14791	3756.45
2551.85548	3742.55
2554.56136	3754.25
2557.26554	3741.75
2559.96803	3735.25
2562.66883	3737.85
2565.36794	3739.65
2568.06536	3736.35
2570.7611	3728.55
2573.45514	3712.45
2576.14751	3703.15
2578.83819	3694.85
2581.52719	3714.35
2584.21451	3689.35
2586.90015	3693.65
2589.58411	3670.75
2592.2664	3652.85
2594.94701	3648.95
2597.62594	3651.95
2600.30321	3652.15
2602.9788	3632.65
2605.65273	3642.25
2608.32498	3626.85
2610.99557	3615.95
2613.66449	3631.15
2616.33175	3622.65
2618.99734	3626.75
2621.66128	3619.05
2624.32355	3608.05
2626.98416	3610.85
2629.64311	3605.25
2632.30041	3595.75
2634.95605	3597.75
2637.61004	3588.85
2640.26238	3571.45
2642.91306	3572.25
2645.56209	3578.75
2648.20948	3567.75
2650.85521	3555.15
2653.4993	3559.45
2656.14175	3560.35
2658.78255	3556.55
2661.42171	3565.15
2664.05923	3569.65
2666.6951	3570.15
2669.32934	3577.65
2671.96194	3568.05
2674.59291	3588.85
2677.22224	3560.15
2679.84993	3583.55
2682.476	3580.95
2685.10043	3577.25
2687.72324	3578.15
2690.34441	3573.05
2692.96396	3581.45
2695.58188	3565.45
2698.19818	3562.55
2700.81285	3580.95
2703.4259	3585.15
2706.03733	3615.45
2708.64714	3605.55
2711.25533	3582.55
2713.86191	3593.35
2716.46687	3586.45
2719.07021	3581.65
2721.67194	3574.85
2724.27206	3576.75
2726.87057	3575.65
2729.46747	3577.75
2732.06276	3579.75
2734.65644	3557.25
2737.24852	3579.65
2739.83899	3562.35
2742.42786	3551.65
2745.01513	3534.75
2747.60079	3533.55
2750.18486	3530.85
2752.76733	3552.25
2755.3482	3527.25
2757.92747	3535.45
2760.50515	3524.75
2763.08123	3517.85
2765.65573	3507.75
2768.22863	3488.95
2770.79994	3495.45
2773.36967	3485.85
2775.9378	3494.05
2778.50435	3476.85
2781.06932	3486.35
2783.6327	3480.15
2786.1945	3466.25
2788.75471	3463.55
2791.31335	3455.25
2793.87041	3462.35
2796.42589	3456.35
2798.97979	3451.95
2801.53212	3445.75
2804.08288	3451.05
2806.63206	3444.45
2809.17967	3445.75
2811.72571	3441.85
2814.27018	3434.55
2816.81308	3450.55
2819.35442	3433.75
2821.89419	3434.55
2824.43239	3447.95
2826.96904	3444.25
2829.50412	3448.85
2832.03763	3439.85
2834.56959	3449.25
2837.1	3437.55
2839.62884	3444.35
2842.15613	3476.85
2844.68186	3504.55
2847.20604	3529.45
2849.72867	3552.55
2852.24974	3554.25
2854.76927	3570.25
2857.28724	3564.65
2859.80367	3548.35
2862.31855	3552.55
2864.83189	3537.85
2867.34368	3528.35
2869.85393	3530.25
2872.36264	3531.15
2874.8698	3515.55
2877.37543	3509.05
2879.87952	3510.15
2882.38207	3519.25
2884.88308	3498.15
2887.38256	3498.75
2889.88051	3510.15
2892.37692	3500.35
2894.8718	3480.75
2897.36515	3501.55
2899.85698	3500.45
2902.34727	3511.95
2904.83604	3494.45
2907.32328	3520.05
2909.809	3495.65
2912.29319	3504.25
2914.77587	3503.05
2917.25702	3498.55
2919.73665	3477.55
2922.21476	3485.45
2924.69136	3474.95
2927.16644	3494.55
2929.64	3467.85
2932.11205	3467.65
2934.58258	3447.55
2937.05161	3463.85
2939.51912	3443.15
2941.98513	3428.05
2944.44962	3400.95
2946.91261	3375.25
2949.37409	3376.85
2951.83407	3368.15
2954.29254	3334.15
2956.74951	3324.95
2959.20498	3328.55
2961.65895	3325.35
2964.11142	3326.25
2966.56239	3319.25
2969.01186	3289.95
2971.45984	3281.05
2973.90632	3273.15
2976.35131	3266.65
2978.7948	3263.25
2981.23681	3253.15
2983.67732	3238.55
2986.11635	3228.85
2988.55388	3224.75
2990.98993	3214.35
2993.4245	3210.45
2995.85758	3213.05
2998.28917	3196.15
3000.71928	3188.75
3003.14791	3189.65
3005.57506	3182.45
3008.00073	3189.75
3010.42493	3174.35
3012.84764	3176.95
3015.26888	3172.65
3017.68865	3164.45
3020.10694	3163.45
3022.52376	3158.65
3024.9391	3160.35
3027.35298	3156.85
3029.76539	3146.85
3032.17632	3144.35
3034.5858	3142.05
3036.9938	3132.45
3039.40034	3121.65
3041.80542	3135.25
3044.20903	3119.25
3046.61118	3120.55
3049.01187	3112.55
3051.4111	3105.85
3053.80888	3109.15
3056.20519	3105.25
3058.60005	3098.05
3060.99345	3102.25
3063.3854	3090.35
3065.7759	3082.75
3068.16494	3090.35
3070.55254	3079.75
3072.93868	3076.25
3075.32338	3075.95
3077.70662	3048.25
3080.08842	3031.55
3082.46878	3038.55
3084.84769	3041.05
3087.22515	3027.25
3089.60118	3026.55
3091.97576	3025.35
3094.3489	3030.75
3096.72061	3034.15
3099.09087	3031.15
3101.4597	3019.15
3103.82709	3020.95
3106.19305	3018.15
3108.55757	3019.75
3110.92066	3022.55
3113.28232	3009.25
3115.64255	3004.15
3118.00134	3000.85
3120.35871	3003.55
3122.71466	2997.45
3125.06917	3009.45
3127.42226	2991.55
3129.77393	3007.15
3132.12417	3006.15
3134.47299	3015.85
3136.82039	3022.55
3139.16636	3028.95
3141.51092	3022.85
3143.85406	3025.95
3146.19579	3044.85
3148.53609	3041.05
3150.87499	3036.25
3153.21246	3046.75
3155.54853	3052.05
3157.88318	3049.15
3160.21642	3059.25
3162.54826	3060.55
3164.87868	3051.45
3167.2077	3053.55
3169.5353	3059.55
3171.86151	3059.95
3174.18631	3049.55
3176.5097	3063.85
3178.83169	3050.05
3181.15228	3071.25
3183.47147	3064.95
3185.78926	3070.15
3188.10565	3076.95
3190.42065	3056.75
3192.73424	3073.45
3195.04645	3075.45
3197.35725	3067.25
3199.66667	3080.55
3201.97469	3081.95
3204.28132	3083.55
3206.58656	3096.55
3208.8904	3098.15
3211.19287	3104.25
3213.49394	3097.35
3215.79363	3112.95
3218.09193	3100.85
3220.38884	3114.35
3222.68438	3121.95
3224.97853	3104.35
3227.2713	3102.75
3229.56269	3091.85
3231.8527	3104.55
3234.14133	3091.15
3236.42858	3077.55
3238.71446	3074.45
3240.99896	3066.75
3243.28209	3077.85
3245.56384	3071.75
3247.84423	3078.55
3250.12324	3067.15
3252.40088	3080.45
3254.67715	3064.65
3256.95205	3071.85
3259.22558	3073.25
3261.49775	3061.15
3263.76855	3058.65
3266.03799	3055.05
3268.30606	3054.05
3270.57277	3043.85
3272.83812	3042.25
3275.10211	3020.35
3277.36474	3022.55
3279.62601	3032.25
3281.88593	3031.65
3284.14448	3021.15
3286.40168	3039.05
3288.65753	3031.85
3290.91202	3021.75
3293.16516	3005.85
3295.41695	3001.75
3297.66738	2981.15
3299.91647	2973.75
3302.16421	2963.55
3304.4106	2952.05
3306.65564	2942.55
3308.89933	2916.85
3311.14169	2883.05
3313.38269	2869.25
3315.62236	2854.05
3317.86068	2823.85
3320.09766	2813.25
3322.3333	2781.95
3324.5676	2790.75
3326.80056	2752.35
3329.03219	2729.05
3331.26248	1.35
3333.49143	-0.15
3335.71905	0.35
