Data from AgNP_FTO_APTES_CRN_100uM_R6G_10uM_NaF_0.1M_Addition_RamanShift__15__18-48-58-125.txt Node

Date: Wed Dec 15 18:48:58 GMT 2021
User: TCL
Spectrometer: QEP01345
Trigger mode: 4
Integration Time (sec): 7.000000E0
Scans to average: 10
Electric dark correction enabled: true
Nonlinearity correction enabled: false
Boxcar width: 0
XAxis mode: Raman Shifts
Number of Pixels in Spectrum: 1044
>>>>>Begin Spectral Data<<<<<
46.04893	1.25
50.45542	-1.05
54.85868	-0.35
59.25871	-2.05
63.6555	47.55
68.04907	53.55
72.43941	52.25
76.82654	59.75
81.21044	58.15
85.59113	62.35
89.96862	67.85
94.34289	63.45
98.71396	70.45
103.08183	75.05
107.4465	74.05
111.80798	75.25
116.16626	74.55
120.52136	77.15
124.87327	77.45
129.222	82.15
133.56755	85.55
137.90993	92.55
142.24913	96.05
146.58517	105.95
150.91804	120.65
155.24774	138.35
159.57429	171.75
163.89768	215.95
168.21792	274.45
172.53501	374.75
176.84895	513.55
181.15975	722.45
185.46741	1018.65
189.77193	1396.05
194.07331	1887.65
198.37157	2427.15
202.6667	3020.35
206.9587	3605.65
211.24758	4176.05
215.53334	4740.05
219.81599	5318.45
224.09553	5969.55
228.37195	6685.55
232.64527	7462.05
236.91549	8353.45
241.18261	9228.35
245.44663	10080.85
249.70755	10826.25
253.96539	11482.45
258.22014	11996.95
262.4718	12378.05
266.72039	12621.05
270.96589	12711.55
275.20832	12745.25
279.44768	12678.55
283.68397	12597.35
287.91719	12488.35
292.14735	12399.35
296.37445	12332.85
300.59849	12256.05
304.81948	12192.45
309.03742	12110.05
313.25231	11968.15
317.46415	11796.65
321.67296	11560.75
325.87872	11410.15
330.08145	11337.65
334.28114	11348.15
338.47781	11430.75
342.67145	11536.15
346.86207	11654.85
351.04966	11811.25
355.23424	11945.75
359.4158	12067.25
363.59435	12168.75
367.76989	12236.65
371.94243	12287.75
376.11196	12387.05
380.27849	12402.85
384.44203	12489.85
388.60257	12594.85
392.76012	12715.75
396.91468	12865.35
401.06626	13028.75
405.21485	13205.05
409.36047	13241.15
413.50311	13171.25
417.64277	13087.45
421.77947	13059.25
425.9132	13031.75
430.04396	13088.55
434.17176	13161.85
438.2966	13250.05
442.41849	13334.85
446.53742	13462.85
450.6534	13628.05
454.76644	13770.65
458.87653	13844.95
462.98368	13907.15
467.08789	13915.15
471.18916	13894.05
475.2875	13852.55
479.38291	13806.45
483.4754	13794.15
487.56496	13703.15
491.6516	13682.65
495.73531	13664.65
499.81612	13663.95
503.89401	13685.35
507.96899	13721.15
512.04106	13747.55
516.11023	13757.05
520.1765	13702.25
524.23987	13692.25
528.30034	13677.85
532.35792	13594.85
536.41261	13537.25
540.46441	13462.45
544.51333	13518.95
548.55936	13643.55
552.60252	13799.15
556.64279	13976.55
560.6802	14078.75
564.71473	14136.35
568.7464	14220.25
572.7752	14343.85
576.80114	14532.15
580.82422	14735.15
584.84444	14934.85
588.86181	14943.85
592.87633	14841.55
596.888	14709.75
600.89682	14739.45
604.9028	14973.75
608.90594	15562.25
612.90624	16231.55
616.90371	15664.05
620.89834	14383.05
624.89015	13806.85
628.87913	13733.65
632.86528	13834.95
636.84862	13924.05
640.82913	13913.55
644.80683	13755.55
648.78172	13639.65
652.75379	13602.45
656.72306	13642.35
660.68952	13777.85
664.65319	13799.85
668.61405	13747.35
672.57211	13733.25
676.52738	13764.75
680.47986	13775.15
684.42955	13743.65
688.37646	13782.55
692.32058	13786.65
696.26192	13831.65
700.20048	13911.05
704.13626	13972.75
708.06928	14043.65
711.99952	14058.15
715.927	14025.55
719.85171	13969.55
723.77365	13905.15
727.69284	13865.35
731.60928	13764.65
735.52295	13695.25
739.43388	13651.35
743.34206	13682.35
747.24749	13699.65
751.15017	13762.15
755.05012	13871.95
758.94733	14111.25
762.8418	14480.65
766.73354	15121.35
770.62254	15716.35
774.50882	15800.25
778.39237	15377.65
782.27321	14769.95
786.15132	14271.95
790.02671	13927.35
793.89938	13696.45
797.76935	13641.55
801.6366	13594.95
805.50115	13585.35
809.36299	13589.45
813.22213	13514.15
817.07857	13518.65
820.93231	13525.45
824.78336	13540.95
828.63172	13577.25
832.47738	13582.75
836.32036	13592.55
840.16066	13587.35
843.99827	13562.55
847.8332	13511.95
851.66546	13502.55
855.49504	13525.85
859.32195	13537.85
863.1462	13527.15
866.96777	13523.95
870.78668	13521.45
874.60293	13533.55
878.41652	13565.25
882.22745	13592.55
886.03573	13612.15
889.84136	13631.75
893.64433	13629.95
897.44466	13574.15
901.24235	13584.95
905.0374	13588.65
908.8298	13593.15
912.61957	13617.85
916.40671	13702.95
920.19121	13774.55
923.97308	13787.25
927.75233	13754.65
931.52895	13716.85
935.30295	13653.55
939.07433	13521.55
942.84309	13397.35
946.60924	13370.55
950.37278	13280.85
954.13371	13264.45
957.89203	13216.95
961.64774	13226.15
965.40086	13191.35
969.15137	13162.45
972.89929	13118.45
976.64461	13092.05
980.38733	13091.75
984.12747	13104.95
987.86502	13118.45
991.59999	13143.75
995.33237	13200.55
999.06217	13265.65
1002.78939	13324.95
1006.51404	13400.65
1010.23611	13511.65
1013.95561	13557.75
1017.67255	13563.85
1021.38692	13529.45
1025.09872	13474.55
1028.80796	13415.85
1032.51465	13402.45
1036.21877	13414.55
1039.92035	13484.05
1043.61937	13525.55
1047.31584	13605.85
1051.00976	13659.25
1054.70114	13715.85
1058.38998	13852.35
1062.07627	14020.15
1065.76003	14178.85
1069.44126	14363.15
1073.11995	14570.35
1076.79611	14688.65
1080.46974	14653.75
1084.14085	14534.35
1087.80943	14468.75
1091.47549	14401.95
1095.13903	14435.25
1098.80005	14375.45
1102.45857	14235.05
1106.11456	14001.35
1109.76805	13835.25
1113.41903	13769.85
1117.06751	13797.25
1120.71348	13842.65
1124.35696	13959.65
1127.99793	14064.35
1131.63641	14153.65
1135.2724	14102.35
1138.90589	13962.15
1142.5369	13946.15
1146.16542	13913.95
1149.79145	13932.45
1153.415	13990.05
1157.03607	14063.35
1160.65467	14176.35
1164.27079	14384.15
1167.88443	14639.75
1171.49561	14994.75
1175.10432	15481.95
1178.71056	16089.35
1182.31434	16648.05
1185.91565	17048.35
1189.51451	17189.65
1193.11091	17102.75
1196.70485	16810.25
1200.29634	16401.55
1203.88538	16010.75
1207.47197	15645.55
1211.05612	15390.55
1214.63782	15141.85
1218.21708	14961.25
1221.79391	14801.15
1225.36829	14668.35
1228.94024	14607.75
1232.50976	14588.95
1236.07685	14615.25
1239.6415	14652.55
1243.20374	14672.25
1246.76355	14702.65
1250.32093	14795.55
1253.8759	14928.15
1257.42845	15141.95
1260.97859	15336.35
1264.52631	15544.65
1268.07163	15686.55
1271.61453	15830.65
1275.15503	15969.45
1278.69312	16116.25
1282.22882	16249.35
1285.76211	16427.35
1289.29301	16624.15
1292.82151	16833.75
1296.34761	17083.05
1299.87133	17438.25
1303.39266	17806.45
1306.9116	18212.65
1310.42815	18627.35
1313.94233	18845.35
1317.45412	18926.55
1320.96354	18895.65
1324.47058	18851.55
1327.97525	18850.55
1331.47754	18891.05
1334.97747	19021.05
1338.47502	19170.65
1341.97022	19462.95
1345.46305	19768.15
1348.95352	19890.85
1352.44163	19928.25
1355.92738	19897.15
1359.41078	19950.35
1362.89183	20066.95
1366.37053	19736.35
1369.84688	18860.05
1373.32088	17828.95
1376.79254	17021.65
1380.26186	16560.85
1383.72883	16282.15
1387.19347	16090.15
1390.65578	15887.95
1394.11575	15748.95
1397.57339	15574.85
1401.0287	15526.55
1404.48168	15446.85
1407.93234	15394.05
1411.38068	15264.55
1414.82669	15067.35
1418.27039	14820.85
1421.71177	14547.55
1425.15083	14336.85
1428.58758	14151.35
1432.02203	14136.25
1435.45416	14159.95
1438.88399	14258.25
1442.31151	14280.85
1445.73673	14402.25
1449.15965	14502.95
1452.58027	14623.95
1455.9986	14720.35
1459.41463	14833.35
1462.82837	15052.25
1466.23982	15262.05
1469.64898	15477.05
1473.05586	15656.65
1476.46045	15795.05
1479.86276	15880.65
1483.26279	15989.95
1486.66054	16096.05
1490.05602	16230.15
1493.44922	16541.95
1496.84016	16899.15
1500.22882	17515.65
1503.61521	18233.45
1506.99934	18914.85
1510.38121	19295.95
1513.76081	19291.25
1517.13816	18875.55
1520.51324	18292.95
1523.88607	17778.15
1527.25665	17356.05
1530.62498	17052.55
1533.99105	16817.95
1537.35488	16586.05
1540.71647	16384.65
1544.07581	16124.25
1547.4329	15918.65
1550.78776	15753.25
1554.14038	15663.55
1557.49077	15626.35
1560.83892	15703.95
1564.18484	15841.45
1567.52853	15946.15
1570.86999	16141.15
1574.20922	16262.65
1577.54624	16341.45
1580.88103	16277.65
1584.2136	16120.25
1587.54395	15921.35
1590.87208	15828.45
1594.19801	15860.95
1597.52172	16097.75
1600.84321	16168.75
1604.16251	15938.45
1607.47959	15614.55
1610.79447	15204.65
1614.10715	14753.45
1617.41763	14301.85
1620.7259	13958.15
1624.03199	13656.15
1627.33587	13551.15
1630.63757	13572.05
1633.93707	13745.75
1637.23439	14068.05
1640.52951	14644.85
1643.82246	15439.95
1647.11321	16274.75
1650.40179	16901.85
1653.68819	16964.25
1656.97241	16290.45
1660.25446	15321.45
1663.53433	14380.75
1666.81203	13622.15
1670.08756	13081.35
1673.36092	12689.05
1676.63211	12432.85
1679.90115	12268.75
1683.16801	12125.65
1686.43272	12068.25
1689.69527	12000.95
1692.95567	11930.65
1696.2139	11922.55
1699.46999	11897.85
1702.72392	11884.45
1705.97571	11838.55
1709.22535	11817.05
1712.47284	11799.95
1715.71819	11766.25
1718.96139	11737.05
1722.20246	11719.65
1725.44139	11682.85
1728.67818	11648.95
1731.91284	11629.45
1735.14537	11587.25
1738.37576	11546.05
1741.60403	11513.35
1744.83017	11489.15
1748.05418	11470.15
1751.27607	11464.35
1754.49584	11426.65
1757.71349	11439.45
1760.92903	11430.35
1764.14244	11466.25
1767.35375	11421.55
1770.56294	11388.35
1773.77002	11362.45
1776.97499	11364.75
1780.17785	11339.15
1783.37861	11313.15
1786.57727	11274.75
1789.77382	11249.55
1792.96828	11242.75
1796.16064	11210.65
1799.3509	11191.45
1802.53907	11158.75
1805.72514	11137.05
1808.90913	11100.65
1812.09102	11072.55
1815.27083	11043.95
1818.44856	11046.05
1821.6242	11036.35
1824.79776	11005.75
1827.96924	10992.25
1831.13864	10983.85
1834.30597	10991.55
1837.47122	10975.05
1840.6344	10967.85
1843.7955	10963.85
1846.95454	10927.65
1850.11151	10924.05
1853.26642	10911.35
1856.41926	10928.45
1859.57004	10928.65
1862.71876	10900.25
1865.86542	10908.85
1869.01003	10870.95
1872.15258	10859.45
1875.29308	10820.85
1878.43152	10807.65
1881.56792	10785.15
1884.70227	10785.75
1887.83457	10748.15
1890.96482	10732.55
1894.09304	10724.75
1897.21921	10738.15
1900.34335	10722.15
1903.46544	10694.75
1906.58551	10659.35
1909.70353	10644.55
1912.81953	10669.15
1915.93349	10631.95
1919.04543	10605.05
1922.15534	10552.95
1925.26322	10549.55
1928.36908	10545.55
1931.47292	10522.25
1934.57473	10500.65
1937.67453	10479.35
1940.77232	10478.15
1943.86808	10434.05
1946.96184	10416.25
1950.05358	10376.35
1953.14331	10342.25
1956.23103	10309.85
1959.31675	10297.45
1962.40046	10267.65
1965.48217	10225.05
1968.56188	10188.75
1971.63959	10152.85
1974.7153	10139.35
1977.78901	10100.85
1980.86073	10049.55
1983.93046	10007.25
1986.99819	10030.15
1990.06394	9973.25
1993.1277	9930.65
1996.18947	9891.65
1999.24925	9865.65
2002.30706	9843.65
2005.36288	9818.25
2008.41672	9773.85
2011.46859	9742.75
2014.51848	9721.75
2017.56639	9683.45
2020.61233	9663.25
2023.6563	9662.45
2026.6983	9622.05
2029.73833	9602.55
2032.7764	9581.65
2035.8125	9550.35
2038.84664	9510.05
2041.87881	9505.55
2044.90903	9466.25
2047.93729	9438.35
2050.96359	9443.35
2053.98794	9424.75
2057.01034	9425.55
2060.03078	9420.85
2063.04927	9379.65
2066.06582	9409.65
2069.08042	9388.95
2072.09307	9408.65
2075.10378	9357.55
2078.11255	9380.85
2081.11938	9367.25
2084.12426	9384.15
2087.12722	9348.45
2090.12824	9354.25
2093.12732	9360.85
2096.12447	9334.25
2099.11969	9340.45
2102.11299	9325.85
2105.10435	9352.85
2108.09379	9357.05
2111.08131	9396.35
2114.0669	9345.05
2117.05057	9373.45
2120.03233	9374.15
2123.01216	9381.85
2125.99008	9361.55
2128.96609	9378.65
2131.94018	9371.55
2134.91236	9378.75
2137.88263	9411.65
2140.851	9382.05
2143.81746	9382.95
2146.78201	9392.85
2149.74466	9384.05
2152.7054	9394.15
2155.66425	9419.35
2158.6212	9412.45
2161.57625	9383.85
2164.52941	9403.05
2167.48067	9397.65
2170.43004	9377.15
2173.37752	9376.65
2176.32311	9359.85
2179.26681	9368.65
2182.20863	9356.75
2185.14856	9340.65
2188.08661	9336.35
2191.02278	9324.75
2193.95707	9337.25
2196.88948	9313.55
2199.82001	9293.65
2202.74867	9275.65
2205.67545	9268.85
2208.60037	9288.95
2211.52341	9279.65
2214.44458	9242.45
2217.36388	9195.65
2220.28132	9207.85
2223.1969	9170.45
2226.11061	9169.45
2229.02246	9171.55
2231.93245	9129.75
2234.84058	9090.05
2237.74686	9093.95
2240.65128	9097.85
2243.55385	9063.55
2246.45456	9027.35
2249.35343	9048.35
2252.25044	9022.95
2255.14561	9008.05
2258.03893	9008.45
2260.93041	8993.75
2263.82004	8967.75
2266.70783	8949.45
2269.59378	8939.15
2272.4779	8893.15
2275.36017	8859.05
2278.24061	8841.95
2281.11922	8795.45
2283.996	8822.75
2286.87094	8785.25
2289.74405	8773.65
2292.61534	8756.95
2295.4848	8726.95
2298.35243	8749.65
2301.21824	8727.15
2304.08223	8706.65
2306.94439	8714.65
2309.80474	8679.65
2312.66327	8687.95
2315.51999	8670.25
2318.37489	8657.55
2321.22797	8665.35
2324.07925	8637.15
2326.92871	8642.25
2329.77637	8630.95
2332.62222	8627.95
2335.46626	8589.05
2338.3085	8573.45
2341.14893	8556.35
2343.98756	8532.45
2346.8244	8538.45
2349.65943	8532.95
2352.49267	8503.35
2355.32411	8514.35
2358.15376	8510.55
2360.98161	8487.15
2363.80768	8478.55
2366.63195	8485.45
2369.45444	8458.55
2372.27514	8470.95
2375.09405	8444.35
2377.91118	8450.25
2380.72652	8408.35
2383.54009	8409.45
2386.35187	8385.85
2389.16188	8339.35
2391.97011	8353.15
2394.77657	8344.75
2397.58125	8304.65
2400.38416	8288.05
2403.18529	8252.45
2405.98466	8255.85
2408.78226	8250.85
2411.57809	8248.25
2414.37216	8228.85
2417.16446	8222.25
2419.955	8204.95
2422.74378	8212.95
2425.5308	8172.45
2428.31606	8166.45
2431.09956	8135.65
2433.88131	8145.05
2436.6613	8150.85
2439.43954	8130.85
2442.21603	8118.95
2444.99077	8091.35
2447.76377	8110.25
2450.53501	8110.65
2453.30451	8062.25
2456.07226	8043.85
2458.83827	8043.85
2461.60254	8036.55
2464.36507	8019.15
2467.12586	8030.75
2469.88492	8012.55
2472.64224	7984.85
2475.39782	7983.05
2478.15167	8011.15
2480.90379	7981.15
2483.65417	7988.75
2486.40283	7967.95
2489.14976	7953.35
2491.89497	7959.25
2494.63845	7966.15
2497.3802	7944.95
2500.12024	7911.55
2502.85855	7930.65
2505.59514	7912.35
2508.33002	7916.85
2511.06318	7882.85
2513.79462	7876.25
2516.52435	7864.45
2519.25237	7851.95
2521.97867	7854.55
2524.70327	7841.85
2527.42616	7816.85
2530.14734	7819.55
2532.86681	7808.65
2535.58458	7775.85
2538.30065	7761.95
2541.01501	7743.55
2543.72768	7736.55
2546.43864	7719.55
2549.14791	7707.55
2551.85548	7723.65
2554.56136	7671.35
2557.26554	7682.25
2559.96803	7642.85
2562.66883	7634.45
2565.36794	7632.15
2568.06536	7621.65
2570.7611	7616.75
2573.45514	7594.85
2576.14751	7574.45
2578.83819	7545.95
2581.52719	7548.55
2584.21451	7533.55
2586.90015	7522.15
2589.58411	7481.95
2592.2664	7478.35
2594.94701	7463.85
2597.62594	7452.75
2600.30321	7423.55
2602.9788	7424.65
2605.65273	7411.75
2608.32498	7386.85
2610.99557	7357.45
2613.66449	7370.55
2616.33175	7343.55
2618.99734	7338.15
2621.66128	7329.85
2624.32355	7302.65
2626.98416	7299.95
2629.64311	7300.65
2632.30041	7279.15
2634.95605	7283.65
2637.61004	7269.65
2640.26238	7263.85
2642.91306	7243.65
2645.56209	7242.55
2648.20948	7245.45
2650.85521	7215.05
2653.4993	7215.55
2656.14175	7229.05
2658.78255	7221.05
2661.42171	7207.45
2664.05923	7203.45
2666.6951	7187.55
2669.32934	7194.65
2671.96194	7184.85
2674.59291	7177.45
2677.22224	7163.65
2679.84993	7176.05
2682.476	7178.25
2685.10043	7175.95
2687.72324	7161.45
2690.34441	7186.35
2692.96396	7166.05
2695.58188	7164.05
2698.19818	7157.05
2700.81285	7186.05
2703.4259	7173.35
2706.03733	7188.55
2708.64714	7181.35
2711.25533	7170.35
2713.86191	7154.05
2716.46687	7173.25
2719.07021	7160.55
2721.67194	7139.55
2724.27206	7133.85
2726.87057	7130.05
2729.46747	7116.25
2732.06276	7129.55
2734.65644	7109.95
2737.24852	7146.65
2739.83899	7107.75
2742.42786	7089.25
2745.01513	7069.85
2747.60079	7085.55
2750.18486	7065.15
2752.76733	7053.05
2755.3482	7071.25
2757.92747	7048.75
2760.50515	7037.45
2763.08123	7010.35
2765.65573	7002.15
2768.22863	7011.55
2770.79994	7007.35
2773.36967	6966.15
2775.9378	6956.65
2778.50435	6944.05
2781.06932	6934.65
2783.6327	6914.55
2786.1945	6915.75
2788.75471	6895.15
2791.31335	6876.85
2793.87041	6869.35
2796.42589	6837.55
2798.97979	6863.45
2801.53212	6829.85
2804.08288	6834.05
2806.63206	6803.15
2809.17967	6802.35
2811.72571	6787.45
2814.27018	6771.45
2816.81308	6746.35
2819.35442	6730.75
2821.89419	6722.25
2824.43239	6717.25
2826.96904	6696.95
2829.50412	6706.25
2832.03763	6684.95
2834.56959	6677.35
2837.1	6667.05
2839.62884	6688.15
2842.15613	6683.25
2844.68186	6691.95
2847.20604	6676.55
2849.72867	6680.05
2852.24974	6684.65
2854.76927	6673.15
2857.28724	6657.95
2859.80367	6649.05
2862.31855	6629.95
2864.83189	6637.15
2867.34368	6614.75
2869.85393	6605.65
2872.36264	6571.15
2874.8698	6597.25
2877.37543	6603.15
2879.87952	6588.55
2882.38207	6571.35
2884.88308	6577.75
2887.38256	6593.05
2889.88051	6582.35
2892.37692	6562.35
2894.8718	6549.75
2897.36515	6551.75
2899.85698	6558.15
2902.34727	6567.15
2904.83604	6559.05
2907.32328	6555.45
2909.809	6559.95
2912.29319	6556.25
2914.77587	6565.05
2917.25702	6544.75
2919.73665	6532.85
2922.21476	6549.55
2924.69136	6542.05
2927.16644	6528.45
2929.64	6528.15
2932.11205	6524.05
2934.58258	6513.55
2937.05161	6517.45
2939.51912	6524.45
2941.98513	6516.15
2944.44962	6479.75
2946.91261	6477.15
2949.37409	6467.95
2951.83407	6463.65
2954.29254	6455.65
2956.74951	6429.15
2959.20498	6452.75
2961.65895	6436.55
2964.11142	6431.35
2966.56239	6419.05
2969.01186	6404.05
2971.45984	6400.65
2973.90632	6393.15
2976.35131	6362.95
2978.7948	6345.65
2981.23681	6326.35
2983.67732	6327.25
2986.11635	6322.55
2988.55388	6313.35
2990.98993	6294.35
2993.4245	6296.35
2995.85758	6271.55
2998.28917	6254.75
3000.71928	6274.75
3003.14791	6242.65
3005.57506	6229.85
3008.00073	6228.65
3010.42493	6224.15
3012.84764	6202.25
3015.26888	6210.35
3017.68865	6198.35
3020.10694	6184.25
3022.52376	6165.35
3024.9391	6141.85
3027.35298	6137.25
3029.76539	6142.95
3032.17632	6129.85
3034.5858	6128.55
3036.9938	6121.35
3039.40034	6117.85
3041.80542	6101.35
3044.20903	6092.95
3046.61118	6088.35
3049.01187	6091.05
3051.4111	6068.95
3053.80888	6033.65
3056.20519	6055.95
3058.60005	6039.25
3060.99345	6027.85
3063.3854	6028.95
3065.7759	6004.75
3068.16494	5992.95
3070.55254	5984.95
3072.93868	5981.75
3075.32338	5957.25
3077.70662	5972.65
3080.08842	5925.65
3082.46878	5955.35
3084.84769	5941.05
3087.22515	5934.45
3089.60118	5920.75
3091.97576	5923.05
3094.3489	5941.05
3096.72061	5934.35
3099.09087	5931.05
3101.4597	5917.15
3103.82709	5917.05
3106.19305	5916.25
3108.55757	5924.75
3110.92066	5905.35
3113.28232	5889.25
3115.64255	5879.45
3118.00134	5862.65
3120.35871	5865.35
3122.71466	5867.75
3125.06917	5865.85
3127.42226	5849.25
3129.77393	5864.75
3132.12417	5839.55
3134.47299	5856.35
3136.82039	5859.55
3139.16636	5861.15
3141.51092	5880.55
3143.85406	5870.95
3146.19579	5873.45
3148.53609	5883.55
3150.87499	5879.95
3153.21246	5879.45
3155.54853	5903.65
3157.88318	5898.15
3160.21642	5872.55
3162.54826	5878.95
3164.87868	5894.75
3167.2077	5887.85
3169.5353	5896.65
3171.86151	5905.95
3174.18631	5891.35
3176.5097	5888.95
3178.83169	5877.85
3181.15228	5888.45
3183.47147	5876.15
3185.78926	5891.25
3188.10565	5880.55
3190.42065	5866.95
3192.73424	5861.65
3195.04645	5851.25
3197.35725	5880.75
3199.66667	5877.25
3201.97469	5884.15
3204.28132	5883.25
3206.58656	5863.85
3208.8904	5885.35
3211.19287	5901.95
3213.49394	5890.35
3215.79363	5880.65
3218.09193	5899.45
3220.38884	5900.15
3222.68438	5904.85
3224.97853	5879.25
3227.2713	5883.05
3229.56269	5849.45
3231.8527	5848.05
3234.14133	5840.85
3236.42858	5832.85
3238.71446	5824.85
3240.99896	5807.65
3243.28209	5804.35
3245.56384	5819.05
3247.84423	5809.55
3250.12324	5802.45
3252.40088	5810.95
3254.67715	5804.05
3256.95205	5818.05
3259.22558	5804.35
3261.49775	5807.45
3263.76855	5797.35
3266.03799	5760.45
3268.30606	5752.65
3270.57277	5744.65
3272.83812	5737.55
3275.10211	5733.55
3277.36474	5712.75
3279.62601	5713.95
3281.88593	5698.75
3284.14448	5718.45
3286.40168	5699.75
3288.65753	5697.35
3290.91202	5684.55
3293.16516	5679.85
3295.41695	5631.35
3297.66738	5616.85
3299.91647	5596.35
3302.16421	5564.15
3304.4106	5542.55
3306.65564	5507.95
3308.89933	5468.75
3311.14169	5436.45
3313.38269	5391.25
3315.62236	5371.45
3317.86068	5332.05
3320.09766	5277.65
3322.3333	5242.15
3324.5676	5229.55
3326.80056	5150.95
3329.03219	5131.75
3331.26248	2.25
3333.49143	1.15
3335.71905	-0.75
