Data from AgNP_FTO_APTES_CRN_0uM_R6G_10uM_NaF_0.1M_Addition_RamanShift__21__11-54-12-920.txt Node

Date: Wed Dec 15 11:54:12 GMT 2021
User: TCL
Spectrometer: QEP01345
Trigger mode: 4
Integration Time (sec): 7.000000E0
Scans to average: 10
Electric dark correction enabled: true
Nonlinearity correction enabled: false
Boxcar width: 0
XAxis mode: Raman Shifts
Number of Pixels in Spectrum: 1044
>>>>>Begin Spectral Data<<<<<
46.04893	1.05
50.45542	-2.55
54.85868	1.55
59.25871	0.05
63.6555	58.75
68.04907	69.25
72.43941	73.25
76.82654	78.85
81.21044	83.05
85.59113	85.65
89.96862	92.85
94.34289	92.05
98.71396	100.25
103.08183	102.45
107.4465	106.25
111.80798	101.85
116.16626	103.95
120.52136	106.75
124.87327	106.95
129.222	109.25
133.56755	109.65
137.90993	113.35
142.24913	118.85
146.58517	126.25
150.91804	137.85
155.24774	151.55
159.57429	173.55
163.89768	212.25
168.21792	266.65
172.53501	345.65
176.84895	462.75
181.15975	626.25
185.46741	859.75
189.77193	1167.55
194.07331	1558.15
198.37157	2006.75
202.6667	2477.75
206.9587	2952.05
211.24758	3418.55
215.53334	3923.15
219.81599	4446.45
224.09553	5029.95
228.37195	5671.75
232.64527	6371.05
236.91549	7032.75
241.18261	7675.75
245.44663	8155.05
249.70755	8553.35
253.96539	8821.05
258.22014	9058.15
262.4718	9279.35
266.72039	9424.35
270.96589	9448.45
275.20832	9346.35
279.44768	9174.65
283.68397	8922.45
287.91719	8758.85
292.14735	8660.25
296.37445	8736.95
300.59849	8957.15
304.81948	9237.25
309.03742	9510.25
313.25231	9626.85
317.46415	9445.05
321.67296	9129.15
325.87872	8835.75
330.08145	8660.05
334.28114	8623.55
338.47781	8673.95
342.67145	8799.15
346.86207	8971.95
351.04966	9226.75
355.23424	9547.35
359.4158	9775.75
363.59435	9881.25
367.76989	9879.15
371.94243	9815.05
376.11196	9750.65
380.27849	9721.15
384.44203	9683.35
388.60257	9619.05
392.76012	9562.65
396.91468	9599.85
401.06626	9692.15
405.21485	9809.75
409.36047	9664.75
413.50311	9266.25
417.64277	8893.85
421.77947	8723.25
425.9132	8668.15
430.04396	8759.45
434.17176	8856.65
438.2966	9056.15
442.41849	9416.85
446.53742	9944.45
450.6534	10371.35
454.76644	10538.65
458.87653	10374.65
462.98368	9974.45
467.08789	9570.45
471.18916	9206.75
475.2875	8872.15
479.38291	8603.75
483.4754	8435.95
487.56496	8340.35
491.6516	8322.45
495.73531	8335.25
499.81612	8415.25
503.89401	8546.55
507.96899	8689.25
512.04106	8830.05
516.11023	8989.75
520.1765	9136.95
524.23987	9221.35
528.30034	9245.75
532.35792	9193.45
536.41261	8959.05
540.46441	8668.05
544.51333	8463.25
548.55936	8470.05
552.60252	8681.35
556.64279	9014.15
560.6802	9227.95
564.71473	9203.85
568.7464	9204.55
572.7752	9240.75
576.80114	9071.25
580.82422	8959.05
584.84444	9175.15
588.86181	9924.25
592.87633	11085.25
596.888	11852.05
600.89682	11362.35
604.9028	11094.15
608.90594	12601.55
612.90624	15117.45
616.90371	14586.55
620.89834	10788.75
624.89015	8722.35
628.87913	8232.95
632.86528	8206.15
636.84862	8274.85
640.82913	8174.05
644.80683	7881.65
648.78172	7685.15
652.75379	7711.85
656.72306	7955.15
660.68952	8259.15
664.65319	8164.05
668.61405	7753.45
672.57211	7594.65
676.52738	7611.15
680.47986	7617.35
684.42955	7545.25
688.37646	7449.75
692.32058	7441.75
696.26192	7517.65
700.20048	7630.15
704.13626	7741.15
708.06928	7733.95
711.99952	7733.05
715.927	7777.75
719.85171	7832.05
723.77365	7840.55
727.69284	7771.65
731.60928	7686.25
735.52295	7730.85
739.43388	7765.85
743.34206	7790.65
747.24749	7802.55
751.15017	7824.45
755.05012	7921.35
758.94733	8227.45
762.8418	8954.35
766.73354	10357.55
770.62254	11910.05
774.50882	12612.25
778.39237	11968.25
782.27321	10475.85
786.15132	9065.85
790.02671	8257.15
793.89938	7843.55
797.76935	7675.45
801.6366	7564.05
805.50115	7476.35
809.36299	7408.35
813.22213	7332.15
817.07857	7296.55
820.93231	7257.15
824.78336	7236.55
828.63172	7264.05
832.47738	7279.45
836.32036	7273.25
840.16066	7277.05
843.99827	7257.15
847.8332	7285.25
851.66546	7265.05
855.49504	7276.85
859.32195	7261.65
863.1462	7211.35
866.96777	7191.25
870.78668	7150.05
874.60293	7183.25
878.41652	7197.55
882.22745	7253.05
886.03573	7310.85
889.84136	7319.05
893.64433	7322.45
897.44466	7343.15
901.24235	7353.85
905.0374	7381.05
908.8298	7425.75
912.61957	7471.55
916.40671	7573.95
920.19121	7734.85
923.97308	7896.75
927.75233	8011.85
931.52895	8023.35
935.30295	7885.15
939.07433	7603.75
942.84309	7373.05
946.60924	7188.85
950.37278	7081.05
954.13371	6988.95
957.89203	6906.25
961.64774	6849.35
965.40086	6759.55
969.15137	6731.45
972.89929	6682.55
976.64461	6677.85
980.38733	6663.85
984.12747	6670.65
987.86502	6708.35
991.59999	6768.65
995.33237	6868.05
999.06217	7054.35
1002.78939	7266.15
1006.51404	7435.95
1010.23611	7603.55
1013.95561	7709.35
1017.67255	7736.15
1021.38692	7560.95
1025.09872	7283.75
1028.80796	7085.55
1032.51465	7031.75
1036.21877	7036.85
1039.92035	7113.95
1043.61937	7190.95
1047.31584	7242.65
1051.00976	7292.35
1054.70114	7354.25
1058.38998	7408.95
1062.07627	7478.65
1065.76003	7560.55
1069.44126	7635.65
1073.11995	7801.95
1076.79611	7964.05
1080.46974	8050.25
1084.14085	8096.85
1087.80943	8133.05
1091.47549	8041.75
1095.13903	7832.05
1098.80005	7472.85
1102.45857	7215.05
1106.11456	7081.85
1109.76805	7099.05
1113.41903	7243.95
1117.06751	7437.05
1120.71348	7677.85
1124.35696	7914.05
1127.99793	8172.65
1131.63641	8220.65
1135.2724	7915.15
1138.90589	7557.55
1142.5369	7359.15
1146.16542	7223.25
1149.79145	7182.75
1153.415	7148.85
1157.03607	7161.75
1160.65467	7303.25
1164.27079	7612.45
1167.88443	8180.55
1171.49561	9119.15
1175.10432	10473.45
1178.71056	12319.65
1182.31434	13917.85
1185.91565	14206.15
1189.51451	13376.35
1193.11091	12165.05
1196.70485	11073.35
1200.29634	10195.35
1203.88538	9420.85
1207.47197	8701.45
1211.05612	8141.55
1214.63782	7885.25
1218.21708	7897.25
1221.79391	8168.35
1225.36829	8456.65
1228.94024	8539.55
1232.50976	8283.25
1236.07685	7904.35
1239.6415	7661.05
1243.20374	7511.35
1246.76355	7471.55
1250.32093	7507.05
1253.8759	7654.65
1257.42845	7877.25
1260.97859	8154.55
1264.52631	8515.55
1268.07163	8832.15
1271.61453	9094.25
1275.15503	9345.55
1278.69312	9561.95
1282.22882	9814.35
1285.76211	10254.55
1289.29301	10890.35
1292.82151	11551.35
1296.34761	12277.95
1299.87133	13113.85
1303.39266	14279.15
1306.9116	15786.05
1310.42815	17711.45
1313.94233	19139.35
1317.45412	19027.75
1320.96354	17564.25
1324.47058	15590.35
1327.97525	13814.65
1331.47754	12573.05
1334.97747	11960.85
1338.47502	11683.85
1341.97022	11625.65
1345.46305	11831.95
1348.95352	12600.15
1352.44163	14134.85
1355.92738	16335.95
1359.41078	19224.05
1362.89183	21987.75
1366.37053	22388.15
1369.84688	19378.25
1373.32088	15251.95
1376.79254	12464.45
1380.26186	11285.05
1383.72883	10890.75
1387.19347	10523.55
1390.65578	10107.55
1394.11575	9821.85
1397.57339	9845.05
1401.0287	9962.95
1404.48168	10064.25
1407.93234	10000.75
1411.38068	9804.95
1414.82669	9640.85
1418.27039	9405.35
1421.71177	9159.15
1425.15083	8885.45
1428.58758	8743.55
1432.02203	8849.65
1435.45416	9106.25
1438.88399	9341.15
1442.31151	9445.65
1445.73673	9483.85
1449.15965	9448.15
1452.58027	9290.55
1455.9986	8989.95
1459.41463	8771.75
1462.82837	8819.05
1466.23982	9078.35
1469.64898	9408.05
1473.05586	9652.65
1476.46045	9840.75
1479.86276	9974.05
1483.26279	10078.25
1486.66054	10161.15
1490.05602	10369.95
1493.44922	10659.25
1496.84016	11021.65
1500.22882	11793.45
1503.61521	13027.35
1506.99934	14551.75
1510.38121	16052.85
1513.76081	16777.75
1517.13816	16004.45
1520.51324	14123.25
1523.88607	12279.05
1527.25665	11107.05
1530.62498	10586.55
1533.99105	10301.65
1537.35488	10015.15
1540.71647	9685.25
1544.07581	9381.85
1547.4329	9098.15
1550.78776	8879.65
1554.14038	8701.35
1557.49077	8648.65
1560.83892	8722.05
1564.18484	8975.15
1567.52853	9340.35
1570.86999	9812.55
1574.20922	10310.45
1577.54624	10626.55
1580.88103	10364.05
1584.2136	9722.05
1587.54395	9221.05
1590.87208	9195.35
1594.19801	9761.65
1597.52172	10844.65
1600.84321	11611.75
1604.16251	11381.35
1607.47959	10324.95
1610.79447	8988.55
1614.10715	7856.15
1617.41763	7079.45
1620.7259	6653.95
1624.03199	6460.25
1627.33587	6467.05
1630.63757	6670.95
1633.93707	7110.75
1637.23439	7991.35
1640.52951	9457.85
1643.82246	11581.15
1647.11321	13730.65
1650.40179	14660.35
1653.68819	13683.15
1656.97241	11246.15
1660.25446	8844.25
1663.53433	7173.75
1666.81203	6260.05
1670.08756	5716.85
1673.36092	5413.25
1676.63211	5211.75
1679.90115	5063.35
1683.16801	4988.95
1686.43272	4895.55
1689.69527	4860.75
1692.95567	4801.05
1696.2139	4767.75
1699.46999	4748.75
1702.72392	4702.15
1705.97571	4712.65
1709.22535	4698.85
1712.47284	4693.25
1715.71819	4704.85
1718.96139	4680.25
1722.20246	4651.15
1725.44139	4625.75
1728.67818	4574.45
1731.91284	4515.85
1735.14537	4495.95
1738.37576	4456.35
1741.60403	4438.65
1744.83017	4413.35
1748.05418	4372.35
1751.27607	4364.15
1754.49584	4333.45
1757.71349	4316.65
1760.92903	4303.15
1764.14244	4285.55
1767.35375	4277.95
1770.56294	4265.65
1773.77002	4241.25
1776.97499	4239.25
1780.17785	4232.65
1783.37861	4222.45
1786.57727	4205.75
1789.77382	4194.65
1792.96828	4163.95
1796.16064	4161.45
1799.3509	4142.05
1802.53907	4132.25
1805.72514	4124.85
1808.90913	4102.55
1812.09102	4079.65
1815.27083	4072.25
1818.44856	4059.65
1821.6242	4032.35
1824.79776	4025.85
1827.96924	4037.45
1831.13864	4023.15
1834.30597	4030.05
1837.47122	4000.45
1840.6344	3990.15
1843.7955	4000.65
1846.95454	3980.65
1850.11151	3985.45
1853.26642	3961.45
1856.41926	3980.55
1859.57004	3968.75
1862.71876	3953.55
1865.86542	3964.55
1869.01003	3942.55
1872.15258	3943.55
1875.29308	3928.25
1878.43152	3932.35
1881.56792	3935.15
1884.70227	3936.15
1887.83457	3932.35
1890.96482	3923.45
1894.09304	3912.75
1897.21921	3924.25
1900.34335	3911.25
1903.46544	3908.95
1906.58551	3912.75
1909.70353	3903.05
1912.81953	3902.15
1915.93349	3883.15
1919.04543	3861.85
1922.15534	3854.75
1925.26322	3832.85
1928.36908	3803.85
1931.47292	3806.65
1934.57473	3781.15
1937.67453	3775.85
1940.77232	3751.25
1943.86808	3724.25
1946.96184	3722.25
1950.05358	3695.75
1953.14331	3680.45
1956.23103	3680.55
1959.31675	3667.65
1962.40046	3656.15
1965.48217	3648.65
1968.56188	3635.05
1971.63959	3615.65
1974.7153	3603.05
1977.78901	3599.95
1980.86073	3599.85
1983.93046	3566.65
1986.99819	3533.25
1990.06394	3528.75
1993.1277	3533.15
1996.18947	3500.85
1999.24925	3504.05
2002.30706	3486.65
2005.36288	3460.35
2008.41672	3468.95
2011.46859	3437.85
2014.51848	3439.45
2017.56639	3413.45
2020.61233	3416.55
2023.6563	3397.75
2026.6983	3399.35
2029.73833	3381.85
2032.7764	3367.75
2035.8125	3358.85
2038.84664	3364.75
2041.87881	3354.75
2044.90903	3342.15
2047.93729	3324.75
2050.96359	3318.45
2053.98794	3318.65
2057.01034	3305.85
2060.03078	3301.95
2063.04927	3307.15
2066.06582	3297.95
2069.08042	3287.75
2072.09307	3284.55
2075.10378	3278.55
2078.11255	3278.55
2081.11938	3279.85
2084.12426	3271.65
2087.12722	3268.95
2090.12824	3270.45
2093.12732	3267.75
2096.12447	3261.15
2099.11969	3261.25
2102.11299	3257.35
2105.10435	3262.25
2108.09379	3251.75
2111.08131	3262.75
2114.0669	3248.45
2117.05057	3254.75
2120.03233	3249.55
2123.01216	3237.05
2125.99008	3258.45
2128.96609	3255.25
2131.94018	3247.95
2134.91236	3253.95
2137.88263	3249.35
2140.851	3243.85
2143.81746	3247.35
2146.78201	3239.35
2149.74466	3235.45
2152.7054	3230.35
2155.66425	3232.25
2158.6212	3215.15
2161.57625	3225.55
2164.52941	3205.65
2167.48067	3212.35
2170.43004	3214.15
2173.37752	3195.15
2176.32311	3192.05
2179.26681	3194.65
2182.20863	3203.55
2185.14856	3191.45
2188.08661	3191.95
2191.02278	3187.55
2193.95707	3200.25
2196.88948	3194.65
2199.82001	3195.25
2202.74867	3192.45
2205.67545	3182.95
2208.60037	3169.05
2211.52341	3158.35
2214.44458	3151.05
2217.36388	3131.45
2220.28132	3140.85
2223.1969	3120.75
2226.11061	3119.55
2229.02246	3114.95
2231.93245	3104.35
2234.84058	3097.85
2237.74686	3093.95
2240.65128	3095.95
2243.55385	3090.25
2246.45456	3079.45
2249.35343	3078.75
2252.25044	3070.35
2255.14561	3058.25
2258.03893	3066.05
2260.93041	3045.65
2263.82004	3042.85
2266.70783	3020.85
2269.59378	3025.55
2272.4779	3007.75
2275.36017	3004.75
2278.24061	2991.05
2281.11922	2999.75
2283.996	2975.35
2286.87094	2979.85
2289.74405	2962.05
2292.61534	2954.75
2295.4848	2938.45
2298.35243	2927.05
2301.21824	2941.25
2304.08223	2930.45
2306.94439	2940.95
2309.80474	2924.95
2312.66327	2925.75
2315.51999	2924.25
2318.37489	2919.65
2321.22797	2909.55
2324.07925	2893.25
2326.92871	2900.15
2329.77637	2907.45
2332.62222	2909.65
2335.46626	2890.35
2338.3085	2898.05
2341.14893	2875.55
2343.98756	2902.65
2346.8244	2887.45
2349.65943	2884.75
2352.49267	2882.15
2355.32411	2870.05
2358.15376	2891.35
2360.98161	2888.35
2363.80768	2895.45
2366.63195	2898.85
2369.45444	2906.55
2372.27514	2901.25
2375.09405	2892.85
2377.91118	2872.45
2380.72652	2870.45
2383.54009	2838.25
2386.35187	2834.05
2389.16188	2835.55
2391.97011	2819.35
2394.77657	2816.15
2397.58125	2799.25
2400.38416	2782.55
2403.18529	2785.55
2405.98466	2767.85
2408.78226	2758.35
2411.57809	2749.35
2414.37216	2751.85
2417.16446	2743.95
2419.955	2749.35
2422.74378	2744.25
2425.5308	2733.85
2428.31606	2733.75
2431.09956	2714.95
2433.88131	2730.05
2436.6613	2729.15
2439.43954	2729.05
2442.21603	2728.85
2444.99077	2705.75
2447.76377	2733.65
2450.53501	2711.85
2453.30451	2726.85
2456.07226	2724.55
2458.83827	2725.55
2461.60254	2713.55
2464.36507	2718.25
2467.12586	2714.55
2469.88492	2704.85
2472.64224	2709.55
2475.39782	2700.15
2478.15167	2697.65
2480.90379	2709.35
2483.65417	2707.65
2486.40283	2714.45
2489.14976	2735.55
2491.89497	2724.55
2494.63845	2724.15
2497.3802	2725.25
2500.12024	2721.55
2502.85855	2706.45
2505.59514	2706.25
2508.33002	2674.35
2511.06318	2681.65
2513.79462	2657.75
2516.52435	2650.35
2519.25237	2634.95
2521.97867	2629.75
2524.70327	2621.55
2527.42616	2612.05
2530.14734	2619.95
2532.86681	2605.75
2535.58458	2606.65
2538.30065	2592.65
2541.01501	2603.55
2543.72768	2603.55
2546.43864	2601.65
2549.14791	2600.15
2551.85548	2596.15
2554.56136	2588.65
2557.26554	2589.65
2559.96803	2587.75
2562.66883	2583.25
2565.36794	2584.15
2568.06536	2584.95
2570.7611	2569.95
2573.45514	2574.25
2576.14751	2564.15
2578.83819	2567.35
2581.52719	2560.95
2584.21451	2553.85
2586.90015	2572.05
2589.58411	2548.75
2592.2664	2545.95
2594.94701	2543.65
2597.62594	2542.25
2600.30321	2517.95
2602.9788	2525.75
2605.65273	2510.25
2608.32498	2512.45
2610.99557	2515.35
2613.66449	2510.15
2616.33175	2520.15
2618.99734	2508.85
2621.66128	2509.15
2624.32355	2502.65
2626.98416	2517.35
2629.64311	2505.85
2632.30041	2489.15
2634.95605	2491.75
2637.61004	2487.45
2640.26238	2488.35
2642.91306	2478.05
2645.56209	2487.95
2648.20948	2471.65
2650.85521	2471.55
2653.4993	2486.05
2656.14175	2490.85
2658.78255	2487.85
2661.42171	2490.05
2664.05923	2498.35
2666.6951	2480.25
2669.32934	2503.85
2671.96194	2501.25
2674.59291	2493.85
2677.22224	2489.85
2679.84993	2505.75
2682.476	2486.85
2685.10043	2495.15
2687.72324	2484.95
2690.34441	2476.95
2692.96396	2484.65
2695.58188	2495.65
2698.19818	2486.45
2700.81285	2506.45
2703.4259	2481.65
2706.03733	2474.75
2708.64714	2476.85
2711.25533	2501.15
2713.86191	2501.05
2716.46687	2523.45
2719.07021	2519.35
2721.67194	2524.75
2724.27206	2537.85
2726.87057	2528.25
2729.46747	2536.35
2732.06276	2546.45
2734.65644	2539.45
2737.24852	2546.15
2739.83899	2547.25
2742.42786	2550.85
2745.01513	2547.75
2747.60079	2555.45
2750.18486	2556.25
2752.76733	2563.75
2755.3482	2577.25
2757.92747	2580.85
2760.50515	2570.55
2763.08123	2569.75
2765.65573	2576.05
2768.22863	2578.45
2770.79994	2562.25
2773.36967	2581.25
2775.9378	2576.55
2778.50435	2583.25
2781.06932	2574.95
2783.6327	2584.45
2786.1945	2575.05
2788.75471	2586.95
2791.31335	2587.05
2793.87041	2604.45
2796.42589	2590.95
2798.97979	2594.35
2801.53212	2596.25
2804.08288	2599.25
2806.63206	2595.95
2809.17967	2602.35
2811.72571	2597.05
2814.27018	2600.15
2816.81308	2597.95
2819.35442	2594.75
2821.89419	2602.05
2824.43239	2608.65
2826.96904	2597.15
2829.50412	2612.55
2832.03763	2613.25
2834.56959	2619.95
2837.1	2615.95
2839.62884	2644.65
2842.15613	2673.95
2844.68186	2704.85
2847.20604	2720.85
2849.72867	2769.15
2852.24974	2783.95
2854.76927	2823.65
2857.28724	2833.85
2859.80367	2854.15
2862.31855	2880.35
2864.83189	2904.05
2867.34368	2916.75
2869.85393	2940.55
2872.36264	2958.25
2874.8698	2976.75
2877.37543	3004.15
2879.87952	3022.55
2882.38207	3037.75
2884.88308	3059.85
2887.38256	3064.35
2889.88051	3079.85
2892.37692	3077.05
2894.8718	3084.75
2897.36515	3080.55
2899.85698	3083.25
2902.34727	3107.55
2904.83604	3070.05
2907.32328	3090.85
2909.809	3089.75
2912.29319	3092.15
2914.77587	3073.45
2917.25702	3069.85
2919.73665	3076.05
2922.21476	3062.05
2924.69136	3072.75
2927.16644	3061.75
2929.64	3027.95
2932.11205	3026.95
2934.58258	3000.35
2937.05161	2978.85
2939.51912	2952.75
2941.98513	2928.75
2944.44962	2893.75
2946.91261	2845.45
2949.37409	2810.35
2951.83407	2766.15
2954.29254	2738.75
2956.74951	2695.25
2959.20498	2683.65
2961.65895	2645.45
2964.11142	2615.45
2966.56239	2574.05
2969.01186	2553.65
2971.45984	2527.55
2973.90632	2508.55
2976.35131	2467.15
2978.7948	2460.85
2981.23681	2431.35
2983.67732	2420.15
2986.11635	2392.25
2988.55388	2367.45
2990.98993	2355.15
2993.4245	2339.85
2995.85758	2328.75
2998.28917	2316.45
3000.71928	2317.35
3003.14791	2305.65
3005.57506	2296.95
3008.00073	2290.65
3010.42493	2287.35
3012.84764	2282.65
3015.26888	2272.95
3017.68865	2270.75
3020.10694	2261.45
3022.52376	2253.55
3024.9391	2240.75
3027.35298	2232.05
3029.76539	2224.15
3032.17632	2227.75
3034.5858	2222.25
3036.9938	2230.35
3039.40034	2212.45
3041.80542	2212.15
3044.20903	2201.25
3046.61118	2210.75
3049.01187	2202.35
3051.4111	2207.65
3053.80888	2203.55
3056.20519	2201.45
3058.60005	2206.95
3060.99345	2207.55
3063.3854	2209.35
3065.7759	2206.15
3068.16494	2198.75
3070.55254	2197.45
3072.93868	2199.65
3075.32338	2183.55
3077.70662	2188.05
3080.08842	2178.35
3082.46878	2189.65
3084.84769	2182.75
3087.22515	2193.65
3089.60118	2186.25
3091.97576	2188.25
3094.3489	2202.15
3096.72061	2192.95
3099.09087	2194.95
3101.4597	2195.55
3103.82709	2195.15
3106.19305	2198.65
3108.55757	2195.55
3110.92066	2189.65
3113.28232	2197.45
3115.64255	2198.65
3118.00134	2195.85
3120.35871	2199.55
3122.71466	2208.95
3125.06917	2208.45
3127.42226	2199.85
3129.77393	2217.65
3132.12417	2211.65
3134.47299	2233.95
3136.82039	2236.45
3139.16636	2236.95
3141.51092	2245.05
3143.85406	2250.65
3146.19579	2247.35
3148.53609	2265.55
3150.87499	2271.85
3153.21246	2283.55
3155.54853	2280.55
3157.88318	2294.85
3160.21642	2290.05
3162.54826	2294.15
3164.87868	2299.85
3167.2077	2296.05
3169.5353	2304.85
3171.86151	2316.45
3174.18631	2325.95
3176.5097	2324.85
3178.83169	2322.85
3181.15228	2327.85
3183.47147	2323.25
3185.78926	2340.15
3188.10565	2339.35
3190.42065	2344.25
3192.73424	2352.75
3195.04645	2348.15
3197.35725	2341.85
3199.66667	2357.85
3201.97469	2359.65
3204.28132	2374.25
3206.58656	2374.55
3208.8904	2367.15
3211.19287	2371.95
3213.49394	2382.95
3215.79363	2390.05
3218.09193	2392.45
3220.38884	2394.75
3222.68438	2397.75
3224.97853	2398.95
3227.2713	2403.65
3229.56269	2398.85
3231.8527	2408.55
3234.14133	2393.35
3236.42858	2407.85
3238.71446	2413.55
3240.99896	2400.75
3243.28209	2416.55
3245.56384	2418.05
3247.84423	2422.15
3250.12324	2421.75
3252.40088	2428.95
3254.67715	2429.45
3256.95205	2415.85
3259.22558	2424.55
3261.49775	2425.25
3263.76855	2429.25
3266.03799	2416.55
3268.30606	2422.85
3270.57277	2417.05
3272.83812	2426.75
3275.10211	2415.25
3277.36474	2408.85
3279.62601	2401.55
3281.88593	2407.95
3284.14448	2419.15
3286.40168	2406.45
3288.65753	2408.55
3290.91202	2407.25
3293.16516	2396.85
3295.41695	2395.85
3297.66738	2375.85
3299.91647	2357.15
3302.16421	2346.05
3304.4106	2341.65
3306.65564	2322.95
3308.89933	2312.15
3311.14169	2294.15
3313.38269	2271.85
3315.62236	2259.75
3317.86068	2242.05
3320.09766	2238.05
3322.3333	2203.05
3324.5676	2196.55
3326.80056	2157.65
3329.03219	2157.15
3331.26248	1.75
3333.49143	-1.25
3335.71905	-0.45
