Data from AgNP_FTO_APTES_CRN_100uM_R6G_10uM_NaF_0.1M_Addition_RamanShift__13__18-46-38-122.txt Node

Date: Wed Dec 15 18:46:38 GMT 2021
User: TCL
Spectrometer: QEP01345
Trigger mode: 4
Integration Time (sec): 7.000000E0
Scans to average: 10
Electric dark correction enabled: true
Nonlinearity correction enabled: false
Boxcar width: 0
XAxis mode: Raman Shifts
Number of Pixels in Spectrum: 1044
>>>>>Begin Spectral Data<<<<<
46.04893	-0.15
50.45542	-0.45
54.85868	-0.45
59.25871	1.05
63.6555	49.05
68.04907	53.15
72.43941	53.15
76.82654	58.65
81.21044	59.95
85.59113	61.25
89.96862	66.05
94.34289	64.65
98.71396	72.65
103.08183	75.25
107.4465	76.85
111.80798	78.15
116.16626	79.55
120.52136	81.55
124.87327	80.85
129.222	85.75
133.56755	85.55
137.90993	92.85
142.24913	98.45
146.58517	110.45
150.91804	125.15
155.24774	147.15
159.57429	179.55
163.89768	221.25
168.21792	288.65
172.53501	389.55
176.84895	537.75
181.15975	752.75
185.46741	1044.05
189.77193	1443.05
194.07331	1932.55
198.37157	2494.05
202.6667	3098.35
206.9587	3688.85
211.24758	4276.35
215.53334	4862.85
219.81599	5464.85
224.09553	6125.45
228.37195	6842.95
232.64527	7669.95
236.91549	8512.45
241.18261	9418.45
245.44663	10263.15
249.70755	11044.05
253.96539	11723.05
258.22014	12267.45
262.4718	12657.95
266.72039	12950.05
270.96589	13102.15
275.20832	13110.35
279.44768	13051.55
283.68397	12950.15
287.91719	12899.95
292.14735	12799.45
296.37445	12749.35
300.59849	12664.85
304.81948	12639.35
309.03742	12537.05
313.25231	12438.45
317.46415	12212.75
321.67296	11989.15
325.87872	11797.35
330.08145	11697.55
334.28114	11711.05
338.47781	11782.35
342.67145	11906.75
346.86207	12032.75
351.04966	12204.55
355.23424	12331.85
359.4158	12472.55
363.59435	12553.75
367.76989	12632.95
371.94243	12670.05
376.11196	12754.75
380.27849	12754.95
384.44203	12819.25
388.60257	12930.95
392.76012	13060.65
396.91468	13214.65
401.06626	13422.85
405.21485	13582.15
409.36047	13618.25
413.50311	13525.75
417.64277	13426.85
421.77947	13423.55
425.9132	13443.65
430.04396	13495.15
434.17176	13551.85
438.2966	13629.15
442.41849	13722.65
446.53742	13875.75
450.6534	14029.15
454.76644	14188.95
458.87653	14296.65
462.98368	14324.95
467.08789	14319.05
471.18916	14278.75
475.2875	14240.85
479.38291	14185.35
483.4754	14140.75
487.56496	14081.75
491.6516	14009.95
495.73531	13967.25
499.81612	13922.45
503.89401	13980.35
507.96899	14033.95
512.04106	14046.65
516.11023	14064.95
520.1765	14022.05
524.23987	13970.25
528.30034	13923.35
532.35792	13853.45
536.41261	13739.75
540.46441	13697.35
544.51333	13706.05
548.55936	13842.25
552.60252	14058.35
556.64279	14235.75
560.6802	14311.05
564.71473	14413.65
568.7464	14500.75
572.7752	14713.45
576.80114	14964.05
580.82422	15233.85
584.84444	15494.25
588.86181	15557.15
592.87633	15449.65
596.888	15347.15
600.89682	15307.45
604.9028	15481.65
608.90594	16079.65
612.90624	16706.15
616.90371	16083.35
620.89834	14660.75
624.89015	14010.15
628.87913	13970.45
632.86528	14068.25
636.84862	14148.45
640.82913	14062.65
644.80683	13895.85
648.78172	13761.85
652.75379	13719.15
656.72306	13801.95
660.68952	13923.85
664.65319	13951.75
668.61405	13902.05
672.57211	13831.05
676.52738	13894.15
680.47986	13896.65
684.42955	13903.75
688.37646	13854.75
692.32058	13892.55
696.26192	13955.05
700.20048	14029.75
704.13626	14168.85
708.06928	14210.45
711.99952	14216.75
715.927	14176.85
719.85171	14136.55
723.77365	14067.65
727.69284	13980.25
731.60928	13883.25
735.52295	13801.25
739.43388	13758.05
743.34206	13809.95
747.24749	13826.95
751.15017	13913.55
755.05012	14056.55
758.94733	14302.85
762.8418	14737.55
766.73354	15422.45
770.62254	16057.45
774.50882	16143.35
778.39237	15671.75
782.27321	14975.35
786.15132	14406.35
790.02671	14027.75
793.89938	13825.05
797.76935	13734.75
801.6366	13693.65
805.50115	13687.15
809.36299	13663.85
813.22213	13580.55
817.07857	13608.85
820.93231	13612.65
824.78336	13636.75
828.63172	13616.15
832.47738	13628.25
836.32036	13663.35
840.16066	13630.95
843.99827	13614.95
847.8332	13556.95
851.66546	13574.75
855.49504	13579.45
859.32195	13564.05
863.1462	13575.85
866.96777	13573.15
870.78668	13563.95
874.60293	13585.55
878.41652	13597.15
882.22745	13652.95
886.03573	13667.35
889.84136	13674.55
893.64433	13665.25
897.44466	13640.65
901.24235	13633.85
905.0374	13623.15
908.8298	13623.35
912.61957	13627.65
916.40671	13740.55
920.19121	13828.55
923.97308	13851.45
927.75233	13834.75
931.52895	13765.95
935.30295	13659.35
939.07433	13517.45
942.84309	13420.75
946.60924	13335.05
950.37278	13251.95
954.13371	13223.75
957.89203	13215.05
961.64774	13186.45
965.40086	13166.25
969.15137	13139.15
972.89929	13135.35
976.64461	13081.15
980.38733	13048.85
984.12747	13078.75
987.86502	13089.55
991.59999	13116.35
995.33237	13168.55
999.06217	13212.95
1002.78939	13348.85
1006.51404	13414.65
1010.23611	13548.45
1013.95561	13610.25
1017.67255	13623.25
1021.38692	13582.55
1025.09872	13511.95
1028.80796	13451.45
1032.51465	13392.45
1036.21877	13408.45
1039.92035	13482.15
1043.61937	13559.55
1047.31584	13631.35
1051.00976	13716.05
1054.70114	13822.95
1058.38998	13942.25
1062.07627	14127.15
1065.76003	14367.15
1069.44126	14647.25
1073.11995	14920.05
1076.79611	14997.65
1080.46974	14945.45
1084.14085	14772.25
1087.80943	14618.75
1091.47549	14599.25
1095.13903	14614.35
1098.80005	14519.75
1102.45857	14287.65
1106.11456	14091.25
1109.76805	13893.75
1113.41903	13809.35
1117.06751	13818.75
1120.71348	13909.85
1124.35696	14032.65
1127.99793	14139.95
1131.63641	14261.05
1135.2724	14179.55
1138.90589	14103.85
1142.5369	14066.85
1146.16542	14078.65
1149.79145	14104.55
1153.415	14162.65
1157.03607	14251.85
1160.65467	14396.25
1164.27079	14621.65
1167.88443	14985.05
1171.49561	15378.15
1175.10432	15972.65
1178.71056	16708.15
1182.31434	17378.85
1185.91565	17822.55
1189.51451	17944.75
1193.11091	17837.15
1196.70485	17472.35
1200.29634	16979.25
1203.88538	16530.15
1207.47197	16198.65
1211.05612	15879.75
1214.63782	15662.15
1218.21708	15464.65
1221.79391	15219.15
1225.36829	15040.95
1228.94024	14920.05
1232.50976	14894.05
1236.07685	14908.75
1239.6415	14931.45
1243.20374	14951.85
1246.76355	15016.65
1250.32093	15121.05
1253.8759	15255.95
1257.42845	15489.45
1260.97859	15755.15
1264.52631	15962.55
1268.07163	16162.65
1271.61453	16364.25
1275.15503	16555.65
1278.69312	16749.85
1282.22882	16922.25
1285.76211	17178.15
1289.29301	17428.95
1292.82151	17752.55
1296.34761	18101.65
1299.87133	18549.45
1303.39266	19005.95
1306.9116	19456.15
1310.42815	19954.85
1313.94233	20232.55
1317.45412	20260.35
1320.96354	20216.25
1324.47058	20181.55
1327.97525	20179.45
1331.47754	20235.45
1334.97747	20354.65
1338.47502	20559.65
1341.97022	20843.05
1345.46305	21116.95
1348.95352	21217.25
1352.44163	21252.15
1355.92738	21173.75
1359.41078	21285.35
1362.89183	21382.85
1366.37053	20966.25
1369.84688	20050.55
1373.32088	18878.95
1376.79254	17918.05
1380.26186	17374.65
1383.72883	17146.05
1387.19347	16909.75
1390.65578	16714.45
1394.11575	16531.35
1397.57339	16436.35
1401.0287	16324.25
1404.48168	16307.15
1407.93234	16211.65
1411.38068	16058.65
1414.82669	15805.45
1418.27039	15474.45
1421.71177	15164.55
1425.15083	14861.55
1428.58758	14692.85
1432.02203	14649.15
1435.45416	14755.35
1438.88399	14858.15
1442.31151	14929.25
1445.73673	15054.65
1449.15965	15167.65
1452.58027	15299.15
1455.9986	15436.35
1459.41463	15585.05
1462.82837	15797.95
1466.23982	16076.65
1469.64898	16307.95
1473.05586	16515.75
1476.46045	16657.75
1479.86276	16749.95
1483.26279	16817.75
1486.66054	16950.75
1490.05602	17120.85
1493.44922	17417.95
1496.84016	17819.15
1500.22882	18453.55
1503.61521	19163.05
1506.99934	19852.95
1510.38121	20245.65
1513.76081	20222.15
1517.13816	19784.65
1520.51324	19228.95
1523.88607	18683.75
1527.25665	18300.45
1530.62498	17977.25
1533.99105	17771.05
1537.35488	17535.75
1540.71647	17246.05
1544.07581	16932.95
1547.4329	16676.95
1550.78776	16446.95
1554.14038	16300.05
1557.49077	16279.05
1560.83892	16310.35
1564.18484	16440.85
1567.52853	16611.75
1570.86999	16777.55
1574.20922	17000.55
1577.54624	17205.05
1580.88103	17192.25
1584.2136	17070.15
1587.54395	16901.55
1590.87208	16764.55
1594.19801	16844.45
1597.52172	17109.65
1600.84321	17176.35
1604.16251	16868.85
1607.47959	16404.55
1610.79447	15862.25
1614.10715	15318.75
1617.41763	14722.85
1620.7259	14272.85
1624.03199	13945.25
1627.33587	13867.35
1630.63757	13882.45
1633.93707	14135.45
1637.23439	14625.05
1640.52951	15409.65
1643.82246	16392.85
1647.11321	17478.45
1650.40179	18178.35
1653.68819	18056.25
1656.97241	17167.25
1660.25446	15936.95
1663.53433	14798.15
1666.81203	13892.05
1670.08756	13215.15
1673.36092	12802.05
1676.63211	12523.35
1679.90115	12311.75
1683.16801	12184.65
1686.43272	12071.85
1689.69527	12033.35
1692.95567	11949.15
1696.2139	11917.85
1699.46999	11878.55
1702.72392	11855.85
1705.97571	11803.35
1709.22535	11789.25
1712.47284	11761.85
1715.71819	11731.75
1718.96139	11693.05
1722.20246	11696.05
1725.44139	11682.85
1728.67818	11616.25
1731.91284	11577.95
1735.14537	11524.85
1738.37576	11503.65
1741.60403	11482.55
1744.83017	11466.05
1748.05418	11433.35
1751.27607	11371.75
1754.49584	11381.75
1757.71349	11372.55
1760.92903	11368.75
1764.14244	11408.85
1767.35375	11357.75
1770.56294	11347.65
1773.77002	11323.55
1776.97499	11324.65
1780.17785	11271.25
1783.37861	11244.35
1786.57727	11209.65
1789.77382	11204.45
1792.96828	11161.45
1796.16064	11148.05
1799.3509	11123.65
1802.53907	11102.75
1805.72514	11053.45
1808.90913	11013.35
1812.09102	11019.35
1815.27083	10998.95
1818.44856	10986.95
1821.6242	10953.75
1824.79776	10947.05
1827.96924	10958.45
1831.13864	10929.15
1834.30597	10938.15
1837.47122	10946.65
1840.6344	10917.05
1843.7955	10895.05
1846.95454	10880.05
1850.11151	10879.75
1853.26642	10869.35
1856.41926	10884.75
1859.57004	10853.35
1862.71876	10848.75
1865.86542	10817.95
1869.01003	10796.05
1872.15258	10807.15
1875.29308	10775.15
1878.43152	10762.35
1881.56792	10730.55
1884.70227	10732.85
1887.83457	10690.05
1890.96482	10690.25
1894.09304	10678.35
1897.21921	10673.05
1900.34335	10641.95
1903.46544	10639.25
1906.58551	10616.05
1909.70353	10584.25
1912.81953	10594.85
1915.93349	10566.65
1919.04543	10541.15
1922.15534	10502.45
1925.26322	10513.75
1928.36908	10489.25
1931.47292	10467.05
1934.57473	10452.75
1937.67453	10397.55
1940.77232	10382.55
1943.86808	10379.65
1946.96184	10347.65
1950.05358	10301.75
1953.14331	10266.55
1956.23103	10237.95
1959.31675	10244.75
1962.40046	10192.85
1965.48217	10152.15
1968.56188	10134.55
1971.63959	10092.25
1974.7153	10056.45
1977.78901	10028.25
1980.86073	10008.75
1983.93046	9962.25
1986.99819	9946.95
1990.06394	9908.35
1993.1277	9889.05
1996.18947	9841.85
1999.24925	9831.15
2002.30706	9783.15
2005.36288	9760.85
2008.41672	9713.35
2011.46859	9697.55
2014.51848	9664.15
2017.56639	9638.65
2020.61233	9597.05
2023.6563	9593.05
2026.6983	9572.45
2029.73833	9554.85
2032.7764	9528.45
2035.8125	9518.45
2038.84664	9441.95
2041.87881	9451.25
2044.90903	9416.15
2047.93729	9405.65
2050.96359	9382.65
2053.98794	9392.75
2057.01034	9350.05
2060.03078	9363.45
2063.04927	9363.55
2066.06582	9346.75
2069.08042	9329.85
2072.09307	9320.25
2075.10378	9331.25
2078.11255	9294.35
2081.11938	9291.95
2084.12426	9310.15
2087.12722	9305.05
2090.12824	9300.75
2093.12732	9311.85
2096.12447	9277.45
2099.11969	9291.95
2102.11299	9283.65
2105.10435	9288.55
2108.09379	9297.15
2111.08131	9302.25
2114.0669	9298.95
2117.05057	9293.65
2120.03233	9306.65
2123.01216	9336.25
2125.99008	9302.75
2128.96609	9336.85
2131.94018	9345.65
2134.91236	9352.05
2137.88263	9339.95
2140.851	9326.55
2143.81746	9342.25
2146.78201	9335.65
2149.74466	9375.05
2152.7054	9352.45
2155.66425	9351.95
2158.6212	9343.05
2161.57625	9353.75
2164.52941	9349.25
2167.48067	9316.95
2170.43004	9312.15
2173.37752	9327.65
2176.32311	9300.35
2179.26681	9295.25
2182.20863	9278.65
2185.14856	9308.25
2188.08661	9284.05
2191.02278	9290.95
2193.95707	9253.15
2196.88948	9252.45
2199.82001	9241.85
2202.74867	9238.35
2205.67545	9225.75
2208.60037	9228.65
2211.52341	9208.25
2214.44458	9179.05
2217.36388	9149.95
2220.28132	9164.15
2223.1969	9127.95
2226.11061	9121.55
2229.02246	9095.15
2231.93245	9085.55
2234.84058	9067.25
2237.74686	9042.75
2240.65128	9039.05
2243.55385	9016.15
2246.45456	9004.65
2249.35343	9005.05
2252.25044	8979.85
2255.14561	8945.85
2258.03893	8963.45
2260.93041	8937.85
2263.82004	8897.25
2266.70783	8897.35
2269.59378	8852.85
2272.4779	8876.35
2275.36017	8817.25
2278.24061	8794.25
2281.11922	8763.85
2283.996	8764.15
2286.87094	8743.75
2289.74405	8711.45
2292.61534	8714.85
2295.4848	8694.25
2298.35243	8689.05
2301.21824	8671.65
2304.08223	8638.05
2306.94439	8650.35
2309.80474	8643.75
2312.66327	8649.95
2315.51999	8626.55
2318.37489	8593.85
2321.22797	8590.55
2324.07925	8566.05
2326.92871	8589.15
2329.77637	8562.55
2332.62222	8551.05
2335.46626	8524.95
2338.3085	8529.95
2341.14893	8515.55
2343.98756	8510.75
2346.8244	8483.55
2349.65943	8481.55
2352.49267	8470.85
2355.32411	8450.85
2358.15376	8464.35
2360.98161	8451.35
2363.80768	8454.85
2366.63195	8465.95
2369.45444	8442.85
2372.27514	8434.15
2375.09405	8435.25
2377.91118	8415.15
2380.72652	8388.05
2383.54009	8378.35
2386.35187	8353.65
2389.16188	8309.65
2391.97011	8296.75
2394.77657	8306.75
2397.58125	8263.65
2400.38416	8272.85
2403.18529	8233.35
2405.98466	8222.65
2408.78226	8239.85
2411.57809	8203.15
2414.37216	8180.15
2417.16446	8184.45
2419.955	8149.45
2422.74378	8180.95
2425.5308	8132.25
2428.31606	8117.55
2431.09956	8112.25
2433.88131	8128.15
2436.6613	8119.75
2439.43954	8112.05
2442.21603	8067.15
2444.99077	8075.35
2447.76377	8064.15
2450.53501	8055.85
2453.30451	8043.65
2456.07226	8024.65
2458.83827	8027.95
2461.60254	8004.25
2464.36507	7995.75
2467.12586	7985.35
2469.88492	7982.25
2472.64224	7986.95
2475.39782	7979.45
2478.15167	7973.95
2480.90379	7957.45
2483.65417	7941.85
2486.40283	7949.55
2489.14976	7965.15
2491.89497	7940.05
2494.63845	7935.45
2497.3802	7923.95
2500.12024	7902.95
2502.85855	7909.35
2505.59514	7897.55
2508.33002	7874.35
2511.06318	7870.55
2513.79462	7861.25
2516.52435	7847.85
2519.25237	7833.95
2521.97867	7845.35
2524.70327	7847.95
2527.42616	7823.75
2530.14734	7793.95
2532.86681	7793.75
2535.58458	7770.75
2538.30065	7756.45
2541.01501	7739.75
2543.72768	7749.85
2546.43864	7724.55
2549.14791	7701.25
2551.85548	7700.15
2554.56136	7676.65
2557.26554	7650.45
2559.96803	7638.25
2562.66883	7632.45
2565.36794	7637.15
2568.06536	7618.85
2570.7611	7603.95
2573.45514	7595.15
2576.14751	7560.15
2578.83819	7533.55
2581.52719	7556.15
2584.21451	7539.55
2586.90015	7529.25
2589.58411	7509.45
2592.2664	7475.95
2594.94701	7434.65
2597.62594	7451.35
2600.30321	7433.65
2602.9788	7406.95
2605.65273	7403.15
2608.32498	7388.45
2610.99557	7390.35
2613.66449	7367.55
2616.33175	7361.55
2618.99734	7340.35
2621.66128	7320.95
2624.32355	7335.15
2626.98416	7307.15
2629.64311	7304.95
2632.30041	7288.25
2634.95605	7301.55
2637.61004	7294.65
2640.26238	7272.25
2642.91306	7300.95
2645.56209	7273.05
2648.20948	7275.75
2650.85521	7229.45
2653.4993	7237.05
2656.14175	7255.05
2658.78255	7224.45
2661.42171	7205.35
2664.05923	7209.85
2666.6951	7219.25
2669.32934	7218.55
2671.96194	7215.95
2674.59291	7208.05
2677.22224	7201.75
2679.84993	7209.15
2682.476	7211.95
2685.10043	7201.15
2687.72324	7180.65
2690.34441	7208.05
2692.96396	7204.45
2695.58188	7189.35
2698.19818	7196.35
2700.81285	7188.45
2703.4259	7200.85
2706.03733	7233.35
2708.64714	7207.75
2711.25533	7182.85
2713.86191	7180.45
2716.46687	7196.25
2719.07021	7184.75
2721.67194	7156.05
2724.27206	7177.65
2726.87057	7150.25
2729.46747	7154.45
2732.06276	7152.05
2734.65644	7138.05
2737.24852	7144.85
2739.83899	7122.25
2742.42786	7140.15
2745.01513	7118.25
2747.60079	7105.35
2750.18486	7092.15
2752.76733	7086.65
2755.3482	7099.25
2757.92747	7096.35
2760.50515	7078.25
2763.08123	7047.75
2765.65573	7043.55
2768.22863	7032.55
2770.79994	7027.85
2773.36967	7006.35
2775.9378	7001.35
2778.50435	6999.05
2781.06932	6979.75
2783.6327	6960.05
2786.1945	6959.35
2788.75471	6947.35
2791.31335	6932.95
2793.87041	6906.65
2796.42589	6903.85
2798.97979	6900.45
2801.53212	6876.75
2804.08288	6873.35
2806.63206	6846.05
2809.17967	6830.55
2811.72571	6808.25
2814.27018	6811.55
2816.81308	6797.35
2819.35442	6792.85
2821.89419	6760.55
2824.43239	6748.85
2826.96904	6746.05
2829.50412	6757.95
2832.03763	6733.75
2834.56959	6729.95
2837.1	6723.25
2839.62884	6723.25
2842.15613	6720.15
2844.68186	6728.65
2847.20604	6748.75
2849.72867	6728.95
2852.24974	6752.05
2854.76927	6717.05
2857.28724	6719.45
2859.80367	6709.95
2862.31855	6707.65
2864.83189	6688.65
2867.34368	6679.65
2869.85393	6678.95
2872.36264	6654.15
2874.8698	6652.85
2877.37543	6647.45
2879.87952	6652.35
2882.38207	6652.65
2884.88308	6635.15
2887.38256	6642.25
2889.88051	6638.55
2892.37692	6635.65
2894.8718	6592.65
2897.36515	6625.85
2899.85698	6629.95
2902.34727	6609.65
2904.83604	6617.75
2907.32328	6651.65
2909.809	6633.65
2912.29319	6636.85
2914.77587	6635.75
2917.25702	6608.95
2919.73665	6590.15
2922.21476	6618.35
2924.69136	6616.75
2927.16644	6624.25
2929.64	6593.25
2932.11205	6597.75
2934.58258	6576.95
2937.05161	6583.55
2939.51912	6578.85
2941.98513	6570.85
2944.44962	6545.15
2946.91261	6509.45
2949.37409	6545.05
2951.83407	6534.05
2954.29254	6499.35
2956.74951	6497.35
2959.20498	6497.25
2961.65895	6492.95
2964.11142	6512.75
2966.56239	6491.55
2969.01186	6488.65
2971.45984	6444.65
2973.90632	6448.65
2976.35131	6424.95
2978.7948	6405.15
2981.23681	6394.55
2983.67732	6400.55
2986.11635	6393.35
2988.55388	6361.65
2990.98993	6369.35
2993.4245	6338.85
2995.85758	6347.75
2998.28917	6303.45
3000.71928	6301.55
3003.14791	6299.55
3005.57506	6281.15
3008.00073	6279.95
3010.42493	6271.95
3012.84764	6248.15
3015.26888	6256.55
3017.68865	6225.05
3020.10694	6220.85
3022.52376	6222.25
3024.9391	6207.25
3027.35298	6203.45
3029.76539	6206.75
3032.17632	6193.25
3034.5858	6174.55
3036.9938	6162.05
3039.40034	6162.95
3041.80542	6153.95
3044.20903	6126.95
3046.61118	6116.65
3049.01187	6121.45
3051.4111	6116.65
3053.80888	6109.45
3056.20519	6099.05
3058.60005	6090.95
3060.99345	6078.95
3063.3854	6082.75
3065.7759	6057.25
3068.16494	6041.45
3070.55254	6016.55
3072.93868	6032.85
3075.32338	6014.85
3077.70662	5988.75
3080.08842	5987.15
3082.46878	5988.95
3084.84769	5987.45
3087.22515	5962.45
3089.60118	5981.45
3091.97576	5976.15
3094.3489	5982.95
3096.72061	5978.45
3099.09087	5957.65
3101.4597	5962.25
3103.82709	5972.95
3106.19305	5945.45
3108.55757	5970.05
3110.92066	5941.55
3113.28232	5939.05
3115.64255	5906.95
3118.00134	5909.25
3120.35871	5900.95
3122.71466	5905.75
3125.06917	5903.05
3127.42226	5864.85
3129.77393	5911.05
3132.12417	5887.75
3134.47299	5889.15
3136.82039	5911.95
3139.16636	5903.05
3141.51092	5908.55
3143.85406	5920.15
3146.19579	5913.55
3148.53609	5920.25
3150.87499	5925.65
3153.21246	5913.75
3155.54853	5937.55
3157.88318	5923.25
3160.21642	5935.15
3162.54826	5940.55
3164.87868	5915.05
3167.2077	5932.05
3169.5353	5931.05
3171.86151	5919.05
3174.18631	5929.25
3176.5097	5925.45
3178.83169	5927.35
3181.15228	5911.95
3183.47147	5901.25
3185.78926	5935.45
3188.10565	5922.55
3190.42065	5910.85
3192.73424	5904.55
3195.04645	5908.95
3197.35725	5904.45
3199.66667	5907.05
3201.97469	5907.55
3204.28132	5907.95
3206.58656	5938.45
3208.8904	5927.75
3211.19287	5925.85
3213.49394	5923.65
3215.79363	5911.25
3218.09193	5923.55
3220.38884	5941.25
3222.68438	5917.75
3224.97853	5916.75
3227.2713	5894.75
3229.56269	5875.45
3231.8527	5884.25
3234.14133	5858.65
3236.42858	5860.45
3238.71446	5852.55
3240.99896	5852.05
3243.28209	5844.05
3245.56384	5824.45
3247.84423	5840.55
3250.12324	5839.95
3252.40088	5822.15
3254.67715	5818.65
3256.95205	5825.45
3259.22558	5838.85
3261.49775	5825.15
3263.76855	5809.15
3266.03799	5784.75
3268.30606	5771.55
3270.57277	5767.55
3272.83812	5756.65
3275.10211	5754.15
3277.36474	5742.35
3279.62601	5725.35
3281.88593	5719.75
3284.14448	5752.55
3286.40168	5733.15
3288.65753	5724.55
3290.91202	5701.15
3293.16516	5686.05
3295.41695	5664.25
3297.66738	5635.55
3299.91647	5595.65
3302.16421	5568.75
3304.4106	5558.65
3306.65564	5539.55
3308.89933	5501.45
3311.14169	5457.95
3313.38269	5420.75
3315.62236	5392.85
3317.86068	5338.45
3320.09766	5298.65
3322.3333	5253.75
3324.5676	5259.95
3326.80056	5190.95
3329.03219	5143.65
3331.26248	2.15
3333.49143	-1.35
3335.71905	-0.75
