Data from AgNP_FTO_APTES_CRN_5uM_R6G_10uM_NaF_0.1M_Addition_RamanShift__40__16-12-37-945.txt Node

Date: Wed Dec 15 16:12:37 GMT 2021
User: TCL
Spectrometer: QEP01345
Trigger mode: 4
Integration Time (sec): 7.000000E0
Scans to average: 10
Electric dark correction enabled: true
Nonlinearity correction enabled: false
Boxcar width: 0
XAxis mode: Raman Shifts
Number of Pixels in Spectrum: 1044
>>>>>Begin Spectral Data<<<<<
46.04893	-1.35
50.45542	-2.65
54.85868	-2.15
59.25871	-1.35
63.6555	147.55
68.04907	157.75
72.43941	161.55
76.82654	167.95
81.21044	172.55
85.59113	177.05
89.96862	185.45
94.34289	185.65
98.71396	196.15
103.08183	200.75
107.4465	207.05
111.80798	212.55
116.16626	224.35
120.52136	231.95
124.87327	237.05
129.222	251.15
133.56755	266.05
137.90993	287.85
142.24913	321.15
146.58517	352.65
150.91804	410.05
155.24774	499.15
159.57429	611.05
163.89768	787.95
168.21792	1038.15
172.53501	1419.25
176.84895	1970.15
181.15975	2784.15
185.46741	3895.35
189.77193	5369.85
194.07331	7181.95
198.37157	9264.05
202.6667	11449.85
206.9587	13620.85
211.24758	15701.85
215.53334	17824.65
219.81599	20065.15
224.09553	22480.15
228.37195	25174.45
232.64527	28152.75
236.91549	31211.05
241.18261	34449.45
245.44663	37496.25
249.70755	40277.65
253.96539	42805.95
258.22014	44863.35
262.4718	46542.15
266.72039	47661.25
270.96589	48262.95
275.20832	48318.45
279.44768	48022.25
283.68397	47583.35
287.91719	47077.65
292.14735	46635.55
296.37445	46495.35
300.59849	46452.65
304.81948	46448.75
309.03742	46448.25
313.25231	46261.95
317.46415	46017.65
321.67296	45569.25
325.87872	45288.95
330.08145	45150.65
334.28114	45266.65
338.47781	45574.65
342.67145	46085.25
346.86207	46685.85
351.04966	47428.85
355.23424	48233.25
359.4158	48976.05
363.59435	49564.15
367.76989	50035.35
371.94243	50443.85
376.11196	50692.65
380.27849	50917.55
384.44203	51192.25
388.60257	51715.95
392.76012	52295.05
396.91468	52921.05
401.06626	53654.45
405.21485	54235.15
409.36047	54307.45
413.50311	54269.85
417.64277	54447.35
421.77947	54928.65
425.9132	55285.85
430.04396	55726.25
434.17176	55994.65
438.2966	56297.85
442.41849	56974.65
446.53742	58379.15
450.6534	59913.85
454.76644	60965.65
458.87653	61182.75
462.98368	60658.85
467.08789	59706.75
471.18916	58584.65
475.2875	57383.55
479.38291	56472.75
483.4754	55811.45
487.56496	55350.95
491.6516	55010.75
495.73531	54743.25
499.81612	54960.55
503.89401	55488.55
507.96899	55914.35
512.04106	55928.05
516.11023	55721.65
520.1765	55203.05
524.23987	54763.25
528.30034	54530.55
532.35792	54192.25
536.41261	53688.45
540.46441	53204.95
544.51333	53124.65
548.55936	53495.75
552.60252	54295.65
556.64279	55355.05
560.6802	56120.85
564.71473	56587.85
568.7464	57170.45
572.7752	58267.45
576.80114	59971.55
580.82422	62271.75
584.84444	65421.15
588.86181	69058.35
592.87633	71587.85
596.888	70872.45
600.89682	67497.15
604.9028	65925.75
608.90594	67505.55
612.90624	69191.55
616.90371	65499.75
620.89834	59048.25
624.89015	56365.25
628.87913	56049.75
632.86528	56032.85
636.84862	55610.15
640.82913	54711.85
644.80683	53865.85
648.78172	53490.85
652.75379	53779.25
656.72306	54319.85
660.68952	54764.35
664.65319	54444.75
668.61405	53803.15
672.57211	53899.75
676.52738	54182.95
680.47986	54145.35
684.42955	53783.95
688.37646	53664.45
692.32058	54119.45
696.26192	54863.25
700.20048	55671.65
704.13626	56084.55
708.06928	56055.45
711.99952	55849.55
715.927	55935.65
719.85171	56262.95
723.77365	56191.15
727.69284	55518.45
731.60928	54786.05
735.52295	54491.25
739.43388	54353.85
743.34206	54578.85
747.24749	54873.35
751.15017	55348.65
755.05012	56036.85
758.94733	57200.35
762.8418	58885.85
766.73354	61313.65
770.62254	63138.95
774.50882	62992.25
778.39237	60883.15
782.27321	58451.05
786.15132	56477.55
790.02671	55302.05
793.89938	54698.65
797.76935	54634.15
801.6366	54590.95
805.50115	54678.25
809.36299	54491.25
813.22213	54035.35
817.07857	53684.05
820.93231	53356.65
824.78336	53192.45
828.63172	53122.95
832.47738	53212.45
836.32036	53321.55
840.16066	53510.85
843.99827	53621.45
847.8332	53571.45
851.66546	53566.25
855.49504	53737.05
859.32195	53705.25
863.1462	53638.65
866.96777	53536.85
870.78668	53473.25
874.60293	53517.65
878.41652	53598.85
882.22745	53772.95
886.03573	53860.75
889.84136	53816.05
893.64433	53620.55
897.44466	53484.15
901.24235	53337.05
905.0374	53275.25
908.8298	53276.05
912.61957	53357.45
916.40671	53828.95
920.19121	54435.05
923.97308	54976.75
927.75233	54997.05
931.52895	54581.65
935.30295	53919.15
939.07433	53329.95
942.84309	52993.95
946.60924	52902.45
950.37278	52941.65
954.13371	52893.85
957.89203	52785.65
961.64774	52727.95
965.40086	52713.85
969.15137	52651.25
972.89929	52587.25
976.64461	52657.95
980.38733	52827.05
984.12747	53073.45
987.86502	53389.95
991.59999	53665.55
995.33237	54193.45
999.06217	55198.85
1002.78939	56429.55
1006.51404	57618.15
1010.23611	58600.45
1013.95561	59085.65
1017.67255	59080.15
1021.38692	58308.05
1025.09872	57464.75
1028.80796	57187.05
1032.51465	57743.25
1036.21877	58535.35
1039.92035	58741.25
1043.61937	58502.95
1047.31584	57929.75
1051.00976	57288.25
1054.70114	57025.45
1058.38998	57074.65
1062.07627	57437.85
1065.76003	57959.25
1069.44126	58657.65
1073.11995	59718.05
1076.79611	60539.55
1080.46974	60855.45
1084.14085	61096.05
1087.80943	61226.05
1091.47549	61385.95
1095.13903	61252.95
1098.80005	60505.35
1102.45857	59521.25
1106.11456	58852.75
1109.76805	58523.25
1113.41903	58532.35
1117.06751	58606.85
1120.71348	58904.85
1124.35696	59150.55
1127.99793	59484.65
1131.63641	59756.35
1135.2724	59832.15
1138.90589	59990.15
1142.5369	60259.25
1146.16542	60658.55
1149.79145	60973.55
1153.415	61453.55
1157.03607	62331.05
1160.65467	64072.85
1164.27079	66997.25
1167.88443	69906.35
1171.49561	72575.95
1175.10432	75487.65
1178.71056	79473.65
1182.31434	83425.65
1185.91565	85141.65
1189.51451	84520.15
1193.11091	82658.15
1196.70485	80664.25
1200.29634	78676.75
1203.88538	77588.85
1207.47197	77415.25
1211.05612	77148.75
1214.63782	76084.25
1218.21708	74542.85
1221.79391	72873.85
1225.36829	71700.15
1228.94024	70902.35
1232.50976	69889.85
1236.07685	68970.75
1239.6415	68397.45
1243.20374	68518.05
1246.76355	69031.45
1250.32093	70002.85
1253.8759	71426.55
1257.42845	73105.55
1260.97859	74851.55
1264.52631	76705.55
1268.07163	78773.45
1271.61453	80890.05
1275.15503	83038.55
1278.69312	85143.25
1282.22882	87273.85
1285.76211	89816.15
1289.29301	92720.45
1292.82151	95909.95
1296.34761	100018.65
1299.87133	105213.95
1303.39266	110663.25
1306.9116	115327.85
1310.42815	118548.85
1313.94233	119561.15
1317.45412	118561.05
1320.96354	116638.85
1324.47058	115184.05
1327.97525	114578.15
1331.47754	114403.45
1334.97747	114178.75
1338.47502	113261.55
1341.97022	111273.55
1345.46305	108475.85
1348.95352	106140.15
1352.44163	105659.75
1355.92738	108174.35
1359.41078	112208.05
1362.89183	115126.15
1366.37053	113600.45
1369.84688	106728.25
1373.32088	97110.15
1376.79254	90136.55
1380.26186	87648.35
1383.72883	88028.65
1387.19347	88341.05
1390.65578	87440.05
1394.11575	86901.65
1397.57339	87754.45
1401.0287	89585.45
1404.48168	91511.25
1407.93234	92427.65
1411.38068	91967.95
1414.82669	90085.25
1418.27039	87270.05
1421.71177	84046.75
1425.15083	81396.75
1428.58758	80344.45
1432.02203	81237.25
1435.45416	83446.25
1438.88399	86006.35
1442.31151	87835.75
1445.73673	88543.15
1449.15965	88439.25
1452.58027	87672.05
1455.9986	86655.25
1459.41463	86521.65
1462.82837	87551.45
1466.23982	89416.15
1469.64898	91266.65
1473.05586	92753.25
1476.46045	93381.55
1479.86276	93112.25
1483.26279	92310.25
1486.66054	91730.45
1490.05602	91742.25
1493.44922	91950.55
1496.84016	91691.85
1500.22882	91454.15
1503.61521	91549.65
1506.99934	91950.45
1510.38121	92111.55
1513.76081	91801.45
1517.13816	90815.85
1520.51324	89790.45
1523.88607	89265.55
1527.25665	89875.65
1530.62498	90645.05
1533.99105	90884.85
1537.35488	90215.75
1540.71647	88657.55
1544.07581	86809.15
1547.4329	84802.15
1550.78776	82958.15
1554.14038	81533.15
1557.49077	80527.25
1560.83892	79796.85
1564.18484	79299.45
1567.52853	79159.95
1570.86999	79659.65
1574.20922	81141.55
1577.54624	82600.95
1580.88103	83929.95
1584.2136	85850.65
1587.54395	89390.55
1590.87208	94768.95
1594.19801	101084.25
1597.52172	106574.95
1600.84321	107669.95
1604.16251	102898.15
1607.47959	94410.25
1610.79447	85684.55
1614.10715	78335.65
1617.41763	73127.25
1620.7259	69955.15
1624.03199	68456.65
1627.33587	68909.95
1630.63757	70863.45
1633.93707	74968.95
1637.23439	81814.05
1640.52951	91809.85
1643.82246	102901.85
1647.11321	110706.05
1650.40179	109953.45
1653.68819	100406.55
1656.97241	87277.45
1660.25446	75926.85
1663.53433	68205.45
1666.81203	63355.15
1670.08756	60443.75
1673.36092	58543.35
1676.63211	57295.05
1679.90115	56406.65
1683.16801	55658.65
1686.43272	55186.05
1689.69527	54755.45
1692.95567	54582.85
1696.2139	54413.65
1699.46999	54351.45
1702.72392	54224.65
1705.97571	54094.25
1709.22535	54001.45
1712.47284	53951.05
1715.71819	53931.65
1718.96139	53792.55
1722.20246	53654.75
1725.44139	53503.65
1728.67818	53266.55
1731.91284	53032.85
1735.14537	52817.85
1738.37576	52586.65
1741.60403	52531.75
1744.83017	52336.25
1748.05418	52280.75
1751.27607	52145.25
1754.49584	52049.65
1757.71349	52043.55
1760.92903	51996.85
1764.14244	52013.45
1767.35375	52059.25
1770.56294	51990.55
1773.77002	51972.65
1776.97499	51945.35
1780.17785	51928.95
1783.37861	51799.95
1786.57727	51736.85
1789.77382	51600.05
1792.96828	51574.95
1796.16064	51491.15
1799.3509	51452.05
1802.53907	51408.25
1805.72514	51267.55
1808.90913	51201.65
1812.09102	51035.75
1815.27083	51015.25
1818.44856	50912.55
1821.6242	50955.45
1824.79776	50843.55
1827.96924	50882.65
1831.13864	50832.65
1834.30597	50927.15
1837.47122	50916.55
1840.6344	50926.75
1843.7955	50923.55
1846.95454	50915.85
1850.11151	50913.85
1853.26642	50882.45
1856.41926	50920.35
1859.57004	50937.25
1862.71876	50876.75
1865.86542	50825.55
1869.01003	50803.85
1872.15258	50803.55
1875.29308	50811.65
1878.43152	50729.35
1881.56792	50678.65
1884.70227	50657.55
1887.83457	50670.35
1890.96482	50610.45
1894.09304	50549.15
1897.21921	50565.15
1900.34335	50492.15
1903.46544	50393.15
1906.58551	50401.45
1909.70353	50349.65
1912.81953	50241.05
1915.93349	50165.15
1919.04543	50035.05
1922.15534	50068.45
1925.26322	49967.75
1928.36908	49881.95
1931.47292	49809.85
1934.57473	49718.65
1937.67453	49578.75
1940.77232	49468.65
1943.86808	49418.25
1946.96184	49269.75
1950.05358	49170.35
1953.14331	49115.55
1956.23103	49023.15
1959.31675	48931.65
1962.40046	48737.95
1965.48217	48606.15
1968.56188	48476.25
1971.63959	48352.35
1974.7153	48187.25
1977.78901	48092.05
1980.86073	47976.35
1983.93046	47884.65
1986.99819	47743.65
1990.06394	47673.75
1993.1277	47562.05
1996.18947	47403.95
1999.24925	47296.75
2002.30706	47168.75
2005.36288	47008.25
2008.41672	46949.85
2011.46859	46810.75
2014.51848	46713.05
2017.56639	46691.05
2020.61233	46574.55
2023.6563	46521.05
2026.6983	46467.65
2029.73833	46397.95
2032.7764	46318.85
2035.8125	46197.35
2038.84664	46072.45
2041.87881	46064.75
2044.90903	45983.55
2047.93729	45925.25
2050.96359	45887.25
2053.98794	45926.35
2057.01034	45862.85
2060.03078	45840.15
2063.04927	45796.65
2066.06582	45765.75
2069.08042	45774.75
2072.09307	45723.45
2075.10378	45689.05
2078.11255	45680.95
2081.11938	45724.45
2084.12426	45666.45
2087.12722	45688.55
2090.12824	45703.95
2093.12732	45747.65
2096.12447	45747.85
2099.11969	45732.95
2102.11299	45694.85
2105.10435	45784.05
2108.09379	45869.55
2111.08131	45980.75
2114.0669	45908.45
2117.05057	45935.45
2120.03233	45983.25
2123.01216	45996.55
2125.99008	46005.65
2128.96609	46039.65
2131.94018	46068.95
2134.91236	46114.75
2137.88263	46187.05
2140.851	46149.65
2143.81746	46220.25
2146.78201	46291.05
2149.74466	46320.75
2152.7054	46331.35
2155.66425	46345.45
2158.6212	46356.35
2161.57625	46399.25
2164.52941	46362.45
2167.48067	46372.45
2170.43004	46410.55
2173.37752	46387.85
2176.32311	46391.25
2179.26681	46371.35
2182.20863	46367.65
2185.14856	46415.55
2188.08661	46409.25
2191.02278	46476.15
2193.95707	46435.45
2196.88948	46421.85
2199.82001	46380.45
2202.74867	46343.75
2205.67545	46375.05
2208.60037	46288.65
2211.52341	46234.35
2214.44458	46206.55
2217.36388	46122.45
2220.28132	46125.65
2223.1969	46078.55
2226.11061	46013.55
2229.02246	45943.35
2231.93245	45826.85
2234.84058	45778.55
2237.74686	45759.85
2240.65128	45792.85
2243.55385	45710.15
2246.45456	45623.95
2249.35343	45524.45
2252.25044	45481.85
2255.14561	45361.05
2258.03893	45352.95
2260.93041	45267.15
2263.82004	45190.55
2266.70783	45102.75
2269.59378	45006.85
2272.4779	44929.95
2275.36017	44789.55
2278.24061	44738.85
2281.11922	44682.65
2283.996	44619.15
2286.87094	44588.05
2289.74405	44590.35
2292.61534	44575.35
2295.4848	44468.15
2298.35243	44564.45
2301.21824	44501.85
2304.08223	44556.45
2306.94439	44521.55
2309.80474	44527.55
2312.66327	44560.95
2315.51999	44549.65
2318.37489	44497.75
2321.22797	44419.85
2324.07925	44398.15
2326.92871	44374.95
2329.77637	44274.65
2332.62222	44317.45
2335.46626	44322.45
2338.3085	44253.05
2341.14893	44222.15
2343.98756	44249.15
2346.8244	44232.85
2349.65943	44166.35
2352.49267	44164.15
2355.32411	44114.15
2358.15376	44076.75
2360.98161	44047.45
2363.80768	44074.75
2366.63195	43993.65
2369.45444	44009.45
2372.27514	43916.75
2375.09405	43873.15
2377.91118	43846.15
2380.72652	43791.75
2383.54009	43718.05
2386.35187	43719.75
2389.16188	43651.45
2391.97011	43571.45
2394.77657	43556.85
2397.58125	43503.55
2400.38416	43402.95
2403.18529	43379.25
2405.98466	43312.55
2408.78226	43269.35
2411.57809	43212.85
2414.37216	43142.35
2417.16446	43190.65
2419.955	43126.75
2422.74378	43114.25
2425.5308	43063.05
2428.31606	43022.65
2431.09956	43011.95
2433.88131	42926.15
2436.6613	42999.65
2439.43954	42916.05
2442.21603	42912.65
2444.99077	42855.65
2447.76377	42879.85
2450.53501	42877.85
2453.30451	42926.25
2456.07226	42863.55
2458.83827	42870.45
2461.60254	42847.35
2464.36507	42814.35
2467.12586	42851.95
2469.88492	42786.05
2472.64224	42796.55
2475.39782	42799.85
2478.15167	42837.75
2480.90379	42773.45
2483.65417	42831.25
2486.40283	42843.95
2489.14976	42790.65
2491.89497	42811.15
2494.63845	42838.35
2497.3802	42834.75
2500.12024	42841.35
2502.85855	42877.75
2505.59514	42834.25
2508.33002	42884.05
2511.06318	42816.75
2513.79462	42780.05
2516.52435	42785.35
2519.25237	42754.65
2521.97867	42722.95
2524.70327	42723.85
2527.42616	42672.55
2530.14734	42671.95
2532.86681	42593.85
2535.58458	42542.95
2538.30065	42550.45
2541.01501	42599.45
2543.72768	42483.35
2546.43864	42485.75
2549.14791	42387.15
2551.85548	42446.55
2554.56136	42384.95
2557.26554	42304.15
2559.96803	42274.25
2562.66883	42265.05
2565.36794	42290.55
2568.06536	42287.45
2570.7611	42224.65
2573.45514	42187.15
2576.14751	42189.55
2578.83819	42168.55
2581.52719	42141.75
2584.21451	42096.05
2586.90015	42079.05
2589.58411	42010.35
2592.2664	41999.35
2594.94701	41937.65
2597.62594	41957.95
2600.30321	41872.25
2602.9788	41866.55
2605.65273	41855.35
2608.32498	41771.95
2610.99557	41719.15
2613.66449	41787.95
2616.33175	41740.65
2618.99734	41721.75
2621.66128	41710.95
2624.32355	41702.05
2626.98416	41613.65
2629.64311	41542.95
2632.30041	41537.85
2634.95605	41517.55
2637.61004	41531.35
2640.26238	41538.35
2642.91306	41501.55
2645.56209	41476.45
2648.20948	41505.65
2650.85521	41476.85
2653.4993	41486.85
2656.14175	41462.95
2658.78255	41490.45
2661.42171	41459.15
2664.05923	41561.55
2666.6951	41558.45
2669.32934	41586.75
2671.96194	41582.75
2674.59291	41594.65
2677.22224	41591.55
2679.84993	41630.55
2682.476	41547.95
2685.10043	41604.15
2687.72324	41493.75
2690.34441	41572.85
2692.96396	41571.75
2695.58188	41634.55
2698.19818	41591.25
2700.81285	41556.95
2703.4259	41584.15
2706.03733	41724.85
2708.64714	41705.25
2711.25533	41766.55
2713.86191	41780.75
2716.46687	41834.75
2719.07021	41806.35
2721.67194	41827.45
2724.27206	41778.95
2726.87057	41851.45
2729.46747	41921.85
2732.06276	41930.65
2734.65644	41890.85
2737.24852	41942.85
2739.83899	41947.15
2742.42786	41886.85
2745.01513	41855.05
2747.60079	42100.25
2750.18486	42281.95
2752.76733	42016.15
2755.3482	41891.65
2757.92747	41894.05
2760.50515	41824.55
2763.08123	41813.65
2765.65573	41728.35
2768.22863	41709.15
2770.79994	41646.15
2773.36967	41652.05
2775.9378	41586.95
2778.50435	41555.45
2781.06932	41546.65
2783.6327	41614.75
2786.1945	41581.75
2788.75471	41489.75
2791.31335	41369.45
2793.87041	41402.95
2796.42589	41283.45
2798.97979	41262.05
2801.53212	41171.35
2804.08288	41195.35
2806.63206	41036.95
2809.17967	40997.05
2811.72571	40873.75
2814.27018	40921.35
2816.81308	40751.65
2819.35442	40726.05
2821.89419	40698.75
2824.43239	40619.35
2826.96904	40570.65
2829.50412	40598.25
2832.03763	40501.05
2834.56959	40531.95
2837.1	40403.85
2839.62884	40380.55
2842.15613	40308.55
2844.68186	40317.85
2847.20604	40216.45
2849.72867	40181.35
2852.24974	40192.05
2854.76927	40161.55
2857.28724	40078.75
2859.80367	40046.15
2862.31855	39997.05
2864.83189	39991.75
2867.34368	39966.55
2869.85393	39913.75
2872.36264	39861.15
2874.8698	39902.25
2877.37543	39929.55
2879.87952	39947.05
2882.38207	39904.65
2884.88308	39911.75
2887.38256	39920.65
2889.88051	39902.05
2892.37692	39941.75
2894.8718	39945.35
2897.36515	39959.45
2899.85698	39975.65
2902.34727	40090.15
2904.83604	40110.15
2907.32328	40153.45
2909.809	40122.65
2912.29319	40155.25
2914.77587	40177.35
2917.25702	40128.15
2919.73665	40104.35
2922.21476	40214.85
2924.69136	40142.35
2927.16644	40073.35
2929.64	40024.05
2932.11205	40012.45
2934.58258	39846.85
2937.05161	39963.65
2939.51912	40059.75
2941.98513	40060.95
2944.44962	39914.95
2946.91261	39784.55
2949.37409	39952.45
2951.83407	39909.85
2954.29254	39901.65
2956.74951	39846.25
2959.20498	39832.45
2961.65895	39789.65
2964.11142	39818.95
2966.56239	39748.95
2969.01186	39757.25
2971.45984	39678.65
2973.90632	39621.85
2976.35131	39583.05
2978.7948	39532.15
2981.23681	39460.45
2983.67732	39453.25
2986.11635	39339.75
2988.55388	39214.35
2990.98993	39165.65
2993.4245	39117.95
2995.85758	38999.95
2998.28917	38911.45
3000.71928	38922.65
3003.14791	38823.45
3005.57506	38836.95
3008.00073	38736.95
3010.42493	38737.75
3012.84764	38687.25
3015.26888	38681.05
3017.68865	38556.25
3020.10694	38504.45
3022.52376	38462.55
3024.9391	38421.85
3027.35298	38388.55
3029.76539	38358.25
3032.17632	38340.35
3034.5858	38248.05
3036.9938	38277.05
3039.40034	38202.05
3041.80542	38121.45
3044.20903	38063.85
3046.61118	37977.95
3049.01187	37940.55
3051.4111	37898.75
3053.80888	37837.45
3056.20519	37791.05
3058.60005	37672.75
3060.99345	37624.25
3063.3854	37549.45
3065.7759	37427.85
3068.16494	37359.15
3070.55254	37308.95
3072.93868	37225.05
3075.32338	37121.45
3077.70662	37090.85
3080.08842	36967.25
3082.46878	36980.95
3084.84769	36944.05
3087.22515	36905.35
3089.60118	36877.95
3091.97576	36871.05
3094.3489	36882.05
3096.72061	36832.65
3099.09087	36861.75
3101.4597	36740.55
3103.82709	36714.25
3106.19305	36621.35
3108.55757	36656.95
3110.92066	36512.15
3113.28232	36476.35
3115.64255	36342.45
3118.00134	36288.35
3120.35871	36278.15
3122.71466	36228.95
3125.06917	36219.95
3127.42226	36143.05
3129.77393	36164.75
3132.12417	36102.85
3134.47299	36045.05
3136.82039	36078.05
3139.16636	36024.25
3141.51092	35998.05
3143.85406	36029.05
3146.19579	35999.15
3148.53609	35983.25
3150.87499	36039.15
3153.21246	36022.95
3155.54853	36063.55
3157.88318	35961.75
3160.21642	35987.65
3162.54826	35937.85
3164.87868	35883.35
3167.2077	35825.15
3169.5353	35784.75
3171.86151	35797.55
3174.18631	35674.55
3176.5097	35701.05
3178.83169	35606.45
3181.15228	35665.05
3183.47147	35573.25
3185.78926	35602.85
3188.10565	35498.25
3190.42065	35475.45
3192.73424	35463.65
3195.04645	35475.15
3197.35725	35396.05
3199.66667	35437.85
3201.97469	35479.75
3204.28132	35375.15
3206.58656	35393.45
3208.8904	35393.45
3211.19287	35396.15
3213.49394	35349.65
3215.79363	35391.95
3218.09193	35426.15
3220.38884	35360.45
3222.68438	35427.85
3224.97853	35348.15
3227.2713	35343.65
3229.56269	35290.75
3231.8527	35266.55
3234.14133	35184.95
3236.42858	35141.55
3238.71446	35049.55
3240.99896	34961.55
3243.28209	35009.15
3245.56384	34962.05
3247.84423	34972.65
3250.12324	34936.95
3252.40088	34819.75
3254.67715	34821.95
3256.95205	34771.75
3259.22558	34676.85
3261.49775	34641.25
3263.76855	34625.25
3266.03799	34520.55
3268.30606	34542.05
3270.57277	34479.15
3272.83812	34438.05
3275.10211	34393.75
3277.36474	34384.95
3279.62601	34379.25
3281.88593	34381.65
3284.14448	34339.85
3286.40168	34319.35
3288.65753	34325.05
3290.91202	34240.35
3293.16516	34182.85
3295.41695	34055.25
3297.66738	33890.85
3299.91647	33720.65
3302.16421	33524.35
3304.4106	33384.05
3306.65564	33223.95
3308.89933	33010.15
3311.14169	32764.75
3313.38269	32503.85
3315.62236	32324.15
3317.86068	32080.15
3320.09766	31767.35
3322.3333	31516.15
3324.5676	31498.35
3326.80056	31024.15
3329.03219	30882.75
3331.26248	7.05
3333.49143	1.25
3335.71905	-0.05
