Data from AgNP_FTO_APTES_CRN_10uM_R6G_10uM_NaF_0.1M_Addition_RamanShift__23__16-41-47-981.txt Node

Date: Wed Dec 15 16:41:47 GMT 2021
User: TCL
Spectrometer: QEP01345
Trigger mode: 4
Integration Time (sec): 7.000000E0
Scans to average: 10
Electric dark correction enabled: true
Nonlinearity correction enabled: false
Boxcar width: 0
XAxis mode: Raman Shifts
Number of Pixels in Spectrum: 1044
>>>>>Begin Spectral Data<<<<<
46.04893	0.95
50.45542	-2.65
54.85868	-1.65
59.25871	0.15
63.6555	81.55
68.04907	93.35
72.43941	95.15
76.82654	100.65
81.21044	106.45
85.59113	108.75
89.96862	114.05
94.34289	112.15
98.71396	118.65
103.08183	126.65
107.4465	130.55
111.80798	132.65
116.16626	134.95
120.52136	137.35
124.87327	141.35
129.222	149.55
133.56755	152.85
137.90993	171.55
142.24913	182.75
146.58517	204.15
150.91804	233.55
155.24774	274.65
159.57429	344.85
163.89768	441.55
168.21792	577.45
172.53501	784.85
176.84895	1087.05
181.15975	1517.15
185.46741	2137.45
189.77193	2936.15
194.07331	3921.75
198.37157	5046.45
202.6667	6238.75
206.9587	7426.05
211.24758	8600.95
215.53334	9778.35
219.81599	11010.55
224.09553	12394.95
228.37195	13917.15
232.64527	15611.65
236.91549	17370.15
241.18261	19163.75
245.44663	20792.85
249.70755	22159.05
253.96539	23401.75
258.22014	24482.15
262.4718	25366.45
266.72039	26069.45
270.96589	26424.95
275.20832	26532.55
279.44768	26397.15
283.68397	26062.65
287.91719	25936.85
292.14735	25858.95
296.37445	25978.45
300.59849	26244.25
304.81948	26495.05
309.03742	26543.45
313.25231	26247.45
317.46415	25496.95
321.67296	24480.05
325.87872	23691.65
330.08145	23313.75
334.28114	23277.25
338.47781	23513.95
342.67145	23895.45
346.86207	24468.35
351.04966	25203.85
355.23424	25975.85
359.4158	26648.15
363.59435	26973.95
367.76989	27143.95
371.94243	27217.35
376.11196	27213.15
380.27849	27213.25
384.44203	27155.25
388.60257	27201.25
392.76012	27310.95
396.91468	27593.05
401.06626	28057.65
405.21485	28386.25
409.36047	28209.05
413.50311	27517.75
417.64277	26942.05
421.77947	26670.65
425.9132	26634.15
430.04396	26764.25
434.17176	26948.35
438.2966	27247.55
442.41849	27705.95
446.53742	28388.15
450.6534	29111.85
454.76644	29715.45
458.87653	29999.05
462.98368	29905.35
467.08789	29558.95
471.18916	29149.65
475.2875	28722.35
479.38291	28384.15
483.4754	28060.15
487.56496	27707.45
491.6516	27312.25
495.73531	27048.45
499.81612	26999.25
503.89401	27166.25
507.96899	27305.45
512.04106	27481.65
516.11023	27713.45
520.1765	27887.05
524.23987	27953.15
528.30034	27784.45
532.35792	27407.25
536.41261	26869.75
540.46441	26356.65
544.51333	26177.65
548.55936	26365.85
552.60252	26824.85
556.64279	27313.05
560.6802	27644.85
564.71473	27811.45
568.7464	28171.55
572.7752	28619.05
576.80114	28706.55
580.82422	28724.65
584.84444	28926.25
588.86181	29220.15
592.87633	29694.05
596.888	30318.55
600.89682	30928.75
604.9028	32436.45
608.90594	36069.35
612.90624	40270.95
616.90371	38264.15
620.89834	31015.55
624.89015	27665.95
628.87913	27229.05
632.86528	27270.65
636.84862	27249.45
640.82913	26832.15
644.80683	26011.45
648.78172	25395.85
652.75379	25309.35
656.72306	25675.55
660.68952	26236.05
664.65319	26129.95
668.61405	25581.25
672.57211	25299.25
676.52738	25268.45
680.47986	25303.55
684.42955	25174.35
688.37646	25162.25
692.32058	25191.75
696.26192	25430.25
700.20048	25716.25
704.13626	25902.45
708.06928	25858.15
711.99952	25720.85
715.927	25670.35
719.85171	25690.35
723.77365	25563.35
727.69284	25322.35
731.60928	25102.85
735.52295	25030.45
739.43388	25058.85
743.34206	25130.55
747.24749	25256.95
751.15017	25429.45
755.05012	25801.45
758.94733	26619.85
762.8418	28232.55
766.73354	30848.45
770.62254	33565.55
774.50882	34546.15
778.39237	32901.25
782.27321	29953.75
786.15132	27482.85
790.02671	25985.55
793.89938	25340.65
797.76935	25099.65
801.6366	24958.25
805.50115	24901.65
809.36299	24796.25
813.22213	24629.05
817.07857	24613.55
820.93231	24549.05
824.78336	24533.35
828.63172	24597.25
832.47738	24660.05
836.32036	24801.95
840.16066	24924.65
843.99827	24944.85
847.8332	24744.45
851.66546	24585.35
855.49504	24446.75
859.32195	24441.95
863.1462	24336.75
866.96777	24198.75
870.78668	24123.85
874.60293	24112.15
878.41652	24120.05
882.22745	24202.95
886.03573	24262.05
889.84136	24280.75
893.64433	24151.55
897.44466	24047.25
901.24235	24019.95
905.0374	23988.95
908.8298	23960.45
912.61957	23971.65
916.40671	24181.85
920.19121	24461.35
923.97308	24718.35
927.75233	24890.95
931.52895	24942.35
935.30295	24652.15
939.07433	24157.95
942.84309	23736.15
946.60924	23520.25
950.37278	23421.95
954.13371	23289.15
957.89203	23196.45
961.64774	23123.45
965.40086	23023.35
969.15137	22988.95
972.89929	22859.65
976.64461	22842.45
980.38733	22840.15
984.12747	22941.95
987.86502	23132.95
991.59999	23478.85
995.33237	23912.15
999.06217	24647.85
1002.78939	25428.15
1006.51404	25971.75
1010.23611	26335.15
1013.95561	26631.55
1017.67255	26514.15
1021.38692	26154.45
1025.09872	25956.15
1028.80796	26174.45
1032.51465	27029.65
1036.21877	27804.65
1039.92035	27984.05
1043.61937	27563.15
1047.31584	26968.95
1051.00976	26322.05
1054.70114	26099.95
1058.38998	26225.45
1062.07627	26577.05
1065.76003	27179.25
1069.44126	28055.05
1073.11995	29147.55
1076.79611	30085.35
1080.46974	30372.75
1084.14085	30009.95
1087.80943	29350.15
1091.47549	28573.65
1095.13903	27744.95
1098.80005	26875.55
1102.45857	26121.65
1106.11456	25726.95
1109.76805	25670.75
1113.41903	25870.45
1117.06751	26160.75
1120.71348	26564.55
1124.35696	26948.95
1127.99793	27485.85
1131.63641	27662.65
1135.2724	27379.35
1138.90589	26908.85
1142.5369	26544.75
1146.16542	26317.65
1149.79145	26178.85
1153.415	26302.85
1157.03607	26621.85
1160.65467	27170.85
1164.27079	28135.75
1167.88443	29592.15
1171.49561	31691.55
1175.10432	34677.45
1178.71056	38374.95
1182.31434	41541.95
1185.91565	42874.45
1189.51451	42283.05
1193.11091	40401.35
1196.70485	38008.25
1200.29634	35889.45
1203.88538	34373.85
1207.47197	33135.95
1211.05612	32199.95
1214.63782	31567.65
1218.21708	31319.15
1221.79391	31220.65
1225.36829	31247.15
1228.94024	31102.85
1232.50976	30792.45
1236.07685	30444.85
1239.6415	30261.95
1243.20374	30224.65
1246.76355	30391.15
1250.32093	30808.45
1253.8759	31467.05
1257.42845	32347.75
1260.97859	33294.65
1264.52631	34071.15
1268.07163	34970.15
1271.61453	36000.35
1275.15503	37087.75
1278.69312	38104.05
1282.22882	38912.75
1285.76211	39694.75
1289.29301	40563.15
1292.82151	41744.15
1296.34761	43297.85
1299.87133	45510.65
1303.39266	48284.35
1306.9116	51868.85
1310.42815	55623.95
1313.94233	58016.55
1317.45412	58006.95
1320.96354	56402.35
1324.47058	54319.65
1327.97525	52320.75
1331.47754	50881.45
1334.97747	50240.95
1338.47502	50314.85
1341.97022	50512.45
1345.46305	50615.95
1348.95352	50636.55
1352.44163	51198.45
1355.92738	53059.35
1359.41078	56779.75
1362.89183	60604.05
1366.37053	59939.75
1369.84688	54325.05
1373.32088	47799.75
1376.79254	43310.65
1380.26186	41107.75
1383.72883	40229.25
1387.19347	39636.95
1390.65578	38883.85
1394.11575	38463.05
1397.57339	38528.55
1401.0287	39176.65
1404.48168	39731.85
1407.93234	40128.05
1411.38068	39929.65
1414.82669	39089.55
1418.27039	37798.85
1421.71177	36417.25
1425.15083	35198.85
1428.58758	34481.75
1432.02203	34407.75
1435.45416	34860.65
1438.88399	35494.05
1442.31151	35985.85
1445.73673	36466.25
1449.15965	36961.15
1452.58027	37355.85
1455.9986	37477.55
1459.41463	37722.75
1462.82837	38381.15
1466.23982	39202.85
1469.64898	39988.25
1473.05586	40393.55
1476.46045	40510.85
1479.86276	40450.45
1483.26279	40391.95
1486.66054	40333.95
1490.05602	40592.25
1493.44922	41194.35
1496.84016	41856.55
1500.22882	43037.95
1503.61521	44908.25
1506.99934	47456.55
1510.38121	49892.25
1513.76081	51102.75
1517.13816	49886.65
1520.51324	46985.35
1523.88607	43882.65
1527.25665	41719.55
1530.62498	40406.85
1533.99105	39820.05
1537.35488	39341.05
1540.71647	38920.45
1544.07581	38464.75
1547.4329	37979.55
1550.78776	37518.85
1554.14038	37284.65
1557.49077	37314.15
1560.83892	37473.95
1564.18484	37854.55
1567.52853	38394.65
1570.86999	39202.05
1574.20922	40524.65
1577.54624	42079.95
1580.88103	43070.75
1584.2136	43207.95
1587.54395	42788.15
1590.87208	42549.65
1594.19801	43410.05
1597.52172	45170.25
1600.84321	45763.65
1604.16251	43946.25
1607.47959	40828.45
1610.79447	37500.65
1614.10715	34384.55
1617.41763	31916.25
1620.7259	30239.55
1624.03199	29403.75
1627.33587	29401.35
1630.63757	30175.35
1633.93707	31778.75
1637.23439	34373.75
1640.52951	37719.75
1643.82246	41624.75
1647.11321	44945.05
1650.40179	46133.25
1653.68819	43905.45
1656.97241	38859.45
1660.25446	33504.25
1663.53433	29499.95
1666.81203	26927.65
1670.08756	25266.75
1673.36092	24244.35
1676.63211	23576.85
1679.90115	23093.65
1683.16801	22732.25
1686.43272	22504.05
1689.69527	22338.25
1692.95567	22198.05
1696.2139	22097.65
1699.46999	22070.25
1702.72392	22013.95
1705.97571	21913.45
1709.22535	21903.95
1712.47284	21826.75
1715.71819	21779.05
1718.96139	21738.75
1722.20246	21685.15
1725.44139	21578.15
1728.67818	21471.05
1731.91284	21352.95
1735.14537	21250.85
1738.37576	21106.45
1741.60403	21099.85
1744.83017	21063.55
1748.05418	21015.75
1751.27607	20948.85
1754.49584	20940.05
1757.71349	20931.45
1760.92903	20936.45
1764.14244	20940.55
1767.35375	20862.05
1770.56294	20845.35
1773.77002	20813.75
1776.97499	20788.05
1780.17785	20716.75
1783.37861	20737.95
1786.57727	20633.25
1789.77382	20639.85
1792.96828	20590.35
1796.16064	20576.35
1799.3509	20534.05
1802.53907	20500.75
1805.72514	20450.45
1808.90913	20412.55
1812.09102	20352.35
1815.27083	20316.75
1818.44856	20288.25
1821.6242	20244.65
1824.79776	20236.45
1827.96924	20214.75
1831.13864	20238.85
1834.30597	20254.65
1837.47122	20232.55
1840.6344	20238.55
1843.7955	20209.75
1846.95454	20222.45
1850.11151	20232.45
1853.26642	20239.05
1856.41926	20233.15
1859.57004	20215.55
1862.71876	20215.95
1865.86542	20201.25
1869.01003	20219.45
1872.15258	20203.65
1875.29308	20194.05
1878.43152	20167.75
1881.56792	20154.95
1884.70227	20139.95
1887.83457	20150.75
1890.96482	20136.35
1894.09304	20137.95
1897.21921	20152.95
1900.34335	20147.75
1903.46544	20120.15
1906.58551	20122.25
1909.70353	20124.05
1912.81953	20071.15
1915.93349	20046.25
1919.04543	20043.85
1922.15534	19967.35
1925.26322	19960.95
1928.36908	19898.55
1931.47292	19874.05
1934.57473	19780.75
1937.67453	19736.25
1940.77232	19708.35
1943.86808	19622.15
1946.96184	19542.15
1950.05358	19508.25
1953.14331	19441.15
1956.23103	19394.25
1959.31675	19339.85
1962.40046	19271.35
1965.48217	19218.65
1968.56188	19152.25
1971.63959	19116.55
1974.7153	19053.25
1977.78901	18999.55
1980.86073	18906.25
1983.93046	18890.15
1986.99819	18808.55
1990.06394	18786.95
1993.1277	18731.15
1996.18947	18625.65
1999.24925	18578.25
2002.30706	18547.75
2005.36288	18486.65
2008.41672	18452.85
2011.46859	18382.35
2014.51848	18354.55
2017.56639	18339.45
2020.61233	18265.45
2023.6563	18197.05
2026.6983	18225.55
2029.73833	18192.85
2032.7764	18185.15
2035.8125	18150.25
2038.84664	18092.55
2041.87881	18080.15
2044.90903	18051.45
2047.93729	18025.75
2050.96359	18014.75
2053.98794	18050.85
2057.01034	17999.75
2060.03078	17984.35
2063.04927	17933.45
2066.06582	17945.95
2069.08042	17917.55
2072.09307	17891.85
2075.10378	17847.25
2078.11255	17847.25
2081.11938	17868.05
2084.12426	17862.95
2087.12722	17841.65
2090.12824	17822.35
2093.12732	17859.95
2096.12447	17862.55
2099.11969	17833.55
2102.11299	17833.75
2105.10435	17875.35
2108.09379	17899.55
2111.08131	17880.95
2114.0669	17893.55
2117.05057	17914.65
2120.03233	17943.15
2123.01216	17924.75
2125.99008	17941.15
2128.96609	17952.25
2131.94018	18006.25
2134.91236	17983.25
2137.88263	18018.35
2140.851	17995.25
2143.81746	18020.65
2146.78201	18041.75
2149.74466	18031.25
2152.7054	18065.35
2155.66425	18073.45
2158.6212	18061.05
2161.57625	18051.25
2164.52941	18053.55
2167.48067	18018.05
2170.43004	17992.85
2173.37752	18039.45
2176.32311	18037.75
2179.26681	18029.45
2182.20863	18028.45
2185.14856	18053.45
2188.08661	18018.25
2191.02278	18025.25
2193.95707	18047.55
2196.88948	18032.85
2199.82001	18034.45
2202.74867	18002.95
2205.67545	18024.75
2208.60037	17999.85
2211.52341	18028.05
2214.44458	18008.05
2217.36388	17942.15
2220.28132	17968.45
2223.1969	17928.85
2226.11061	17950.45
2229.02246	17867.35
2231.93245	17844.05
2234.84058	17786.25
2237.74686	17797.95
2240.65128	17777.15
2243.55385	17710.85
2246.45456	17676.15
2249.35343	17674.45
2252.25044	17657.85
2255.14561	17620.35
2258.03893	17621.75
2260.93041	17635.95
2263.82004	17563.85
2266.70783	17546.15
2269.59378	17452.45
2272.4779	17425.35
2275.36017	17398.05
2278.24061	17400.45
2281.11922	17321.05
2283.996	17320.55
2286.87094	17282.45
2289.74405	17252.65
2292.61534	17229.25
2295.4848	17228.85
2298.35243	17280.35
2301.21824	17257.75
2304.08223	17237.55
2306.94439	17247.65
2309.80474	17284.15
2312.66327	17301.15
2315.51999	17252.15
2318.37489	17298.35
2321.22797	17280.35
2324.07925	17255.75
2326.92871	17243.85
2329.77637	17242.75
2332.62222	17247.75
2335.46626	17211.05
2338.3085	17238.15
2341.14893	17257.05
2343.98756	17239.75
2346.8244	17237.75
2349.65943	17277.25
2352.49267	17265.95
2355.32411	17248.05
2358.15376	17273.05
2360.98161	17199.75
2363.80768	17185.55
2366.63195	17203.95
2369.45444	17138.95
2372.27514	17139.95
2375.09405	17111.65
2377.91118	17050.75
2380.72652	17000.55
2383.54009	16986.85
2386.35187	16983.75
2389.16188	16886.65
2391.97011	16867.15
2394.77657	16885.45
2397.58125	16827.15
2400.38416	16809.95
2403.18529	16765.05
2405.98466	16747.35
2408.78226	16734.45
2411.57809	16681.25
2414.37216	16662.55
2417.16446	16642.55
2419.955	16644.55
2422.74378	16592.75
2425.5308	16588.75
2428.31606	16582.35
2431.09956	16550.25
2433.88131	16568.95
2436.6613	16603.55
2439.43954	16567.85
2442.21603	16532.45
2444.99077	16548.65
2447.76377	16524.45
2450.53501	16519.95
2453.30451	16521.35
2456.07226	16502.45
2458.83827	16531.35
2461.60254	16519.05
2464.36507	16508.45
2467.12586	16486.45
2469.88492	16485.95
2472.64224	16509.75
2475.39782	16512.75
2478.15167	16531.95
2480.90379	16552.15
2483.65417	16558.25
2486.40283	16586.65
2489.14976	16633.55
2491.89497	16600.45
2494.63845	16650.05
2497.3802	16626.95
2500.12024	16615.35
2502.85855	16617.65
2505.59514	16592.15
2508.33002	16580.45
2511.06318	16524.15
2513.79462	16507.25
2516.52435	16495.15
2519.25237	16481.45
2521.97867	16428.35
2524.70327	16443.75
2527.42616	16441.55
2530.14734	16463.25
2532.86681	16420.15
2535.58458	16400.65
2538.30065	16366.45
2541.01501	16377.75
2543.72768	16405.15
2546.43864	16399.55
2549.14791	16358.55
2551.85548	16352.05
2554.56136	16317.65
2557.26554	16297.85
2559.96803	16332.05
2562.66883	16317.75
2565.36794	16305.65
2568.06536	16288.75
2570.7611	16309.05
2573.45514	16315.05
2576.14751	16255.45
2578.83819	16214.15
2581.52719	16213.35
2584.21451	16230.85
2586.90015	16243.95
2589.58411	16242.55
2592.2664	16211.95
2594.94701	16193.45
2597.62594	16198.75
2600.30321	16172.55
2602.9788	16175.05
2605.65273	16149.25
2608.32498	16160.35
2610.99557	16115.95
2613.66449	16136.95
2616.33175	16155.95
2618.99734	16140.75
2621.66128	16161.05
2624.32355	16141.45
2626.98416	16149.65
2629.64311	16176.45
2632.30041	16168.65
2634.95605	16171.85
2637.61004	16122.25
2640.26238	16118.15
2642.91306	16069.35
2645.56209	16089.55
2648.20948	16077.45
2650.85521	16090.55
2653.4993	16032.05
2656.14175	16040.35
2658.78255	16050.65
2661.42171	16034.25
2664.05923	16033.45
2666.6951	16091.85
2669.32934	16093.55
2671.96194	16073.05
2674.59291	16090.75
2677.22224	16056.95
2679.84993	16113.65
2682.476	16059.75
2685.10043	16057.85
2687.72324	16064.15
2690.34441	16104.95
2692.96396	16055.65
2695.58188	16062.35
2698.19818	16024.85
2700.81285	16064.05
2703.4259	16033.95
2706.03733	16134.65
2708.64714	16108.45
2711.25533	16092.65
2713.86191	16083.75
2716.46687	16123.95
2719.07021	16109.95
2721.67194	16133.05
2724.27206	16085.55
2726.87057	16089.05
2729.46747	16111.45
2732.06276	16150.75
2734.65644	16117.65
2737.24852	16128.85
2739.83899	16120.85
2742.42786	16106.85
2745.01513	16075.35
2747.60079	16070.55
2750.18486	16106.35
2752.76733	16117.75
2755.3482	16112.85
2757.92747	16127.35
2760.50515	16110.25
2763.08123	16077.35
2765.65573	16061.05
2768.22863	16035.25
2770.79994	16000.75
2773.36967	16051.55
2775.9378	16023.05
2778.50435	16020.25
2781.06932	16010.45
2783.6327	15992.15
2786.1945	15994.15
2788.75471	15986.25
2791.31335	15913.55
2793.87041	15922.05
2796.42589	15879.95
2798.97979	15886.95
2801.53212	15839.85
2804.08288	15866.45
2806.63206	15820.85
2809.17967	15810.85
2811.72571	15777.05
2814.27018	15794.35
2816.81308	15789.35
2819.35442	15773.05
2821.89419	15713.75
2824.43239	15737.35
2826.96904	15724.85
2829.50412	15736.65
2832.03763	15669.25
2834.56959	15708.05
2837.1	15653.45
2839.62884	15671.55
2842.15613	15660.05
2844.68186	15714.75
2847.20604	15697.85
2849.72867	15694.95
2852.24974	15696.35
2854.76927	15692.15
2857.28724	15691.05
2859.80367	15686.15
2862.31855	15666.05
2864.83189	15663.15
2867.34368	15635.25
2869.85393	15665.35
2872.36264	15655.55
2874.8698	15628.15
2877.37543	15669.95
2879.87952	15674.45
2882.38207	15667.25
2884.88308	15634.35
2887.38256	15663.15
2889.88051	15678.15
2892.37692	15709.65
2894.8718	15677.25
2897.36515	15663.85
2899.85698	15709.75
2902.34727	15741.95
2904.83604	15745.15
2907.32328	15739.05
2909.809	15745.55
2912.29319	15766.65
2914.77587	15797.15
2917.25702	15760.65
2919.73665	15736.45
2922.21476	15752.65
2924.69136	15734.75
2927.16644	15729.55
2929.64	15725.85
2932.11205	15705.65
2934.58258	15635.95
2937.05161	15708.95
2939.51912	15701.05
2941.98513	15645.95
2944.44962	15583.85
2946.91261	15546.95
2949.37409	15580.15
2951.83407	15626.35
2954.29254	15586.15
2956.74951	15538.65
2959.20498	15522.55
2961.65895	15514.65
2964.11142	15507.55
2966.56239	15448.85
2969.01186	15452.15
2971.45984	15387.55
2973.90632	15379.65
2976.35131	15301.95
2978.7948	15317.55
2981.23681	15243.95
2983.67732	15249.45
2986.11635	15220.15
2988.55388	15193.65
2990.98993	15152.05
2993.4245	15124.85
2995.85758	15112.15
2998.28917	15099.55
3000.71928	15072.65
3003.14791	15014.85
3005.57506	15021.75
3008.00073	14992.25
3010.42493	14988.05
3012.84764	14946.15
3015.26888	14935.25
3017.68865	14884.35
3020.10694	14908.35
3022.52376	14854.55
3024.9391	14861.35
3027.35298	14830.05
3029.76539	14873.45
3032.17632	14835.95
3034.5858	14840.45
3036.9938	14785.85
3039.40034	14797.45
3041.80542	14766.35
3044.20903	14748.45
3046.61118	14740.35
3049.01187	14715.65
3051.4111	14696.85
3053.80888	14683.55
3056.20519	14665.65
3058.60005	14615.85
3060.99345	14590.85
3063.3854	14543.75
3065.7759	14509.95
3068.16494	14485.55
3070.55254	14465.05
3072.93868	14470.25
3075.32338	14397.65
3077.70662	14366.45
3080.08842	14323.15
3082.46878	14307.95
3084.84769	14317.85
3087.22515	14275.45
3089.60118	14286.45
3091.97576	14292.05
3094.3489	14305.45
3096.72061	14302.55
3099.09087	14268.75
3101.4597	14274.45
3103.82709	14240.05
3106.19305	14234.45
3108.55757	14213.25
3110.92066	14200.55
3113.28232	14182.35
3115.64255	14140.25
3118.00134	14093.75
3120.35871	14105.65
3122.71466	14083.05
3125.06917	14063.75
3127.42226	14048.55
3129.77393	14053.65
3132.12417	14071.65
3134.47299	14073.05
3136.82039	14085.55
3139.16636	14079.85
3141.51092	14058.35
3143.85406	14069.75
3146.19579	14077.15
3148.53609	14075.85
3150.87499	14117.55
3153.21246	14092.85
3155.54853	14115.55
3157.88318	14090.15
3160.21642	14121.55
3162.54826	14088.25
3164.87868	14104.95
3167.2077	14100.75
3169.5353	14075.35
3171.86151	14097.15
3174.18631	14055.95
3176.5097	14078.85
3178.83169	14031.15
3181.15228	14030.75
3183.47147	14005.35
3185.78926	14033.95
3188.10565	14011.75
3190.42065	14022.35
3192.73424	14003.15
3195.04645	14018.55
3197.35725	14037.35
3199.66667	14034.85
3201.97469	14014.55
3204.28132	14032.75
3206.58656	14050.65
3208.8904	14075.35
3211.19287	14108.25
3213.49394	14044.15
3215.79363	14055.45
3218.09193	14063.15
3220.38884	14087.15
3222.68438	14087.45
3224.97853	14072.35
3227.2713	14058.45
3229.56269	14026.45
3231.8527	13992.25
3234.14133	14022.35
3236.42858	13951.75
3238.71446	13984.15
3240.99896	13954.15
3243.28209	13937.95
3245.56384	13938.25
3247.84423	13937.75
3250.12324	13919.55
3252.40088	13909.05
3254.67715	13914.15
3256.95205	13903.55
3259.22558	13924.65
3261.49775	13910.15
3263.76855	13881.05
3266.03799	13843.65
3268.30606	13829.35
3270.57277	13776.35
3272.83812	13815.75
3275.10211	13785.65
3277.36474	13768.55
3279.62601	13756.35
3281.88593	13774.75
3284.14448	13819.85
3286.40168	13747.55
3288.65753	13736.75
3290.91202	13741.65
3293.16516	13707.75
3295.41695	13683.75
3297.66738	13584.05
3299.91647	13542.85
3302.16421	13433.35
3304.4106	13389.25
3306.65564	13328.55
3308.89933	13280.75
3311.14169	13198.85
3313.38269	13071.85
3315.62236	13019.15
3317.86068	12926.25
3320.09766	12797.65
3322.3333	12672.25
3324.5676	12710.05
3326.80056	12512.05
3329.03219	12424.65
3331.26248	4.05
3333.49143	-0.15
3335.71905	-0.55
