Data from AgNP_FTO_APTES_CRN_200uM_R6G_10uM_NaF_0.1M_Addition_RamanShift__12__19-30-58-173.txt Node

Date: Wed Dec 15 19:30:58 GMT 2021
User: TCL
Spectrometer: QEP01345
Trigger mode: 4
Integration Time (sec): 7.000000E0
Scans to average: 10
Electric dark correction enabled: true
Nonlinearity correction enabled: false
Boxcar width: 0
XAxis mode: Raman Shifts
Number of Pixels in Spectrum: 1044
>>>>>Begin Spectral Data<<<<<
46.04893	0.45
50.45542	-0.75
54.85868	-1.85
59.25871	-0.15
63.6555	48.65
68.04907	53.95
72.43941	57.05
76.82654	60.75
81.21044	62.45
85.59113	66.35
89.96862	69.35
94.34289	64.95
98.71396	69.75
103.08183	78.85
107.4465	77.25
111.80798	77.65
116.16626	80.35
120.52136	84.55
124.87327	81.15
129.222	86.15
133.56755	90.25
137.90993	89.95
142.24913	100.35
146.58517	108.95
150.91804	126.55
155.24774	147.05
159.57429	173.95
163.89768	222.05
168.21792	280.25
172.53501	378.25
176.84895	525.25
181.15975	730.25
185.46741	1025.25
189.77193	1410.85
194.07331	1891.85
198.37157	2445.05
202.6667	3036.55
206.9587	3589.95
211.24758	4186.35
215.53334	4745.95
219.81599	5324.25
224.09553	5961.55
228.37195	6647.75
232.64527	7436.15
236.91549	8267.25
241.18261	9124.35
245.44663	9932.35
249.70755	10715.65
253.96539	11342.75
258.22014	11916.65
262.4718	12295.35
266.72039	12602.45
270.96589	12727.45
275.20832	12748.85
279.44768	12701.55
283.68397	12580.85
287.91719	12527.95
292.14735	12441.45
296.37445	12408.75
300.59849	12360.85
304.81948	12300.05
309.03742	12215.65
313.25231	12113.25
317.46415	11928.05
321.67296	11704.05
325.87872	11509.45
330.08145	11392.25
334.28114	11407.15
338.47781	11473.85
342.67145	11575.75
346.86207	11728.75
351.04966	11864.25
355.23424	11974.25
359.4158	12092.25
363.59435	12158.95
367.76989	12247.15
371.94243	12308.85
376.11196	12316.55
380.27849	12400.45
384.44203	12435.15
388.60257	12518.15
392.76012	12660.05
396.91468	12802.05
401.06626	12990.75
405.21485	13131.65
409.36047	13134.15
413.50311	13103.35
417.64277	12999.55
421.77947	12977.95
425.9132	13032.45
430.04396	13132.35
434.17176	13202.55
438.2966	13252.65
442.41849	13375.25
446.53742	13502.65
450.6534	13683.65
454.76644	13827.95
458.87653	13919.85
462.98368	13960.45
467.08789	13930.65
471.18916	13928.65
475.2875	13864.45
479.38291	13853.85
483.4754	13817.85
487.56496	13710.95
491.6516	13613.45
495.73531	13544.35
499.81612	13483.25
503.89401	13533.05
507.96899	13581.95
512.04106	13625.45
516.11023	13609.15
520.1765	13570.85
524.23987	13547.65
528.30034	13461.95
532.35792	13365.65
536.41261	13297.25
540.46441	13243.25
544.51333	13235.45
548.55936	13372.65
552.60252	13587.55
556.64279	13761.05
560.6802	13907.65
564.71473	13937.35
568.7464	14075.45
572.7752	14289.75
576.80114	14587.85
580.82422	14887.65
584.84444	15123.35
588.86181	15210.15
592.87633	15197.35
596.888	15105.95
600.89682	14980.45
604.9028	15033.15
608.90594	15526.95
612.90624	16078.05
616.90371	15443.75
620.89834	14105.85
624.89015	13502.15
628.87913	13433.55
632.86528	13545.95
636.84862	13616.85
640.82913	13567.35
644.80683	13384.95
648.78172	13247.75
652.75379	13200.45
656.72306	13259.85
660.68952	13376.15
664.65319	13379.25
668.61405	13293.35
672.57211	13312.05
676.52738	13354.65
680.47986	13373.45
684.42955	13360.45
688.37646	13308.55
692.32058	13337.65
696.26192	13426.05
700.20048	13491.75
704.13626	13591.15
708.06928	13644.65
711.99952	13677.05
715.927	13611.85
719.85171	13586.75
723.77365	13496.65
727.69284	13397.05
731.60928	13303.15
735.52295	13225.25
739.43388	13190.65
743.34206	13242.35
747.24749	13274.65
751.15017	13339.85
755.05012	13483.55
758.94733	13689.65
762.8418	14116.15
766.73354	14770.15
770.62254	15343.75
774.50882	15432.15
778.39237	14927.85
782.27321	14281.65
786.15132	13791.55
790.02671	13433.45
793.89938	13249.65
797.76935	13154.95
801.6366	13106.65
805.50115	13091.05
809.36299	13060.05
813.22213	13034.55
817.07857	13026.95
820.93231	13011.95
824.78336	13016.15
828.63172	13030.15
832.47738	13018.65
836.32036	13027.65
840.16066	13025.75
843.99827	12991.85
847.8332	12984.15
851.66546	12944.25
855.49504	12964.65
859.32195	12943.75
863.1462	12938.05
866.96777	12932.65
870.78668	12949.55
874.60293	12942.05
878.41652	12966.95
882.22745	13014.95
886.03573	12989.85
889.84136	13059.35
893.64433	13037.95
897.44466	12991.75
901.24235	13009.15
905.0374	12972.05
908.8298	12979.05
912.61957	13037.05
916.40671	13107.35
920.19121	13205.65
923.97308	13260.65
927.75233	13216.85
931.52895	13138.05
935.30295	13033.15
939.07433	12879.05
942.84309	12742.25
946.60924	12682.25
950.37278	12604.25
954.13371	12595.55
957.89203	12578.05
961.64774	12534.45
965.40086	12562.05
969.15137	12529.45
972.89929	12473.35
976.64461	12434.25
980.38733	12400.85
984.12747	12382.75
987.86502	12456.55
991.59999	12470.55
995.33237	12493.25
999.06217	12572.45
1002.78939	12692.75
1006.51404	12783.85
1010.23611	12899.25
1013.95561	12994.45
1017.67255	12994.55
1021.38692	12971.25
1025.09872	12863.55
1028.80796	12810.95
1032.51465	12757.45
1036.21877	12793.95
1039.92035	12810.95
1043.61937	12866.35
1047.31584	12988.85
1051.00976	13032.65
1054.70114	13138.95
1058.38998	13293.55
1062.07627	13485.75
1065.76003	13747.15
1069.44126	14017.75
1073.11995	14264.15
1076.79611	14400.55
1080.46974	14295.45
1084.14085	14080.75
1087.80943	13923.25
1091.47549	13910.15
1095.13903	13886.65
1098.80005	13806.05
1102.45857	13621.65
1106.11456	13383.15
1109.76805	13191.05
1113.41903	13147.65
1117.06751	13173.65
1120.71348	13237.55
1124.35696	13353.85
1127.99793	13494.25
1131.63641	13601.45
1135.2724	13527.55
1138.90589	13488.85
1142.5369	13452.65
1146.16542	13475.55
1149.79145	13480.05
1153.415	13564.45
1157.03607	13644.85
1160.65467	13813.95
1164.27079	14075.95
1167.88443	14490.25
1171.49561	14904.75
1175.10432	15488.35
1178.71056	16204.95
1182.31434	16878.25
1185.91565	17309.15
1189.51451	17499.35
1193.11091	17394.95
1196.70485	17060.95
1200.29634	16580.75
1203.88538	16116.45
1207.47197	15806.85
1211.05612	15535.15
1214.63782	15294.65
1218.21708	15064.35
1221.79391	14790.65
1225.36829	14623.15
1228.94024	14481.55
1232.50976	14433.05
1236.07685	14412.25
1239.6415	14402.65
1243.20374	14438.35
1246.76355	14481.15
1250.32093	14593.35
1253.8759	14749.15
1257.42845	14969.55
1260.97859	15205.65
1264.52631	15426.35
1268.07163	15653.55
1271.61453	15857.25
1275.15503	16087.35
1278.69312	16306.15
1282.22882	16524.15
1285.76211	16789.25
1289.29301	17092.95
1292.82151	17452.95
1296.34761	17896.15
1299.87133	18408.45
1303.39266	18919.05
1306.9116	19406.65
1310.42815	19855.85
1313.94233	20079.85
1317.45412	20129.05
1320.96354	20101.75
1324.47058	20094.95
1327.97525	20111.75
1331.47754	20197.85
1334.97747	20293.45
1338.47502	20454.25
1341.97022	20677.75
1345.46305	20926.05
1348.95352	20964.25
1352.44163	20937.35
1355.92738	20855.15
1359.41078	20874.05
1362.89183	20951.65
1366.37053	20528.95
1369.84688	19590.75
1373.32088	18410.15
1376.79254	17501.15
1380.26186	17002.85
1383.72883	16811.35
1387.19347	16676.05
1390.65578	16528.45
1394.11575	16393.75
1397.57339	16284.35
1401.0287	16229.55
1404.48168	16191.25
1407.93234	16091.35
1411.38068	15890.45
1414.82669	15590.25
1418.27039	15195.05
1421.71177	14792.65
1425.15083	14492.55
1428.58758	14314.75
1432.02203	14260.75
1435.45416	14381.95
1438.88399	14543.55
1442.31151	14648.65
1445.73673	14763.05
1449.15965	14928.75
1452.58027	15050.35
1455.9986	15217.65
1459.41463	15390.95
1462.82837	15633.25
1466.23982	15840.35
1469.64898	16051.15
1473.05586	16220.05
1476.46045	16347.45
1479.86276	16373.35
1483.26279	16378.25
1486.66054	16477.95
1490.05602	16633.35
1493.44922	16855.45
1496.84016	17220.35
1500.22882	17788.45
1503.61521	18435.05
1506.99934	19039.75
1510.38121	19341.75
1513.76081	19418.35
1517.13816	19033.35
1520.51324	18550.25
1523.88607	18168.75
1527.25665	17862.95
1530.62498	17630.65
1533.99105	17456.45
1537.35488	17228.85
1540.71647	16965.65
1544.07581	16640.95
1547.4329	16288.05
1550.78776	16086.25
1554.14038	15891.75
1557.49077	15830.75
1560.83892	15883.55
1564.18484	15955.95
1567.52853	16124.35
1570.86999	16287.95
1574.20922	16552.35
1577.54624	16782.85
1580.88103	16900.85
1584.2136	16829.15
1587.54395	16686.25
1590.87208	16620.25
1594.19801	16696.55
1597.52172	17008.15
1600.84321	17054.05
1604.16251	16719.05
1607.47959	16180.45
1610.79447	15560.85
1614.10715	14889.35
1617.41763	14279.65
1620.7259	13790.45
1624.03199	13434.85
1627.33587	13298.75
1630.63757	13361.15
1633.93707	13650.45
1637.23439	14233.45
1640.52951	15075.15
1643.82246	16184.65
1647.11321	17313.75
1650.40179	17958.35
1653.68819	17750.35
1656.97241	16779.45
1660.25446	15441.65
1663.53433	14206.15
1666.81203	13268.45
1670.08756	12601.15
1673.36092	12167.95
1676.63211	11877.95
1679.90115	11674.25
1683.16801	11516.15
1686.43272	11400.65
1689.69527	11328.95
1692.95567	11278.95
1696.2139	11272.55
1699.46999	11245.15
1702.72392	11192.75
1705.97571	11161.85
1709.22535	11115.25
1712.47284	11082.35
1715.71819	11087.15
1718.96139	11046.95
1722.20246	10998.65
1725.44139	10985.75
1728.67818	10942.45
1731.91284	10894.35
1735.14537	10847.85
1738.37576	10826.45
1741.60403	10801.85
1744.83017	10783.15
1748.05418	10758.85
1751.27607	10744.15
1754.49584	10734.15
1757.71349	10730.45
1760.92903	10733.15
1764.14244	10725.35
1767.35375	10719.05
1770.56294	10695.75
1773.77002	10661.95
1776.97499	10649.35
1780.17785	10601.45
1783.37861	10597.95
1786.57727	10548.45
1789.77382	10520.85
1792.96828	10490.35
1796.16064	10463.45
1799.3509	10455.15
1802.53907	10440.75
1805.72514	10394.75
1808.90913	10368.05
1812.09102	10357.55
1815.27083	10341.55
1818.44856	10333.25
1821.6242	10308.55
1824.79776	10298.95
1827.96924	10297.45
1831.13864	10266.75
1834.30597	10248.55
1837.47122	10237.05
1840.6344	10234.95
1843.7955	10249.95
1846.95454	10232.15
1850.11151	10196.15
1853.26642	10201.35
1856.41926	10187.15
1859.57004	10196.05
1862.71876	10157.95
1865.86542	10197.05
1869.01003	10163.95
1872.15258	10141.75
1875.29308	10116.75
1878.43152	10108.75
1881.56792	10087.75
1884.70227	10075.25
1887.83457	10058.35
1890.96482	10036.65
1894.09304	10016.65
1897.21921	9999.05
1900.34335	9995.15
1903.46544	9978.25
1906.58551	9984.45
1909.70353	9953.95
1912.81953	9918.55
1915.93349	9911.65
1919.04543	9903.25
1922.15534	9877.85
1925.26322	9885.25
1928.36908	9838.75
1931.47292	9820.75
1934.57473	9819.75
1937.67453	9789.95
1940.77232	9746.05
1943.86808	9713.05
1946.96184	9687.15
1950.05358	9684.15
1953.14331	9665.75
1956.23103	9611.35
1959.31675	9603.15
1962.40046	9550.15
1965.48217	9533.75
1968.56188	9500.45
1971.63959	9468.95
1974.7153	9424.65
1977.78901	9414.65
1980.86073	9372.85
1983.93046	9369.95
1986.99819	9327.85
1990.06394	9319.55
1993.1277	9249.45
1996.18947	9228.35
1999.24925	9212.45
2002.30706	9178.35
2005.36288	9149.05
2008.41672	9126.85
2011.46859	9095.25
2014.51848	9068.65
2017.56639	9040.05
2020.61233	9021.55
2023.6563	9005.05
2026.6983	8999.65
2029.73833	8974.95
2032.7764	8929.25
2035.8125	8927.55
2038.84664	8889.35
2041.87881	8881.35
2044.90903	8845.95
2047.93729	8857.75
2050.96359	8821.05
2053.98794	8800.95
2057.01034	8791.65
2060.03078	8784.15
2063.04927	8779.35
2066.06582	8752.95
2069.08042	8739.55
2072.09307	8757.25
2075.10378	8737.05
2078.11255	8711.65
2081.11938	8722.35
2084.12426	8739.55
2087.12722	8736.15
2090.12824	8702.15
2093.12732	8734.75
2096.12447	8712.55
2099.11969	8749.05
2102.11299	8702.55
2105.10435	8720.25
2108.09379	8710.75
2111.08131	8731.25
2114.0669	8730.75
2117.05057	8723.85
2120.03233	8729.05
2123.01216	8753.55
2125.99008	8713.95
2128.96609	8741.45
2131.94018	8768.85
2134.91236	8758.95
2137.88263	8777.65
2140.851	8743.85
2143.81746	8764.15
2146.78201	8757.45
2149.74466	8733.55
2152.7054	8762.45
2155.66425	8776.45
2158.6212	8774.65
2161.57625	8758.85
2164.52941	8736.95
2167.48067	8735.15
2170.43004	8729.85
2173.37752	8729.65
2176.32311	8716.05
2179.26681	8721.65
2182.20863	8709.25
2185.14856	8701.45
2188.08661	8692.95
2191.02278	8682.35
2193.95707	8674.45
2196.88948	8666.15
2199.82001	8661.35
2202.74867	8663.45
2205.67545	8651.05
2208.60037	8641.35
2211.52341	8627.95
2214.44458	8604.35
2217.36388	8557.65
2220.28132	8547.15
2223.1969	8544.65
2226.11061	8537.05
2229.02246	8519.65
2231.93245	8502.75
2234.84058	8455.65
2237.74686	8461.15
2240.65128	8466.15
2243.55385	8444.95
2246.45456	8454.45
2249.35343	8414.15
2252.25044	8414.45
2255.14561	8390.45
2258.03893	8389.25
2260.93041	8347.85
2263.82004	8338.05
2266.70783	8323.25
2269.59378	8296.15
2272.4779	8264.95
2275.36017	8260.65
2278.24061	8227.05
2281.11922	8186.15
2283.996	8195.75
2286.87094	8176.05
2289.74405	8137.15
2292.61534	8138.85
2295.4848	8124.75
2298.35243	8135.85
2301.21824	8103.75
2304.08223	8102.85
2306.94439	8090.55
2309.80474	8069.35
2312.66327	8086.75
2315.51999	8058.15
2318.37489	8064.55
2321.22797	8044.15
2324.07925	8040.45
2326.92871	8030.35
2329.77637	8016.75
2332.62222	7990.15
2335.46626	7985.45
2338.3085	7962.95
2341.14893	7933.05
2343.98756	7953.05
2346.8244	7944.85
2349.65943	7929.95
2352.49267	7903.05
2355.32411	7910.35
2358.15376	7898.75
2360.98161	7908.85
2363.80768	7890.45
2366.63195	7898.45
2369.45444	7898.65
2372.27514	7879.55
2375.09405	7879.95
2377.91118	7876.45
2380.72652	7835.95
2383.54009	7816.35
2386.35187	7780.95
2389.16188	7789.85
2391.97011	7751.55
2394.77657	7738.55
2397.58125	7729.55
2400.38416	7716.35
2403.18529	7703.75
2405.98466	7680.95
2408.78226	7681.05
2411.57809	7662.15
2414.37216	7653.15
2417.16446	7660.65
2419.955	7623.95
2422.74378	7642.15
2425.5308	7615.55
2428.31606	7597.05
2431.09956	7603.95
2433.88131	7592.75
2436.6613	7573.05
2439.43954	7564.25
2442.21603	7541.15
2444.99077	7568.35
2447.76377	7547.25
2450.53501	7526.55
2453.30451	7512.55
2456.07226	7493.65
2458.83827	7508.95
2461.60254	7493.25
2464.36507	7505.15
2467.12586	7464.95
2469.88492	7467.55
2472.64224	7464.65
2475.39782	7448.25
2478.15167	7439.45
2480.90379	7463.45
2483.65417	7433.45
2486.40283	7441.35
2489.14976	7422.85
2491.89497	7415.15
2494.63845	7426.75
2497.3802	7404.85
2500.12024	7397.85
2502.85855	7368.55
2505.59514	7372.55
2508.33002	7377.35
2511.06318	7358.55
2513.79462	7351.25
2516.52435	7344.55
2519.25237	7339.05
2521.97867	7309.35
2524.70327	7308.85
2527.42616	7291.15
2530.14734	7289.75
2532.86681	7256.95
2535.58458	7276.45
2538.30065	7279.25
2541.01501	7242.65
2543.72768	7241.85
2546.43864	7208.45
2549.14791	7194.35
2551.85548	7180.65
2554.56136	7172.95
2557.26554	7132.65
2559.96803	7144.35
2562.66883	7127.15
2565.36794	7118.55
2568.06536	7119.75
2570.7611	7114.05
2573.45514	7079.65
2576.14751	7089.05
2578.83819	7078.65
2581.52719	7055.75
2584.21451	7053.05
2586.90015	7032.15
2589.58411	7008.45
2592.2664	7000.95
2594.94701	6985.55
2597.62594	6973.95
2600.30321	6941.95
2602.9788	6938.45
2605.65273	6902.95
2608.32498	6914.15
2610.99557	6905.55
2613.66449	6906.05
2616.33175	6867.75
2618.99734	6863.65
2621.66128	6861.45
2624.32355	6835.75
2626.98416	6818.15
2629.64311	6824.15
2632.30041	6837.05
2634.95605	6802.65
2637.61004	6800.95
2640.26238	6765.15
2642.91306	6782.85
2645.56209	6758.05
2648.20948	6779.15
2650.85521	6763.55
2653.4993	6745.05
2656.14175	6759.05
2658.78255	6754.65
2661.42171	6753.75
2664.05923	6758.25
2666.6951	6745.25
2669.32934	6752.05
2671.96194	6731.15
2674.59291	6728.35
2677.22224	6726.85
2679.84993	6751.95
2682.476	6744.55
2685.10043	6710.95
2687.72324	6736.15
2690.34441	6721.75
2692.96396	6711.05
2695.58188	6721.65
2698.19818	6731.45
2700.81285	6725.75
2703.4259	6748.55
2706.03733	6794.85
2708.64714	6725.05
2711.25533	6739.55
2713.86191	6743.95
2716.46687	6727.75
2719.07021	6716.75
2721.67194	6698.75
2724.27206	6711.15
2726.87057	6705.95
2729.46747	6710.35
2732.06276	6729.45
2734.65644	6698.85
2737.24852	6688.35
2739.83899	6675.55
2742.42786	6681.15
2745.01513	6656.35
2747.60079	6668.35
2750.18486	6630.45
2752.76733	6627.05
2755.3482	6624.05
2757.92747	6612.85
2760.50515	6600.55
2763.08123	6601.35
2765.65573	6607.25
2768.22863	6582.85
2770.79994	6573.05
2773.36967	6551.15
2775.9378	6564.65
2778.50435	6550.55
2781.06932	6538.05
2783.6327	6529.95
2786.1945	6530.75
2788.75471	6506.35
2791.31335	6480.05
2793.87041	6478.65
2796.42589	6462.45
2798.97979	6441.15
2801.53212	6443.25
2804.08288	6427.75
2806.63206	6420.55
2809.17967	6402.85
2811.72571	6395.85
2814.27018	6381.75
2816.81308	6368.35
2819.35442	6354.75
2821.89419	6356.55
2824.43239	6334.55
2826.96904	6309.55
2829.50412	6322.45
2832.03763	6302.15
2834.56959	6308.75
2837.1	6317.75
2839.62884	6314.25
2842.15613	6304.25
2844.68186	6337.05
2847.20604	6322.05
2849.72867	6341.45
2852.24974	6338.95
2854.76927	6339.65
2857.28724	6332.15
2859.80367	6306.25
2862.31855	6309.85
2864.83189	6277.55
2867.34368	6275.15
2869.85393	6263.15
2872.36264	6262.15
2874.8698	6265.05
2877.37543	6245.95
2879.87952	6275.45
2882.38207	6258.15
2884.88308	6244.05
2887.38256	6247.05
2889.88051	6240.85
2892.37692	6222.75
2894.8718	6219.55
2897.36515	6251.35
2899.85698	6244.85
2902.34727	6220.55
2904.83604	6245.55
2907.32328	6246.15
2909.809	6223.15
2912.29319	6235.05
2914.77587	6229.45
2917.25702	6228.85
2919.73665	6212.85
2922.21476	6228.05
2924.69136	6209.75
2927.16644	6217.85
2929.64	6210.35
2932.11205	6207.45
2934.58258	6209.25
2937.05161	6210.95
2939.51912	6205.45
2941.98513	6201.45
2944.44962	6169.95
2946.91261	6153.95
2949.37409	6144.75
2951.83407	6143.85
2954.29254	6137.15
2956.74951	6101.75
2959.20498	6124.65
2961.65895	6096.45
2964.11142	6095.75
2966.56239	6081.75
2969.01186	6075.45
2971.45984	6046.65
2973.90632	6034.35
2976.35131	6024.95
2978.7948	6023.35
2981.23681	5995.35
2983.67732	5981.95
2986.11635	5964.35
2988.55388	5950.85
2990.98993	5945.95
2993.4245	5947.15
2995.85758	5949.35
2998.28917	5919.15
3000.71928	5912.75
3003.14791	5907.75
3005.57506	5893.35
3008.00073	5888.85
3010.42493	5881.65
3012.84764	5873.35
3015.26888	5840.95
3017.68865	5841.25
3020.10694	5851.25
3022.52376	5823.55
3024.9391	5803.95
3027.35298	5798.95
3029.76539	5823.65
3032.17632	5786.95
3034.5858	5785.85
3036.9938	5781.15
3039.40034	5789.15
3041.80542	5775.35
3044.20903	5771.95
3046.61118	5783.05
3049.01187	5748.55
3051.4111	5751.15
3053.80888	5739.25
3056.20519	5727.85
3058.60005	5712.85
3060.99345	5700.35
3063.3854	5704.25
3065.7759	5690.95
3068.16494	5684.75
3070.55254	5666.05
3072.93868	5664.65
3075.32338	5659.35
3077.70662	5638.85
3080.08842	5618.15
3082.46878	5625.75
3084.84769	5635.95
3087.22515	5627.35
3089.60118	5619.55
3091.97576	5640.35
3094.3489	5628.65
3096.72061	5628.35
3099.09087	5634.85
3101.4597	5620.05
3103.82709	5619.75
3106.19305	5625.55
3108.55757	5616.25
3110.92066	5594.55
3113.28232	5600.45
3115.64255	5582.45
3118.00134	5579.95
3120.35871	5573.45
3122.71466	5575.05
3125.06917	5567.35
3127.42226	5551.35
3129.77393	5568.75
3132.12417	5565.25
3134.47299	5554.05
3136.82039	5565.15
3139.16636	5577.25
3141.51092	5566.25
3143.85406	5560.45
3146.19579	5574.45
3148.53609	5582.05
3150.87499	5603.65
3153.21246	5590.95
3155.54853	5606.85
3157.88318	5619.35
3160.21642	5624.65
3162.54826	5598.95
3164.87868	5592.75
3167.2077	5617.15
3169.5353	5617.25
3171.86151	5612.85
3174.18631	5596.85
3176.5097	5616.65
3178.83169	5606.35
3181.15228	5592.35
3183.47147	5595.55
3185.78926	5610.45
3188.10565	5602.95
3190.42065	5591.15
3192.73424	5587.85
3195.04645	5598.95
3197.35725	5585.55
3199.66667	5606.85
3201.97469	5601.35
3204.28132	5592.85
3206.58656	5600.25
3208.8904	5621.15
3211.19287	5605.75
3213.49394	5611.85
3215.79363	5614.85
3218.09193	5606.65
3220.38884	5613.95
3222.68438	5619.75
3224.97853	5617.05
3227.2713	5614.55
3229.56269	5591.65
3231.8527	5603.35
3234.14133	5591.65
3236.42858	5572.25
3238.71446	5576.75
3240.99896	5557.85
3243.28209	5561.35
3245.56384	5558.35
3247.84423	5562.25
3250.12324	5553.25
3252.40088	5568.25
3254.67715	5552.05
3256.95205	5532.95
3259.22558	5540.35
3261.49775	5527.75
3263.76855	5520.55
3266.03799	5515.05
3268.30606	5498.05
3270.57277	5494.05
3272.83812	5480.55
3275.10211	5458.05
3277.36474	5457.85
3279.62601	5449.75
3281.88593	5450.95
3284.14448	5455.65
3286.40168	5453.65
3288.65753	5441.45
3290.91202	5442.75
3293.16516	5404.55
3295.41695	5397.05
3297.66738	5375.95
3299.91647	5355.45
3302.16421	5318.05
3304.4106	5309.25
3306.65564	5257.85
3308.89933	5217.65
3311.14169	5198.55
3313.38269	5172.35
3315.62236	5135.85
3317.86068	5083.85
3320.09766	5052.35
3322.3333	4999.05
3324.5676	4997.65
3326.80056	4932.35
3329.03219	4892.45
3331.26248	3.35
3333.49143	-0.85
3335.71905	-0.75
