Data from AgNP_FTO_APTES_CRN_0uM_R6G_10uM_NaF_0.1M_Addition_RamanShift__26__12-00-02-926.txt Node

Date: Wed Dec 15 12:00:02 GMT 2021
User: TCL
Spectrometer: QEP01345
Trigger mode: 4
Integration Time (sec): 7.000000E0
Scans to average: 10
Electric dark correction enabled: true
Nonlinearity correction enabled: false
Boxcar width: 0
XAxis mode: Raman Shifts
Number of Pixels in Spectrum: 1044
>>>>>Begin Spectral Data<<<<<
46.04893	0.65
50.45542	-0.15
54.85868	-0.55
59.25871	0.35
63.6555	61.45
68.04907	66.05
72.43941	70.15
76.82654	75.95
81.21044	80.25
85.59113	88.85
89.96862	94.15
94.34289	88.95
98.71396	95.95
103.08183	102.65
107.4465	103.75
111.80798	99.85
116.16626	102.25
120.52136	102.25
124.87327	105.15
129.222	105.85
133.56755	106.65
137.90993	111.55
142.24913	114.15
146.58517	120.45
150.91804	135.35
155.24774	146.95
159.57429	176.05
163.89768	215.65
168.21792	264.35
172.53501	347.95
176.84895	468.15
181.15975	642.55
185.46741	869.15
189.77193	1199.75
194.07331	1594.05
198.37157	2039.35
202.6667	2520.75
206.9587	2981.55
211.24758	3458.85
215.53334	3924.15
219.81599	4433.85
224.09553	5025.55
228.37195	5627.55
232.64527	6316.45
236.91549	6983.15
241.18261	7611.05
245.44663	8130.35
249.70755	8564.05
253.96539	8891.25
258.22014	9162.45
262.4718	9445.15
266.72039	9624.85
270.96589	9717.15
275.20832	9646.75
279.44768	9471.75
283.68397	9273.75
287.91719	9103.85
292.14735	9033.95
296.37445	9109.25
300.59849	9329.25
304.81948	9657.95
309.03742	9917.85
313.25231	9947.45
317.46415	9739.75
321.67296	9272.05
325.87872	8877.75
330.08145	8696.85
334.28114	8676.55
338.47781	8764.35
342.67145	8916.65
346.86207	9129.05
351.04966	9474.85
355.23424	9889.55
359.4158	10218.45
363.59435	10404.65
367.76989	10432.15
371.94243	10403.75
376.11196	10377.75
380.27849	10364.55
384.44203	10274.85
388.60257	10154.25
392.76012	10100.65
396.91468	10134.45
401.06626	10273.05
405.21485	10454.95
409.36047	10312.15
413.50311	10029.25
417.64277	9860.35
421.77947	9729.45
425.9132	9359.55
430.04396	9211.25
434.17176	9307.65
438.2966	9492.65
442.41849	9859.85
446.53742	10282.05
450.6534	10682.55
454.76644	10820.85
458.87653	10680.95
462.98368	10370.75
467.08789	10023.55
471.18916	9737.65
475.2875	9438.95
479.38291	9223.25
483.4754	9074.35
487.56496	8939.15
491.6516	8901.45
495.73531	8887.55
499.81612	8921.65
503.89401	9049.35
507.96899	9176.95
512.04106	9356.75
516.11023	9545.75
520.1765	9740.65
524.23987	9806.35
528.30034	9760.95
532.35792	9648.25
536.41261	9435.55
540.46441	9185.45
544.51333	8996.45
548.55936	9002.45
552.60252	9160.95
556.64279	9401.75
560.6802	9590.45
564.71473	9606.65
568.7464	9742.25
572.7752	9846.85
576.80114	9624.25
580.82422	9357.85
584.84444	9393.95
588.86181	9840.65
592.87633	10621.35
596.888	11135.95
600.89682	10985.35
604.9028	11175.05
608.90594	13077.05
612.90624	15923.65
616.90371	15509.45
620.89834	11447.35
624.89015	9297.65
628.87913	8843.35
632.86528	8815.85
636.84862	8893.35
640.82913	8812.45
644.80683	8528.55
648.78172	8304.15
652.75379	8319.35
656.72306	8597.55
660.68952	8921.95
664.65319	8821.35
668.61405	8432.35
672.57211	8241.25
676.52738	8231.95
680.47986	8230.15
684.42955	8166.85
688.37646	8113.65
692.32058	8101.95
696.26192	8178.05
700.20048	8301.35
704.13626	8404.05
708.06928	8391.65
711.99952	8346.85
715.927	8367.95
719.85171	8397.25
723.77365	8411.95
727.69284	8334.65
731.60928	8277.75
735.52295	8274.55
739.43388	8302.45
743.34206	8331.95
747.24749	8355.75
751.15017	8356.95
755.05012	8458.45
758.94733	8709.85
762.8418	9435.75
766.73354	10811.65
770.62254	12373.85
774.50882	13219.45
778.39237	12624.65
782.27321	11119.05
786.15132	9651.85
790.02671	8756.95
793.89938	8335.95
797.76935	8159.95
801.6366	8044.35
805.50115	7998.35
809.36299	7929.45
813.22213	7868.05
817.07857	7847.75
820.93231	7803.25
824.78336	7810.15
828.63172	7827.05
832.47738	7862.15
836.32036	7882.65
840.16066	7848.65
843.99827	7842.35
847.8332	7809.15
851.66546	7786.15
855.49504	7778.65
859.32195	7750.05
863.1462	7725.25
866.96777	7682.45
870.78668	7667.95
874.60293	7651.55
878.41652	7664.55
882.22745	7705.65
886.03573	7731.85
889.84136	7730.15
893.64433	7723.45
897.44466	7712.15
901.24235	7744.05
905.0374	7745.45
908.8298	7763.65
912.61957	7813.75
916.40671	7879.65
920.19121	7980.85
923.97308	8104.95
927.75233	8215.15
931.52895	8267.85
935.30295	8148.55
939.07433	7922.15
942.84309	7692.15
946.60924	7549.15
950.37278	7452.15
954.13371	7383.45
957.89203	7304.55
961.64774	7241.65
965.40086	7192.25
969.15137	7158.95
972.89929	7137.75
976.64461	7101.85
980.38733	7121.25
984.12747	7115.15
987.86502	7171.35
991.59999	7199.15
995.33237	7312.95
999.06217	7467.25
1002.78939	7643.55
1006.51404	7809.95
1010.23611	7917.05
1013.95561	7990.05
1017.67255	7933.75
1021.38692	7769.25
1025.09872	7564.65
1028.80796	7416.65
1032.51465	7395.75
1036.21877	7445.55
1039.92035	7515.45
1043.61937	7589.05
1047.31584	7633.65
1051.00976	7675.35
1054.70114	7681.65
1058.38998	7706.65
1062.07627	7742.25
1065.76003	7804.75
1069.44126	7878.25
1073.11995	8057.45
1076.79611	8195.85
1080.46974	8355.85
1084.14085	8382.65
1087.80943	8405.75
1091.47549	8343.55
1095.13903	8078.45
1098.80005	7723.55
1102.45857	7456.65
1106.11456	7341.25
1109.76805	7379.95
1113.41903	7538.25
1117.06751	7729.45
1120.71348	7960.75
1124.35696	8251.15
1127.99793	8514.05
1131.63641	8557.45
1135.2724	8228.15
1138.90589	7830.15
1142.5369	7605.55
1146.16542	7427.55
1149.79145	7319.95
1153.415	7274.35
1157.03607	7295.65
1160.65467	7411.15
1164.27079	7704.05
1167.88443	8186.15
1171.49561	9056.45
1175.10432	10341.15
1178.71056	12086.55
1182.31434	13469.75
1185.91565	13758.45
1189.51451	13101.15
1193.11091	12019.95
1196.70485	10979.85
1200.29634	10122.45
1203.88538	9445.45
1207.47197	8750.25
1211.05612	8199.95
1214.63782	7970.35
1218.21708	8041.15
1221.79391	8258.95
1225.36829	8391.75
1228.94024	8360.45
1232.50976	8127.75
1236.07685	7881.25
1239.6415	7690.45
1243.20374	7609.85
1246.76355	7609.65
1250.32093	7655.85
1253.8759	7760.95
1257.42845	7977.45
1260.97859	8233.55
1264.52631	8554.55
1268.07163	8840.05
1271.61453	9115.05
1275.15503	9324.45
1278.69312	9471.35
1282.22882	9595.05
1285.76211	9899.45
1289.29301	10393.65
1292.82151	10915.65
1296.34761	11484.45
1299.87133	12145.05
1303.39266	13133.35
1306.9116	14599.35
1310.42815	16421.75
1313.94233	17800.35
1317.45412	17658.65
1320.96354	16317.05
1324.47058	14536.85
1327.97525	12945.15
1331.47754	11883.45
1334.97747	11442.45
1338.47502	11375.15
1341.97022	11431.65
1345.46305	11715.95
1348.95352	12472.55
1352.44163	13843.65
1355.92738	15829.85
1359.41078	18487.05
1362.89183	21196.45
1366.37053	21507.45
1369.84688	18560.55
1373.32088	14797.55
1376.79254	12286.85
1380.26186	11066.15
1383.72883	10567.55
1387.19347	10188.95
1390.65578	9750.55
1394.11575	9453.05
1397.57339	9384.35
1401.0287	9432.45
1404.48168	9508.55
1407.93234	9515.35
1411.38068	9420.85
1414.82669	9299.95
1418.27039	9101.35
1421.71177	8905.35
1425.15083	8661.55
1428.58758	8551.35
1432.02203	8667.15
1435.45416	8855.95
1438.88399	9047.05
1442.31151	9100.15
1445.73673	9164.15
1449.15965	9149.15
1452.58027	9052.35
1455.9986	8819.55
1459.41463	8624.15
1462.82837	8638.15
1466.23982	8852.45
1469.64898	9153.35
1473.05586	9375.55
1476.46045	9483.45
1479.86276	9605.85
1483.26279	9705.55
1486.66054	9802.85
1490.05602	9980.05
1493.44922	10209.55
1496.84016	10586.95
1500.22882	11325.45
1503.61521	12588.95
1506.99934	14197.15
1510.38121	15928.15
1513.76081	16856.95
1517.13816	16214.25
1520.51324	14283.95
1523.88607	12195.35
1527.25665	10852.05
1530.62498	10131.85
1533.99105	9785.45
1537.35488	9474.15
1540.71647	9232.75
1544.07581	9039.25
1547.4329	8877.95
1550.78776	8724.05
1554.14038	8613.65
1557.49077	8607.35
1560.83892	8718.65
1564.18484	8953.75
1567.52853	9332.15
1570.86999	9794.55
1574.20922	10272.55
1577.54624	10598.45
1580.88103	10370.85
1584.2136	9667.35
1587.54395	9098.75
1590.87208	8956.15
1594.19801	9426.55
1597.52172	10323.95
1600.84321	10975.25
1604.16251	10768.45
1607.47959	9872.35
1610.79447	8768.95
1614.10715	7746.65
1617.41763	7062.35
1620.7259	6659.45
1624.03199	6488.95
1627.33587	6496.45
1630.63757	6642.55
1633.93707	7045.35
1637.23439	7719.95
1640.52951	8932.75
1643.82246	10618.85
1647.11321	12451.35
1650.40179	13478.95
1653.68819	12865.25
1656.97241	10837.85
1660.25446	8664.75
1663.53433	7150.25
1666.81203	6291.45
1670.08756	5800.15
1673.36092	5513.85
1676.63211	5340.55
1679.90115	5194.15
1683.16801	5115.25
1686.43272	5043.45
1689.69527	4997.25
1692.95567	4951.95
1696.2139	4921.15
1699.46999	4892.75
1702.72392	4872.15
1705.97571	4869.05
1709.22535	4855.75
1712.47284	4833.65
1715.71819	4846.45
1718.96139	4831.45
1722.20246	4794.55
1725.44139	4775.65
1728.67818	4719.95
1731.91284	4690.35
1735.14537	4645.65
1738.37576	4606.15
1741.60403	4592.45
1744.83017	4580.05
1748.05418	4547.45
1751.27607	4521.25
1754.49584	4494.45
1757.71349	4485.65
1760.92903	4466.45
1764.14244	4451.65
1767.35375	4446.15
1770.56294	4431.15
1773.77002	4414.75
1776.97499	4421.55
1780.17785	4386.45
1783.37861	4375.65
1786.57727	4355.65
1789.77382	4356.05
1792.96828	4337.75
1796.16064	4331.65
1799.3509	4311.25
1802.53907	4301.15
1805.72514	4300.65
1808.90913	4266.55
1812.09102	4251.05
1815.27083	4228.15
1818.44856	4227.35
1821.6242	4211.35
1824.79776	4205.45
1827.96924	4200.35
1831.13864	4196.25
1834.30597	4168.45
1837.47122	4157.75
1840.6344	4157.25
1843.7955	4162.25
1846.95454	4148.35
1850.11151	4140.05
1853.26642	4130.55
1856.41926	4131.75
1859.57004	4111.55
1862.71876	4109.15
1865.86542	4104.35
1869.01003	4108.65
1872.15258	4097.15
1875.29308	4085.75
1878.43152	4091.85
1881.56792	4097.95
1884.70227	4094.05
1887.83457	4080.85
1890.96482	4079.45
1894.09304	4076.15
1897.21921	4067.75
1900.34335	4082.25
1903.46544	4078.35
1906.58551	4068.35
1909.70353	4070.05
1912.81953	4070.65
1915.93349	4055.95
1919.04543	4040.75
1922.15534	4032.45
1925.26322	4012.95
1928.36908	3986.95
1931.47292	3969.35
1934.57473	3950.45
1937.67453	3929.15
1940.77232	3921.25
1943.86808	3908.45
1946.96184	3892.05
1950.05358	3859.75
1953.14331	3837.75
1956.23103	3837.65
1959.31675	3812.45
1962.40046	3818.05
1965.48217	3802.75
1968.56188	3796.45
1971.63959	3775.45
1974.7153	3757.45
1977.78901	3743.45
1980.86073	3723.65
1983.93046	3720.25
1986.99819	3696.35
1990.06394	3675.25
1993.1277	3666.15
1996.18947	3665.15
1999.24925	3634.35
2002.30706	3617.45
2005.36288	3619.65
2008.41672	3612.15
2011.46859	3586.65
2014.51848	3568.65
2017.56639	3562.15
2020.61233	3544.45
2023.6563	3537.55
2026.6983	3531.25
2029.73833	3511.55
2032.7764	3510.55
2035.8125	3499.25
2038.84664	3486.85
2041.87881	3487.75
2044.90903	3458.45
2047.93729	3454.25
2050.96359	3447.55
2053.98794	3443.45
2057.01034	3443.55
2060.03078	3431.95
2063.04927	3414.05
2066.06582	3427.35
2069.08042	3426.45
2072.09307	3434.25
2075.10378	3404.45
2078.11255	3397.35
2081.11938	3403.75
2084.12426	3394.95
2087.12722	3392.35
2090.12824	3394.35
2093.12732	3388.65
2096.12447	3376.85
2099.11969	3374.65
2102.11299	3380.65
2105.10435	3391.45
2108.09379	3374.65
2111.08131	3365.65
2114.0669	3376.65
2117.05057	3363.85
2120.03233	3380.65
2123.01216	3365.15
2125.99008	3379.65
2128.96609	3367.85
2131.94018	3369.55
2134.91236	3357.15
2137.88263	3365.55
2140.851	3363.25
2143.81746	3361.05
2146.78201	3361.15
2149.74466	3369.75
2152.7054	3343.35
2155.66425	3360.25
2158.6212	3340.45
2161.57625	3341.45
2164.52941	3336.05
2167.48067	3329.95
2170.43004	3327.45
2173.37752	3311.05
2176.32311	3306.25
2179.26681	3318.25
2182.20863	3321.55
2185.14856	3329.55
2188.08661	3331.05
2191.02278	3328.85
2193.95707	3317.45
2196.88948	3298.95
2199.82001	3311.75
2202.74867	3301.75
2205.67545	3295.05
2208.60037	3279.25
2211.52341	3278.95
2214.44458	3277.65
2217.36388	3249.25
2220.28132	3252.95
2223.1969	3237.85
2226.11061	3239.45
2229.02246	3215.85
2231.93245	3210.35
2234.84058	3201.95
2237.74686	3197.45
2240.65128	3209.55
2243.55385	3203.65
2246.45456	3191.75
2249.35343	3180.35
2252.25044	3171.85
2255.14561	3184.15
2258.03893	3172.05
2260.93041	3154.55
2263.82004	3161.35
2266.70783	3146.15
2269.59378	3131.55
2272.4779	3118.25
2275.36017	3115.95
2278.24061	3121.25
2281.11922	3102.85
2283.996	3088.45
2286.87094	3078.95
2289.74405	3065.65
2292.61534	3071.95
2295.4848	3058.15
2298.35243	3056.65
2301.21824	3037.15
2304.08223	3054.05
2306.94439	3035.15
2309.80474	3037.25
2312.66327	3027.75
2315.51999	3024.55
2318.37489	3034.55
2321.22797	3028.35
2324.07925	3007.35
2326.92871	3012.85
2329.77637	3003.85
2332.62222	2984.35
2335.46626	2992.45
2338.3085	2992.25
2341.14893	2989.05
2343.98756	2986.65
2346.8244	2985.85
2349.65943	3017.45
2352.49267	2999.15
2355.32411	2987.75
2358.15376	2976.45
2360.98161	2988.55
2363.80768	2992.65
2366.63195	2997.95
2369.45444	2995.65
2372.27514	2988.65
2375.09405	2985.95
2377.91118	2980.55
2380.72652	2967.65
2383.54009	2942.85
2386.35187	2920.65
2389.16188	2921.15
2391.97011	2913.45
2394.77657	2900.55
2397.58125	2895.75
2400.38416	2887.45
2403.18529	2867.25
2405.98466	2867.25
2408.78226	2850.65
2411.57809	2845.55
2414.37216	2836.25
2417.16446	2840.05
2419.955	2833.05
2422.74378	2830.55
2425.5308	2835.55
2428.31606	2821.65
2431.09956	2818.95
2433.88131	2814.25
2436.6613	2817.05
2439.43954	2804.65
2442.21603	2820.65
2444.99077	2809.65
2447.76377	2811.05
2450.53501	2810.55
2453.30451	2807.55
2456.07226	2795.75
2458.83827	2811.35
2461.60254	2800.15
2464.36507	2806.45
2467.12586	2796.45
2469.88492	2788.85
2472.64224	2783.75
2475.39782	2786.05
2478.15167	2802.55
2480.90379	2793.55
2483.65417	2803.55
2486.40283	2805.25
2489.14976	2811.65
2491.89497	2811.05
2494.63845	2820.35
2497.3802	2813.45
2500.12024	2804.45
2502.85855	2799.55
2505.59514	2780.85
2508.33002	2773.45
2511.06318	2750.75
2513.79462	2734.95
2516.52435	2737.95
2519.25237	2714.85
2521.97867	2701.75
2524.70327	2710.15
2527.42616	2701.25
2530.14734	2691.75
2532.86681	2686.35
2535.58458	2683.35
2538.30065	2686.75
2541.01501	2681.55
2543.72768	2687.25
2546.43864	2684.15
2549.14791	2683.05
2551.85548	2675.65
2554.56136	2673.05
2557.26554	2669.85
2559.96803	2663.95
2562.66883	2663.25
2565.36794	2664.05
2568.06536	2658.85
2570.7611	2642.95
2573.45514	2652.65
2576.14751	2648.45
2578.83819	2632.75
2581.52719	2614.05
2584.21451	2624.75
2586.90015	2626.95
2589.58411	2617.55
2592.2664	2602.25
2594.94701	2615.35
2597.62594	2605.65
2600.30321	2592.65
2602.9788	2606.35
2605.65273	2597.25
2608.32498	2585.25
2610.99557	2589.05
2613.66449	2596.25
2616.33175	2592.25
2618.99734	2587.15
2621.66128	2586.95
2624.32355	2567.75
2626.98416	2564.65
2629.64311	2579.75
2632.30041	2562.45
2634.95605	2556.75
2637.61004	2555.95
2640.26238	2561.65
2642.91306	2555.15
2645.56209	2560.85
2648.20948	2560.55
2650.85521	2538.55
2653.4993	2549.05
2656.14175	2549.45
2658.78255	2552.55
2661.42171	2563.05
2664.05923	2568.55
2666.6951	2561.65
2669.32934	2567.05
2671.96194	2567.95
2674.59291	2566.65
2677.22224	2564.65
2679.84993	2562.45
2682.476	2574.05
2685.10043	2558.45
2687.72324	2559.75
2690.34441	2571.15
2692.96396	2552.65
2695.58188	2557.65
2698.19818	2552.45
2700.81285	2556.35
2703.4259	2560.95
2706.03733	2560.05
2708.64714	2559.15
2711.25533	2574.35
2713.86191	2585.35
2716.46687	2581.05
2719.07021	2594.25
2721.67194	2596.75
2724.27206	2600.95
2726.87057	2595.15
2729.46747	2609.55
2732.06276	2629.85
2734.65644	2616.05
2737.24852	2634.95
2739.83899	2622.95
2742.42786	2633.25
2745.01513	2649.35
2747.60079	2649.15
2750.18486	2656.05
2752.76733	2655.75
2755.3482	2655.25
2757.92747	2674.05
2760.50515	2672.75
2763.08123	2669.05
2765.65573	2669.25
2768.22863	2670.95
2770.79994	2679.75
2773.36967	2687.25
2775.9378	2683.35
2778.50435	2690.55
2781.06932	2691.45
2783.6327	2699.55
2786.1945	2701.05
2788.75471	2710.55
2791.31335	2712.05
2793.87041	2720.95
2796.42589	2719.05
2798.97979	2735.45
2801.53212	2729.85
2804.08288	2718.85
2806.63206	2740.55
2809.17967	2734.75
2811.72571	2745.75
2814.27018	2746.25
2816.81308	2744.15
2819.35442	2743.65
2821.89419	2750.25
2824.43239	2751.65
2826.96904	2764.85
2829.50412	2766.35
2832.03763	2760.35
2834.56959	2772.95
2837.1	2784.65
2839.62884	2795.05
2842.15613	2808.15
2844.68186	2860.05
2847.20604	2880.35
2849.72867	2917.35
2852.24974	2948.75
2854.76927	2969.85
2857.28724	2974.75
2859.80367	2995.65
2862.31855	3015.45
2864.83189	3029.95
2867.34368	3042.45
2869.85393	3057.15
2872.36264	3070.45
2874.8698	3081.05
2877.37543	3089.65
2879.87952	3112.95
2882.38207	3115.35
2884.88308	3108.85
2887.38256	3115.95
2889.88051	3134.85
2892.37692	3133.05
2894.8718	3120.65
2897.36515	3137.05
2899.85698	3120.65
2902.34727	3127.75
2904.83604	3104.25
2907.32328	3109.15
2909.809	3115.65
2912.29319	3108.75
2914.77587	3108.15
2917.25702	3100.75
2919.73665	3102.75
2922.21476	3096.05
2924.69136	3079.55
2927.16644	3077.55
2929.64	3061.95
2932.11205	3039.75
2934.58258	3012.45
2937.05161	2991.05
2939.51912	2974.05
2941.98513	2926.95
2944.44962	2883.15
2946.91261	2818.25
2949.37409	2816.15
2951.83407	2769.05
2954.29254	2736.45
2956.74951	2709.85
2959.20498	2674.15
2961.65895	2647.75
2964.11142	2625.45
2966.56239	2608.65
2969.01186	2568.15
2971.45984	2529.75
2973.90632	2516.85
2976.35131	2487.45
2978.7948	2470.85
2981.23681	2452.25
2983.67732	2426.05
2986.11635	2410.75
2988.55388	2399.65
2990.98993	2377.05
2993.4245	2360.15
2995.85758	2354.95
2998.28917	2336.05
3000.71928	2322.85
3003.14791	2321.45
3005.57506	2320.05
3008.00073	2304.05
3010.42493	2299.95
3012.84764	2299.85
3015.26888	2295.85
3017.68865	2284.95
3020.10694	2292.45
3022.52376	2288.95
3024.9391	2262.75
3027.35298	2265.75
3029.76539	2265.05
3032.17632	2263.35
3034.5858	2250.25
3036.9938	2252.75
3039.40034	2249.65
3041.80542	2245.25
3044.20903	2245.15
3046.61118	2234.35
3049.01187	2230.45
3051.4111	2223.45
3053.80888	2231.05
3056.20519	2228.05
3058.60005	2225.65
3060.99345	2228.95
3063.3854	2228.65
3065.7759	2226.25
3068.16494	2224.65
3070.55254	2211.15
3072.93868	2218.65
3075.32338	2215.95
3077.70662	2212.85
3080.08842	2197.45
3082.46878	2204.85
3084.84769	2197.55
3087.22515	2199.55
3089.60118	2204.55
3091.97576	2209.15
3094.3489	2202.65
3096.72061	2201.55
3099.09087	2213.85
3101.4597	2214.35
3103.82709	2216.05
3106.19305	2208.25
3108.55757	2211.35
3110.92066	2206.45
3113.28232	2214.35
3115.64255	2204.45
3118.00134	2205.45
3120.35871	2208.05
3122.71466	2202.85
3125.06917	2207.75
3127.42226	2203.15
3129.77393	2223.75
3132.12417	2221.05
3134.47299	2239.25
3136.82039	2252.95
3139.16636	2250.75
3141.51092	2255.35
3143.85406	2251.65
3146.19579	2263.45
3148.53609	2263.35
3150.87499	2272.65
3153.21246	2276.85
3155.54853	2282.45
3157.88318	2285.05
3160.21642	2297.45
3162.54826	2293.05
3164.87868	2313.25
3167.2077	2306.35
3169.5353	2314.75
3171.86151	2314.55
3174.18631	2317.05
3176.5097	2328.85
3178.83169	2321.45
3181.15228	2329.65
3183.47147	2327.55
3185.78926	2336.75
3188.10565	2336.15
3190.42065	2340.55
3192.73424	2352.15
3195.04645	2351.55
3197.35725	2354.25
3199.66667	2350.85
3201.97469	2360.05
3204.28132	2352.95
3206.58656	2362.15
3208.8904	2373.15
3211.19287	2379.25
3213.49394	2387.25
3215.79363	2387.45
3218.09193	2399.65
3220.38884	2392.35
3222.68438	2385.25
3224.97853	2390.35
3227.2713	2397.15
3229.56269	2391.85
3231.8527	2406.55
3234.14133	2398.35
3236.42858	2396.25
3238.71446	2393.75
3240.99896	2399.35
3243.28209	2403.85
3245.56384	2401.95
3247.84423	2413.95
3250.12324	2428.65
3252.40088	2417.05
3254.67715	2425.55
3256.95205	2415.05
3259.22558	2416.85
3261.49775	2411.15
3263.76855	2417.15
3266.03799	2421.25
3268.30606	2417.35
3270.57277	2428.15
3272.83812	2423.25
3275.10211	2415.65
3277.36474	2411.35
3279.62601	2421.35
3281.88593	2415.15
3284.14448	2406.05
3286.40168	2404.55
3288.65753	2410.95
3290.91202	2401.25
3293.16516	2396.75
3295.41695	2385.45
3297.66738	2367.75
3299.91647	2359.85
3302.16421	2341.85
3304.4106	2341.65
3306.65564	2322.55
3308.89933	2290.95
3311.14169	2274.45
3313.38269	2272.35
3315.62236	2240.95
3317.86068	2236.85
3320.09766	2214.85
3322.3333	2195.55
3324.5676	2196.65
3326.80056	2146.55
3329.03219	2159.25
3331.26248	0.15
3333.49143	-1.25
3335.71905	0.75
