Data from AgNP_FTO_APTES_CRN_50uM_R6G_10uM_NaF_0.1M_Addition_RamanShift__10__17-57-38-068.txt Node

Date: Wed Dec 15 17:57:38 GMT 2021
User: TCL
Spectrometer: QEP01345
Trigger mode: 4
Integration Time (sec): 7.000000E0
Scans to average: 10
Electric dark correction enabled: true
Nonlinearity correction enabled: false
Boxcar width: 0
XAxis mode: Raman Shifts
Number of Pixels in Spectrum: 1044
>>>>>Begin Spectral Data<<<<<
46.04893	1.55
50.45542	-2.65
54.85868	0.15
59.25871	-1.15
63.6555	56.45
68.04907	61.45
72.43941	61.15
76.82654	70.75
81.21044	71.85
85.59113	73.85
89.96862	74.35
94.34289	70.65
98.71396	79.85
103.08183	84.65
107.4465	86.85
111.80798	85.45
116.16626	91.25
120.52136	92.95
124.87327	90.75
129.222	97.55
133.56755	102.35
137.90993	110.55
142.24913	117.45
146.58517	131.35
150.91804	148.75
155.24774	172.25
159.57429	218.05
163.89768	271.95
168.21792	356.15
172.53501	478.15
176.84895	669.05
181.15975	931.45
185.46741	1295.75
189.77193	1800.85
194.07331	2394.05
198.37157	3100.15
202.6667	3821.85
206.9587	4537.45
211.24758	5249.55
215.53334	5966.65
219.81599	6684.95
224.09553	7519.25
228.37195	8394.65
232.64527	9371.35
236.91549	10436.55
241.18261	11529.55
245.44663	12554.95
249.70755	13489.55
253.96539	14304.45
258.22014	14989.15
262.4718	15524.75
266.72039	15915.75
270.96589	16128.15
275.20832	16160.25
279.44768	16114.55
283.68397	15963.85
287.91719	15909.75
292.14735	15803.45
296.37445	15826.35
300.59849	15830.35
304.81948	15812.05
309.03742	15760.05
313.25231	15641.15
317.46415	15401.25
321.67296	15082.55
325.87872	14816.55
330.08145	14642.95
334.28114	14639.35
338.47781	14777.55
342.67145	14900.95
346.86207	15097.85
351.04966	15337.65
355.23424	15533.45
359.4158	15691.25
363.59435	15846.95
367.76989	15921.85
371.94243	15965.45
376.11196	16012.75
380.27849	16047.35
384.44203	16071.05
388.60257	16172.35
392.76012	16376.45
396.91468	16599.65
401.06626	16854.05
405.21485	17016.35
409.36047	17031.85
413.50311	16886.35
417.64277	16806.75
421.77947	16807.35
425.9132	16880.95
430.04396	16988.35
434.17176	17077.35
438.2966	17118.35
442.41849	17251.65
446.53742	17480.05
450.6534	17783.25
454.76644	18018.35
458.87653	18171.55
462.98368	18151.25
467.08789	18082.35
471.18916	17981.25
475.2875	17878.25
479.38291	17799.55
483.4754	17700.65
487.56496	17511.75
491.6516	17280.25
495.73531	17146.35
499.81612	17079.35
503.89401	17242.65
507.96899	17310.75
512.04106	17358.05
516.11023	17302.35
520.1765	17249.75
524.23987	17107.65
528.30034	16982.55
532.35792	16842.75
536.41261	16729.45
540.46441	16584.35
544.51333	16620.35
548.55936	16781.85
552.60252	17096.95
556.64279	17379.35
560.6802	17521.35
564.71473	17607.25
568.7464	17769.85
572.7752	18168.15
576.80114	18576.35
580.82422	19101.85
584.84444	19591.15
588.86181	19995.15
592.87633	20128.65
596.888	19937.45
600.89682	19524.55
604.9028	19541.65
608.90594	20256.95
612.90624	21102.35
616.90371	20053.35
620.89834	17858.05
624.89015	16889.25
628.87913	16790.45
632.86528	16923.65
636.84862	16997.75
640.82913	16837.15
644.80683	16562.65
648.78172	16391.65
652.75379	16374.75
656.72306	16448.05
660.68952	16608.95
664.65319	16591.45
668.61405	16446.45
672.57211	16405.55
676.52738	16443.95
680.47986	16448.85
684.42955	16426.35
688.37646	16354.15
692.32058	16453.55
696.26192	16543.15
700.20048	16691.15
704.13626	16874.45
708.06928	16941.15
711.99952	16921.65
715.927	16869.55
719.85171	16863.75
723.77365	16751.95
727.69284	16574.95
731.60928	16405.45
735.52295	16322.65
739.43388	16307.55
743.34206	16355.25
747.24749	16430.85
751.15017	16541.85
755.05012	16756.05
758.94733	17130.85
762.8418	17750.55
766.73354	18722.55
770.62254	19594.65
774.50882	19712.05
778.39237	18944.95
782.27321	17950.25
786.15132	17171.25
790.02671	16655.25
793.89938	16407.55
797.76935	16285.15
801.6366	16204.55
805.50115	16213.35
809.36299	16135.35
813.22213	16091.35
817.07857	16020.15
820.93231	16039.95
824.78336	15946.15
828.63172	15938.05
832.47738	15921.75
836.32036	15943.65
840.16066	15929.35
843.99827	15926.05
847.8332	15816.85
851.66546	15857.95
855.49504	15871.25
859.32195	15856.75
863.1462	15841.35
866.96777	15821.55
870.78668	15825.45
874.60293	15831.95
878.41652	15828.15
882.22745	15876.35
886.03573	15901.95
889.84136	15947.75
893.64433	15945.85
897.44466	15879.85
901.24235	15826.85
905.0374	15809.15
908.8298	15808.85
912.61957	15829.05
916.40671	15963.75
920.19121	16116.65
923.97308	16179.75
927.75233	16138.95
931.52895	16021.35
935.30295	15804.95
939.07433	15597.45
942.84309	15437.25
946.60924	15340.55
950.37278	15318.25
954.13371	15314.55
957.89203	15310.75
961.64774	15285.25
965.40086	15253.95
969.15137	15228.05
972.89929	15195.65
976.64461	15123.35
980.38733	15087.85
984.12747	15156.85
987.86502	15176.45
991.59999	15200.35
995.33237	15297.05
999.06217	15450.35
1002.78939	15638.55
1006.51404	15825.55
1010.23611	16060.05
1013.95561	16196.65
1017.67255	16189.45
1021.38692	16051.35
1025.09872	15907.25
1028.80796	15776.15
1032.51465	15747.35
1036.21877	15759.15
1039.92035	15844.25
1043.61937	15935.55
1047.31584	15991.55
1051.00976	16108.35
1054.70114	16245.05
1058.38998	16392.05
1062.07627	16728.65
1065.76003	17090.15
1069.44126	17516.65
1073.11995	17888.15
1076.79611	18059.35
1080.46974	17973.05
1084.14085	17712.25
1087.80943	17531.65
1091.47549	17430.15
1095.13903	17401.75
1098.80005	17213.95
1102.45857	16862.75
1106.11456	16548.55
1109.76805	16340.75
1113.41903	16297.35
1117.06751	16327.45
1120.71348	16442.15
1124.35696	16578.55
1127.99793	16806.35
1131.63641	16954.65
1135.2724	16865.75
1138.90589	16807.95
1142.5369	16786.45
1146.16542	16837.05
1149.79145	16935.25
1153.415	17021.95
1157.03607	17189.35
1160.65467	17512.35
1164.27079	18069.75
1167.88443	18740.65
1171.49561	19556.55
1175.10432	20559.05
1178.71056	21743.55
1182.31434	22904.55
1185.91565	23475.05
1189.51451	23498.95
1193.11091	23127.15
1196.70485	22486.75
1200.29634	21738.05
1203.88538	21145.85
1207.47197	20805.25
1211.05612	20533.75
1214.63782	20180.25
1218.21708	19757.95
1221.79391	19255.55
1225.36829	18889.05
1228.94024	18727.45
1232.50976	18607.95
1236.07685	18538.95
1239.6415	18470.65
1243.20374	18506.25
1246.76355	18602.45
1250.32093	18803.95
1253.8759	19088.25
1257.42845	19483.55
1260.97859	19951.65
1264.52631	20352.05
1268.07163	20719.05
1271.61453	21069.05
1275.15503	21461.65
1278.69312	21848.95
1282.22882	22286.85
1285.76211	22802.95
1289.29301	23434.55
1292.82151	24227.95
1296.34761	25127.15
1299.87133	26173.05
1303.39266	27152.35
1306.9116	28046.45
1310.42815	28836.25
1313.94233	29168.95
1317.45412	29230.05
1320.96354	29034.75
1324.47058	28935.05
1327.97525	28881.05
1331.47754	28887.65
1334.97747	28945.15
1338.47502	29056.35
1341.97022	29116.35
1345.46305	29130.35
1348.95352	29073.45
1352.44163	28931.15
1355.92738	29059.15
1359.41078	29548.55
1362.89183	29943.55
1366.37053	29449.25
1369.84688	27740.15
1373.32088	25621.95
1376.79254	24039.55
1380.26186	23301.45
1383.72883	23126.45
1387.19347	23011.85
1390.65578	22770.85
1394.11575	22572.65
1397.57339	22559.25
1401.0287	22640.75
1404.48168	22727.05
1407.93234	22613.25
1411.38068	22236.35
1414.82669	21687.65
1418.27039	20913.45
1421.71177	20251.55
1425.15083	19673.95
1428.58758	19441.45
1432.02203	19498.65
1435.45416	19837.35
1438.88399	20254.45
1442.31151	20545.45
1445.73673	20760.05
1449.15965	20962.85
1452.58027	21073.15
1455.9986	21159.55
1459.41463	21328.75
1462.82837	21623.45
1466.23982	22003.85
1469.64898	22326.85
1473.05586	22557.05
1476.46045	22684.05
1479.86276	22635.35
1483.26279	22559.35
1486.66054	22547.95
1490.05602	22706.05
1493.44922	23022.55
1496.84016	23391.75
1500.22882	23980.85
1503.61521	24739.25
1506.99934	25556.95
1510.38121	26067.25
1513.76081	26100.45
1517.13816	25641.35
1520.51324	25003.55
1523.88607	24464.45
1527.25665	24200.05
1530.62498	24062.85
1533.99105	23891.25
1537.35488	23596.05
1540.71647	23164.25
1544.07581	22604.55
1547.4329	22080.15
1550.78776	21580.65
1554.14038	21276.75
1557.49077	21090.05
1560.83892	21041.55
1564.18484	21159.85
1567.52853	21344.95
1570.86999	21735.05
1574.20922	22269.95
1577.54624	22887.65
1580.88103	23195.45
1584.2136	23172.15
1587.54395	23116.65
1590.87208	23181.35
1594.19801	23730.95
1597.52172	24398.05
1600.84321	24591.05
1604.16251	23828.35
1607.47959	22576.35
1610.79447	21245.35
1614.10715	19912.65
1617.41763	18755.65
1620.7259	17932.85
1624.03199	17464.85
1627.33587	17352.55
1630.63757	17624.55
1633.93707	18332.65
1637.23439	19593.95
1640.52951	21476.35
1643.82246	23721.35
1647.11321	25626.75
1650.40179	26200.95
1653.68819	25050.15
1656.97241	22658.65
1660.25446	20133.05
1663.53433	18108.85
1666.81203	16723.05
1670.08756	15794.55
1673.36092	15211.65
1676.63211	14808.75
1679.90115	14512.15
1683.16801	14323.85
1686.43272	14155.55
1689.69527	14042.25
1692.95567	13993.55
1696.2139	13922.25
1699.46999	13916.85
1702.72392	13868.25
1705.97571	13795.75
1709.22535	13771.75
1712.47284	13708.05
1715.71819	13709.85
1718.96139	13669.85
1722.20246	13636.25
1725.44139	13556.65
1728.67818	13529.15
1731.91284	13464.35
1735.14537	13394.05
1738.37576	13349.95
1741.60403	13306.25
1744.83017	13288.65
1748.05418	13244.95
1751.27607	13235.75
1754.49584	13202.55
1757.71349	13199.45
1760.92903	13201.85
1764.14244	13190.55
1767.35375	13170.55
1770.56294	13142.75
1773.77002	13125.25
1776.97499	13095.95
1780.17785	13062.55
1783.37861	13063.75
1786.57727	13005.65
1789.77382	12950.85
1792.96828	12957.35
1796.16064	12893.55
1799.3509	12915.55
1802.53907	12879.45
1805.72514	12817.15
1808.90913	12790.55
1812.09102	12797.05
1815.27083	12773.35
1818.44856	12741.45
1821.6242	12713.55
1824.79776	12722.75
1827.96924	12715.25
1831.13864	12701.65
1834.30597	12713.75
1837.47122	12701.65
1840.6344	12702.95
1843.7955	12673.95
1846.95454	12681.15
1850.11151	12635.75
1853.26642	12644.65
1856.41926	12661.85
1859.57004	12616.65
1862.71876	12610.35
1865.86542	12601.65
1869.01003	12557.35
1872.15258	12538.45
1875.29308	12532.05
1878.43152	12499.05
1881.56792	12494.15
1884.70227	12482.25
1887.83457	12440.75
1890.96482	12436.25
1894.09304	12409.75
1897.21921	12415.45
1900.34335	12371.45
1903.46544	12370.45
1906.58551	12337.15
1909.70353	12329.15
1912.81953	12305.45
1915.93349	12279.15
1919.04543	12267.15
1922.15534	12230.05
1925.26322	12203.65
1928.36908	12183.85
1931.47292	12155.75
1934.57473	12119.65
1937.67453	12111.25
1940.77232	12066.75
1943.86808	12028.65
1946.96184	12029.45
1950.05358	11978.35
1953.14331	11974.95
1956.23103	11917.55
1959.31675	11890.25
1962.40046	11862.65
1965.48217	11823.35
1968.56188	11766.45
1971.63959	11731.95
1974.7153	11657.65
1977.78901	11666.95
1980.86073	11637.25
1983.93046	11614.35
1986.99819	11557.95
1990.06394	11582.95
1993.1277	11464.45
1996.18947	11460.25
1999.24925	11418.15
2002.30706	11397.95
2005.36288	11361.05
2008.41672	11321.95
2011.46859	11285.55
2014.51848	11239.45
2017.56639	11240.35
2020.61233	11192.35
2023.6563	11165.35
2026.6983	11155.65
2029.73833	11137.35
2032.7764	11109.85
2035.8125	11080.65
2038.84664	11054.55
2041.87881	11034.85
2044.90903	10989.65
2047.93729	10979.95
2050.96359	10969.25
2053.98794	10973.45
2057.01034	10950.55
2060.03078	10950.45
2063.04927	10905.05
2066.06582	10918.85
2069.08042	10914.05
2072.09307	10882.35
2075.10378	10888.65
2078.11255	10895.55
2081.11938	10904.05
2084.12426	10870.55
2087.12722	10864.75
2090.12824	10890.45
2093.12732	10897.15
2096.12447	10870.85
2099.11969	10844.95
2102.11299	10878.05
2105.10435	10872.35
2108.09379	10892.85
2111.08131	10888.25
2114.0669	10900.15
2117.05057	10893.95
2120.03233	10905.95
2123.01216	10885.45
2125.99008	10912.85
2128.96609	10912.15
2131.94018	10920.35
2134.91236	10929.65
2137.88263	10941.95
2140.851	10929.45
2143.81746	10913.05
2146.78201	10963.25
2149.74466	10932.95
2152.7054	10941.75
2155.66425	10942.25
2158.6212	10959.45
2161.57625	10939.05
2164.52941	10945.85
2167.48067	10953.55
2170.43004	10914.65
2173.37752	10929.65
2176.32311	10914.35
2179.26681	10882.05
2182.20863	10899.85
2185.14856	10912.85
2188.08661	10900.75
2191.02278	10911.75
2193.95707	10870.15
2196.88948	10884.55
2199.82001	10835.95
2202.74867	10829.95
2205.67545	10833.15
2208.60037	10822.45
2211.52341	10805.35
2214.44458	10767.45
2217.36388	10768.15
2220.28132	10762.95
2223.1969	10713.45
2226.11061	10719.75
2229.02246	10705.35
2231.93245	10674.75
2234.84058	10633.45
2237.74686	10651.15
2240.65128	10636.45
2243.55385	10603.05
2246.45456	10583.45
2249.35343	10570.55
2252.25044	10546.75
2255.14561	10535.25
2258.03893	10531.05
2260.93041	10488.55
2263.82004	10496.25
2266.70783	10463.35
2269.59378	10452.05
2272.4779	10420.95
2275.36017	10371.55
2278.24061	10354.15
2281.11922	10292.95
2283.996	10313.95
2286.87094	10297.45
2289.74405	10246.15
2292.61534	10270.15
2295.4848	10252.95
2298.35243	10244.85
2301.21824	10237.95
2304.08223	10235.25
2306.94439	10192.15
2309.80474	10195.45
2312.66327	10177.75
2315.51999	10185.25
2318.37489	10167.75
2321.22797	10156.95
2324.07925	10159.05
2326.92871	10129.75
2329.77637	10126.25
2332.62222	10098.55
2335.46626	10103.85
2338.3085	10076.45
2341.14893	10086.05
2343.98756	10062.05
2346.8244	10061.05
2349.65943	10076.35
2352.49267	10037.55
2355.32411	10052.55
2358.15376	10009.35
2360.98161	10024.15
2363.80768	10025.55
2366.63195	10011.15
2369.45444	10004.25
2372.27514	9985.45
2375.09405	9974.45
2377.91118	9942.55
2380.72652	9935.15
2383.54009	9936.85
2386.35187	9907.75
2389.16188	9871.05
2391.97011	9866.55
2394.77657	9853.45
2397.58125	9823.45
2400.38416	9813.85
2403.18529	9791.45
2405.98466	9776.85
2408.78226	9743.45
2411.57809	9732.95
2414.37216	9740.65
2417.16446	9736.15
2419.955	9712.85
2422.74378	9722.55
2425.5308	9670.85
2428.31606	9674.45
2431.09956	9673.95
2433.88131	9636.35
2436.6613	9625.95
2439.43954	9647.25
2442.21603	9622.25
2444.99077	9609.25
2447.76377	9632.85
2450.53501	9611.45
2453.30451	9608.45
2456.07226	9577.95
2458.83827	9579.95
2461.60254	9595.25
2464.36507	9560.25
2467.12586	9564.85
2469.88492	9557.05
2472.64224	9544.35
2475.39782	9522.95
2478.15167	9557.55
2480.90379	9543.85
2483.65417	9540.75
2486.40283	9541.75
2489.14976	9529.55
2491.89497	9504.75
2494.63845	9521.95
2497.3802	9489.15
2500.12024	9493.55
2502.85855	9486.05
2505.59514	9481.85
2508.33002	9457.95
2511.06318	9469.45
2513.79462	9460.45
2516.52435	9448.85
2519.25237	9434.75
2521.97867	9427.15
2524.70327	9425.85
2527.42616	9380.85
2530.14734	9373.35
2532.86681	9369.35
2535.58458	9358.95
2538.30065	9349.65
2541.01501	9340.25
2543.72768	9324.15
2546.43864	9307.35
2549.14791	9299.65
2551.85548	9279.85
2554.56136	9270.95
2557.26554	9255.15
2559.96803	9261.25
2562.66883	9246.75
2565.36794	9248.95
2568.06536	9214.35
2570.7611	9226.35
2573.45514	9198.95
2576.14751	9181.55
2578.83819	9168.95
2581.52719	9141.15
2584.21451	9134.85
2586.90015	9119.95
2589.58411	9080.35
2592.2664	9066.25
2594.94701	9051.75
2597.62594	9068.45
2600.30321	9031.05
2602.9788	9031.45
2605.65273	9019.05
2608.32498	9024.65
2610.99557	8990.05
2613.66449	8995.15
2616.33175	8985.25
2618.99734	8972.55
2621.66128	8958.35
2624.32355	8957.35
2626.98416	8940.35
2629.64311	8932.75
2632.30041	8930.15
2634.95605	8909.95
2637.61004	8914.45
2640.26238	8884.85
2642.91306	8916.65
2645.56209	8887.15
2648.20948	8878.65
2650.85521	8858.95
2653.4993	8863.15
2656.14175	8864.15
2658.78255	8863.05
2661.42171	8882.55
2664.05923	8879.05
2666.6951	8873.75
2669.32934	8892.55
2671.96194	8876.55
2674.59291	8844.25
2677.22224	8873.45
2679.84993	8857.55
2682.476	8864.75
2685.10043	8863.65
2687.72324	8862.35
2690.34441	8860.85
2692.96396	8854.35
2695.58188	8851.15
2698.19818	8833.55
2700.81285	8882.95
2703.4259	8876.55
2706.03733	8916.55
2708.64714	8881.85
2711.25533	8916.65
2713.86191	8862.55
2716.46687	8896.25
2719.07021	8871.25
2721.67194	8871.85
2724.27206	8855.05
2726.87057	8850.55
2729.46747	8866.65
2732.06276	8842.65
2734.65644	8858.75
2737.24852	8871.25
2739.83899	8861.95
2742.42786	8826.75
2745.01513	8805.25
2747.60079	8816.05
2750.18486	8801.65
2752.76733	8795.35
2755.3482	8816.95
2757.92747	8779.65
2760.50515	8759.15
2763.08123	8779.95
2765.65573	8752.25
2768.22863	8753.55
2770.79994	8723.75
2773.36967	8739.45
2775.9378	8717.25
2778.50435	8718.15
2781.06932	8682.15
2783.6327	8696.45
2786.1945	8672.35
2788.75471	8652.25
2791.31335	8635.45
2793.87041	8631.75
2796.42589	8595.85
2798.97979	8610.75
2801.53212	8607.15
2804.08288	8574.75
2806.63206	8562.35
2809.17967	8548.25
2811.72571	8509.15
2814.27018	8537.15
2816.81308	8501.75
2819.35442	8484.55
2821.89419	8475.95
2824.43239	8472.55
2826.96904	8459.25
2829.50412	8471.25
2832.03763	8428.05
2834.56959	8429.05
2837.1	8415.15
2839.62884	8435.05
2842.15613	8431.85
2844.68186	8438.75
2847.20604	8445.25
2849.72867	8439.25
2852.24974	8434.85
2854.76927	8421.65
2857.28724	8439.75
2859.80367	8411.15
2862.31855	8388.55
2864.83189	8377.45
2867.34368	8349.35
2869.85393	8361.75
2872.36264	8368.95
2874.8698	8367.85
2877.37543	8355.15
2879.87952	8352.15
2882.38207	8337.95
2884.88308	8342.15
2887.38256	8335.75
2889.88051	8329.85
2892.37692	8331.25
2894.8718	8320.45
2897.36515	8335.35
2899.85698	8339.15
2902.34727	8336.05
2904.83604	8343.65
2907.32328	8319.65
2909.809	8346.35
2912.29319	8345.95
2914.77587	8331.45
2917.25702	8339.55
2919.73665	8318.05
2922.21476	8325.35
2924.69136	8323.65
2927.16644	8323.65
2929.64	8322.15
2932.11205	8305.25
2934.58258	8278.85
2937.05161	8315.85
2939.51912	8280.45
2941.98513	8265.85
2944.44962	8267.85
2946.91261	8244.35
2949.37409	8232.75
2951.83407	8233.85
2954.29254	8199.95
2956.74951	8203.65
2959.20498	8181.15
2961.65895	8203.35
2964.11142	8184.05
2966.56239	8174.05
2969.01186	8180.45
2971.45984	8129.75
2973.90632	8127.35
2976.35131	8101.25
2978.7948	8084.75
2981.23681	8064.75
2983.67732	8070.85
2986.11635	8060.15
2988.55388	8037.05
2990.98993	8012.35
2993.4245	8018.65
2995.85758	7980.75
2998.28917	7991.25
3000.71928	7957.45
3003.14791	7930.65
3005.57506	7927.15
3008.00073	7912.45
3010.42493	7916.95
3012.84764	7876.35
3015.26888	7867.55
3017.68865	7824.25
3020.10694	7864.15
3022.52376	7846.05
3024.9391	7823.55
3027.35298	7831.15
3029.76539	7825.75
3032.17632	7803.85
3034.5858	7795.25
3036.9938	7799.85
3039.40034	7775.35
3041.80542	7757.35
3044.20903	7754.85
3046.61118	7766.55
3049.01187	7735.55
3051.4111	7711.45
3053.80888	7711.65
3056.20519	7692.65
3058.60005	7671.25
3060.99345	7664.15
3063.3854	7653.65
3065.7759	7639.35
3068.16494	7651.35
3070.55254	7614.75
3072.93868	7598.75
3075.32338	7569.15
3077.70662	7547.25
3080.08842	7534.85
3082.46878	7542.65
3084.84769	7524.65
3087.22515	7516.45
3089.60118	7528.85
3091.97576	7511.05
3094.3489	7519.15
3096.72061	7496.85
3099.09087	7496.35
3101.4597	7504.85
3103.82709	7491.95
3106.19305	7483.45
3108.55757	7471.65
3110.92066	7458.25
3113.28232	7450.15
3115.64255	7422.15
3118.00134	7424.55
3120.35871	7397.65
3122.71466	7408.25
3125.06917	7375.15
3127.42226	7373.75
3129.77393	7400.75
3132.12417	7376.95
3134.47299	7369.45
3136.82039	7397.95
3139.16636	7394.15
3141.51092	7377.75
3143.85406	7395.05
3146.19579	7390.85
3148.53609	7409.35
3150.87499	7400.05
3153.21246	7382.75
3155.54853	7396.65
3157.88318	7417.65
3160.21642	7411.65
3162.54826	7399.55
3164.87868	7409.25
3167.2077	7391.05
3169.5353	7383.25
3171.86151	7375.65
3174.18631	7385.95
3176.5097	7397.55
3178.83169	7367.85
3181.15228	7368.45
3183.47147	7364.85
3185.78926	7366.45
3188.10565	7360.95
3190.42065	7360.05
3192.73424	7337.05
3195.04645	7338.75
3197.35725	7349.55
3199.66667	7356.35
3201.97469	7353.85
3204.28132	7360.55
3206.58656	7349.35
3208.8904	7355.15
3211.19287	7354.65
3213.49394	7338.85
3215.79363	7358.35
3218.09193	7345.95
3220.38884	7340.85
3222.68438	7383.65
3224.97853	7341.55
3227.2713	7325.15
3229.56269	7318.95
3231.8527	7312.65
3234.14133	7298.75
3236.42858	7276.25
3238.71446	7285.15
3240.99896	7257.25
3243.28209	7252.85
3245.56384	7264.55
3247.84423	7250.75
3250.12324	7248.85
3252.40088	7277.35
3254.67715	7233.15
3256.95205	7218.65
3259.22558	7225.25
3261.49775	7214.65
3263.76855	7198.35
3266.03799	7185.55
3268.30606	7172.05
3270.57277	7150.45
3272.83812	7143.95
3275.10211	7121.65
3277.36474	7106.45
3279.62601	7117.75
3281.88593	7109.05
3284.14448	7118.15
3286.40168	7112.15
3288.65753	7114.95
3290.91202	7078.75
3293.16516	7076.15
3295.41695	7050.45
3297.66738	7007.25
3299.91647	6970.95
3302.16421	6951.35
3304.4106	6908.05
3306.65564	6855.95
3308.89933	6840.45
3311.14169	6768.05
3313.38269	6728.65
3315.62236	6692.15
3317.86068	6621.25
3320.09766	6586.45
3322.3333	6522.95
3324.5676	6521.05
3326.80056	6410.75
3329.03219	6383.75
3331.26248	4.25
3333.49143	-1.45
3335.71905	-0.35
