Data from AgNP_FTO_APTES_CRN_1uM_R6G_10uM_NaF_0.1M_Addition_RamanShift__25__14-14-40-811.txt Node

Date: Wed Dec 15 14:14:40 GMT 2021
User: TCL
Spectrometer: QEP01345
Trigger mode: 4
Integration Time (sec): 7.000000E0
Scans to average: 10
Electric dark correction enabled: true
Nonlinearity correction enabled: false
Boxcar width: 0
XAxis mode: Raman Shifts
Number of Pixels in Spectrum: 1044
>>>>>Begin Spectral Data<<<<<
46.04893	1.55
50.45542	-2.55
54.85868	-2.35
59.25871	-0.85
63.6555	149.55
68.04907	161.25
72.43941	170.25
76.82654	177.65
81.21044	181.65
85.59113	193.75
89.96862	198.85
94.34289	199.95
98.71396	214.55
103.08183	220.45
107.4465	224.45
111.80798	225.05
116.16626	233.35
120.52136	246.35
124.87327	267.55
129.222	260.25
133.56755	272.05
137.90993	292.05
142.24913	315.45
146.58517	349.45
150.91804	403.95
155.24774	466.15
159.57429	582.85
163.89768	733.15
168.21792	961.55
172.53501	1304.95
176.84895	1802.45
181.15975	2503.75
185.46741	3513.55
189.77193	4815.25
194.07331	6432.55
198.37157	8276.05
202.6667	10206.45
206.9587	12125.85
211.24758	14001.85
215.53334	15913.45
219.81599	17952.55
224.09553	20253.25
228.37195	22780.45
232.64527	25588.45
236.91549	28487.55
241.18261	31313.45
245.44663	33918.85
249.70755	36155.65
253.96539	38083.15
258.22014	39810.35
262.4718	41277.95
266.72039	42339.15
270.96589	42944.35
275.20832	43122.15
279.44768	42917.45
283.68397	42466.65
287.91719	42125.65
292.14735	41972.75
296.37445	42112.45
300.59849	42510.55
304.81948	42973.35
309.03742	43300.85
313.25231	43053.45
317.46415	41944.35
321.67296	40339.85
325.87872	38991.75
330.08145	38435.25
334.28114	38382.05
338.47781	38753.95
342.67145	39415.95
346.86207	40299.65
351.04966	41507.65
355.23424	42858.55
359.4158	43986.75
363.59435	44690.35
367.76989	45041.05
371.94243	45225.65
376.11196	45329.05
380.27849	45353.15
384.44203	45405.15
388.60257	45492.55
392.76012	45730.15
396.91468	46386.25
401.06626	47245.65
405.21485	48024.45
409.36047	47831.45
413.50311	46860.75
417.64277	46008.85
421.77947	45635.75
425.9132	45661.65
430.04396	45970.65
434.17176	46180.15
438.2966	46666.85
442.41849	47465.15
446.53742	48704.65
450.6534	50176.35
454.76644	51302.35
458.87653	51859.35
462.98368	51600.25
467.08789	50898.35
471.18916	49885.85
475.2875	48770.15
479.38291	47973.45
483.4754	47349.35
487.56496	46834.25
491.6516	46274.05
495.73531	45837.45
499.81612	45702.15
503.89401	46037.65
507.96899	46272.85
512.04106	46367.95
516.11023	46491.25
520.1765	46560.85
524.23987	46357.15
528.30034	45891.35
532.35792	45303.85
536.41261	44547.25
540.46441	43810.25
544.51333	43698.05
548.55936	44115.45
552.60252	45022.15
556.64279	45829.85
560.6802	46301.25
564.71473	46645.45
568.7464	47522.95
572.7752	48655.45
576.80114	49020.45
580.82422	49359.45
584.84444	49859.55
588.86181	50511.35
592.87633	51350.55
596.888	52358.45
600.89682	53361.45
604.9028	56427.65
608.90594	63618.65
612.90624	70950.45
616.90371	66518.45
620.89834	53764.45
624.89015	48190.45
628.87913	47484.15
632.86528	47387.45
636.84862	46858.55
640.82913	45873.55
644.80683	44384.65
648.78172	43311.45
652.75379	43302.25
656.72306	44194.15
660.68952	45274.25
664.65319	45175.55
668.61405	44139.55
672.57211	43670.35
676.52738	43639.75
680.47986	43546.95
684.42955	43359.35
688.37646	43277.75
692.32058	43545.45
696.26192	43974.65
700.20048	44529.75
704.13626	44832.45
708.06928	44681.75
711.99952	44262.45
715.927	44163.15
719.85171	44250.65
723.77365	44013.55
727.69284	43522.95
731.60928	43027.15
735.52295	42919.05
739.43388	43062.95
743.34206	43222.25
747.24749	43518.95
751.15017	44026.75
755.05012	44876.75
758.94733	46413.55
762.8418	49336.05
766.73354	54032.25
770.62254	58546.45
774.50882	59759.95
778.39237	56668.75
782.27321	51608.15
786.15132	47382.95
790.02671	44967.55
793.89938	43912.15
797.76935	43527.75
801.6366	43394.55
805.50115	43194.45
809.36299	42849.85
813.22213	42645.65
817.07857	42602.55
820.93231	42566.45
824.78336	42521.45
828.63172	42604.35
832.47738	42733.85
836.32036	42823.15
840.16066	43104.55
843.99827	43333.45
847.8332	43235.15
851.66546	42853.05
855.49504	42710.35
859.32195	42581.65
863.1462	42332.95
866.96777	41992.45
870.78668	41811.85
874.60293	41881.95
878.41652	41842.45
882.22745	41957.65
886.03573	42194.85
889.84136	42099.15
893.64433	41866.85
897.44466	41621.45
901.24235	41661.75
905.0374	41551.75
908.8298	41536.75
912.61957	41656.45
916.40671	42092.05
920.19121	42797.45
923.97308	43588.65
927.75233	44032.35
931.52895	44051.05
935.30295	43377.05
939.07433	42369.75
942.84309	41677.05
946.60924	41461.95
950.37278	41327.85
954.13371	41002.75
957.89203	40646.15
961.64774	40417.95
965.40086	40288.05
969.15137	40181.55
972.89929	39993.85
976.64461	40044.05
980.38733	40138.75
984.12747	40438.85
987.86502	40982.95
991.59999	41711.65
995.33237	42846.65
999.06217	44677.55
1002.78939	46725.85
1006.51404	48107.65
1010.23611	48742.65
1013.95561	49071.75
1017.67255	48819.75
1021.38692	48070.15
1025.09872	47879.35
1028.80796	48968.45
1032.51465	51446.75
1036.21877	53550.95
1039.92035	53825.05
1043.61937	52557.75
1047.31584	50387.25
1051.00976	47958.15
1054.70114	46546.95
1058.38998	46146.15
1062.07627	46260.75
1065.76003	46584.65
1069.44126	47145.55
1073.11995	48169.75
1076.79611	49095.25
1080.46974	49658.25
1084.14085	49839.75
1087.80943	49979.75
1091.47549	49738.35
1095.13903	49011.55
1098.80005	47980.55
1102.45857	46837.95
1106.11456	46311.15
1109.76805	46249.55
1113.41903	46603.55
1117.06751	47122.85
1120.71348	47706.75
1124.35696	48339.45
1127.99793	49053.25
1131.63641	49352.05
1135.2724	48738.15
1138.90589	48095.05
1142.5369	47637.05
1146.16542	47293.75
1149.79145	47224.65
1153.415	47525.85
1157.03607	48156.55
1160.65467	49252.45
1164.27079	51043.35
1167.88443	53775.05
1171.49561	57522.75
1175.10432	62821.35
1178.71056	69491.55
1182.31434	75489.25
1185.91565	78460.75
1189.51451	78000.15
1193.11091	74549.15
1196.70485	69933.25
1200.29634	66127.05
1203.88538	63267.55
1207.47197	61089.95
1211.05612	59323.15
1214.63782	58292.35
1218.21708	58141.85
1221.79391	58412.95
1225.36829	58553.15
1228.94024	58154.85
1232.50976	57333.15
1236.07685	56573.75
1239.6415	56275.25
1243.20374	56252.65
1246.76355	56555.85
1250.32093	57581.45
1253.8759	59098.65
1257.42845	61108.35
1260.97859	62858.55
1264.52631	64452.15
1268.07163	66101.25
1271.61453	68091.75
1275.15503	70395.75
1278.69312	72705.75
1282.22882	74599.45
1285.76211	76159.65
1289.29301	77725.75
1292.82151	79688.15
1296.34761	82437.35
1299.87133	86600.95
1303.39266	92155.55
1306.9116	99053.55
1310.42815	106376.15
1313.94233	111004.05
1317.45412	110964.15
1320.96354	107500.75
1324.47058	103203.05
1327.97525	99388.15
1331.47754	96867.55
1334.97747	96053.55
1338.47502	96172.45
1341.97022	96363.55
1345.46305	95802.05
1348.95352	95112.65
1352.44163	95305.95
1355.92738	98315.55
1359.41078	104903.55
1362.89183	111490.15
1366.37053	109893.45
1369.84688	99572.05
1373.32088	87560.75
1376.79254	79258.55
1380.26186	75356.35
1383.72883	74010.05
1387.19347	72982.65
1390.65578	71570.05
1394.11575	70928.25
1397.57339	71293.95
1401.0287	72554.75
1404.48168	74035.35
1407.93234	75364.15
1411.38068	75997.05
1414.82669	75305.55
1418.27039	73047.55
1421.71177	70245.15
1425.15083	67676.15
1428.58758	66151.25
1432.02203	65922.65
1435.45416	66835.65
1438.88399	68132.95
1442.31151	69167.65
1445.73673	70070.05
1449.15965	70823.75
1452.58027	71120.45
1455.9986	70967.35
1459.41463	71005.55
1462.82837	71859.95
1466.23982	73261.25
1469.64898	74855.95
1473.05586	76006.85
1476.46045	76673.75
1479.86276	76987.25
1483.26279	77253.65
1486.66054	77528.35
1490.05602	78235.35
1493.44922	79094.05
1496.84016	80139.85
1500.22882	81754.45
1503.61521	84342.75
1506.99934	88179.35
1510.38121	92137.85
1513.76081	94241.95
1517.13816	92489.85
1520.51324	87528.05
1523.88607	82405.45
1527.25665	78694.95
1530.62498	76597.95
1533.99105	75293.65
1537.35488	74439.45
1540.71647	73720.55
1544.07581	72860.05
1547.4329	71861.05
1550.78776	70817.05
1554.14038	70094.95
1557.49077	69832.35
1560.83892	69895.55
1564.18484	69929.85
1567.52853	70147.25
1570.86999	70639.25
1574.20922	71629.75
1577.54624	72758.35
1580.88103	73044.45
1584.2136	73097.85
1587.54395	74271.55
1590.87208	77236.35
1594.19801	82097.65
1597.52172	87420.65
1600.84321	89328.85
1604.16251	85603.45
1607.47959	78695.95
1610.79447	71419.15
1614.10715	65029.15
1617.41763	59986.05
1620.7259	56772.35
1624.03199	55227.75
1627.33587	55446.75
1630.63757	57203.65
1633.93707	60614.35
1637.23439	65515.15
1640.52951	71929.05
1643.82246	78771.65
1647.11321	84142.35
1650.40179	85330.45
1653.68819	80399.55
1656.97241	70816.55
1660.25446	60868.55
1663.53433	53475.75
1666.81203	48825.65
1670.08756	45961.45
1673.36092	44138.65
1676.63211	42891.15
1679.90115	42055.45
1683.16801	41355.55
1686.43272	40918.75
1689.69527	40618.95
1692.95567	40333.25
1696.2139	40220.65
1699.46999	40073.05
1702.72392	39956.85
1705.97571	39924.85
1709.22535	39840.65
1712.47284	39795.45
1715.71819	39794.85
1718.96139	39688.05
1722.20246	39590.75
1725.44139	39424.75
1728.67818	39189.65
1731.91284	38962.55
1735.14537	38744.65
1738.37576	38571.95
1741.60403	38449.85
1744.83017	38329.95
1748.05418	38223.15
1751.27607	38152.05
1754.49584	38070.05
1757.71349	38053.35
1760.92903	38020.45
1764.14244	38018.75
1767.35375	38039.65
1770.56294	37957.65
1773.77002	37947.25
1776.97499	37883.85
1780.17785	37829.65
1783.37861	37782.35
1786.57727	37753.35
1789.77382	37642.35
1792.96828	37689.85
1796.16064	37595.15
1799.3509	37588.45
1802.53907	37545.25
1805.72514	37367.65
1808.90913	37321.65
1812.09102	37252.15
1815.27083	37210.05
1818.44856	37115.45
1821.6242	37076.05
1824.79776	37075.05
1827.96924	37009.95
1831.13864	37042.35
1834.30597	37038.25
1837.47122	37041.85
1840.6344	37018.85
1843.7955	37061.05
1846.95454	36997.35
1850.11151	37020.05
1853.26642	37038.65
1856.41926	37060.75
1859.57004	37030.55
1862.71876	37068.55
1865.86542	37038.35
1869.01003	37121.95
1872.15258	37128.05
1875.29308	37093.25
1878.43152	37118.15
1881.56792	37118.95
1884.70227	37106.35
1887.83457	37127.95
1890.96482	37118.25
1894.09304	37085.35
1897.21921	37045.85
1900.34335	37064.45
1903.46544	37064.65
1906.58551	37102.55
1909.70353	37106.45
1912.81953	37082.65
1915.93349	37015.35
1919.04543	36974.95
1922.15534	37015.65
1925.26322	36858.55
1928.36908	36780.65
1931.47292	36718.35
1934.57473	36587.75
1937.67453	36475.95
1940.77232	36286.85
1943.86808	36200.85
1946.96184	36075.85
1950.05358	35933.45
1953.14331	35773.95
1956.23103	35694.55
1959.31675	35631.25
1962.40046	35540.15
1965.48217	35345.95
1968.56188	35277.45
1971.63959	35190.65
1974.7153	35097.05
1977.78901	34990.55
1980.86073	34853.15
1983.93046	34759.75
1986.99819	34644.35
1990.06394	34516.45
1993.1277	34475.05
1996.18947	34352.85
1999.24925	34222.95
2002.30706	34154.55
2005.36288	34070.85
2008.41672	33998.35
2011.46859	33851.95
2014.51848	33822.55
2017.56639	33761.05
2020.61233	33661.25
2023.6563	33582.65
2026.6983	33532.85
2029.73833	33557.85
2032.7764	33491.85
2035.8125	33439.85
2038.84664	33410.85
2041.87881	33399.55
2044.90903	33321.45
2047.93729	33255.85
2050.96359	33249.95
2053.98794	33213.65
2057.01034	33146.95
2060.03078	33108.45
2063.04927	33042.55
2066.06582	33060.25
2069.08042	33043.95
2072.09307	33027.75
2075.10378	32977.85
2078.11255	32902.75
2081.11938	32924.75
2084.12426	32815.75
2087.12722	32801.95
2090.12824	32777.95
2093.12732	32769.95
2096.12447	32816.45
2099.11969	32771.05
2102.11299	32822.25
2105.10435	32795.85
2108.09379	32836.85
2111.08131	32857.45
2114.0669	32891.15
2117.05057	32857.95
2120.03233	32879.65
2123.01216	32924.85
2125.99008	32990.55
2128.96609	32973.85
2131.94018	33055.25
2134.91236	33053.55
2137.88263	33021.95
2140.851	33065.25
2143.81746	33102.35
2146.78201	33089.35
2149.74466	33073.25
2152.7054	33194.35
2155.66425	33149.15
2158.6212	33193.85
2161.57625	33133.45
2164.52941	33167.85
2167.48067	33115.85
2170.43004	33104.85
2173.37752	33079.95
2176.32311	33095.95
2179.26681	33138.25
2182.20863	33053.15
2185.14856	33129.15
2188.08661	33121.75
2191.02278	33231.95
2193.95707	33147.55
2196.88948	33190.55
2199.82001	33195.15
2202.74867	33145.55
2205.67545	33175.55
2208.60037	33113.95
2211.52341	33153.05
2214.44458	33143.85
2217.36388	33119.45
2220.28132	33082.05
2223.1969	33033.35
2226.11061	32985.35
2229.02246	32920.15
2231.93245	32875.25
2234.84058	32778.45
2237.74686	32672.45
2240.65128	32679.35
2243.55385	32615.55
2246.45456	32620.55
2249.35343	32530.35
2252.25044	32477.95
2255.14561	32451.25
2258.03893	32469.75
2260.93041	32402.75
2263.82004	32254.95
2266.70783	32240.05
2269.59378	32141.25
2272.4779	32041.45
2275.36017	31977.35
2278.24061	31946.15
2281.11922	31880.35
2283.996	31803.35
2286.87094	31802.25
2289.74405	31756.55
2292.61534	31757.65
2295.4848	31768.35
2298.35243	31786.55
2301.21824	31831.15
2304.08223	31844.15
2306.94439	31906.85
2309.80474	31917.55
2312.66327	31937.55
2315.51999	31972.35
2318.37489	31965.65
2321.22797	31992.45
2324.07925	32000.75
2326.92871	31966.45
2329.77637	32003.35
2332.62222	31979.25
2335.46626	31974.85
2338.3085	32022.85
2341.14893	32050.15
2343.98756	32108.25
2346.8244	32108.75
2349.65943	32081.85
2352.49267	32051.45
2355.32411	32065.95
2358.15376	32067.55
2360.98161	32018.75
2363.80768	31927.25
2366.63195	31897.95
2369.45444	31844.15
2372.27514	31795.25
2375.09405	31669.35
2377.91118	31571.15
2380.72652	31461.85
2383.54009	31333.15
2386.35187	31384.45
2389.16188	31261.05
2391.97011	31287.75
2394.77657	31245.55
2397.58125	31225.25
2400.38416	31158.85
2403.18529	31078.75
2405.98466	31051.45
2408.78226	30954.05
2411.57809	30848.75
2414.37216	30796.75
2417.16446	30814.85
2419.955	30665.05
2422.74378	30669.75
2425.5308	30605.95
2428.31606	30646.25
2431.09956	30588.45
2433.88131	30575.35
2436.6613	30552.05
2439.43954	30563.05
2442.21603	30552.35
2444.99077	30551.65
2447.76377	30533.05
2450.53501	30510.05
2453.30451	30579.95
2456.07226	30499.15
2458.83827	30471.05
2461.60254	30508.35
2464.36507	30524.55
2467.12586	30552.95
2469.88492	30522.75
2472.64224	30526.95
2475.39782	30565.35
2478.15167	30618.55
2480.90379	30620.25
2483.65417	30724.05
2486.40283	30732.55
2489.14976	30720.85
2491.89497	30709.15
2494.63845	30732.15
2497.3802	30743.95
2500.12024	30782.75
2502.85855	30777.65
2505.59514	30754.55
2508.33002	30711.85
2511.06318	30644.45
2513.79462	30603.65
2516.52435	30603.95
2519.25237	30592.25
2521.97867	30531.45
2524.70327	30501.55
2527.42616	30464.75
2530.14734	30445.25
2532.86681	30491.95
2535.58458	30414.95
2538.30065	30413.95
2541.01501	30471.95
2543.72768	30374.25
2546.43864	30380.55
2549.14791	30345.75
2551.85548	30399.35
2554.56136	30340.35
2557.26554	30292.15
2559.96803	30314.25
2562.66883	30279.15
2565.36794	30256.45
2568.06536	30287.65
2570.7611	30203.45
2573.45514	30271.15
2576.14751	30240.35
2578.83819	30214.75
2581.52719	30214.45
2584.21451	30237.35
2586.90015	30231.05
2589.58411	30219.05
2592.2664	30237.15
2594.94701	30175.45
2597.62594	30137.05
2600.30321	30182.75
2602.9788	30170.15
2605.65273	30138.25
2608.32498	30146.05
2610.99557	30207.45
2613.66449	30224.45
2616.33175	30174.55
2618.99734	30250.05
2621.66128	30256.15
2624.32355	30282.45
2626.98416	30287.15
2629.64311	30289.75
2632.30041	30270.55
2634.95605	30243.95
2637.61004	30242.55
2640.26238	30149.85
2642.91306	30155.35
2645.56209	30061.25
2648.20948	30004.85
2650.85521	29971.35
2653.4993	30002.25
2656.14175	29945.95
2658.78255	29965.05
2661.42171	29950.95
2664.05923	29994.45
2666.6951	29993.75
2669.32934	30080.05
2671.96194	30072.45
2674.59291	30124.75
2677.22224	30112.95
2679.84993	30077.95
2682.476	30061.35
2685.10043	30084.45
2687.72324	29974.75
2690.34441	29989.05
2692.96396	29981.65
2695.58188	29949.75
2698.19818	29876.65
2700.81285	29905.55
2703.4259	29845.05
2706.03733	29890.75
2708.64714	29925.05
2711.25533	29942.45
2713.86191	29902.85
2716.46687	29944.05
2719.07021	29915.25
2721.67194	29960.05
2724.27206	29903.95
2726.87057	29953.35
2729.46747	29950.05
2732.06276	29943.25
2734.65644	29923.95
2737.24852	29933.05
2739.83899	29938.35
2742.42786	29974.65
2745.01513	29992.55
2747.60079	29989.05
2750.18486	29962.65
2752.76733	29951.45
2755.3482	29967.25
2757.92747	29904.45
2760.50515	29863.35
2763.08123	29879.95
2765.65573	29853.85
2768.22863	29847.45
2770.79994	29838.35
2773.36967	29834.85
2775.9378	29840.25
2778.50435	29789.95
2781.06932	29740.25
2783.6327	29767.15
2786.1945	29766.95
2788.75471	29719.55
2791.31335	29710.45
2793.87041	29635.95
2796.42589	29564.25
2798.97979	29558.05
2801.53212	29486.05
2804.08288	29475.45
2806.63206	29403.55
2809.17967	29352.35
2811.72571	29342.65
2814.27018	29327.35
2816.81308	29321.05
2819.35442	29351.05
2821.89419	29284.75
2824.43239	29255.65
2826.96904	29224.55
2829.50412	29252.55
2832.03763	29159.85
2834.56959	29188.65
2837.1	29145.95
2839.62884	29121.25
2842.15613	29058.85
2844.68186	29054.05
2847.20604	29000.35
2849.72867	29002.85
2852.24974	28964.45
2854.76927	28957.45
2857.28724	28976.45
2859.80367	28940.05
2862.31855	28889.95
2864.83189	28871.75
2867.34368	28820.45
2869.85393	28861.85
2872.36264	28862.45
2874.8698	28837.55
2877.37543	28847.45
2879.87952	28822.75
2882.38207	28837.75
2884.88308	28836.75
2887.38256	28892.45
2889.88051	28845.55
2892.37692	28865.35
2894.8718	28917.15
2897.36515	28944.35
2899.85698	28945.75
2902.34727	28963.65
2904.83604	28970.95
2907.32328	29043.55
2909.809	29033.15
2912.29319	29101.25
2914.77587	29021.35
2917.25702	29070.75
2919.73665	28991.35
2922.21476	29025.15
2924.69136	28976.75
2927.16644	28990.75
2929.64	28902.65
2932.11205	28892.55
2934.58258	28740.25
2937.05161	28829.95
2939.51912	28786.55
2941.98513	28743.95
2944.44962	28666.55
2946.91261	28608.95
2949.37409	28658.55
2951.83407	28726.55
2954.29254	28643.05
2956.74951	28635.75
2959.20498	28621.75
2961.65895	28539.65
2964.11142	28480.65
2966.56239	28426.65
2969.01186	28441.15
2971.45984	28314.45
2973.90632	28267.75
2976.35131	28186.45
2978.7948	28115.35
2981.23681	28087.75
2983.67732	28049.35
2986.11635	27945.45
2988.55388	27839.65
2990.98993	27841.15
2993.4245	27735.55
2995.85758	27723.25
2998.28917	27618.15
3000.71928	27635.35
3003.14791	27594.35
3005.57506	27513.35
3008.00073	27445.05
3010.42493	27465.15
3012.84764	27402.55
3015.26888	27368.35
3017.68865	27290.55
3020.10694	27276.45
3022.52376	27161.75
3024.9391	27141.65
3027.35298	27085.75
3029.76539	27034.45
3032.17632	27032.95
3034.5858	26945.75
3036.9938	26946.25
3039.40034	26924.75
3041.80542	26919.75
3044.20903	26841.05
3046.61118	26834.85
3049.01187	26750.35
3051.4111	26690.55
3053.80888	26639.15
3056.20519	26594.35
3058.60005	26513.25
3060.99345	26489.75
3063.3854	26398.55
3065.7759	26335.25
3068.16494	26281.55
3070.55254	26214.85
3072.93868	26130.55
3075.32338	26074.55
3077.70662	26017.75
3080.08842	25953.75
3082.46878	25963.55
3084.84769	25844.45
3087.22515	25840.15
3089.60118	25836.95
3091.97576	25814.45
3094.3489	25830.55
3096.72061	25799.35
3099.09087	25815.45
3101.4597	25766.45
3103.82709	25771.25
3106.19305	25719.45
3108.55757	25693.15
3110.92066	25586.15
3113.28232	25491.35
3115.64255	25444.85
3118.00134	25443.35
3120.35871	25367.65
3122.71466	25321.45
3125.06917	25290.35
3127.42226	25254.55
3129.77393	25252.65
3132.12417	25205.35
3134.47299	25216.35
3136.82039	25173.35
3139.16636	25161.75
3141.51092	25194.55
3143.85406	25184.15
3146.19579	25151.85
3148.53609	25143.15
3150.87499	25130.15
3153.21246	25087.65
3155.54853	25105.85
3157.88318	25074.75
3160.21642	25099.95
3162.54826	25036.65
3164.87868	25029.95
3167.2077	24997.35
3169.5353	25021.05
3171.86151	24985.25
3174.18631	24944.55
3176.5097	24967.45
3178.83169	24866.55
3181.15228	24879.55
3183.47147	24852.25
3185.78926	24857.35
3188.10565	24812.75
3190.42065	24819.75
3192.73424	24846.85
3195.04645	24804.35
3197.35725	24854.65
3199.66667	24804.05
3201.97469	24821.05
3204.28132	24775.75
3206.58656	24822.95
3208.8904	24805.75
3211.19287	24765.75
3213.49394	24733.45
3215.79363	24748.05
3218.09193	24773.05
3220.38884	24724.35
3222.68438	24782.05
3224.97853	24677.55
3227.2713	24710.95
3229.56269	24679.45
3231.8527	24693.55
3234.14133	24651.75
3236.42858	24618.25
3238.71446	24617.95
3240.99896	24497.75
3243.28209	24491.95
3245.56384	24464.25
3247.84423	24492.75
3250.12324	24486.85
3252.40088	24420.65
3254.67715	24408.45
3256.95205	24353.15
3259.22558	24335.45
3261.49775	24316.55
3263.76855	24320.45
3266.03799	24271.25
3268.30606	24245.85
3270.57277	24177.95
3272.83812	24158.75
3275.10211	24138.25
3277.36474	24106.25
3279.62601	24142.85
3281.88593	24038.95
3284.14448	24119.75
3286.40168	24107.45
3288.65753	24063.85
3290.91202	24013.35
3293.16516	23950.95
3295.41695	23931.65
3297.66738	23785.65
3299.91647	23693.65
3302.16421	23534.35
3304.4106	23455.55
3306.65564	23353.45
3308.89933	23215.65
3311.14169	23071.95
3313.38269	22866.05
3315.62236	22746.05
3317.86068	22590.15
3320.09766	22371.75
3322.3333	22193.75
3324.5676	22118.95
3326.80056	21787.05
3329.03219	21664.15
3331.26248	5.55
3333.49143	-0.35
3335.71905	-0.75
