Data from AgNP_FTO_APTES_CRN_5uM_R6G_10uM_NaF_0.1M_Addition_RamanShift__31__16-02-07-936.txt Node

Date: Wed Dec 15 16:02:07 GMT 2021
User: TCL
Spectrometer: QEP01345
Trigger mode: 4
Integration Time (sec): 7.000000E0
Scans to average: 10
Electric dark correction enabled: true
Nonlinearity correction enabled: false
Boxcar width: 0
XAxis mode: Raman Shifts
Number of Pixels in Spectrum: 1044
>>>>>Begin Spectral Data<<<<<
46.04893	0.75
50.45542	-2.45
54.85868	-0.85
59.25871	-0.85
63.6555	90.25
68.04907	96.25
72.43941	101.25
76.82654	106.85
81.21044	109.65
85.59113	114.85
89.96862	121.95
94.34289	119.45
98.71396	125.45
103.08183	133.05
107.4465	132.85
111.80798	131.75
116.16626	140.55
120.52136	145.05
124.87327	149.95
129.222	156.25
133.56755	159.85
137.90993	172.05
142.24913	190.15
146.58517	210.25
150.91804	243.15
155.24774	286.05
159.57429	355.45
163.89768	450.95
168.21792	580.65
172.53501	795.35
176.84895	1098.35
181.15975	1523.25
185.46741	2123.25
189.77193	2942.75
194.07331	3909.35
198.37157	5050.25
202.6667	6231.85
206.9587	7379.45
211.24758	8533.15
215.53334	9727.05
219.81599	11040.05
224.09553	12481.65
228.37195	14095.55
232.64527	15870.35
236.91549	17698.25
241.18261	19456.95
245.44663	20948.05
249.70755	22250.95
253.96539	23377.85
258.22014	24357.55
262.4718	25264.05
266.72039	25983.85
270.96589	26391.35
275.20832	26509.65
279.44768	26361.15
283.68397	26175.75
287.91719	25968.25
292.14735	25983.65
296.37445	26204.35
300.59849	26751.95
304.81948	27337.05
309.03742	27731.15
313.25231	27543.55
317.46415	26606.75
321.67296	25241.55
325.87872	24100.55
330.08145	23558.95
334.28114	23558.65
338.47781	23843.95
342.67145	24392.25
346.86207	25132.45
351.04966	26139.95
355.23424	27251.85
359.4158	28156.65
363.59435	28683.95
367.76989	28862.35
371.94243	28890.15
376.11196	28836.45
380.27849	28766.35
384.44203	28662.15
388.60257	28550.05
392.76012	28617.25
396.91468	28998.75
401.06626	29697.95
405.21485	30141.15
409.36047	29814.95
413.50311	28846.05
417.64277	27970.45
421.77947	27561.05
425.9132	27449.85
430.04396	27593.65
434.17176	27790.95
438.2966	28069.15
442.41849	28550.45
446.53742	29286.85
450.6534	30075.05
454.76644	30665.55
458.87653	30949.55
462.98368	30808.75
467.08789	30455.35
471.18916	29837.05
475.2875	29136.45
479.38291	28610.75
483.4754	28162.65
487.56496	27846.05
491.6516	27487.75
495.73531	27390.75
499.81612	27430.95
503.89401	27638.15
507.96899	27872.15
512.04106	28116.95
516.11023	28300.15
520.1765	28490.15
524.23987	28367.05
528.30034	28094.65
532.35792	27621.15
536.41261	27145.85
540.46441	26661.55
544.51333	26489.05
548.55936	26738.85
552.60252	27335.55
556.64279	27882.45
560.6802	28133.45
564.71473	28366.55
568.7464	29045.75
572.7752	29641.15
576.80114	29539.65
580.82422	29339.05
584.84444	29315.45
588.86181	29312.75
592.87633	29438.25
596.888	29859.75
600.89682	30817.25
604.9028	33510.35
608.90594	39683.45
612.90624	46558.05
616.90371	43903.25
620.89834	33711.55
624.89015	29134.75
628.87913	28314.05
632.86528	28340.95
636.84862	28354.15
640.82913	27860.25
644.80683	26958.75
648.78172	26346.85
652.75379	26456.35
656.72306	27174.25
660.68952	28106.55
664.65319	27923.55
668.61405	27047.35
672.57211	26642.15
676.52738	26617.95
680.47986	26634.75
684.42955	26481.55
688.37646	26456.45
692.32058	26597.35
696.26192	26818.95
700.20048	27128.55
704.13626	27343.35
708.06928	27284.05
711.99952	27101.65
715.927	27000.55
719.85171	26963.15
723.77365	26900.65
727.69284	26631.45
731.60928	26384.85
735.52295	26351.85
739.43388	26415.35
743.34206	26597.15
747.24749	26803.65
751.15017	27092.85
755.05012	27633.25
758.94733	28702.75
762.8418	30938.45
766.73354	34626.85
770.62254	38297.55
774.50882	39507.65
778.39237	37395.35
782.27321	33439.05
786.15132	29992.45
790.02671	28057.15
793.89938	27145.25
797.76935	26742.95
801.6366	26610.45
805.50115	26491.95
809.36299	26307.95
813.22213	26199.95
817.07857	26153.45
820.93231	26143.55
824.78336	26176.75
828.63172	26323.35
832.47738	26378.05
836.32036	26436.15
840.16066	26471.55
843.99827	26477.65
847.8332	26396.95
851.66546	26273.95
855.49504	26194.15
859.32195	26136.75
863.1462	26014.75
866.96777	25880.85
870.78668	25821.35
874.60293	25827.25
878.41652	25892.35
882.22745	25984.85
886.03573	26075.35
889.84136	25998.55
893.64433	25880.35
897.44466	25820.05
901.24235	25860.65
905.0374	25822.05
908.8298	25819.85
912.61957	25864.35
916.40671	26107.65
920.19121	26432.65
923.97308	26790.15
927.75233	27005.45
931.52895	26982.15
935.30295	26632.65
939.07433	26098.95
942.84309	25659.05
946.60924	25449.05
950.37278	25312.75
954.13371	25136.05
957.89203	24982.15
961.64774	24861.25
965.40086	24771.55
969.15137	24722.95
972.89929	24642.05
976.64461	24636.45
980.38733	24657.55
984.12747	24813.05
987.86502	24958.65
991.59999	25259.05
995.33237	25734.35
999.06217	26595.95
1002.78939	27612.55
1006.51404	28403.65
1010.23611	28924.45
1013.95561	29284.05
1017.67255	29206.15
1021.38692	28798.15
1025.09872	28610.45
1028.80796	28981.25
1032.51465	29929.95
1036.21877	30710.55
1039.92035	30793.55
1043.61937	30303.35
1047.31584	29491.15
1051.00976	28659.45
1054.70114	28114.25
1058.38998	28000.75
1062.07627	28166.75
1065.76003	28395.35
1069.44126	28779.65
1073.11995	29321.35
1076.79611	29816.15
1080.46974	30209.85
1084.14085	30426.65
1087.80943	30588.35
1091.47549	30540.85
1095.13903	30013.45
1098.80005	29160.95
1102.45857	28430.65
1106.11456	28073.85
1109.76805	28097.75
1113.41903	28382.75
1117.06751	28859.95
1120.71348	29516.45
1124.35696	30163.95
1127.99793	30718.65
1131.63641	30876.25
1135.2724	30229.95
1138.90589	29531.45
1142.5369	29066.85
1146.16542	28755.15
1149.79145	28535.25
1153.415	28714.35
1157.03607	29025.65
1160.65467	29585.25
1164.27079	30524.05
1167.88443	32006.55
1171.49561	34167.55
1175.10432	37464.15
1178.71056	41728.55
1182.31434	45348.15
1185.91565	46919.85
1189.51451	46439.15
1193.11091	44180.15
1196.70485	41249.15
1200.29634	38797.55
1203.88538	36994.95
1207.47197	35433.35
1211.05612	34128.15
1214.63782	33404.35
1218.21708	33345.65
1221.79391	33499.35
1225.36829	33680.45
1228.94024	33694.75
1232.50976	33557.25
1236.07685	33473.45
1239.6415	33456.75
1243.20374	33495.15
1246.76355	33682.25
1250.32093	34175.75
1253.8759	35004.35
1257.42845	36115.75
1260.97859	37144.65
1264.52631	37996.35
1268.07163	38797.25
1271.61453	39712.65
1275.15503	40772.55
1278.69312	41730.15
1282.22882	42428.95
1285.76211	43168.45
1289.29301	44055.65
1292.82151	45001.75
1296.34761	46177.65
1299.87133	48027.55
1303.39266	50923.45
1306.9116	55132.15
1310.42815	59816.15
1313.94233	63010.15
1317.45412	62946.75
1320.96354	60650.25
1324.47058	57752.15
1327.97525	55226.15
1331.47754	53668.85
1334.97747	53234.65
1338.47502	53661.05
1341.97022	54414.85
1345.46305	55049.75
1348.95352	55528.15
1352.44163	56632.95
1355.92738	59318.35
1359.41078	64645.15
1362.89183	70047.95
1366.37053	68906.05
1369.84688	61150.85
1373.32088	52779.55
1376.79254	47331.45
1380.26186	44579.75
1383.72883	43258.85
1387.19347	42331.05
1390.65578	41321.75
1394.11575	40586.95
1397.57339	40402.65
1401.0287	40784.85
1404.48168	41583.95
1407.93234	42589.45
1411.38068	43286.45
1414.82669	43246.95
1418.27039	42312.75
1421.71177	40955.95
1425.15083	39708.45
1428.58758	38889.85
1432.02203	38750.65
1435.45416	39066.85
1438.88399	39364.85
1442.31151	39687.95
1445.73673	40025.65
1449.15965	40394.85
1452.58027	40449.45
1455.9986	40263.95
1459.41463	40221.35
1462.82837	40562.15
1466.23982	41337.75
1469.64898	42282.45
1473.05586	42952.35
1476.46045	43449.35
1479.86276	43985.25
1483.26279	44626.75
1486.66054	45284.15
1490.05602	46140.25
1493.44922	47206.15
1496.84016	48562.25
1500.22882	50546.65
1503.61521	53371.75
1506.99934	57044.45
1510.38121	60649.15
1513.76081	62699.15
1517.13816	61203.35
1520.51324	56896.35
1523.88607	52084.45
1527.25665	48531.25
1530.62498	46356.45
1533.99105	45028.35
1537.35488	44128.05
1540.71647	43594.75
1544.07581	43235.45
1547.4329	42842.55
1550.78776	42453.55
1554.14038	42271.85
1557.49077	42358.65
1560.83892	42653.85
1564.18484	43183.65
1567.52853	43587.25
1570.86999	43948.05
1574.20922	44477.15
1577.54624	44875.15
1580.88103	44306.65
1584.2136	43414.95
1587.54395	43125.65
1590.87208	44067.55
1594.19801	46374.35
1597.52172	49179.15
1600.84321	50322.45
1604.16251	48590.95
1607.47959	45261.25
1610.79447	41778.15
1614.10715	38527.55
1617.41763	36031.75
1620.7259	34350.75
1624.03199	33514.75
1627.33587	33576.05
1630.63757	34459.05
1633.93707	36067.55
1637.23439	38510.35
1640.52951	41552.35
1643.82246	44947.85
1647.11321	48234.65
1650.40179	50087.55
1653.68819	48424.65
1656.97241	43276.25
1660.25446	37529.75
1663.53433	33205.55
1666.81203	30489.45
1670.08756	28791.75
1673.36092	27751.45
1676.63211	27105.65
1679.90115	26610.85
1683.16801	26192.75
1686.43272	25941.25
1689.69527	25759.25
1692.95567	25619.85
1696.2139	25567.25
1699.46999	25522.95
1702.72392	25456.35
1705.97571	25397.25
1709.22535	25361.25
1712.47284	25290.95
1715.71819	25337.35
1718.96139	25311.55
1722.20246	25273.35
1725.44139	25179.05
1728.67818	25076.35
1731.91284	24893.65
1735.14537	24780.35
1738.37576	24662.55
1741.60403	24608.95
1744.83017	24519.55
1748.05418	24495.45
1751.27607	24422.15
1754.49584	24363.55
1757.71349	24342.25
1760.92903	24322.05
1764.14244	24351.05
1767.35375	24348.05
1770.56294	24294.15
1773.77002	24268.55
1776.97499	24265.35
1780.17785	24219.95
1783.37861	24156.05
1786.57727	24115.25
1789.77382	24090.05
1792.96828	24052.65
1796.16064	24049.75
1799.3509	24054.75
1802.53907	23974.35
1805.72514	23947.05
1808.90913	23895.75
1812.09102	23837.45
1815.27083	23821.45
1818.44856	23795.85
1821.6242	23736.55
1824.79776	23756.05
1827.96924	23702.55
1831.13864	23671.55
1834.30597	23728.45
1837.47122	23727.05
1840.6344	23730.15
1843.7955	23724.55
1846.95454	23718.45
1850.11151	23721.85
1853.26642	23737.95
1856.41926	23755.65
1859.57004	23766.55
1862.71876	23735.85
1865.86542	23759.15
1869.01003	23772.85
1872.15258	23819.45
1875.29308	23841.15
1878.43152	23780.95
1881.56792	23832.55
1884.70227	23826.25
1887.83457	23826.35
1890.96482	23844.35
1894.09304	23818.35
1897.21921	23854.35
1900.34335	23822.65
1903.46544	23794.95
1906.58551	23799.05
1909.70353	23818.25
1912.81953	23798.45
1915.93349	23785.75
1919.04543	23707.95
1922.15534	23714.15
1925.26322	23648.55
1928.36908	23582.95
1931.47292	23525.55
1934.57473	23446.25
1937.67453	23347.55
1940.77232	23297.05
1943.86808	23224.75
1946.96184	23095.65
1950.05358	23021.95
1953.14331	22954.25
1956.23103	22907.05
1959.31675	22829.25
1962.40046	22746.05
1965.48217	22687.15
1968.56188	22626.35
1971.63959	22560.55
1974.7153	22483.55
1977.78901	22425.85
1980.86073	22340.45
1983.93046	22284.55
1986.99819	22253.65
1990.06394	22182.95
1993.1277	22116.55
1996.18947	22025.25
1999.24925	21958.75
2002.30706	21920.45
2005.36288	21840.05
2008.41672	21807.65
2011.46859	21782.85
2014.51848	21721.35
2017.56639	21690.75
2020.61233	21596.45
2023.6563	21540.55
2026.6983	21539.25
2029.73833	21521.45
2032.7764	21399.35
2035.8125	21422.85
2038.84664	21325.45
2041.87881	21365.75
2044.90903	21331.35
2047.93729	21278.05
2050.96359	21255.35
2053.98794	21210.45
2057.01034	21226.05
2060.03078	21204.95
2063.04927	21157.55
2066.06582	21171.05
2069.08042	21087.45
2072.09307	21099.35
2075.10378	21052.65
2078.11255	21022.85
2081.11938	21023.45
2084.12426	21000.45
2087.12722	21035.45
2090.12824	21015.95
2093.12732	21006.85
2096.12447	21035.65
2099.11969	20970.55
2102.11299	21004.45
2105.10435	21021.15
2108.09379	21005.55
2111.08131	21067.95
2114.0669	21058.85
2117.05057	21053.55
2120.03233	21061.55
2123.01216	21061.75
2125.99008	21106.75
2128.96609	21108.95
2131.94018	21087.25
2134.91236	21131.75
2137.88263	21178.05
2140.851	21149.15
2143.81746	21156.65
2146.78201	21182.85
2149.74466	21210.75
2152.7054	21219.65
2155.66425	21174.65
2158.6212	21171.25
2161.57625	21204.15
2164.52941	21203.25
2167.48067	21149.45
2170.43004	21186.65
2173.37752	21142.55
2176.32311	21160.85
2179.26681	21196.25
2182.20863	21137.05
2185.14856	21161.65
2188.08661	21197.55
2191.02278	21171.65
2193.95707	21137.95
2196.88948	21149.75
2199.82001	21178.75
2202.74867	21186.85
2205.67545	21159.55
2208.60037	21120.95
2211.52341	21102.15
2214.44458	21142.45
2217.36388	21061.95
2220.28132	21072.35
2223.1969	21029.35
2226.11061	21021.95
2229.02246	20951.15
2231.93245	20901.85
2234.84058	20847.75
2237.74686	20818.15
2240.65128	20799.35
2243.55385	20747.75
2246.45456	20763.55
2249.35343	20725.65
2252.25044	20699.55
2255.14561	20629.55
2258.03893	20655.85
2260.93041	20676.55
2263.82004	20610.95
2266.70783	20582.15
2269.59378	20500.15
2272.4779	20468.35
2275.36017	20401.15
2278.24061	20353.75
2281.11922	20310.55
2283.996	20294.85
2286.87094	20315.25
2289.74405	20218.95
2292.61534	20221.05
2295.4848	20209.95
2298.35243	20208.55
2301.21824	20219.35
2304.08223	20210.85
2306.94439	20240.05
2309.80474	20281.75
2312.66327	20271.05
2315.51999	20285.05
2318.37489	20257.25
2321.22797	20292.15
2324.07925	20278.65
2326.92871	20221.45
2329.77637	20202.35
2332.62222	20214.55
2335.46626	20183.45
2338.3085	20211.55
2341.14893	20208.65
2343.98756	20235.75
2346.8244	20230.75
2349.65943	20242.85
2352.49267	20257.35
2355.32411	20253.05
2358.15376	20212.05
2360.98161	20211.25
2363.80768	20203.85
2366.63195	20201.55
2369.45444	20174.55
2372.27514	20106.25
2375.09405	20094.15
2377.91118	19992.05
2380.72652	19960.55
2383.54009	19951.05
2386.35187	19902.45
2389.16188	19843.75
2391.97011	19829.25
2394.77657	19780.65
2397.58125	19764.15
2400.38416	19712.95
2403.18529	19651.75
2405.98466	19637.05
2408.78226	19566.65
2411.57809	19526.25
2414.37216	19475.45
2417.16446	19454.35
2419.955	19426.85
2422.74378	19471.55
2425.5308	19408.25
2428.31606	19414.05
2431.09956	19387.65
2433.88131	19374.85
2436.6613	19393.05
2439.43954	19380.95
2442.21603	19308.05
2444.99077	19331.45
2447.76377	19319.85
2450.53501	19332.65
2453.30451	19345.85
2456.07226	19320.05
2458.83827	19283.05
2461.60254	19304.65
2464.36507	19265.75
2467.12586	19287.05
2469.88492	19288.65
2472.64224	19278.55
2475.39782	19288.35
2478.15167	19316.75
2480.90379	19335.35
2483.65417	19334.75
2486.40283	19353.95
2489.14976	19376.05
2491.89497	19381.55
2494.63845	19451.75
2497.3802	19427.65
2500.12024	19418.45
2502.85855	19411.75
2505.59514	19377.25
2508.33002	19366.55
2511.06318	19341.55
2513.79462	19329.65
2516.52435	19273.85
2519.25237	19250.45
2521.97867	19212.55
2524.70327	19142.55
2527.42616	19153.95
2530.14734	19146.05
2532.86681	19091.85
2535.58458	19114.95
2538.30065	19118.35
2541.01501	19123.45
2543.72768	19082.55
2546.43864	19102.65
2549.14791	19073.55
2551.85548	19039.55
2554.56136	19020.95
2557.26554	19038.85
2559.96803	19008.75
2562.66883	18984.15
2565.36794	18975.55
2568.06536	18956.75
2570.7611	18931.15
2573.45514	18940.95
2576.14751	18911.15
2578.83819	18900.15
2581.52719	18913.85
2584.21451	18918.55
2586.90015	18895.45
2589.58411	18853.55
2592.2664	18873.15
2594.94701	18832.35
2597.62594	18837.35
2600.30321	18812.75
2602.9788	18813.65
2605.65273	18800.65
2608.32498	18807.05
2610.99557	18773.65
2613.66449	18820.75
2616.33175	18790.95
2618.99734	18793.75
2621.66128	18827.95
2624.32355	18809.15
2626.98416	18801.05
2629.64311	18788.35
2632.30041	18783.35
2634.95605	18791.25
2637.61004	18758.25
2640.26238	18760.95
2642.91306	18715.55
2645.56209	18646.55
2648.20948	18652.65
2650.85521	18620.55
2653.4993	18608.15
2656.14175	18609.65
2658.78255	18627.65
2661.42171	18633.55
2664.05923	18666.95
2666.6951	18665.95
2669.32934	18692.95
2671.96194	18704.55
2674.59291	18704.65
2677.22224	18706.85
2679.84993	18710.95
2682.476	18679.05
2685.10043	18682.45
2687.72324	18661.45
2690.34441	18674.85
2692.96396	18646.05
2695.58188	18643.95
2698.19818	18651.45
2700.81285	18631.15
2703.4259	18623.85
2706.03733	18688.75
2708.64714	18651.95
2711.25533	18671.05
2713.86191	18647.25
2716.46687	18669.45
2719.07021	18652.55
2721.67194	18665.65
2724.27206	18663.75
2726.87057	18666.45
2729.46747	18689.55
2732.06276	18718.35
2734.65644	18678.95
2737.24852	18668.65
2739.83899	18641.55
2742.42786	18685.25
2745.01513	18629.45
2747.60079	18615.35
2750.18486	18624.65
2752.76733	18631.25
2755.3482	18650.55
2757.92747	18607.25
2760.50515	18593.45
2763.08123	18590.85
2765.65573	18552.15
2768.22863	18516.55
2770.79994	18512.35
2773.36967	18510.95
2775.9378	18491.05
2778.50435	18474.65
2781.06932	18466.05
2783.6327	18467.45
2786.1945	18462.55
2788.75471	18422.65
2791.31335	18426.75
2793.87041	18374.85
2796.42589	18324.05
2798.97979	18321.85
2801.53212	18304.05
2804.08288	18303.65
2806.63206	18259.05
2809.17967	18257.95
2811.72571	18179.15
2814.27018	18200.35
2816.81308	18200.05
2819.35442	18185.35
2821.89419	18182.65
2824.43239	18169.75
2826.96904	18176.25
2829.50412	18171.75
2832.03763	18121.75
2834.56959	18139.05
2837.1	18125.55
2839.62884	18124.25
2842.15613	18095.45
2844.68186	18081.65
2847.20604	18090.75
2849.72867	18108.55
2852.24974	18094.05
2854.76927	18074.05
2857.28724	18048.35
2859.80367	18038.25
2862.31855	18021.05
2864.83189	17982.25
2867.34368	17987.35
2869.85393	17971.35
2872.36264	17985.15
2874.8698	17967.55
2877.37543	17982.15
2879.87952	17986.15
2882.38207	17974.85
2884.88308	17991.05
2887.38256	17978.25
2889.88051	17945.05
2892.37692	17945.25
2894.8718	17923.65
2897.36515	17980.95
2899.85698	17967.45
2902.34727	17992.75
2904.83604	17988.45
2907.32328	18046.25
2909.809	18031.85
2912.29319	18074.95
2914.77587	18076.55
2917.25702	18066.15
2919.73665	18033.15
2922.21476	18058.95
2924.69136	17994.35
2927.16644	18011.65
2929.64	17978.95
2932.11205	17944.65
2934.58258	17869.85
2937.05161	17911.45
2939.51912	17906.65
2941.98513	17876.15
2944.44962	17833.85
2946.91261	17752.65
2949.37409	17828.65
2951.83407	17775.45
2954.29254	17754.15
2956.74951	17736.05
2959.20498	17740.45
2961.65895	17701.35
2964.11142	17663.35
2966.56239	17656.85
2969.01186	17595.95
2971.45984	17572.25
2973.90632	17542.95
2976.35131	17512.45
2978.7948	17462.55
2981.23681	17474.95
2983.67732	17405.15
2986.11635	17385.45
2988.55388	17315.85
2990.98993	17302.95
2993.4245	17272.05
2995.85758	17216.05
2998.28917	17187.35
3000.71928	17176.55
3003.14791	17145.55
3005.57506	17134.75
3008.00073	17071.55
3010.42493	17094.25
3012.84764	17055.85
3015.26888	17045.45
3017.68865	17006.75
3020.10694	16957.65
3022.52376	16936.65
3024.9391	16915.45
3027.35298	16892.15
3029.76539	16870.05
3032.17632	16841.95
3034.5858	16811.05
3036.9938	16830.75
3039.40034	16780.95
3041.80542	16736.75
3044.20903	16702.45
3046.61118	16696.45
3049.01187	16672.05
3051.4111	16637.25
3053.80888	16567.85
3056.20519	16568.95
3058.60005	16495.65
3060.99345	16469.85
3063.3854	16414.65
3065.7759	16371.95
3068.16494	16345.75
3070.55254	16337.75
3072.93868	16265.55
3075.32338	16236.55
3077.70662	16215.75
3080.08842	16129.45
3082.46878	16137.15
3084.84769	16114.05
3087.22515	16108.45
3089.60118	16104.15
3091.97576	16051.05
3094.3489	16059.95
3096.72061	16039.05
3099.09087	16043.15
3101.4597	15978.75
3103.82709	15982.05
3106.19305	15976.15
3108.55757	15965.15
3110.92066	15911.05
3113.28232	15835.35
3115.64255	15829.35
3118.00134	15793.65
3120.35871	15800.75
3122.71466	15767.15
3125.06917	15747.25
3127.42226	15708.95
3129.77393	15726.85
3132.12417	15720.55
3134.47299	15733.45
3136.82039	15710.15
3139.16636	15695.85
3141.51092	15669.55
3143.85406	15672.65
3146.19579	15684.65
3148.53609	15699.55
3150.87499	15676.85
3153.21246	15677.15
3155.54853	15674.55
3157.88318	15651.95
3160.21642	15658.15
3162.54826	15649.05
3164.87868	15624.15
3167.2077	15596.95
3169.5353	15625.85
3171.86151	15568.25
3174.18631	15564.55
3176.5097	15550.25
3178.83169	15551.95
3181.15228	15520.05
3183.47147	15493.65
3185.78926	15501.15
3188.10565	15497.05
3190.42065	15475.45
3192.73424	15491.65
3195.04645	15482.95
3197.35725	15487.45
3199.66667	15479.45
3201.97469	15500.05
3204.28132	15483.55
3206.58656	15463.65
3208.8904	15460.65
3211.19287	15493.25
3213.49394	15461.35
3215.79363	15469.25
3218.09193	15462.95
3220.38884	15496.65
3222.68438	15499.85
3224.97853	15497.15
3227.2713	15461.05
3229.56269	15417.75
3231.8527	15427.85
3234.14133	15368.75
3236.42858	15369.95
3238.71446	15344.15
3240.99896	15286.95
3243.28209	15312.05
3245.56384	15298.85
3247.84423	15325.25
3250.12324	15257.65
3252.40088	15240.85
3254.67715	15228.45
3256.95205	15218.75
3259.22558	15224.95
3261.49775	15155.35
3263.76855	15156.55
3266.03799	15141.05
3268.30606	15129.05
3270.57277	15100.65
3272.83812	15074.45
3275.10211	15059.35
3277.36474	15036.15
3279.62601	15065.45
3281.88593	14992.95
3284.14448	15023.75
3286.40168	14983.95
3288.65753	14987.35
3290.91202	14955.85
3293.16516	14931.15
3295.41695	14897.05
3297.66738	14809.65
3299.91647	14752.25
3302.16421	14691.55
3304.4106	14585.55
3306.65564	14522.45
3308.89933	14464.95
3311.14169	14343.05
3313.38269	14231.65
3315.62236	14141.65
3317.86068	14042.95
3320.09766	13884.75
3322.3333	13793.15
3324.5676	13805.25
3326.80056	13566.85
3329.03219	13489.95
3331.26248	3.85
3333.49143	-0.45
3335.71905	0.25
