Data from AgNP_FTO_APTES_CRN_200uM_R6G_10uM_NaF_0.1M_Addition_RamanShift__26__19-47-18-191.txt Node

Date: Wed Dec 15 19:47:18 GMT 2021
User: TCL
Spectrometer: QEP01345
Trigger mode: 4
Integration Time (sec): 7.000000E0
Scans to average: 10
Electric dark correction enabled: true
Nonlinearity correction enabled: false
Boxcar width: 0
XAxis mode: Raman Shifts
Number of Pixels in Spectrum: 1044
>>>>>Begin Spectral Data<<<<<
46.04893	0.35
50.45542	-2.65
54.85868	-0.65
59.25871	-0.25
63.6555	59.25
68.04907	66.35
72.43941	68.95
76.82654	71.05
81.21044	71.15
85.59113	78.35
89.96862	83.95
94.34289	79.15
98.71396	85.95
103.08183	88.45
107.4465	94.55
111.80798	92.15
116.16626	95.55
120.52136	99.75
124.87327	96.85
129.222	104.35
133.56755	107.75
137.90993	114.85
142.24913	126.95
146.58517	138.85
150.91804	159.75
155.24774	188.55
159.57429	236.55
163.89768	294.95
168.21792	386.65
172.53501	524.05
176.84895	727.35
181.15975	1010.25
185.46741	1424.35
189.77193	1957.85
194.07331	2622.85
198.37157	3379.55
202.6667	4169.95
206.9587	4959.55
211.24758	5741.65
215.53334	6533.45
219.81599	7331.55
224.09553	8210.45
228.37195	9220.15
232.64527	10311.75
236.91549	11425.25
241.18261	12624.25
245.44663	13678.85
249.70755	14726.45
253.96539	15574.25
258.22014	16312.95
262.4718	16960.95
266.72039	17402.55
270.96589	17619.75
275.20832	17745.15
279.44768	17615.55
283.68397	17391.65
287.91719	17262.45
292.14735	17150.75
296.37445	17178.65
300.59849	17209.65
304.81948	17197.15
309.03742	17121.25
313.25231	16957.45
317.46415	16612.85
321.67296	16243.45
325.87872	15936.35
330.08145	15836.75
334.28114	15856.75
338.47781	16012.25
342.67145	16181.05
346.86207	16423.05
351.04966	16716.85
355.23424	17044.05
359.4158	17298.85
363.59435	17504.75
367.76989	17676.35
371.94243	17764.05
376.11196	17856.25
380.27849	17995.65
384.44203	18120.75
388.60257	18209.05
392.76012	18386.55
396.91468	18538.05
401.06626	18777.85
405.21485	18922.25
409.36047	18942.45
413.50311	18715.65
417.64277	18497.85
421.77947	18432.15
425.9132	18485.95
430.04396	18646.65
434.17176	18780.65
438.2966	19072.95
442.41849	19433.15
446.53742	19941.35
450.6534	20494.65
454.76644	20888.35
458.87653	21006.05
462.98368	20890.75
467.08789	20689.95
471.18916	20500.95
475.2875	20347.25
479.38291	20311.75
483.4754	20203.35
487.56496	19953.35
491.6516	19625.05
495.73531	19377.85
499.81612	19233.85
503.89401	19267.95
507.96899	19324.95
512.04106	19332.05
516.11023	19362.55
520.1765	19395.85
524.23987	19413.45
528.30034	19338.35
532.35792	19261.65
536.41261	19146.95
540.46441	18959.65
544.51333	18911.45
548.55936	19068.85
552.60252	19343.45
556.64279	19704.55
560.6802	19970.95
564.71473	20083.45
568.7464	20269.75
572.7752	20496.75
576.80114	20571.15
580.82422	20609.35
584.84444	20713.05
588.86181	21084.05
592.87633	21666.25
596.888	22071.45
600.89682	22059.85
604.9028	22302.45
608.90594	23457.95
612.90624	24849.35
616.90371	23777.75
620.89834	20820.05
624.89015	19490.85
628.87913	19313.05
632.86528	19377.55
636.84862	19443.05
640.82913	19257.25
644.80683	18906.05
648.78172	18640.75
652.75379	18591.55
656.72306	18688.85
660.68952	18923.55
664.65319	18900.25
668.61405	18668.25
672.57211	18604.65
676.52738	18621.65
680.47986	18699.85
684.42955	18650.95
688.37646	18566.85
692.32058	18595.65
696.26192	18731.55
700.20048	18883.95
704.13626	18997.35
708.06928	18939.35
711.99952	18877.25
715.927	18804.25
719.85171	18817.65
723.77365	18782.65
727.69284	18636.85
731.60928	18561.75
735.52295	18554.45
739.43388	18535.35
743.34206	18519.15
747.24749	18592.05
751.15017	18678.65
755.05012	18862.95
758.94733	19243.85
762.8418	19950.35
766.73354	21013.75
770.62254	22105.35
774.50882	22464.05
778.39237	21705.55
782.27321	20395.15
786.15132	19310.55
790.02671	18705.25
793.89938	18392.75
797.76935	18270.35
801.6366	18288.35
805.50115	18256.15
809.36299	18201.15
813.22213	18189.75
817.07857	18193.15
820.93231	18185.15
824.78336	18122.45
828.63172	18118.75
832.47738	18111.65
836.32036	18168.95
840.16066	18163.25
843.99827	18158.85
847.8332	18117.05
851.66546	18077.95
855.49504	18049.55
859.32195	18040.45
863.1462	18063.45
866.96777	18000.05
870.78668	17966.25
874.60293	17957.55
878.41652	17994.05
882.22745	17995.45
886.03573	18025.85
889.84136	18004.55
893.64433	17954.35
897.44466	17920.15
901.24235	17887.75
905.0374	17807.75
908.8298	17834.05
912.61957	17793.85
916.40671	17910.85
920.19121	18041.65
923.97308	18145.95
927.75233	18227.15
931.52895	18203.05
935.30295	18057.45
939.07433	17812.35
942.84309	17580.95
946.60924	17495.95
950.37278	17405.85
954.13371	17382.35
957.89203	17383.05
961.64774	17341.85
965.40086	17330.05
969.15137	17218.75
972.89929	17157.55
976.64461	17089.25
980.38733	17091.85
984.12747	17138.15
987.86502	17240.95
991.59999	17338.75
995.33237	17533.65
999.06217	17859.25
1002.78939	18195.35
1006.51404	18392.45
1010.23611	18570.75
1013.95561	18656.65
1017.67255	18672.75
1021.38692	18487.05
1025.09872	18309.35
1028.80796	18291.85
1032.51465	18464.95
1036.21877	18658.05
1039.92035	18694.35
1043.61937	18622.05
1047.31584	18517.95
1051.00976	18398.45
1054.70114	18355.05
1058.38998	18451.65
1062.07627	18624.95
1065.76003	18923.55
1069.44126	19235.25
1073.11995	19635.45
1076.79611	19909.25
1080.46974	19972.35
1084.14085	19752.75
1087.80943	19505.05
1091.47549	19354.85
1095.13903	19176.85
1098.80005	18938.45
1102.45857	18630.05
1106.11456	18420.55
1109.76805	18394.45
1113.41903	18466.75
1117.06751	18571.65
1120.71348	18777.15
1124.35696	18953.75
1127.99793	19187.15
1131.63641	19271.15
1135.2724	19146.05
1138.90589	18966.75
1142.5369	18866.85
1146.16542	18811.55
1149.79145	18860.15
1153.415	18964.25
1157.03607	19117.15
1160.65467	19449.95
1164.27079	19972.95
1167.88443	20724.65
1171.49561	21792.25
1175.10432	23177.65
1178.71056	24860.65
1182.31434	26304.25
1185.91565	26776.15
1189.51451	26513.35
1193.11091	25738.85
1196.70485	24824.95
1200.29634	23992.55
1203.88538	23310.95
1207.47197	22893.35
1211.05612	22503.25
1214.63782	22209.55
1218.21708	21994.35
1221.79391	21859.55
1225.36829	21749.95
1228.94024	21526.15
1232.50976	21224.05
1236.07685	20998.15
1239.6415	20954.65
1243.20374	20937.85
1246.76355	21036.25
1250.32093	21259.95
1253.8759	21599.55
1257.42845	22022.95
1260.97859	22367.65
1264.52631	22731.25
1268.07163	23137.15
1271.61453	23577.15
1275.15503	24039.65
1278.69312	24526.45
1282.22882	24977.65
1285.76211	25471.75
1289.29301	26135.15
1292.82151	27082.25
1296.34761	28089.95
1299.87133	29421.75
1303.39266	30802.45
1306.9116	32353.45
1310.42815	34070.45
1313.94233	35200.95
1317.45412	35429.25
1320.96354	34938.95
1324.47058	34299.75
1327.97525	33510.05
1331.47754	32913.35
1334.97747	32687.15
1338.47502	32649.65
1341.97022	32598.95
1345.46305	32252.15
1348.95352	31866.45
1352.44163	31802.95
1355.92738	32371.45
1359.41078	33567.75
1362.89183	34934.95
1366.37053	34646.75
1369.84688	32217.75
1373.32088	29268.85
1376.79254	27174.05
1380.26186	26335.85
1383.72883	26195.85
1387.19347	26149.25
1390.65578	26056.85
1394.11575	26134.75
1397.57339	26469.75
1401.0287	27072.65
1404.48168	27622.35
1407.93234	27858.65
1411.38068	27665.05
1414.82669	27033.45
1418.27039	25998.65
1421.71177	24935.55
1425.15083	24020.25
1428.58758	23483.25
1432.02203	23388.15
1435.45416	23714.85
1438.88399	24202.25
1442.31151	24581.55
1445.73673	24937.75
1449.15965	25297.25
1452.58027	25620.45
1455.9986	25750.65
1459.41463	25932.05
1462.82837	26308.85
1466.23982	26664.85
1469.64898	27175.05
1473.05586	27330.85
1476.46045	27332.45
1479.86276	27191.45
1483.26279	27032.65
1486.66054	26837.55
1490.05602	26767.55
1493.44922	26740.65
1496.84016	26743.45
1500.22882	26866.05
1503.61521	27340.95
1506.99934	28102.75
1510.38121	28865.25
1513.76081	29176.15
1517.13816	28686.55
1520.51324	27607.35
1523.88607	26631.05
1527.25665	26028.35
1530.62498	25822.25
1533.99105	25835.95
1537.35488	25800.95
1540.71647	25705.85
1544.07581	25471.45
1547.4329	25113.65
1550.78776	24780.65
1554.14038	24494.25
1557.49077	24377.75
1560.83892	24374.25
1564.18484	24447.45
1567.52853	24630.15
1570.86999	24993.75
1574.20922	25610.55
1577.54624	26258.45
1580.88103	26656.05
1584.2136	26658.45
1587.54395	26700.15
1590.87208	27075.35
1594.19801	28009.25
1597.52172	29213.85
1600.84321	29694.25
1604.16251	28884.65
1607.47959	27140.75
1610.79447	25026.85
1614.10715	23140.45
1617.41763	21656.75
1620.7259	20752.35
1624.03199	20257.15
1627.33587	20215.75
1630.63757	20620.15
1633.93707	21511.05
1637.23439	22990.15
1640.52951	25057.45
1643.82246	27469.25
1647.11321	29476.05
1650.40179	29986.05
1653.68819	28522.75
1656.97241	25674.75
1660.25446	22731.55
1663.53433	20466.15
1666.81203	19020.45
1670.08756	18082.15
1673.36092	17483.85
1676.63211	17084.45
1679.90115	16774.95
1683.16801	16591.35
1686.43272	16434.05
1689.69527	16326.55
1692.95567	16235.55
1696.2139	16203.35
1699.46999	16158.85
1702.72392	16125.85
1705.97571	16053.25
1709.22535	16008.95
1712.47284	15997.15
1715.71819	15962.65
1718.96139	15926.55
1722.20246	15880.45
1725.44139	15861.15
1728.67818	15767.55
1731.91284	15707.65
1735.14537	15646.35
1738.37576	15583.25
1741.60403	15553.45
1744.83017	15560.85
1748.05418	15515.95
1751.27607	15475.65
1754.49584	15478.05
1757.71349	15473.05
1760.92903	15450.95
1764.14244	15434.35
1767.35375	15431.25
1770.56294	15415.25
1773.77002	15393.45
1776.97499	15361.55
1780.17785	15349.15
1783.37861	15349.75
1786.57727	15310.25
1789.77382	15255.35
1792.96828	15250.95
1796.16064	15237.75
1799.3509	15213.85
1802.53907	15156.65
1805.72514	15140.95
1808.90913	15073.65
1812.09102	15074.45
1815.27083	15081.05
1818.44856	15034.85
1821.6242	15005.35
1824.79776	15009.55
1827.96924	14992.05
1831.13864	14982.25
1834.30597	14972.45
1837.47122	14947.45
1840.6344	14916.75
1843.7955	14952.95
1846.95454	14946.45
1850.11151	14916.15
1853.26642	14917.05
1856.41926	14901.15
1859.57004	14910.15
1862.71876	14907.85
1865.86542	14898.85
1869.01003	14904.55
1872.15258	14879.25
1875.29308	14916.75
1878.43152	14884.35
1881.56792	14888.55
1884.70227	14844.85
1887.83457	14833.25
1890.96482	14840.85
1894.09304	14826.25
1897.21921	14836.05
1900.34335	14812.75
1903.46544	14778.15
1906.58551	14760.25
1909.70353	14765.15
1912.81953	14776.45
1915.93349	14749.25
1919.04543	14712.75
1922.15534	14708.55
1925.26322	14630.85
1928.36908	14669.25
1931.47292	14637.25
1934.57473	14613.85
1937.67453	14562.35
1940.77232	14528.45
1943.86808	14507.95
1946.96184	14435.05
1950.05358	14419.55
1953.14331	14369.05
1956.23103	14344.95
1959.31675	14265.45
1962.40046	14233.35
1965.48217	14218.45
1968.56188	14175.65
1971.63959	14132.65
1974.7153	14071.95
1977.78901	14040.15
1980.86073	13997.15
1983.93046	13967.85
1986.99819	13910.75
1990.06394	13876.75
1993.1277	13848.85
1996.18947	13780.65
1999.24925	13759.65
2002.30706	13726.85
2005.36288	13698.35
2008.41672	13669.15
2011.46859	13627.95
2014.51848	13619.45
2017.56639	13600.15
2020.61233	13542.25
2023.6563	13526.15
2026.6983	13482.15
2029.73833	13470.85
2032.7764	13450.25
2035.8125	13407.45
2038.84664	13392.75
2041.87881	13378.95
2044.90903	13360.05
2047.93729	13317.75
2050.96359	13340.35
2053.98794	13300.95
2057.01034	13298.35
2060.03078	13268.45
2063.04927	13276.25
2066.06582	13282.05
2069.08042	13252.65
2072.09307	13205.75
2075.10378	13199.25
2078.11255	13173.15
2081.11938	13211.75
2084.12426	13223.55
2087.12722	13219.05
2090.12824	13220.05
2093.12732	13219.95
2096.12447	13210.55
2099.11969	13220.45
2102.11299	13207.75
2105.10435	13197.05
2108.09379	13216.35
2111.08131	13222.75
2114.0669	13231.05
2117.05057	13227.85
2120.03233	13239.75
2123.01216	13277.45
2125.99008	13273.15
2128.96609	13280.45
2131.94018	13306.85
2134.91236	13302.65
2137.88263	13302.35
2140.851	13337.55
2143.81746	13307.65
2146.78201	13301.95
2149.74466	13333.15
2152.7054	13350.15
2155.66425	13345.45
2158.6212	13342.95
2161.57625	13349.15
2164.52941	13340.65
2167.48067	13306.05
2170.43004	13314.25
2173.37752	13307.55
2176.32311	13326.05
2179.26681	13323.45
2182.20863	13325.35
2185.14856	13312.35
2188.08661	13283.95
2191.02278	13277.15
2193.95707	13294.95
2196.88948	13281.85
2199.82001	13286.65
2202.74867	13293.45
2205.67545	13275.55
2208.60037	13250.55
2211.52341	13272.45
2214.44458	13225.65
2217.36388	13195.95
2220.28132	13167.95
2223.1969	13130.35
2226.11061	13121.85
2229.02246	13096.35
2231.93245	13076.65
2234.84058	13062.75
2237.74686	13055.75
2240.65128	13043.65
2243.55385	13022.15
2246.45456	12987.95
2249.35343	12957.25
2252.25044	12959.05
2255.14561	12964.85
2258.03893	12904.95
2260.93041	12905.95
2263.82004	12886.75
2266.70783	12867.95
2269.59378	12795.85
2272.4779	12803.75
2275.36017	12780.25
2278.24061	12745.15
2281.11922	12713.75
2283.996	12691.35
2286.87094	12670.85
2289.74405	12652.25
2292.61534	12629.75
2295.4848	12606.45
2298.35243	12641.35
2301.21824	12586.45
2304.08223	12593.65
2306.94439	12602.25
2309.80474	12575.55
2312.66327	12630.85
2315.51999	12610.35
2318.37489	12583.75
2321.22797	12580.25
2324.07925	12583.45
2326.92871	12557.85
2329.77637	12552.75
2332.62222	12530.05
2335.46626	12531.05
2338.3085	12495.45
2341.14893	12486.95
2343.98756	12480.55
2346.8244	12464.25
2349.65943	12450.25
2352.49267	12451.75
2355.32411	12465.95
2358.15376	12465.25
2360.98161	12426.85
2363.80768	12443.65
2366.63195	12431.55
2369.45444	12398.85
2372.27514	12395.85
2375.09405	12375.85
2377.91118	12320.85
2380.72652	12338.75
2383.54009	12291.65
2386.35187	12303.25
2389.16188	12252.65
2391.97011	12209.55
2394.77657	12199.05
2397.58125	12203.75
2400.38416	12176.15
2403.18529	12152.35
2405.98466	12135.25
2408.78226	12156.75
2411.57809	12144.05
2414.37216	12066.55
2417.16446	12085.75
2419.955	12054.05
2422.74378	12064.55
2425.5308	12033.45
2428.31606	12012.05
2431.09956	12004.85
2433.88131	11990.35
2436.6613	11990.05
2439.43954	11985.75
2442.21603	11976.45
2444.99077	11967.25
2447.76377	11968.05
2450.53501	11970.75
2453.30451	11951.65
2456.07226	11964.95
2458.83827	11932.75
2461.60254	11926.95
2464.36507	11908.45
2467.12586	11919.75
2469.88492	11922.55
2472.64224	11868.65
2475.39782	11909.75
2478.15167	11891.15
2480.90379	11888.95
2483.65417	11915.05
2486.40283	11921.55
2489.14976	11916.65
2491.89497	11897.25
2494.63845	11911.45
2497.3802	11883.85
2500.12024	11886.45
2502.85855	11877.75
2505.59514	11868.75
2508.33002	11871.25
2511.06318	11854.45
2513.79462	11841.35
2516.52435	11838.55
2519.25237	11827.75
2521.97867	11792.95
2524.70327	11814.45
2527.42616	11772.35
2530.14734	11753.85
2532.86681	11740.35
2535.58458	11762.45
2538.30065	11753.35
2541.01501	11732.25
2543.72768	11705.95
2546.43864	11698.05
2549.14791	11686.65
2551.85548	11664.65
2554.56136	11629.55
2557.26554	11618.45
2559.96803	11575.85
2562.66883	11599.45
2565.36794	11606.65
2568.06536	11558.55
2570.7611	11560.15
2573.45514	11590.95
2576.14751	11563.15
2578.83819	11536.75
2581.52719	11538.55
2584.21451	11519.05
2586.90015	11518.55
2589.58411	11494.35
2592.2664	11468.25
2594.94701	11452.85
2597.62594	11465.45
2600.30321	11436.85
2602.9788	11424.25
2605.65273	11389.95
2608.32498	11394.15
2610.99557	11403.45
2613.66449	11387.05
2616.33175	11387.15
2618.99734	11358.65
2621.66128	11348.25
2624.32355	11386.55
2626.98416	11353.25
2629.64311	11347.85
2632.30041	11348.55
2634.95605	11331.85
2637.61004	11327.45
2640.26238	11309.15
2642.91306	11330.25
2645.56209	11289.35
2648.20948	11288.65
2650.85521	11272.85
2653.4993	11282.85
2656.14175	11277.65
2658.78255	11265.35
2661.42171	11297.35
2664.05923	11293.95
2666.6951	11297.05
2669.32934	11312.05
2671.96194	11299.15
2674.59291	11280.95
2677.22224	11289.55
2679.84993	11286.15
2682.476	11300.15
2685.10043	11279.65
2687.72324	11256.65
2690.34441	11279.45
2692.96396	11251.85
2695.58188	11273.45
2698.19818	11272.85
2700.81285	11284.75
2703.4259	11288.45
2706.03733	11318.15
2708.64714	11313.55
2711.25533	11318.05
2713.86191	11301.35
2716.46687	11295.25
2719.07021	11295.95
2721.67194	11271.45
2724.27206	11289.75
2726.87057	11294.85
2729.46747	11292.55
2732.06276	11286.75
2734.65644	11310.75
2737.24852	11294.05
2739.83899	11266.45
2742.42786	11267.95
2745.01513	11258.75
2747.60079	11236.65
2750.18486	11259.45
2752.76733	11242.15
2755.3482	11213.65
2757.92747	11236.15
2760.50515	11226.85
2763.08123	11234.85
2765.65573	11224.05
2768.22863	11198.75
2770.79994	11216.85
2773.36967	11199.45
2775.9378	11179.25
2778.50435	11191.75
2781.06932	11177.65
2783.6327	11156.55
2786.1945	11159.35
2788.75471	11144.75
2791.31335	11130.85
2793.87041	11121.05
2796.42589	11074.25
2798.97979	11074.45
2801.53212	11047.85
2804.08288	11061.45
2806.63206	11009.55
2809.17967	10987.55
2811.72571	10961.15
2814.27018	10987.05
2816.81308	10932.05
2819.35442	10935.35
2821.89419	10903.55
2824.43239	10890.45
2826.96904	10892.95
2829.50412	10892.45
2832.03763	10857.65
2834.56959	10859.95
2837.1	10850.75
2839.62884	10847.25
2842.15613	10840.85
2844.68186	10884.35
2847.20604	10862.15
2849.72867	10860.15
2852.24974	10826.05
2854.76927	10845.25
2857.28724	10852.95
2859.80367	10815.85
2862.31855	10804.75
2864.83189	10792.85
2867.34368	10792.85
2869.85393	10771.15
2872.36264	10758.35
2874.8698	10771.65
2877.37543	10788.25
2879.87952	10800.75
2882.38207	10784.65
2884.88308	10783.05
2887.38256	10810.95
2889.88051	10812.65
2892.37692	10775.65
2894.8718	10776.95
2897.36515	10820.45
2899.85698	10793.95
2902.34727	10800.95
2904.83604	10834.95
2907.32328	10826.35
2909.809	10833.15
2912.29319	10834.35
2914.77587	10838.15
2917.25702	10826.35
2919.73665	10844.15
2922.21476	10844.85
2924.69136	10817.05
2927.16644	10812.35
2929.64	10800.75
2932.11205	10798.65
2934.58258	10749.85
2937.05161	10795.45
2939.51912	10783.75
2941.98513	10794.25
2944.44962	10750.75
2946.91261	10706.85
2949.37409	10716.95
2951.83407	10713.85
2954.29254	10727.25
2956.74951	10681.45
2959.20498	10656.35
2961.65895	10630.05
2964.11142	10653.35
2966.56239	10610.95
2969.01186	10596.95
2971.45984	10570.05
2973.90632	10546.95
2976.35131	10525.85
2978.7948	10517.45
2981.23681	10500.95
2983.67732	10450.75
2986.11635	10464.15
2988.55388	10417.35
2990.98993	10401.35
2993.4245	10389.65
2995.85758	10371.15
2998.28917	10346.35
3000.71928	10337.45
3003.14791	10327.85
3005.57506	10305.75
3008.00073	10297.55
3010.42493	10280.55
3012.84764	10244.85
3015.26888	10241.05
3017.68865	10215.35
3020.10694	10212.65
3022.52376	10186.95
3024.9391	10182.55
3027.35298	10151.45
3029.76539	10167.55
3032.17632	10151.85
3034.5858	10142.75
3036.9938	10123.85
3039.40034	10138.75
3041.80542	10141.75
3044.20903	10094.35
3046.61118	10087.25
3049.01187	10044.55
3051.4111	10041.95
3053.80888	10039.45
3056.20519	10048.55
3058.60005	9987.05
3060.99345	9984.15
3063.3854	9958.45
3065.7759	9935.55
3068.16494	9932.35
3070.55254	9897.85
3072.93868	9880.05
3075.32338	9846.15
3077.70662	9841.15
3080.08842	9790.45
3082.46878	9810.05
3084.84769	9805.55
3087.22515	9775.75
3089.60118	9805.85
3091.97576	9812.05
3094.3489	9804.45
3096.72061	9793.95
3099.09087	9795.85
3101.4597	9786.35
3103.82709	9775.95
3106.19305	9770.45
3108.55757	9781.75
3110.92066	9731.85
3113.28232	9711.95
3115.64255	9695.95
3118.00134	9681.65
3120.35871	9662.85
3122.71466	9660.65
3125.06917	9647.05
3127.42226	9624.25
3129.77393	9638.25
3132.12417	9619.65
3134.47299	9668.45
3136.82039	9641.75
3139.16636	9659.55
3141.51092	9650.65
3143.85406	9643.15
3146.19579	9657.35
3148.53609	9647.65
3150.87499	9633.95
3153.21246	9665.15
3155.54853	9663.65
3157.88318	9636.95
3160.21642	9647.95
3162.54826	9613.05
3164.87868	9632.95
3167.2077	9625.85
3169.5353	9648.05
3171.86151	9648.65
3174.18631	9641.65
3176.5097	9648.85
3178.83169	9620.75
3181.15228	9627.75
3183.47147	9586.95
3185.78926	9609.85
3188.10565	9620.05
3190.42065	9593.15
3192.73424	9621.65
3195.04645	9606.65
3197.35725	9584.95
3199.66667	9593.15
3201.97469	9608.25
3204.28132	9587.75
3206.58656	9601.35
3208.8904	9598.25
3211.19287	9612.15
3213.49394	9616.75
3215.79363	9609.25
3218.09193	9596.55
3220.38884	9597.15
3222.68438	9609.15
3224.97853	9611.45
3227.2713	9587.45
3229.56269	9565.25
3231.8527	9591.35
3234.14133	9581.55
3236.42858	9553.45
3238.71446	9563.05
3240.99896	9493.65
3243.28209	9508.85
3245.56384	9545.95
3247.84423	9524.75
3250.12324	9524.75
3252.40088	9516.95
3254.67715	9537.05
3256.95205	9478.15
3259.22558	9474.15
3261.49775	9470.05
3263.76855	9463.55
3266.03799	9428.35
3268.30606	9410.35
3270.57277	9395.75
3272.83812	9373.65
3275.10211	9366.55
3277.36474	9365.65
3279.62601	9366.15
3281.88593	9340.75
3284.14448	9345.35
3286.40168	9367.45
3288.65753	9321.75
3290.91202	9320.45
3293.16516	9304.25
3295.41695	9276.65
3297.66738	9220.25
3299.91647	9198.85
3302.16421	9136.25
3304.4106	9101.35
3306.65564	9042.55
3308.89933	8992.95
3311.14169	8939.45
3313.38269	8887.85
3315.62236	8823.15
3317.86068	8769.55
3320.09766	8676.05
3322.3333	8582.15
3324.5676	8598.35
3326.80056	8476.65
3329.03219	8438.45
3331.26248	3.75
3333.49143	-1.05
3335.71905	0.25
