Data from AgNP_FTO_APTES_CRN_20uM_R6G_10uM_NaF_0.1M_Addition_RamanShift__9__17-10-58-014.txt Node

Date: Wed Dec 15 17:10:58 GMT 2021
User: TCL
Spectrometer: QEP01345
Trigger mode: 4
Integration Time (sec): 7.000000E0
Scans to average: 10
Electric dark correction enabled: true
Nonlinearity correction enabled: false
Boxcar width: 0
XAxis mode: Raman Shifts
Number of Pixels in Spectrum: 1044
>>>>>Begin Spectral Data<<<<<
46.04893	0.55
50.45542	-2.25
54.85868	-0.05
59.25871	0.05
63.6555	63.15
68.04907	68.35
72.43941	72.25
76.82654	75.05
81.21044	77.65
85.59113	79.15
89.96862	83.15
94.34289	79.75
98.71396	89.05
103.08183	90.65
107.4465	95.75
111.80798	94.25
116.16626	98.85
120.52136	100.25
124.87327	97.65
129.222	106.65
133.56755	107.45
137.90993	118.25
142.24913	129.25
146.58517	140.15
150.91804	159.25
155.24774	187.85
159.57429	232.95
163.89768	293.45
168.21792	383.25
172.53501	519.05
176.84895	724.05
181.15975	1005.05
185.46741	1413.55
189.77193	1936.55
194.07331	2595.85
198.37157	3348.05
202.6667	4157.35
206.9587	4950.95
211.24758	5697.25
215.53334	6471.85
219.81599	7279.45
224.09553	8172.15
228.37195	9149.05
232.64527	10255.55
236.91549	11390.25
241.18261	12567.35
245.44663	13668.75
249.70755	14652.95
253.96539	15534.85
258.22014	16239.85
262.4718	16833.05
266.72039	17250.05
270.96589	17478.75
275.20832	17507.35
279.44768	17413.65
283.68397	17240.25
287.91719	17170.05
292.14735	17076.15
296.37445	17045.05
300.59849	17105.25
304.81948	17139.85
309.03742	17162.15
313.25231	17027.25
317.46415	16821.15
321.67296	16496.75
325.87872	16204.15
330.08145	16012.45
334.28114	15990.15
338.47781	16101.95
342.67145	16279.45
346.86207	16550.55
351.04966	16768.85
355.23424	17032.45
359.4158	17227.75
363.59435	17383.65
367.76989	17492.15
371.94243	17516.35
376.11196	17564.45
380.27849	17609.05
384.44203	17614.45
388.60257	17766.65
392.76012	17952.45
396.91468	18193.85
401.06626	18489.95
405.21485	18668.45
409.36047	18681.05
413.50311	18537.05
417.64277	18440.95
421.77947	18489.65
425.9132	18621.25
430.04396	18724.75
434.17176	18838.55
438.2966	18846.85
442.41849	18974.25
446.53742	19317.25
450.6534	19674.35
454.76644	19960.65
458.87653	20060.85
462.98368	20031.75
467.08789	19862.05
471.18916	19687.85
475.2875	19456.65
479.38291	19265.65
483.4754	19149.65
487.56496	18911.45
491.6516	18744.75
495.73531	18586.45
499.81612	18600.45
503.89401	18759.75
507.96899	18888.85
512.04106	18926.05
516.11023	18846.25
520.1765	18735.55
524.23987	18597.45
528.30034	18424.05
532.35792	18285.95
536.41261	18112.75
540.46441	17918.95
544.51333	17982.25
548.55936	18113.55
552.60252	18438.05
556.64279	18815.45
560.6802	19004.05
564.71473	19076.55
568.7464	19257.85
572.7752	19691.95
576.80114	20219.15
580.82422	20905.95
584.84444	21638.95
588.86181	22332.55
592.87633	22750.75
596.888	22519.15
600.89682	21797.05
604.9028	21581.75
608.90594	22406.75
612.90624	23425.85
616.90371	22245.25
620.89834	19615.15
624.89015	18389.25
628.87913	18247.55
632.86528	18388.85
636.84862	18442.15
640.82913	18245.95
644.80683	17902.35
648.78172	17693.95
652.75379	17636.35
656.72306	17759.15
660.68952	17977.85
664.65319	17915.25
668.61405	17715.45
672.57211	17702.05
676.52738	17768.45
680.47986	17768.55
684.42955	17676.75
688.37646	17618.45
692.32058	17686.05
696.26192	17873.95
700.20048	18093.55
704.13626	18242.95
708.06928	18293.75
711.99952	18298.25
715.927	18219.15
719.85171	18223.75
723.77365	18104.95
727.69284	17860.65
731.60928	17636.35
735.52295	17540.15
739.43388	17533.15
743.34206	17571.85
747.24749	17625.35
751.15017	17780.25
755.05012	18060.15
758.94733	18508.15
762.8418	19233.65
766.73354	20363.75
770.62254	21389.95
774.50882	21480.65
778.39237	20603.35
782.27321	19473.35
786.15132	18573.45
790.02671	17999.75
793.89938	17674.75
797.76935	17570.35
801.6366	17513.75
805.50115	17457.85
809.36299	17399.45
813.22213	17306.85
817.07857	17256.75
820.93231	17159.85
824.78336	17128.05
828.63172	17071.35
832.47738	17076.25
836.32036	17103.15
840.16066	17088.55
843.99827	17098.45
847.8332	17042.05
851.66546	17042.45
855.49504	17053.35
859.32195	17039.25
863.1462	16989.25
866.96777	17001.55
870.78668	16970.85
874.60293	16964.05
878.41652	16970.35
882.22745	17055.65
886.03573	17120.25
889.84136	17130.35
893.64433	17084.65
897.44466	17046.05
901.24235	16972.05
905.0374	16950.65
908.8298	16938.95
912.61957	16919.05
916.40671	17082.25
920.19121	17260.15
923.97308	17412.35
927.75233	17384.45
931.52895	17276.15
935.30295	17030.35
939.07433	16817.05
942.84309	16630.95
946.60924	16529.65
950.37278	16475.45
954.13371	16473.05
957.89203	16462.45
961.64774	16458.65
965.40086	16400.35
969.15137	16391.45
972.89929	16356.65
976.64461	16299.75
980.38733	16281.35
984.12747	16327.05
987.86502	16399.95
991.59999	16436.75
995.33237	16534.25
999.06217	16776.85
1002.78939	17005.65
1006.51404	17315.35
1010.23611	17621.85
1013.95561	17805.05
1017.67255	17795.15
1021.38692	17681.65
1025.09872	17444.05
1028.80796	17267.75
1032.51465	17196.65
1036.21877	17279.25
1039.92035	17386.65
1043.61937	17424.75
1047.31584	17504.65
1051.00976	17486.75
1054.70114	17634.25
1058.38998	17831.25
1062.07627	18111.25
1065.76003	18540.25
1069.44126	18998.55
1073.11995	19439.45
1076.79611	19698.35
1080.46974	19667.05
1084.14085	19423.75
1087.80943	19253.65
1091.47549	19220.25
1095.13903	19111.45
1098.80005	18857.95
1102.45857	18466.35
1106.11456	18103.15
1109.76805	17887.05
1113.41903	17810.75
1117.06751	17869.95
1120.71348	17973.85
1124.35696	18147.55
1127.99793	18354.65
1131.63641	18488.75
1135.2724	18452.25
1138.90589	18386.35
1142.5369	18403.65
1146.16542	18496.15
1149.79145	18554.85
1153.415	18678.65
1157.03607	18841.55
1160.65467	19205.55
1164.27079	19924.85
1167.88443	20789.65
1171.49561	21740.55
1175.10432	22950.55
1178.71056	24370.35
1182.31434	25753.75
1185.91565	26495.85
1189.51451	26592.25
1193.11091	26206.55
1196.70485	25462.05
1200.29634	24513.65
1203.88538	23852.25
1207.47197	23412.45
1211.05612	23086.75
1214.63782	22696.45
1218.21708	22169.95
1221.79391	21534.65
1225.36829	21145.55
1228.94024	20953.95
1232.50976	20827.55
1236.07685	20711.65
1239.6415	20612.45
1243.20374	20624.75
1246.76355	20688.35
1250.32093	20941.85
1253.8759	21283.65
1257.42845	21810.85
1260.97859	22386.35
1264.52631	22890.15
1268.07163	23431.75
1271.61453	23896.25
1275.15503	24391.85
1278.69312	24843.25
1282.22882	25358.85
1285.76211	26007.75
1289.29301	26752.35
1292.82151	27641.45
1296.34761	28731.75
1299.87133	30078.25
1303.39266	31404.45
1306.9116	32675.55
1310.42815	33675.05
1313.94233	34173.05
1317.45412	34123.55
1320.96354	33658.65
1324.47058	33359.35
1327.97525	33278.55
1331.47754	33297.95
1334.97747	33400.35
1338.47502	33461.95
1341.97022	33515.55
1345.46305	33479.85
1348.95352	33387.95
1352.44163	33335.35
1355.92738	33558.55
1359.41078	34204.35
1362.89183	34735.05
1366.37053	34097.05
1369.84688	32026.35
1373.32088	29299.65
1376.79254	27237.45
1380.26186	26325.85
1383.72883	26156.85
1387.19347	26037.65
1390.65578	25753.65
1394.11575	25537.15
1397.57339	25540.85
1401.0287	25736.45
1404.48168	25905.95
1407.93234	25828.35
1411.38068	25517.85
1414.82669	24864.45
1418.27039	24007.35
1421.71177	23141.55
1425.15083	22519.15
1428.58758	22304.65
1432.02203	22459.45
1435.45416	22939.55
1438.88399	23511.45
1442.31151	23929.15
1445.73673	24156.55
1449.15965	24259.45
1452.58027	24350.55
1455.9986	24397.45
1459.41463	24563.05
1462.82837	24936.95
1466.23982	25383.75
1469.64898	25766.05
1473.05586	26017.65
1476.46045	26070.15
1479.86276	26022.85
1483.26279	25873.05
1486.66054	25812.55
1490.05602	26035.65
1493.44922	26330.15
1496.84016	26720.45
1500.22882	27350.25
1503.61521	28143.85
1506.99934	28991.95
1510.38121	29548.95
1513.76081	29503.45
1517.13816	28949.95
1520.51324	28164.05
1523.88607	27554.55
1527.25665	27308.85
1530.62498	27251.85
1533.99105	27150.85
1537.35488	26932.45
1540.71647	26423.25
1544.07581	25792.05
1547.4329	25139.55
1550.78776	24549.05
1554.14038	24124.55
1557.49077	23913.55
1560.83892	23851.25
1564.18484	23886.35
1567.52853	24078.35
1570.86999	24429.75
1574.20922	25061.15
1577.54624	25646.65
1580.88103	25998.65
1584.2136	26120.95
1587.54395	26237.05
1590.87208	26612.65
1594.19801	27426.25
1597.52172	28457.25
1600.84321	28748.75
1604.16251	27814.35
1607.47959	26189.65
1610.79447	24413.15
1614.10715	22708.45
1617.41763	21230.85
1620.7259	20179.05
1624.03199	19582.15
1627.33587	19490.55
1630.63757	19871.15
1633.93707	20731.95
1637.23439	22392.55
1640.52951	24839.05
1643.82246	27708.85
1647.11321	30058.25
1650.40179	30593.95
1653.68819	28795.55
1656.97241	25699.45
1660.25446	22569.25
1663.53433	20141.05
1666.81203	18501.15
1670.08756	17469.45
1673.36092	16787.85
1676.63211	16336.05
1679.90115	16015.35
1683.16801	15796.65
1686.43272	15612.55
1689.69527	15512.45
1692.95567	15394.25
1696.2139	15368.65
1699.46999	15324.95
1702.72392	15244.55
1705.97571	15212.45
1709.22535	15167.05
1712.47284	15140.25
1715.71819	15119.65
1718.96139	15094.85
1722.20246	15059.75
1725.44139	14993.85
1728.67818	14905.05
1731.91284	14836.65
1735.14537	14752.75
1738.37576	14687.65
1741.60403	14644.15
1744.83017	14625.95
1748.05418	14583.05
1751.27607	14558.15
1754.49584	14546.05
1757.71349	14530.85
1760.92903	14530.95
1764.14244	14531.35
1767.35375	14516.65
1770.56294	14489.45
1773.77002	14447.15
1776.97499	14437.85
1780.17785	14393.25
1783.37861	14366.85
1786.57727	14358.75
1789.77382	14299.65
1792.96828	14294.15
1796.16064	14260.55
1799.3509	14241.35
1802.53907	14203.55
1805.72514	14158.85
1808.90913	14137.35
1812.09102	14077.05
1815.27083	14066.45
1818.44856	14080.55
1821.6242	14028.55
1824.79776	14050.25
1827.96924	14025.35
1831.13864	14030.85
1834.30597	14061.55
1837.47122	14041.35
1840.6344	14035.25
1843.7955	13997.45
1846.95454	14008.45
1850.11151	13993.15
1853.26642	13968.35
1856.41926	13988.55
1859.57004	13969.15
1862.71876	13966.05
1865.86542	13931.25
1869.01003	13923.75
1872.15258	13890.25
1875.29308	13863.95
1878.43152	13816.15
1881.56792	13842.25
1884.70227	13797.95
1887.83457	13780.05
1890.96482	13770.25
1894.09304	13746.85
1897.21921	13746.85
1900.34335	13738.05
1903.46544	13709.35
1906.58551	13674.35
1909.70353	13667.25
1912.81953	13640.35
1915.93349	13617.05
1919.04543	13601.15
1922.15534	13553.35
1925.26322	13555.45
1928.36908	13514.55
1931.47292	13485.95
1934.57473	13445.55
1937.67453	13401.85
1940.77232	13379.75
1943.86808	13372.85
1946.96184	13340.15
1950.05358	13308.15
1953.14331	13272.55
1956.23103	13246.15
1959.31675	13209.75
1962.40046	13163.65
1965.48217	13147.55
1968.56188	13118.35
1971.63959	13065.75
1974.7153	13031.65
1977.78901	12980.55
1980.86073	12917.85
1983.93046	12877.55
1986.99819	12871.25
1990.06394	12855.25
1993.1277	12808.75
1996.18947	12727.85
1999.24925	12691.75
2002.30706	12662.65
2005.36288	12630.75
2008.41672	12623.35
2011.46859	12557.25
2014.51848	12530.75
2017.56639	12521.45
2020.61233	12471.25
2023.6563	12435.45
2026.6983	12408.05
2029.73833	12405.35
2032.7764	12397.65
2035.8125	12358.35
2038.84664	12287.95
2041.87881	12283.15
2044.90903	12248.55
2047.93729	12234.25
2050.96359	12238.45
2053.98794	12225.05
2057.01034	12221.25
2060.03078	12206.25
2063.04927	12174.45
2066.06582	12199.85
2069.08042	12172.15
2072.09307	12170.95
2075.10378	12142.35
2078.11255	12133.45
2081.11938	12134.15
2084.12426	12155.85
2087.12722	12146.85
2090.12824	12126.15
2093.12732	12144.55
2096.12447	12142.85
2099.11969	12146.05
2102.11299	12166.85
2105.10435	12189.15
2108.09379	12163.75
2111.08131	12199.05
2114.0669	12203.55
2117.05057	12194.15
2120.03233	12188.65
2123.01216	12159.55
2125.99008	12205.15
2128.96609	12219.15
2131.94018	12228.65
2134.91236	12237.85
2137.88263	12235.75
2140.851	12232.95
2143.81746	12239.65
2146.78201	12248.95
2149.74466	12232.15
2152.7054	12260.95
2155.66425	12239.15
2158.6212	12263.05
2161.57625	12265.55
2164.52941	12258.85
2167.48067	12246.85
2170.43004	12236.35
2173.37752	12204.45
2176.32311	12218.65
2179.26681	12213.35
2182.20863	12220.05
2185.14856	12220.75
2188.08661	12195.05
2191.02278	12228.15
2193.95707	12205.25
2196.88948	12199.15
2199.82001	12151.75
2202.74867	12143.45
2205.67545	12153.25
2208.60037	12149.15
2211.52341	12133.85
2214.44458	12141.65
2217.36388	12090.95
2220.28132	12057.65
2223.1969	12036.65
2226.11061	12027.85
2229.02246	12031.85
2231.93245	11997.85
2234.84058	11965.15
2237.74686	11982.55
2240.65128	11942.75
2243.55385	11917.25
2246.45456	11893.75
2249.35343	11873.95
2252.25044	11879.55
2255.14561	11857.15
2258.03893	11840.05
2260.93041	11816.65
2263.82004	11793.05
2266.70783	11795.45
2269.59378	11751.75
2272.4779	11700.15
2275.36017	11672.85
2278.24061	11659.15
2281.11922	11634.85
2283.996	11614.85
2286.87094	11594.35
2289.74405	11586.65
2292.61534	11554.25
2295.4848	11540.05
2298.35243	11560.65
2301.21824	11543.25
2304.08223	11546.85
2306.94439	11527.35
2309.80474	11526.35
2312.66327	11514.95
2315.51999	11484.75
2318.37489	11490.45
2321.22797	11461.95
2324.07925	11466.15
2326.92871	11459.75
2329.77637	11458.15
2332.62222	11427.15
2335.46626	11401.85
2338.3085	11407.35
2341.14893	11392.05
2343.98756	11366.15
2346.8244	11388.35
2349.65943	11374.95
2352.49267	11348.35
2355.32411	11399.05
2358.15376	11344.65
2360.98161	11380.55
2363.80768	11362.45
2366.63195	11356.95
2369.45444	11318.35
2372.27514	11302.05
2375.09405	11291.45
2377.91118	11273.45
2380.72652	11239.75
2383.54009	11244.45
2386.35187	11252.55
2389.16188	11199.85
2391.97011	11178.85
2394.77657	11188.55
2397.58125	11158.65
2400.38416	11147.25
2403.18529	11111.25
2405.98466	11100.75
2408.78226	11080.05
2411.57809	11084.15
2414.37216	11077.85
2417.16446	11048.65
2419.955	11032.05
2422.74378	11057.85
2425.5308	11022.55
2428.31606	11011.75
2431.09956	10992.15
2433.88131	10997.05
2436.6613	11008.85
2439.43954	10953.95
2442.21603	10956.25
2444.99077	10944.45
2447.76377	10959.15
2450.53501	10977.35
2453.30451	10912.95
2456.07226	10929.75
2458.83827	10904.25
2461.60254	10919.55
2464.36507	10918.45
2467.12586	10908.95
2469.88492	10887.45
2472.64224	10888.15
2475.39782	10889.55
2478.15167	10907.35
2480.90379	10895.85
2483.65417	10887.25
2486.40283	10891.35
2489.14976	10884.95
2491.89497	10869.15
2494.63845	10909.25
2497.3802	10884.75
2500.12024	10862.95
2502.85855	10877.15
2505.59514	10862.65
2508.33002	10854.65
2511.06318	10810.35
2513.79462	10840.05
2516.52435	10817.15
2519.25237	10805.95
2521.97867	10792.95
2524.70327	10794.45
2527.42616	10789.15
2530.14734	10779.25
2532.86681	10776.25
2535.58458	10756.65
2538.30065	10705.35
2541.01501	10722.35
2543.72768	10723.65
2546.43864	10700.35
2549.14791	10670.15
2551.85548	10686.95
2554.56136	10624.55
2557.26554	10627.05
2559.96803	10637.85
2562.66883	10632.15
2565.36794	10632.05
2568.06536	10606.95
2570.7611	10589.15
2573.45514	10595.15
2576.14751	10578.05
2578.83819	10573.15
2581.52719	10555.05
2584.21451	10524.95
2586.90015	10521.05
2589.58411	10495.95
2592.2664	10504.05
2594.94701	10472.45
2597.62594	10447.35
2600.30321	10428.95
2602.9788	10439.95
2605.65273	10401.25
2608.32498	10402.35
2610.99557	10400.55
2613.66449	10400.25
2616.33175	10384.45
2618.99734	10384.25
2621.66128	10375.75
2624.32355	10344.65
2626.98416	10362.55
2629.64311	10340.25
2632.30041	10323.85
2634.95605	10344.25
2637.61004	10320.45
2640.26238	10307.55
2642.91306	10319.55
2645.56209	10297.55
2648.20948	10309.85
2650.85521	10296.65
2653.4993	10279.25
2656.14175	10289.35
2658.78255	10297.55
2661.42171	10291.85
2664.05923	10307.35
2666.6951	10293.25
2669.32934	10285.45
2671.96194	10289.55
2674.59291	10276.95
2677.22224	10289.45
2679.84993	10291.25
2682.476	10290.65
2685.10043	10302.35
2687.72324	10293.75
2690.34441	10293.25
2692.96396	10296.65
2695.58188	10306.05
2698.19818	10291.75
2700.81285	10317.45
2703.4259	10324.25
2706.03733	10377.35
2708.64714	10316.15
2711.25533	10354.75
2713.86191	10328.85
2716.46687	10347.55
2719.07021	10297.75
2721.67194	10341.25
2724.27206	10326.05
2726.87057	10310.75
2729.46747	10287.95
2732.06276	10313.05
2734.65644	10295.25
2737.24852	10321.55
2739.83899	10273.75
2742.42786	10316.75
2745.01513	10275.65
2747.60079	10285.45
2750.18486	10296.55
2752.76733	10290.85
2755.3482	10291.05
2757.92747	10276.85
2760.50515	10254.15
2763.08123	10254.15
2765.65573	10231.65
2768.22863	10217.75
2770.79994	10218.35
2773.36967	10190.35
2775.9378	10199.35
2778.50435	10175.75
2781.06932	10166.55
2783.6327	10167.15
2786.1945	10165.75
2788.75471	10140.55
2791.31335	10116.65
2793.87041	10108.05
2796.42589	10101.75
2798.97979	10085.45
2801.53212	10045.15
2804.08288	10077.05
2806.63206	10016.95
2809.17967	9981.55
2811.72571	9971.95
2814.27018	9974.45
2816.81308	9949.45
2819.35442	9946.45
2821.89419	9924.95
2824.43239	9939.85
2826.96904	9926.65
2829.50412	9907.55
2832.03763	9873.25
2834.56959	9872.05
2837.1	9872.95
2839.62884	9871.65
2842.15613	9877.15
2844.68186	9867.55
2847.20604	9872.05
2849.72867	9853.05
2852.24974	9838.25
2854.76927	9853.35
2857.28724	9852.95
2859.80367	9853.15
2862.31855	9810.45
2864.83189	9818.05
2867.34368	9792.15
2869.85393	9775.25
2872.36264	9778.45
2874.8698	9774.25
2877.37543	9766.15
2879.87952	9803.05
2882.38207	9784.85
2884.88308	9758.45
2887.38256	9774.85
2889.88051	9791.55
2892.37692	9782.15
2894.8718	9754.55
2897.36515	9757.55
2899.85698	9772.65
2902.34727	9778.35
2904.83604	9781.45
2907.32328	9779.55
2909.809	9794.55
2912.29319	9800.55
2914.77587	9778.55
2917.25702	9780.85
2919.73665	9764.75
2922.21476	9763.25
2924.69136	9758.45
2927.16644	9775.65
2929.64	9793.55
2932.11205	9758.75
2934.58258	9730.45
2937.05161	9744.85
2939.51912	9754.25
2941.98513	9737.65
2944.44962	9700.95
2946.91261	9667.25
2949.37409	9685.25
2951.83407	9691.95
2954.29254	9685.35
2956.74951	9649.75
2959.20498	9656.25
2961.65895	9637.25
2964.11142	9655.55
2966.56239	9630.95
2969.01186	9604.65
2971.45984	9594.95
2973.90632	9562.75
2976.35131	9550.65
2978.7948	9531.95
2981.23681	9518.25
2983.67732	9539.25
2986.11635	9513.85
2988.55388	9469.35
2990.98993	9445.85
2993.4245	9432.75
2995.85758	9423.75
2998.28917	9395.15
3000.71928	9391.75
3003.14791	9353.65
3005.57506	9350.95
3008.00073	9316.25
3010.42493	9329.95
3012.84764	9296.75
3015.26888	9287.75
3017.68865	9270.65
3020.10694	9257.45
3022.52376	9239.35
3024.9391	9225.55
3027.35298	9232.45
3029.76539	9237.15
3032.17632	9231.75
3034.5858	9199.75
3036.9938	9188.85
3039.40034	9188.45
3041.80542	9195.25
3044.20903	9174.15
3046.61118	9191.15
3049.01187	9133.25
3051.4111	9129.35
3053.80888	9130.05
3056.20519	9092.75
3058.60005	9101.35
3060.99345	9047.15
3063.3854	9034.05
3065.7759	9026.15
3068.16494	9010.85
3070.55254	8991.45
3072.93868	8977.85
3075.32338	8924.75
3077.70662	8925.55
3080.08842	8892.95
3082.46878	8885.35
3084.84769	8894.85
3087.22515	8870.25
3089.60118	8893.85
3091.97576	8876.65
3094.3489	8878.25
3096.72061	8841.95
3099.09087	8855.75
3101.4597	8848.25
3103.82709	8849.85
3106.19305	8844.05
3108.55757	8823.15
3110.92066	8804.25
3113.28232	8802.35
3115.64255	8776.35
3118.00134	8767.05
3120.35871	8741.75
3122.71466	8723.85
3125.06917	8709.55
3127.42226	8708.25
3129.77393	8726.35
3132.12417	8678.35
3134.47299	8720.25
3136.82039	8712.95
3139.16636	8729.85
3141.51092	8709.85
3143.85406	8695.25
3146.19579	8729.75
3148.53609	8717.45
3150.87499	8724.85
3153.21246	8707.15
3155.54853	8748.85
3157.88318	8709.95
3160.21642	8708.95
3162.54826	8709.45
3164.87868	8700.95
3167.2077	8723.45
3169.5353	8686.05
3171.86151	8709.25
3174.18631	8682.65
3176.5097	8702.55
3178.83169	8662.75
3181.15228	8658.15
3183.47147	8665.15
3185.78926	8687.35
3188.10565	8650.75
3190.42065	8626.45
3192.73424	8636.45
3195.04645	8639.25
3197.35725	8632.85
3199.66667	8636.15
3201.97469	8642.05
3204.28132	8643.85
3206.58656	8649.75
3208.8904	8641.85
3211.19287	8660.75
3213.49394	8646.95
3215.79363	8650.65
3218.09193	8660.85
3220.38884	8627.35
3222.68438	8656.25
3224.97853	8609.65
3227.2713	8610.65
3229.56269	8608.05
3231.8527	8596.25
3234.14133	8550.15
3236.42858	8557.95
3238.71446	8554.35
3240.99896	8553.85
3243.28209	8549.35
3245.56384	8535.45
3247.84423	8530.35
3250.12324	8521.55
3252.40088	8536.85
3254.67715	8534.75
3256.95205	8496.75
3259.22558	8513.05
3261.49775	8484.35
3263.76855	8502.15
3266.03799	8441.15
3268.30606	8450.35
3270.57277	8436.95
3272.83812	8400.75
3275.10211	8396.85
3277.36474	8385.05
3279.62601	8385.35
3281.88593	8357.05
3284.14448	8381.65
3286.40168	8381.55
3288.65753	8358.95
3290.91202	8356.85
3293.16516	8329.85
3295.41695	8311.25
3297.66738	8237.95
3299.91647	8223.95
3302.16421	8145.75
3304.4106	8151.35
3306.65564	8093.55
3308.89933	8053.75
3311.14169	7982.35
3313.38269	7948.85
3315.62236	7891.55
3317.86068	7814.95
3320.09766	7739.55
3322.3333	7672.25
3324.5676	7700.45
3326.80056	7569.85
3329.03219	7533.95
3331.26248	2.05
3333.49143	0.25
3335.71905	-0.15
