Data from AgNP_FTO_APTES_CRN_20uM_R6G_10uM_NaF_0.1M_Addition_RamanShift__25__17-29-38-035.txt Node

Date: Wed Dec 15 17:29:38 GMT 2021
User: TCL
Spectrometer: QEP01345
Trigger mode: 4
Integration Time (sec): 7.000000E0
Scans to average: 10
Electric dark correction enabled: true
Nonlinearity correction enabled: false
Boxcar width: 0
XAxis mode: Raman Shifts
Number of Pixels in Spectrum: 1044
>>>>>Begin Spectral Data<<<<<
46.04893	-0.05
50.45542	-2.75
54.85868	0.05
59.25871	-0.05
63.6555	63.95
68.04907	67.45
72.43941	71.45
76.82654	74.15
81.21044	76.15
85.59113	81.45
89.96862	82.45
94.34289	83.35
98.71396	87.95
103.08183	91.25
107.4465	97.05
111.80798	95.75
116.16626	98.55
120.52136	100.95
124.87327	100.25
129.222	107.35
133.56755	108.75
137.90993	117.55
142.24913	133.05
146.58517	139.75
150.91804	163.65
155.24774	192.85
159.57429	237.35
163.89768	292.85
168.21792	389.85
172.53501	525.15
176.84895	730.85
181.15975	1021.65
185.46741	1427.65
189.77193	1971.45
194.07331	2641.45
198.37157	3396.95
202.6667	4191.65
206.9587	4986.15
211.24758	5775.75
215.53334	6568.45
219.81599	7386.85
224.09553	8299.05
228.37195	9297.15
232.64527	10419.35
236.91549	11614.45
241.18261	12819.65
245.44663	13935.35
249.70755	14938.45
253.96539	15829.75
258.22014	16608.55
262.4718	17224.05
266.72039	17708.65
270.96589	17950.75
275.20832	18025.85
279.44768	17912.45
283.68397	17784.15
287.91719	17610.85
292.14735	17518.55
296.37445	17510.35
300.59849	17614.35
304.81948	17642.35
309.03742	17637.65
313.25231	17452.45
317.46415	17086.85
321.67296	16585.15
325.87872	16179.65
330.08145	15974.05
334.28114	16020.75
338.47781	16160.05
342.67145	16389.55
346.86207	16694.55
351.04966	17088.45
355.23424	17484.05
359.4158	17848.35
363.59435	18085.85
367.76989	18252.95
371.94243	18299.55
376.11196	18408.35
380.27849	18449.95
384.44203	18517.55
388.60257	18604.75
392.76012	18695.25
396.91468	18920.15
401.06626	19232.35
405.21485	19443.15
409.36047	19433.25
413.50311	19098.75
417.64277	18836.15
421.77947	18764.05
425.9132	18765.95
430.04396	18858.55
434.17176	18968.65
438.2966	19168.15
442.41849	19442.15
446.53742	19892.95
450.6534	20349.55
454.76644	20758.45
458.87653	20933.55
462.98368	20909.45
467.08789	20713.65
471.18916	20422.45
475.2875	20206.45
479.38291	20029.85
483.4754	19816.65
487.56496	19612.65
491.6516	19361.85
495.73531	19158.55
499.81612	19096.45
503.89401	19183.25
507.96899	19269.25
512.04106	19324.85
516.11023	19336.15
520.1765	19383.15
524.23987	19316.75
528.30034	19276.35
532.35792	19085.95
536.41261	18839.75
540.46441	18583.65
544.51333	18544.95
548.55936	18642.55
552.60252	18945.55
556.64279	19258.55
560.6802	19438.15
564.71473	19492.55
568.7464	19668.15
572.7752	19948.25
576.80114	20046.05
580.82422	20151.55
584.84444	20338.25
588.86181	20557.55
592.87633	20875.85
596.888	21226.25
600.89682	21491.75
604.9028	22265.05
608.90594	24094.75
612.90624	26116.45
616.90371	25039.75
620.89834	21271.45
624.89015	19560.45
628.87913	19359.65
632.86528	19391.75
636.84862	19374.05
640.82913	19091.75
644.80683	18654.95
648.78172	18346.95
652.75379	18297.45
656.72306	18447.45
660.68952	18745.15
664.65319	18745.15
668.61405	18438.95
672.57211	18305.25
676.52738	18297.65
680.47986	18295.15
684.42955	18265.25
688.37646	18248.45
692.32058	18308.45
696.26192	18433.95
700.20048	18604.05
704.13626	18742.35
708.06928	18703.35
711.99952	18584.25
715.927	18546.45
719.85171	18537.05
723.77365	18515.55
727.69284	18351.55
731.60928	18213.85
735.52295	18206.55
739.43388	18203.75
743.34206	18245.15
747.24749	18334.55
751.15017	18471.45
755.05012	18698.95
758.94733	19137.55
762.8418	19977.75
766.73354	21345.85
770.62254	22701.75
774.50882	23204.95
778.39237	22260.85
782.27321	20707.55
786.15132	19422.05
790.02671	18668.25
793.89938	18300.05
797.76935	18155.05
801.6366	18154.15
805.50115	18090.95
809.36299	18003.85
813.22213	17958.15
817.07857	17928.25
820.93231	17897.45
824.78336	17905.05
828.63172	17924.45
832.47738	17979.85
836.32036	18029.15
840.16066	18115.75
843.99827	18117.05
847.8332	18036.65
851.66546	17949.05
855.49504	17917.35
859.32195	17906.25
863.1462	17813.75
866.96777	17795.15
870.78668	17731.55
874.60293	17692.75
878.41652	17742.15
882.22745	17794.25
886.03573	17798.45
889.84136	17786.35
893.64433	17743.55
897.44466	17660.85
901.24235	17591.25
905.0374	17573.85
908.8298	17574.95
912.61957	17588.65
916.40671	17747.45
920.19121	17893.35
923.97308	18065.05
927.75233	18143.95
931.52895	18162.55
935.30295	17979.55
939.07433	17681.65
942.84309	17485.55
946.60924	17371.35
950.37278	17309.55
954.13371	17232.85
957.89203	17157.05
961.64774	17150.35
965.40086	17054.75
969.15137	16996.05
972.89929	16941.75
976.64461	16920.55
980.38733	16900.25
984.12747	17045.25
987.86502	17147.15
991.59999	17286.55
995.33237	17583.25
999.06217	18057.05
1002.78939	18564.95
1006.51404	18885.85
1010.23611	19075.65
1013.95561	19215.45
1017.67255	19174.25
1021.38692	18980.55
1025.09872	18899.35
1028.80796	19052.45
1032.51465	19545.15
1036.21877	19994.25
1039.92035	20108.15
1043.61937	19869.95
1047.31584	19404.55
1051.00976	19004.65
1054.70114	18783.05
1058.38998	18797.55
1062.07627	18946.75
1065.76003	19194.75
1069.44126	19561.35
1073.11995	20010.85
1076.79611	20343.25
1080.46974	20499.55
1084.14085	20343.65
1087.80943	20143.25
1091.47549	19917.95
1095.13903	19592.25
1098.80005	19273.55
1102.45857	18907.95
1106.11456	18684.55
1109.76805	18662.65
1113.41903	18756.15
1117.06751	18919.35
1120.71348	19129.15
1124.35696	19307.75
1127.99793	19532.85
1131.63641	19613.15
1135.2724	19441.85
1138.90589	19244.75
1142.5369	19043.25
1146.16542	18946.25
1149.79145	18901.65
1153.415	18986.45
1157.03607	19174.35
1160.65467	19479.85
1164.27079	20039.65
1167.88443	20842.95
1171.49561	21976.75
1175.10432	23560.95
1178.71056	25473.25
1182.31434	27209.35
1185.91565	28005.15
1189.51451	27762.05
1193.11091	26809.35
1196.70485	25578.45
1200.29634	24426.85
1203.88538	23643.35
1207.47197	23035.35
1211.05612	22538.75
1214.63782	22206.35
1218.21708	22077.55
1221.79391	21995.85
1225.36829	21944.55
1228.94024	21827.25
1232.50976	21583.65
1236.07685	21417.85
1239.6415	21377.75
1243.20374	21397.15
1246.76355	21521.95
1250.32093	21801.65
1253.8759	22205.15
1257.42845	22728.75
1260.97859	23186.55
1264.52631	23598.55
1268.07163	24070.05
1271.61453	24607.65
1275.15503	25220.75
1278.69312	25833.35
1282.22882	26322.55
1285.76211	26799.65
1289.29301	27380.05
1292.82151	28025.45
1296.34761	28952.55
1299.87133	30200.15
1303.39266	31737.05
1306.9116	33621.15
1310.42815	35539.15
1313.94233	36768.05
1317.45412	36847.05
1320.96354	36063.05
1324.47058	35121.05
1327.97525	34136.15
1331.47754	33502.15
1334.97747	33287.15
1338.47502	33402.95
1341.97022	33528.35
1345.46305	33475.25
1348.95352	33203.45
1352.44163	33214.15
1355.92738	33928.65
1359.41078	35671.75
1362.89183	37470.05
1366.37053	37081.25
1369.84688	34111.25
1373.32088	30705.25
1376.79254	28283.25
1380.26186	27157.75
1383.72883	26764.25
1387.19347	26500.55
1390.65578	26185.65
1394.11575	25990.85
1397.57339	26100.75
1401.0287	26560.75
1404.48168	27032.05
1407.93234	27319.75
1411.38068	27328.05
1414.82669	26920.05
1418.27039	26076.75
1421.71177	25180.75
1425.15083	24372.55
1428.58758	23907.55
1432.02203	23843.55
1435.45416	24127.55
1438.88399	24480.45
1442.31151	24861.15
1445.73673	25179.95
1449.15965	25410.75
1452.58027	25659.65
1455.9986	25706.65
1459.41463	25879.95
1462.82837	26191.95
1466.23982	26702.45
1469.64898	27205.85
1473.05586	27516.15
1476.46045	27599.95
1479.86276	27637.95
1483.26279	27528.35
1486.66054	27528.65
1490.05602	27631.85
1493.44922	27920.45
1496.84016	28146.65
1500.22882	28604.95
1503.61521	29376.65
1506.99934	30435.85
1510.38121	31529.55
1513.76081	32011.55
1517.13816	31474.75
1520.51324	30089.95
1523.88607	28667.85
1527.25665	27638.85
1530.62498	27098.15
1533.99105	26815.45
1537.35488	26632.95
1540.71647	26410.65
1544.07581	26199.95
1547.4329	25911.85
1550.78776	25604.15
1554.14038	25383.55
1557.49077	25335.85
1560.83892	25372.95
1564.18484	25495.65
1567.52853	25653.95
1570.86999	25963.15
1574.20922	26498.55
1577.54624	27137.65
1580.88103	27481.65
1584.2136	27504.35
1587.54395	27541.05
1590.87208	27898.95
1594.19801	28777.45
1597.52172	30069.95
1600.84321	30533.65
1604.16251	29578.05
1607.47959	27745.45
1610.79447	25703.75
1614.10715	23930.15
1617.41763	22405.45
1620.7259	21410.45
1624.03199	20884.95
1627.33587	20832.95
1630.63757	21313.75
1633.93707	22257.55
1637.23439	23726.75
1640.52951	25613.15
1643.82246	27808.75
1647.11321	29611.05
1650.40179	30214.15
1653.68819	28839.85
1656.97241	25968.35
1660.25446	22978.45
1663.53433	20688.25
1666.81203	19214.85
1670.08756	18267.95
1673.36092	17678.85
1676.63211	17262.15
1679.90115	16980.25
1683.16801	16758.65
1686.43272	16637.75
1689.69527	16513.05
1692.95567	16427.55
1696.2139	16361.55
1699.46999	16347.25
1702.72392	16337.45
1705.97571	16276.55
1709.22535	16261.05
1712.47284	16227.05
1715.71819	16163.45
1718.96139	16166.95
1722.20246	16130.95
1725.44139	16072.45
1728.67818	16042.35
1731.91284	15979.65
1735.14537	15843.45
1738.37576	15799.05
1741.60403	15763.05
1744.83017	15736.55
1748.05418	15705.65
1751.27607	15731.85
1754.49584	15655.85
1757.71349	15661.65
1760.92903	15643.95
1764.14244	15609.35
1767.35375	15675.25
1770.56294	15626.45
1773.77002	15611.85
1776.97499	15599.65
1780.17785	15589.75
1783.37861	15540.45
1786.57727	15516.85
1789.77382	15478.35
1792.96828	15449.35
1796.16064	15452.25
1799.3509	15439.85
1802.53907	15425.95
1805.72514	15372.85
1808.90913	15349.05
1812.09102	15306.25
1815.27083	15281.25
1818.44856	15259.05
1821.6242	15224.05
1824.79776	15224.15
1827.96924	15189.05
1831.13864	15226.05
1834.30597	15230.95
1837.47122	15202.15
1840.6344	15166.95
1843.7955	15203.05
1846.95454	15199.85
1850.11151	15178.05
1853.26642	15174.95
1856.41926	15190.55
1859.57004	15170.65
1862.71876	15178.45
1865.86542	15152.55
1869.01003	15185.35
1872.15258	15150.95
1875.29308	15161.45
1878.43152	15128.05
1881.56792	15128.35
1884.70227	15142.15
1887.83457	15111.75
1890.96482	15084.65
1894.09304	15103.65
1897.21921	15117.85
1900.34335	15091.35
1903.46544	15055.75
1906.58551	15059.65
1909.70353	15054.75
1912.81953	15024.75
1915.93349	15033.95
1919.04543	15006.75
1922.15534	14995.55
1925.26322	14926.15
1928.36908	14917.25
1931.47292	14895.45
1934.57473	14852.05
1937.67453	14828.35
1940.77232	14796.95
1943.86808	14739.15
1946.96184	14710.05
1950.05358	14650.05
1953.14331	14630.05
1956.23103	14566.05
1959.31675	14529.65
1962.40046	14529.55
1965.48217	14493.25
1968.56188	14454.55
1971.63959	14415.15
1974.7153	14353.85
1977.78901	14292.45
1980.86073	14257.85
1983.93046	14228.45
1986.99819	14198.25
1990.06394	14147.45
1993.1277	14094.25
1996.18947	14030.85
1999.24925	14021.35
2002.30706	13991.55
2005.36288	13938.05
2008.41672	13896.35
2011.46859	13883.55
2014.51848	13842.15
2017.56639	13799.25
2020.61233	13779.85
2023.6563	13738.35
2026.6983	13711.85
2029.73833	13695.75
2032.7764	13660.45
2035.8125	13669.05
2038.84664	13602.95
2041.87881	13588.85
2044.90903	13574.35
2047.93729	13549.75
2050.96359	13564.05
2053.98794	13535.05
2057.01034	13547.25
2060.03078	13510.75
2063.04927	13512.45
2066.06582	13477.65
2069.08042	13501.65
2072.09307	13467.15
2075.10378	13461.65
2078.11255	13415.55
2081.11938	13427.75
2084.12426	13416.85
2087.12722	13452.75
2090.12824	13444.05
2093.12732	13442.05
2096.12447	13464.95
2099.11969	13443.45
2102.11299	13434.25
2105.10435	13419.25
2108.09379	13447.35
2111.08131	13488.45
2114.0669	13491.55
2117.05057	13471.85
2120.03233	13488.15
2123.01216	13507.55
2125.99008	13505.35
2128.96609	13528.85
2131.94018	13520.75
2134.91236	13529.75
2137.88263	13571.65
2140.851	13568.85
2143.81746	13577.55
2146.78201	13564.85
2149.74466	13574.35
2152.7054	13585.15
2155.66425	13588.15
2158.6212	13618.95
2161.57625	13596.85
2164.52941	13581.25
2167.48067	13592.25
2170.43004	13568.25
2173.37752	13584.95
2176.32311	13572.75
2179.26681	13601.65
2182.20863	13581.85
2185.14856	13584.35
2188.08661	13547.55
2191.02278	13581.75
2193.95707	13562.55
2196.88948	13566.65
2199.82001	13566.65
2202.74867	13558.55
2205.67545	13581.85
2208.60037	13533.05
2211.52341	13547.35
2214.44458	13524.95
2217.36388	13509.25
2220.28132	13490.55
2223.1969	13463.85
2226.11061	13474.85
2229.02246	13437.35
2231.93245	13429.15
2234.84058	13385.25
2237.74686	13376.45
2240.65128	13370.85
2243.55385	13332.65
2246.45456	13303.15
2249.35343	13299.95
2252.25044	13290.55
2255.14561	13259.55
2258.03893	13279.15
2260.93041	13209.15
2263.82004	13184.45
2266.70783	13162.25
2269.59378	13145.85
2272.4779	13119.25
2275.36017	13092.35
2278.24061	13046.05
2281.11922	13013.35
2283.996	13004.55
2286.87094	13005.05
2289.74405	12975.05
2292.61534	12968.85
2295.4848	12926.35
2298.35243	12982.35
2301.21824	12982.95
2304.08223	12954.95
2306.94439	12977.05
2309.80474	12975.85
2312.66327	13006.25
2315.51999	12969.45
2318.37489	12966.65
2321.22797	12961.45
2324.07925	12959.05
2326.92871	12925.75
2329.77637	12924.45
2332.62222	12948.85
2335.46626	12933.85
2338.3085	12922.65
2341.14893	12918.65
2343.98756	12911.65
2346.8244	12917.05
2349.65943	12935.05
2352.49267	12882.25
2355.32411	12905.95
2358.15376	12900.85
2360.98161	12886.25
2363.80768	12876.15
2366.63195	12845.85
2369.45444	12842.05
2372.27514	12794.05
2375.09405	12801.35
2377.91118	12782.65
2380.72652	12729.15
2383.54009	12702.45
2386.35187	12721.95
2389.16188	12665.65
2391.97011	12671.25
2394.77657	12631.95
2397.58125	12608.85
2400.38416	12617.05
2403.18529	12561.15
2405.98466	12556.15
2408.78226	12550.65
2411.57809	12507.35
2414.37216	12496.45
2417.16446	12494.05
2419.955	12461.25
2422.74378	12473.75
2425.5308	12436.25
2428.31606	12420.75
2431.09956	12409.95
2433.88131	12415.65
2436.6613	12401.15
2439.43954	12398.15
2442.21603	12381.55
2444.99077	12349.65
2447.76377	12382.15
2450.53501	12341.85
2453.30451	12375.95
2456.07226	12339.85
2458.83827	12312.85
2461.60254	12347.75
2464.36507	12328.05
2467.12586	12318.75
2469.88492	12347.75
2472.64224	12318.85
2475.39782	12332.15
2478.15167	12348.75
2480.90379	12365.15
2483.65417	12351.85
2486.40283	12361.55
2489.14976	12350.95
2491.89497	12356.85
2494.63845	12387.45
2497.3802	12364.75
2500.12024	12352.75
2502.85855	12362.05
2505.59514	12350.25
2508.33002	12316.45
2511.06318	12311.35
2513.79462	12302.65
2516.52435	12305.35
2519.25237	12303.55
2521.97867	12260.55
2524.70327	12276.65
2527.42616	12255.15
2530.14734	12258.65
2532.86681	12253.25
2535.58458	12220.55
2538.30065	12215.05
2541.01501	12211.05
2543.72768	12189.75
2546.43864	12202.55
2549.14791	12168.15
2551.85548	12167.35
2554.56136	12131.25
2557.26554	12123.25
2559.96803	12127.25
2562.66883	12126.45
2565.36794	12143.85
2568.06536	12129.35
2570.7611	12120.75
2573.45514	12095.25
2576.14751	12073.25
2578.83819	12051.15
2581.52719	12074.05
2584.21451	12054.65
2586.90015	12078.55
2589.58411	12040.65
2592.2664	12063.15
2594.94701	12028.65
2597.62594	11990.95
2600.30321	11968.55
2602.9788	12006.05
2605.65273	11957.85
2608.32498	11983.55
2610.99557	11962.05
2613.66449	11980.85
2616.33175	11995.45
2618.99734	11953.05
2621.66128	11952.95
2624.32355	11949.05
2626.98416	11941.85
2629.64311	11980.95
2632.30041	11953.95
2634.95605	11948.25
2637.61004	11914.15
2640.26238	11927.85
2642.91306	11928.25
2645.56209	11906.65
2648.20948	11879.55
2650.85521	11859.85
2653.4993	11876.25
2656.14175	11862.45
2658.78255	11864.95
2661.42171	11860.55
2664.05923	11885.05
2666.6951	11873.85
2669.32934	11882.85
2671.96194	11902.05
2674.59291	11888.65
2677.22224	11874.55
2679.84993	11905.15
2682.476	11886.35
2685.10043	11886.95
2687.72324	11909.85
2690.34441	11897.35
2692.96396	11897.85
2695.58188	11892.75
2698.19818	11851.95
2700.81285	11844.05
2703.4259	11871.75
2706.03733	11924.95
2708.64714	11913.35
2711.25533	11910.15
2713.86191	11914.75
2716.46687	11925.15
2719.07021	11891.45
2721.67194	11895.85
2724.27206	11896.65
2726.87057	11892.65
2729.46747	11907.85
2732.06276	11908.55
2734.65644	11887.85
2737.24852	11914.05
2739.83899	11882.75
2742.42786	11877.65
2745.01513	11854.35
2747.60079	11910.25
2750.18486	11877.35
2752.76733	11865.75
2755.3482	11892.45
2757.92747	11880.25
2760.50515	11868.45
2763.08123	11865.75
2765.65573	11849.95
2768.22863	11848.85
2770.79994	11827.65
2773.36967	11813.35
2775.9378	11817.75
2778.50435	11806.65
2781.06932	11786.35
2783.6327	11802.55
2786.1945	11798.95
2788.75471	11769.75
2791.31335	11744.35
2793.87041	11747.45
2796.42589	11696.25
2798.97979	11712.65
2801.53212	11694.35
2804.08288	11699.15
2806.63206	11658.75
2809.17967	11623.75
2811.72571	11585.35
2814.27018	11596.85
2816.81308	11593.15
2819.35442	11555.45
2821.89419	11552.85
2824.43239	11555.85
2826.96904	11539.35
2829.50412	11559.15
2832.03763	11542.65
2834.56959	11541.55
2837.1	11503.25
2839.62884	11504.25
2842.15613	11496.55
2844.68186	11506.05
2847.20604	11471.75
2849.72867	11480.55
2852.24974	11473.85
2854.76927	11468.85
2857.28724	11490.85
2859.80367	11477.05
2862.31855	11461.45
2864.83189	11433.35
2867.34368	11444.45
2869.85393	11411.05
2872.36264	11419.45
2874.8698	11414.45
2877.37543	11418.95
2879.87952	11467.65
2882.38207	11440.75
2884.88308	11426.25
2887.38256	11420.35
2889.88051	11437.95
2892.37692	11436.15
2894.8718	11418.55
2897.36515	11439.15
2899.85698	11438.15
2902.34727	11439.35
2904.83604	11494.35
2907.32328	11491.45
2909.809	11472.95
2912.29319	11480.75
2914.77587	11473.55
2917.25702	11493.45
2919.73665	11459.45
2922.21476	11455.15
2924.69136	11459.95
2927.16644	11478.75
2929.64	11464.05
2932.11205	11431.55
2934.58258	11409.15
2937.05161	11450.05
2939.51912	11429.95
2941.98513	11434.85
2944.44962	11408.15
2946.91261	11354.95
2949.37409	11374.25
2951.83407	11384.75
2954.29254	11394.25
2956.74951	11355.85
2959.20498	11359.25
2961.65895	11348.75
2964.11142	11339.35
2966.56239	11320.65
2969.01186	11304.85
2971.45984	11267.35
2973.90632	11227.45
2976.35131	11237.95
2978.7948	11204.35
2981.23681	11188.65
2983.67732	11159.55
2986.11635	11161.15
2988.55388	11151.15
2990.98993	11097.65
2993.4245	11076.65
2995.85758	11073.85
2998.28917	11035.75
3000.71928	11028.45
3003.14791	11010.45
3005.57506	11000.85
3008.00073	11000.75
3010.42493	10965.35
3012.84764	10961.65
3015.26888	10934.35
3017.68865	10903.95
3020.10694	10916.15
3022.52376	10891.95
3024.9391	10891.05
3027.35298	10884.85
3029.76539	10917.35
3032.17632	10879.05
3034.5858	10860.35
3036.9938	10860.75
3039.40034	10849.05
3041.80542	10818.65
3044.20903	10796.15
3046.61118	10807.45
3049.01187	10786.25
3051.4111	10785.35
3053.80888	10765.65
3056.20519	10734.15
3058.60005	10722.55
3060.99345	10715.25
3063.3854	10679.35
3065.7759	10625.15
3068.16494	10625.35
3070.55254	10582.05
3072.93868	10587.75
3075.32338	10560.55
3077.70662	10537.85
3080.08842	10519.05
3082.46878	10513.15
3084.84769	10489.25
3087.22515	10485.15
3089.60118	10486.75
3091.97576	10483.75
3094.3489	10510.85
3096.72061	10478.65
3099.09087	10490.25
3101.4597	10471.45
3103.82709	10489.75
3106.19305	10436.25
3108.55757	10445.05
3110.92066	10429.35
3113.28232	10398.45
3115.64255	10382.05
3118.00134	10355.85
3120.35871	10353.45
3122.71466	10336.65
3125.06917	10311.15
3127.42226	10306.85
3129.77393	10336.35
3132.12417	10308.95
3134.47299	10343.45
3136.82039	10307.65
3139.16636	10339.65
3141.51092	10321.45
3143.85406	10311.65
3146.19579	10337.55
3148.53609	10336.15
3150.87499	10324.45
3153.21246	10322.85
3155.54853	10343.85
3157.88318	10348.05
3160.21642	10334.85
3162.54826	10344.55
3164.87868	10341.35
3167.2077	10319.55
3169.5353	10338.15
3171.86151	10350.15
3174.18631	10328.25
3176.5097	10311.95
3178.83169	10295.65
3181.15228	10270.05
3183.47147	10294.55
3185.78926	10278.65
3188.10565	10279.05
3190.42065	10294.05
3192.73424	10285.25
3195.04645	10260.15
3197.35725	10295.95
3199.66667	10310.05
3201.97469	10286.75
3204.28132	10293.05
3206.58656	10309.35
3208.8904	10310.85
3211.19287	10324.95
3213.49394	10301.75
3215.79363	10301.55
3218.09193	10309.25
3220.38884	10325.95
3222.68438	10334.05
3224.97853	10309.15
3227.2713	10271.25
3229.56269	10287.85
3231.8527	10284.25
3234.14133	10257.95
3236.42858	10229.55
3238.71446	10230.35
3240.99896	10207.05
3243.28209	10208.45
3245.56384	10203.45
3247.84423	10215.15
3250.12324	10181.85
3252.40088	10207.45
3254.67715	10217.85
3256.95205	10180.75
3259.22558	10178.55
3261.49775	10166.15
3263.76855	10173.55
3266.03799	10156.85
3268.30606	10140.05
3270.57277	10094.15
3272.83812	10062.75
3275.10211	10058.05
3277.36474	10073.85
3279.62601	10064.05
3281.88593	10066.35
3284.14448	10073.05
3286.40168	10062.35
3288.65753	10049.45
3290.91202	10021.35
3293.16516	10015.45
3295.41695	9970.65
3297.66738	9915.35
3299.91647	9892.35
3302.16421	9842.45
3304.4106	9808.25
3306.65564	9759.25
3308.89933	9685.35
3311.14169	9645.75
3313.38269	9547.25
3315.62236	9540.85
3317.86068	9445.15
3320.09766	9361.55
3322.3333	9307.35
3324.5676	9309.45
3326.80056	9160.65
3329.03219	9103.35
3331.26248	3.15
3333.49143	0.35
3335.71905	-0.25
