Data from AgNP_FTO_APTES_CRN_10uM_R6G_10uM_NaF_0.1M_Addition_RamanShift__4__16-19-37-956.txt Node

Date: Wed Dec 15 16:19:37 GMT 2021
User: TCL
Spectrometer: QEP01345
Trigger mode: 4
Integration Time (sec): 7.000000E0
Scans to average: 10
Electric dark correction enabled: true
Nonlinearity correction enabled: false
Boxcar width: 0
XAxis mode: Raman Shifts
Number of Pixels in Spectrum: 1044
>>>>>Begin Spectral Data<<<<<
46.04893	-0.15
50.45542	-2.15
54.85868	-1.75
59.25871	-0.65
63.6555	81.75
68.04907	84.35
72.43941	85.85
76.82654	92.65
81.21044	96.85
85.59113	100.85
89.96862	106.25
94.34289	106.35
98.71396	112.35
103.08183	119.65
107.4465	119.55
111.80798	121.35
116.16626	129.35
120.52136	131.65
124.87327	132.05
129.222	138.95
133.56755	144.85
137.90993	161.45
142.24913	173.25
146.58517	189.05
150.91804	226.35
155.24774	262.75
159.57429	331.55
163.89768	421.65
168.21792	547.75
172.53501	750.45
176.84895	1032.95
181.15975	1458.85
185.46741	2032.25
189.77193	2789.75
194.07331	3737.05
198.37157	4793.75
202.6667	5948.65
206.9587	7061.95
211.24758	8185.75
215.53334	9317.25
219.81599	10499.25
224.09553	11793.05
228.37195	13226.55
232.64527	14801.05
236.91549	16448.45
241.18261	18118.55
245.44663	19653.55
249.70755	21032.45
253.96539	22282.95
258.22014	23216.05
262.4718	24043.25
266.72039	24608.45
270.96589	24872.55
275.20832	24798.05
279.44768	24592.65
283.68397	24386.85
287.91719	24161.35
292.14735	24076.55
296.37445	24092.05
300.59849	24180.25
304.81948	24322.55
309.03742	24380.35
313.25231	24163.45
317.46415	23780.55
321.67296	23157.25
325.87872	22594.75
330.08145	22276.75
334.28114	22189.65
338.47781	22391.25
342.67145	22651.25
346.86207	23062.25
351.04966	23555.45
355.23424	23989.95
359.4158	24361.65
363.59435	24559.75
367.76989	24680.35
371.94243	24695.05
376.11196	24671.15
380.27849	24664.75
384.44203	24740.25
388.60257	24917.15
392.76012	25147.55
396.91468	25460.15
401.06626	25868.15
405.21485	26131.25
409.36047	26074.75
413.50311	25724.35
417.64277	25543.05
421.77947	25592.85
425.9132	25729.55
430.04396	25913.85
434.17176	25941.85
438.2966	26008.45
442.41849	26296.45
446.53742	26916.75
450.6534	27621.35
454.76644	28115.05
458.87653	28203.05
462.98368	28048.55
467.08789	27723.15
471.18916	27400.45
475.2875	27042.65
479.38291	26796.65
483.4754	26540.45
487.56496	26234.15
491.6516	25828.75
495.73531	25562.95
499.81612	25510.65
503.89401	25760.75
507.96899	25884.15
512.04106	25948.55
516.11023	25928.65
520.1765	25816.05
524.23987	25715.95
528.30034	25617.05
532.35792	25274.55
536.41261	24813.85
540.46441	24451.85
544.51333	24315.05
548.55936	24560.25
552.60252	25149.95
556.64279	25759.85
560.6802	26198.65
564.71473	26378.05
568.7464	26686.45
572.7752	27316.55
576.80114	28088.35
580.82422	29000.05
584.84444	30098.05
588.86181	31312.95
592.87633	31984.55
596.888	31700.75
600.89682	30529.85
604.9028	30417.25
608.90594	32282.05
612.90624	34282.45
616.90371	32226.45
620.89834	27231.25
624.89015	25032.85
628.87913	24757.95
632.86528	24831.95
636.84862	24771.85
640.82913	24392.25
644.80683	23814.65
648.78172	23473.35
652.75379	23417.45
656.72306	23610.75
660.68952	23908.35
664.65319	23743.05
668.61405	23400.35
672.57211	23277.05
676.52738	23332.75
680.47986	23313.65
684.42955	23167.55
688.37646	23079.35
692.32058	23189.15
696.26192	23538.75
700.20048	23940.95
704.13626	24176.45
708.06928	24243.85
711.99952	24199.65
715.927	24226.65
719.85171	24259.35
723.77365	24125.55
727.69284	23716.05
731.60928	23395.15
735.52295	23267.35
739.43388	23271.35
743.34206	23363.15
747.24749	23482.75
751.15017	23714.15
755.05012	24149.85
758.94733	24887.65
762.8418	26182.65
766.73354	28150.85
770.62254	29955.45
774.50882	30125.85
778.39237	28684.65
782.27321	26754.95
786.15132	25152.15
790.02671	24078.65
793.89938	23599.75
797.76935	23434.95
801.6366	23361.85
805.50115	23315.45
809.36299	23169.35
813.22213	22986.35
817.07857	22800.55
820.93231	22730.65
824.78336	22621.35
828.63172	22578.45
832.47738	22578.45
836.32036	22690.35
840.16066	22884.15
843.99827	22904.55
847.8332	22793.65
851.66546	22630.25
855.49504	22598.65
859.32195	22543.75
863.1462	22468.05
866.96777	22354.95
870.78668	22337.55
874.60293	22327.05
878.41652	22373.85
882.22745	22461.85
886.03573	22516.35
889.84136	22554.45
893.64433	22512.85
897.44466	22426.65
901.24235	22389.95
905.0374	22315.05
908.8298	22274.15
912.61957	22348.25
916.40671	22566.75
920.19121	22880.05
923.97308	23126.55
927.75233	23230.35
931.52895	23147.05
935.30295	22803.85
939.07433	22344.85
942.84309	21967.15
946.60924	21786.35
950.37278	21699.45
954.13371	21651.85
957.89203	21532.55
961.64774	21554.25
965.40086	21548.65
969.15137	21492.85
972.89929	21419.95
976.64461	21323.45
980.38733	21328.55
984.12747	21428.15
987.86502	21598.95
991.59999	21823.85
995.33237	22200.95
999.06217	22813.25
1002.78939	23511.15
1006.51404	23985.35
1010.23611	24430.75
1013.95561	24760.35
1017.67255	24701.15
1021.38692	24326.15
1025.09872	23926.85
1028.80796	23918.65
1032.51465	24430.05
1036.21877	25020.55
1039.92035	25279.75
1043.61937	25164.05
1047.31584	24814.85
1051.00976	24422.85
1054.70114	24331.55
1058.38998	24558.15
1062.07627	25014.25
1065.76003	25795.85
1069.44126	26758.85
1073.11995	27871.05
1076.79611	28516.55
1080.46974	28444.35
1084.14085	27843.95
1087.80943	27201.05
1091.47549	26773.85
1095.13903	26373.55
1098.80005	25757.95
1102.45857	24997.15
1106.11456	24438.65
1109.76805	24160.45
1113.41903	24094.55
1117.06751	24212.55
1120.71348	24423.75
1124.35696	24693.35
1127.99793	25101.85
1131.63641	25394.45
1135.2724	25317.65
1138.90589	25207.25
1142.5369	25143.95
1146.16542	25196.95
1149.79145	25330.55
1153.415	25492.45
1157.03607	25866.55
1160.65467	26651.45
1164.27079	28003.45
1167.88443	29723.55
1171.49561	31690.25
1175.10432	34208.75
1178.71056	37350.55
1182.31434	40255.95
1185.91565	41582.45
1189.51451	41069.45
1193.11091	39519.05
1196.70485	37695.35
1200.29634	35850.45
1203.88538	34642.45
1207.47197	33956.25
1211.05612	33322.05
1214.63782	32698.95
1218.21708	31918.15
1221.79391	31157.75
1225.36829	30600.65
1228.94024	30220.35
1232.50976	29718.85
1236.07685	29232.25
1239.6415	28982.35
1243.20374	28946.05
1246.76355	29130.55
1250.32093	29624.15
1253.8759	30386.45
1257.42845	31340.05
1260.97859	32331.55
1264.52631	33403.15
1268.07163	34500.05
1271.61453	35561.05
1275.15503	36726.65
1278.69312	37820.85
1282.22882	38867.25
1285.76211	39969.85
1289.29301	41400.85
1292.82151	43161.65
1296.34761	45355.75
1299.87133	48223.85
1303.39266	51309.65
1306.9116	54330.75
1310.42815	56777.75
1313.94233	57957.45
1317.45412	57507.75
1320.96354	56204.75
1324.47058	55097.45
1327.97525	54332.45
1331.47754	53708.55
1334.97747	53224.85
1338.47502	52625.35
1341.97022	51997.65
1345.46305	51262.45
1348.95352	50804.25
1352.44163	50997.55
1355.92738	52210.05
1359.41078	54487.55
1362.89183	56327.15
1366.37053	55529.25
1369.84688	51351.15
1373.32088	45916.15
1376.79254	41981.55
1380.26186	40281.85
1383.72883	39944.65
1387.19347	39553.45
1390.65578	39030.35
1394.11575	38727.45
1397.57339	39093.75
1401.0287	39780.05
1404.48168	40189.25
1407.93234	40140.65
1411.38068	39431.65
1414.82669	38195.35
1418.27039	36586.15
1421.71177	35049.35
1425.15083	33759.35
1428.58758	33184.65
1432.02203	33483.25
1435.45416	34458.85
1438.88399	35507.15
1442.31151	36217.15
1445.73673	36704.25
1449.15965	37028.05
1452.58027	37198.45
1455.9986	37210.05
1459.41463	37394.85
1462.82837	38029.05
1466.23982	38908.95
1469.64898	39561.65
1473.05586	40046.45
1476.46045	40162.55
1479.86276	39931.25
1483.26279	39570.05
1486.66054	39428.75
1490.05602	39676.15
1493.44922	40232.75
1496.84016	40869.05
1500.22882	41840.85
1503.61521	43268.95
1506.99934	44907.15
1510.38121	46030.45
1513.76081	46078.95
1517.13816	44769.85
1520.51324	42972.75
1523.88607	41466.55
1527.25665	40701.35
1530.62498	40440.45
1533.99105	40309.65
1537.35488	39860.55
1540.71647	39041.05
1544.07581	38077.05
1547.4329	37067.15
1550.78776	36159.35
1554.14038	35640.25
1557.49077	35329.35
1560.83892	35096.05
1564.18484	35228.25
1567.52853	35712.15
1570.86999	36600.65
1574.20922	38061.85
1577.54624	39778.15
1580.88103	41056.85
1584.2136	41644.75
1587.54395	41917.45
1590.87208	42460.35
1594.19801	43863.45
1597.52172	45683.75
1600.84321	46177.65
1604.16251	43996.25
1607.47959	40388.65
1610.79447	36541.65
1614.10715	33109.35
1617.41763	30394.45
1620.7259	28545.75
1624.03199	27706.45
1627.33587	27733.95
1630.63757	28666.85
1633.93707	30566.65
1637.23439	33738.45
1640.52951	38431.95
1643.82246	43783.65
1647.11321	47943.05
1650.40179	48668.75
1653.68819	45061.95
1656.97241	38947.15
1660.25446	33031.45
1663.53433	28630.55
1666.81203	25790.35
1670.08756	23990.05
1673.36092	22870.95
1676.63211	22163.35
1679.90115	21641.65
1683.16801	21274.05
1686.43272	21006.95
1689.69527	20849.05
1692.95567	20704.75
1696.2139	20599.55
1699.46999	20534.85
1702.72392	20468.45
1705.97571	20406.15
1709.22535	20325.75
1712.47284	20273.25
1715.71819	20208.65
1718.96139	20136.95
1722.20246	20094.45
1725.44139	19968.65
1728.67818	19880.85
1731.91284	19743.65
1735.14537	19671.25
1738.37576	19575.05
1741.60403	19497.75
1744.83017	19453.45
1748.05418	19428.85
1751.27607	19343.65
1754.49584	19352.75
1757.71349	19359.35
1760.92903	19351.45
1764.14244	19349.35
1767.35375	19279.15
1770.56294	19290.05
1773.77002	19240.75
1776.97499	19187.45
1780.17785	19159.45
1783.37861	19120.15
1786.57727	19066.85
1789.77382	19008.75
1792.96828	18992.65
1796.16064	18939.65
1799.3509	18899.35
1802.53907	18871.95
1805.72514	18802.85
1808.90913	18761.95
1812.09102	18711.65
1815.27083	18692.65
1818.44856	18698.85
1821.6242	18669.05
1824.79776	18681.65
1827.96924	18694.85
1831.13864	18698.95
1834.30597	18709.85
1837.47122	18721.15
1840.6344	18698.85
1843.7955	18753.95
1846.95454	18734.75
1850.11151	18737.75
1853.26642	18719.15
1856.41926	18726.95
1859.57004	18693.55
1862.71876	18663.05
1865.86542	18641.75
1869.01003	18630.15
1872.15258	18619.65
1875.29308	18583.55
1878.43152	18538.35
1881.56792	18503.55
1884.70227	18476.65
1887.83457	18461.55
1890.96482	18440.05
1894.09304	18420.75
1897.21921	18406.15
1900.34335	18358.85
1903.46544	18338.65
1906.58551	18324.95
1909.70353	18272.25
1912.81953	18242.85
1915.93349	18191.35
1919.04543	18167.75
1922.15534	18113.85
1925.26322	18077.55
1928.36908	18054.55
1931.47292	18013.35
1934.57473	17953.65
1937.67453	17887.15
1940.77232	17859.05
1943.86808	17802.25
1946.96184	17737.55
1950.05358	17720.25
1953.14331	17693.05
1956.23103	17669.75
1959.31675	17621.65
1962.40046	17535.65
1965.48217	17501.25
1968.56188	17448.05
1971.63959	17397.75
1974.7153	17359.85
1977.78901	17261.65
1980.86073	17240.85
1983.93046	17194.35
1986.99819	17134.85
1990.06394	17070.35
1993.1277	17033.75
1996.18947	16983.15
1999.24925	16924.25
2002.30706	16867.65
2005.36288	16866.85
2008.41672	16836.85
2011.46859	16756.65
2014.51848	16743.75
2017.56639	16704.75
2020.61233	16658.65
2023.6563	16609.05
2026.6983	16597.35
2029.73833	16584.45
2032.7764	16538.85
2035.8125	16512.55
2038.84664	16465.75
2041.87881	16446.15
2044.90903	16429.95
2047.93729	16398.55
2050.96359	16381.75
2053.98794	16402.85
2057.01034	16372.25
2060.03078	16364.85
2063.04927	16333.95
2066.06582	16344.65
2069.08042	16333.35
2072.09307	16285.55
2075.10378	16241.55
2078.11255	16252.75
2081.11938	16290.95
2084.12426	16266.85
2087.12722	16274.75
2090.12824	16270.85
2093.12732	16281.95
2096.12447	16313.55
2099.11969	16289.45
2102.11299	16284.75
2105.10435	16299.65
2108.09379	16336.25
2111.08131	16325.15
2114.0669	16340.25
2117.05057	16357.85
2120.03233	16340.15
2123.01216	16375.65
2125.99008	16393.95
2128.96609	16393.05
2131.94018	16410.95
2134.91236	16402.25
2137.88263	16424.75
2140.851	16425.85
2143.81746	16439.75
2146.78201	16430.15
2149.74466	16458.25
2152.7054	16458.15
2155.66425	16450.45
2158.6212	16490.55
2161.57625	16454.55
2164.52941	16440.75
2167.48067	16451.85
2170.43004	16448.65
2173.37752	16420.55
2176.32311	16460.35
2179.26681	16427.35
2182.20863	16446.75
2185.14856	16453.75
2188.08661	16436.75
2191.02278	16454.85
2193.95707	16421.55
2196.88948	16422.45
2199.82001	16409.35
2202.74867	16412.65
2205.67545	16385.15
2208.60037	16417.65
2211.52341	16384.95
2214.44458	16369.75
2217.36388	16304.15
2220.28132	16340.95
2223.1969	16300.55
2226.11061	16275.05
2229.02246	16272.35
2231.93245	16205.35
2234.84058	16206.25
2237.74686	16182.25
2240.65128	16179.95
2243.55385	16149.85
2246.45456	16114.45
2249.35343	16083.45
2252.25044	16047.15
2255.14561	16009.55
2258.03893	16018.85
2260.93041	16018.25
2263.82004	15960.65
2266.70783	15945.25
2269.59378	15894.85
2272.4779	15850.35
2275.36017	15820.35
2278.24061	15800.65
2281.11922	15765.15
2283.996	15759.15
2286.87094	15756.15
2289.74405	15706.75
2292.61534	15704.65
2295.4848	15674.45
2298.35243	15717.65
2301.21824	15714.75
2304.08223	15692.75
2306.94439	15692.75
2309.80474	15727.65
2312.66327	15701.95
2315.51999	15705.45
2318.37489	15704.35
2321.22797	15681.25
2324.07925	15672.55
2326.92871	15667.85
2329.77637	15656.65
2332.62222	15652.95
2335.46626	15635.05
2338.3085	15624.95
2341.14893	15641.85
2343.98756	15609.45
2346.8244	15633.85
2349.65943	15619.05
2352.49267	15611.45
2355.32411	15633.45
2358.15376	15621.15
2360.98161	15615.35
2363.80768	15588.15
2366.63195	15573.55
2369.45444	15542.35
2372.27514	15539.95
2375.09405	15499.55
2377.91118	15485.85
2380.72652	15448.95
2383.54009	15415.85
2386.35187	15407.25
2389.16188	15369.25
2391.97011	15340.75
2394.77657	15328.55
2397.58125	15332.95
2400.38416	15307.85
2403.18529	15267.65
2405.98466	15247.25
2408.78226	15221.45
2411.57809	15220.35
2414.37216	15184.15
2417.16446	15177.45
2419.955	15153.65
2422.74378	15158.75
2425.5308	15129.75
2428.31606	15128.95
2431.09956	15108.75
2433.88131	15105.15
2436.6613	15131.45
2439.43954	15120.95
2442.21603	15054.55
2444.99077	15069.45
2447.76377	15088.85
2450.53501	15095.85
2453.30451	15066.05
2456.07226	15073.75
2458.83827	15099.45
2461.60254	15074.55
2464.36507	15046.05
2467.12586	15080.55
2469.88492	15084.05
2472.64224	15094.35
2475.39782	15090.85
2478.15167	15102.95
2480.90379	15091.85
2483.65417	15104.65
2486.40283	15123.95
2489.14976	15130.15
2491.89497	15136.15
2494.63845	15124.25
2497.3802	15148.95
2500.12024	15135.45
2502.85855	15116.25
2505.59514	15118.05
2508.33002	15103.35
2511.06318	15065.95
2513.79462	15036.15
2516.52435	15039.45
2519.25237	15033.15
2521.97867	15050.25
2524.70327	15046.65
2527.42616	15006.35
2530.14734	15008.95
2532.86681	14997.85
2535.58458	14988.15
2538.30065	14941.25
2541.01501	14985.55
2543.72768	14974.05
2546.43864	14972.15
2549.14791	14951.05
2551.85548	14952.35
2554.56136	14921.25
2557.26554	14892.35
2559.96803	14919.65
2562.66883	14902.75
2565.36794	14903.55
2568.06536	14937.75
2570.7611	14902.75
2573.45514	14893.65
2576.14751	14895.85
2578.83819	14864.25
2581.52719	14843.55
2584.21451	14858.05
2586.90015	14875.65
2589.58411	14818.75
2592.2664	14817.25
2594.94701	14798.75
2597.62594	14808.75
2600.30321	14739.65
2602.9788	14755.25
2605.65273	14753.05
2608.32498	14734.75
2610.99557	14738.15
2613.66449	14738.55
2616.33175	14726.15
2618.99734	14743.65
2621.66128	14742.75
2624.32355	14731.85
2626.98416	14714.45
2629.64311	14708.65
2632.30041	14690.35
2634.95605	14690.75
2637.61004	14683.05
2640.26238	14669.15
2642.91306	14629.75
2645.56209	14637.75
2648.20948	14637.55
2650.85521	14625.85
2653.4993	14623.25
2656.14175	14660.15
2658.78255	14653.95
2661.42171	14656.75
2664.05923	14681.85
2666.6951	14674.65
2669.32934	14690.75
2671.96194	14669.15
2674.59291	14648.85
2677.22224	14658.35
2679.84993	14665.15
2682.476	14636.15
2685.10043	14668.75
2687.72324	14612.15
2690.34441	14660.75
2692.96396	14660.35
2695.58188	14666.95
2698.19818	14640.55
2700.81285	14655.55
2703.4259	14679.35
2706.03733	14759.15
2708.64714	14724.15
2711.25533	14731.65
2713.86191	14712.35
2716.46687	14744.55
2719.07021	14728.45
2721.67194	14733.05
2724.27206	14723.65
2726.87057	14730.15
2729.46747	14729.25
2732.06276	14757.55
2734.65644	14739.45
2737.24852	14750.55
2739.83899	14760.05
2742.42786	14739.55
2745.01513	14717.95
2747.60079	14716.15
2750.18486	14735.65
2752.76733	14769.55
2755.3482	14765.25
2757.92747	14756.65
2760.50515	14736.35
2763.08123	14742.75
2765.65573	14700.25
2768.22863	14710.65
2770.79994	14680.75
2773.36967	14701.15
2775.9378	14669.15
2778.50435	14667.65
2781.06932	14649.75
2783.6327	14682.45
2786.1945	14668.75
2788.75471	14622.75
2791.31335	14617.35
2793.87041	14578.35
2796.42589	14552.45
2798.97979	14556.65
2801.53212	14541.65
2804.08288	14531.25
2806.63206	14485.55
2809.17967	14475.65
2811.72571	14437.25
2814.27018	14426.45
2816.81308	14424.45
2819.35442	14416.65
2821.89419	14413.55
2824.43239	14379.35
2826.96904	14369.35
2829.50412	14392.85
2832.03763	14346.15
2834.56959	14339.45
2837.1	14318.25
2839.62884	14352.55
2842.15613	14355.15
2844.68186	14363.45
2847.20604	14379.35
2849.72867	14400.95
2852.24974	14387.85
2854.76927	14392.85
2857.28724	14383.65
2859.80367	14383.95
2862.31855	14358.25
2864.83189	14357.65
2867.34368	14355.15
2869.85393	14325.65
2872.36264	14336.95
2874.8698	14360.55
2877.37543	14365.65
2879.87952	14384.65
2882.38207	14368.65
2884.88308	14350.25
2887.38256	14389.35
2889.88051	14378.65
2892.37692	14399.15
2894.8718	14368.95
2897.36515	14417.15
2899.85698	14428.85
2902.34727	14428.75
2904.83604	14427.75
2907.32328	14471.95
2909.809	14452.25
2912.29319	14458.75
2914.77587	14470.15
2917.25702	14466.25
2919.73665	14456.15
2922.21476	14463.75
2924.69136	14472.55
2927.16644	14479.35
2929.64	14429.85
2932.11205	14432.45
2934.58258	14423.35
2937.05161	14427.25
2939.51912	14444.25
2941.98513	14365.85
2944.44962	14380.65
2946.91261	14293.85
2949.37409	14339.05
2951.83407	14319.35
2954.29254	14306.75
2956.74951	14283.15
2959.20498	14274.95
2961.65895	14256.65
2964.11142	14271.15
2966.56239	14208.55
2969.01186	14204.95
2971.45984	14155.85
2973.90632	14145.35
2976.35131	14073.45
2978.7948	14066.25
2981.23681	14019.65
2983.67732	14029.65
2986.11635	13998.55
2988.55388	13972.25
2990.98993	13922.25
2993.4245	13906.55
2995.85758	13906.65
2998.28917	13854.65
3000.71928	13845.95
3003.14791	13814.85
3005.57506	13817.95
3008.00073	13786.95
3010.42493	13768.65
3012.84764	13745.85
3015.26888	13736.55
3017.68865	13691.95
3020.10694	13678.55
3022.52376	13678.75
3024.9391	13656.35
3027.35298	13668.15
3029.76539	13670.05
3032.17632	13668.25
3034.5858	13643.95
3036.9938	13602.75
3039.40034	13600.85
3041.80542	13578.55
3044.20903	13567.45
3046.61118	13583.75
3049.01187	13561.85
3051.4111	13549.25
3053.80888	13539.85
3056.20519	13509.75
3058.60005	13486.75
3060.99345	13453.35
3063.3854	13448.25
3065.7759	13405.65
3068.16494	13396.65
3070.55254	13353.75
3072.93868	13333.95
3075.32338	13295.35
3077.70662	13251.75
3080.08842	13228.65
3082.46878	13213.05
3084.84769	13236.15
3087.22515	13202.45
3089.60118	13202.55
3091.97576	13179.45
3094.3489	13212.15
3096.72061	13202.45
3099.09087	13199.95
3101.4597	13175.95
3103.82709	13177.45
3106.19305	13138.85
3108.55757	13144.25
3110.92066	13105.55
3113.28232	13120.85
3115.64255	13060.35
3118.00134	13035.45
3120.35871	13029.55
3122.71466	13014.15
3125.06917	12999.05
3127.42226	12955.35
3129.77393	13016.65
3132.12417	12984.25
3134.47299	13003.05
3136.82039	13001.15
3139.16636	13018.95
3141.51092	13019.55
3143.85406	13022.05
3146.19579	13028.35
3148.53609	13009.45
3150.87499	13034.55
3153.21246	13015.05
3155.54853	13063.05
3157.88318	13055.65
3160.21642	13096.45
3162.54826	13043.35
3164.87868	13019.95
3167.2077	13035.25
3169.5353	13030.35
3171.86151	13032.75
3174.18631	13039.95
3176.5097	13026.25
3178.83169	13008.35
3181.15228	13023.85
3183.47147	12978.65
3185.78926	12995.85
3188.10565	12955.25
3190.42065	12975.45
3192.73424	12953.45
3195.04645	12953.35
3197.35725	12962.65
3199.66667	12977.85
3201.97469	12981.55
3204.28132	12974.75
3206.58656	12984.95
3208.8904	12988.85
3211.19287	12991.05
3213.49394	13001.95
3215.79363	12998.35
3218.09193	12979.75
3220.38884	13004.35
3222.68438	13038.75
3224.97853	12981.65
3227.2713	12965.65
3229.56269	12955.85
3231.8527	12943.55
3234.14133	12936.75
3236.42858	12934.45
3238.71446	12917.05
3240.99896	12931.55
3243.28209	12885.95
3245.56384	12910.25
3247.84423	12904.65
3250.12324	12852.45
3252.40088	12864.75
3254.67715	12866.55
3256.95205	12863.95
3259.22558	12871.95
3261.49775	12831.75
3263.76855	12828.65
3266.03799	12784.55
3268.30606	12762.45
3270.57277	12726.15
3272.83812	12706.55
3275.10211	12698.95
3277.36474	12692.35
3279.62601	12723.25
3281.88593	12715.55
3284.14448	12703.05
3286.40168	12721.75
3288.65753	12675.95
3290.91202	12657.35
3293.16516	12618.95
3295.41695	12598.65
3297.66738	12529.65
3299.91647	12480.65
3302.16421	12379.75
3304.4106	12343.95
3306.65564	12283.45
3308.89933	12179.75
3311.14169	12137.15
3313.38269	12024.95
3315.62236	11993.15
3317.86068	11877.65
3320.09766	11770.65
3322.3333	11659.45
3324.5676	11697.35
3326.80056	11508.85
3329.03219	11460.25
3331.26248	5.15
3333.49143	-0.05
3335.71905	-0.25
