Data from AgNP_FTO_APTES_CRN_10uM_R6G_10uM_NaF_0.1M_Addition_RamanShift__12__16-28-57-967.txt Node

Date: Wed Dec 15 16:28:57 GMT 2021
User: TCL
Spectrometer: QEP01345
Trigger mode: 4
Integration Time (sec): 7.000000E0
Scans to average: 10
Electric dark correction enabled: true
Nonlinearity correction enabled: false
Boxcar width: 0
XAxis mode: Raman Shifts
Number of Pixels in Spectrum: 1044
>>>>>Begin Spectral Data<<<<<
46.04893	0.25
50.45542	-0.85
54.85868	-0.15
59.25871	-0.35
63.6555	74.65
68.04907	80.75
72.43941	81.15
76.82654	87.95
81.21044	92.45
85.59113	90.95
89.96862	96.65
94.34289	98.05
98.71396	103.35
103.08183	107.05
107.4465	110.75
111.80798	110.95
116.16626	117.85
120.52136	122.45
124.87327	125.55
129.222	128.55
133.56755	134.95
137.90993	145.45
142.24913	158.15
146.58517	176.85
150.91804	208.25
155.24774	241.45
159.57429	300.45
163.89768	384.05
168.21792	497.75
172.53501	679.85
176.84895	941.85
181.15975	1315.15
185.46741	1835.85
189.77193	2546.25
194.07331	3402.85
198.37157	4383.05
202.6667	5455.35
206.9587	6492.35
211.24758	7519.45
215.53334	8547.95
219.81599	9619.05
224.09553	10824.95
228.37195	12110.65
232.64527	13547.15
236.91549	15046.25
241.18261	16608.65
245.44663	18069.05
249.70755	19391.05
253.96539	20552.25
258.22014	21517.55
262.4718	22252.75
266.72039	22752.95
270.96589	23026.05
275.20832	23052.75
279.44768	22896.95
283.68397	22739.95
287.91719	22663.75
292.14735	22586.55
296.37445	22591.35
300.59849	22612.15
304.81948	22566.75
309.03742	22500.65
313.25231	22311.35
317.46415	21874.05
321.67296	21383.05
325.87872	20832.55
330.08145	20605.35
334.28114	20595.85
338.47781	20751.55
342.67145	20940.45
346.86207	21211.85
351.04966	21538.25
355.23424	21827.55
359.4158	22058.95
363.59435	22180.75
367.76989	22283.45
371.94243	22345.15
376.11196	22253.45
380.27849	22230.25
384.44203	22232.75
388.60257	22298.05
392.76012	22574.25
396.91468	22843.25
401.06626	23211.25
405.21485	23463.85
409.36047	23453.05
413.50311	23173.25
417.64277	23027.45
421.77947	23034.25
425.9132	23153.25
430.04396	23308.25
434.17176	23425.15
438.2966	23479.75
442.41849	23624.65
446.53742	23922.05
450.6534	24315.25
454.76644	24578.75
458.87653	24764.05
462.98368	24824.45
467.08789	24757.65
471.18916	24684.15
475.2875	24558.75
479.38291	24463.05
483.4754	24337.35
487.56496	24078.35
491.6516	23834.05
495.73531	23629.05
499.81612	23510.85
503.89401	23595.45
507.96899	23762.75
512.04106	23871.75
516.11023	23835.55
520.1765	23734.65
524.23987	23543.15
528.30034	23419.95
532.35792	23150.25
536.41261	22888.25
540.46441	22689.65
544.51333	22770.55
548.55936	23043.85
552.60252	23409.45
556.64279	23856.15
560.6802	24106.15
564.71473	24243.95
568.7464	24626.05
572.7752	25286.15
576.80114	26078.15
580.82422	26855.45
584.84444	27486.25
588.86181	27832.95
592.87633	27937.75
596.888	27610.95
600.89682	27041.95
604.9028	27055.35
608.90594	28094.05
612.90624	29219.15
616.90371	27751.15
620.89834	24462.85
624.89015	23021.35
628.87913	22842.85
632.86528	23097.15
636.84862	23232.45
640.82913	22991.65
644.80683	22560.85
648.78172	22194.25
652.75379	22079.65
656.72306	22174.35
660.68952	22446.25
664.65319	22455.05
668.61405	22305.25
672.57211	22269.55
676.52738	22254.95
680.47986	22264.55
684.42955	22172.45
688.37646	22102.65
692.32058	22146.15
696.26192	22329.85
700.20048	22607.75
704.13626	22840.05
708.06928	22967.95
711.99952	23037.45
715.927	22938.35
719.85171	22840.15
723.77365	22608.35
727.69284	22299.85
731.60928	22066.25
735.52295	21899.05
739.43388	21838.75
743.34206	21900.15
747.24749	21995.55
751.15017	22188.85
755.05012	22534.95
758.94733	23112.35
762.8418	24112.75
766.73354	25666.35
770.62254	27030.35
774.50882	27069.55
778.39237	25889.85
782.27321	24459.15
786.15132	23301.45
790.02671	22527.95
793.89938	22067.85
797.76935	21855.55
801.6366	21793.75
805.50115	21713.75
809.36299	21624.85
813.22213	21529.65
817.07857	21498.45
820.93231	21491.65
824.78336	21468.35
828.63172	21408.95
832.47738	21383.95
836.32036	21406.55
840.16066	21400.45
843.99827	21337.25
847.8332	21305.35
851.66546	21294.25
855.49504	21274.05
859.32195	21228.45
863.1462	21244.35
866.96777	21184.85
870.78668	21151.55
874.60293	21178.95
878.41652	21198.95
882.22745	21243.55
886.03573	21329.55
889.84136	21348.05
893.64433	21394.75
897.44466	21363.45
901.24235	21359.15
905.0374	21339.35
908.8298	21313.35
912.61957	21400.25
916.40671	21610.35
920.19121	21848.85
923.97308	21950.25
927.75233	21881.95
931.52895	21724.15
935.30295	21437.35
939.07433	21153.35
942.84309	20849.55
946.60924	20688.35
950.37278	20566.25
954.13371	20514.05
957.89203	20483.25
961.64774	20458.65
965.40086	20453.55
969.15137	20419.05
972.89929	20325.95
976.64461	20207.05
980.38733	20157.45
984.12747	20208.85
987.86502	20229.25
991.59999	20280.15
995.33237	20387.35
999.06217	20620.75
1002.78939	20913.85
1006.51404	21255.25
1010.23611	21686.45
1013.95561	21969.25
1017.67255	21899.15
1021.38692	21659.85
1025.09872	21395.95
1028.80796	21174.55
1032.51465	21123.45
1036.21877	21169.75
1039.92035	21285.15
1043.61937	21460.95
1047.31584	21629.35
1051.00976	21858.25
1054.70114	22108.75
1058.38998	22529.75
1062.07627	23125.65
1065.76003	23953.85
1069.44126	24813.35
1073.11995	25537.95
1076.79611	25864.65
1080.46974	25628.75
1084.14085	25025.45
1087.80943	24489.45
1091.47549	24224.85
1095.13903	24008.55
1098.80005	23709.25
1102.45857	23119.95
1106.11456	22562.35
1109.76805	22210.65
1113.41903	22080.15
1117.06751	22074.85
1120.71348	22239.45
1124.35696	22516.05
1127.99793	22821.25
1131.63641	23088.45
1135.2724	23065.05
1138.90589	23011.55
1142.5369	23027.45
1146.16542	23013.65
1149.79145	23141.55
1153.415	23334.35
1157.03607	23568.05
1160.65467	23998.85
1164.27079	24826.25
1167.88443	25881.55
1171.49561	27155.35
1175.10432	28803.15
1178.71056	30711.05
1182.31434	32510.65
1185.91565	33607.95
1189.51451	33862.25
1193.11091	33423.65
1196.70485	32535.85
1200.29634	31106.45
1203.88538	30045.85
1207.47197	29325.05
1211.05612	28829.75
1214.63782	28323.55
1218.21708	27653.35
1221.79391	26851.25
1225.36829	26241.65
1228.94024	25971.65
1232.50976	25792.45
1236.07685	25755.25
1239.6415	25753.65
1243.20374	25707.85
1246.76355	25854.75
1250.32093	26148.85
1253.8759	26591.95
1257.42845	27196.75
1260.97859	27965.45
1264.52631	28650.15
1268.07163	29322.05
1271.61453	29899.25
1275.15503	30569.75
1278.69312	31189.35
1282.22882	31858.65
1285.76211	32686.75
1289.29301	33603.25
1292.82151	34715.55
1296.34761	35940.95
1299.87133	37316.55
1303.39266	38757.45
1306.9116	40040.45
1310.42815	41094.45
1313.94233	41702.75
1317.45412	41680.25
1320.96354	41582.25
1324.47058	41704.85
1327.97525	42041.05
1331.47754	42328.55
1334.97747	42550.95
1338.47502	42811.55
1341.97022	43150.85
1345.46305	43419.95
1348.95352	43414.45
1352.44163	43038.05
1355.92738	42665.25
1359.41078	42714.85
1362.89183	42861.15
1366.37053	42080.35
1369.84688	39812.35
1373.32088	36919.55
1376.79254	34662.05
1380.26186	33566.25
1383.72883	33135.15
1387.19347	32818.55
1390.65578	32545.95
1394.11575	32208.75
1397.57339	32018.45
1401.0287	31954.35
1404.48168	31886.65
1407.93234	31539.45
1411.38068	30946.15
1414.82669	30005.55
1418.27039	28913.35
1421.71177	28013.25
1425.15083	27257.25
1428.58758	26917.65
1432.02203	27021.55
1435.45416	27468.45
1438.88399	27991.45
1442.31151	28482.35
1445.73673	28843.45
1449.15965	29242.15
1452.58027	29588.75
1455.9986	29873.55
1459.41463	30246.35
1462.82837	30738.65
1466.23982	31235.25
1469.64898	31719.55
1473.05586	31965.05
1476.46045	32082.05
1479.86276	32055.85
1483.26279	32048.35
1486.66054	32079.75
1490.05602	32327.15
1493.44922	32821.75
1496.84016	33628.45
1500.22882	34770.75
1503.61521	36195.85
1506.99934	37608.45
1510.38121	38447.65
1513.76081	38381.05
1517.13816	37690.35
1520.51324	36653.95
1523.88607	35853.05
1527.25665	35363.95
1530.62498	35087.35
1533.99105	34705.05
1537.35488	34177.95
1540.71647	33343.65
1544.07581	32418.25
1547.4329	31548.75
1550.78776	30846.25
1554.14038	30457.65
1557.49077	30323.05
1560.83892	30318.85
1564.18484	30544.85
1567.52853	30945.55
1570.86999	31521.95
1574.20922	32585.35
1577.54624	33740.15
1580.88103	34523.05
1584.2136	34698.55
1587.54395	34299.75
1590.87208	33854.65
1594.19801	33983.35
1597.52172	34484.25
1600.84321	34442.35
1604.16251	33311.45
1607.47959	31536.85
1610.79447	29764.45
1614.10715	27907.25
1617.41763	26220.95
1620.7259	24919.05
1624.03199	24109.95
1627.33587	24011.65
1630.63757	24395.95
1633.93707	25473.05
1637.23439	27339.05
1640.52951	30156.65
1643.82246	33397.15
1647.11321	36217.25
1650.40179	37234.75
1653.68819	35751.55
1656.97241	32339.65
1660.25446	28528.15
1663.53433	25343.35
1666.81203	23095.45
1670.08756	21615.75
1673.36092	20628.95
1676.63211	20044.35
1679.90115	19582.45
1683.16801	19278.05
1686.43272	19079.65
1689.69527	18892.55
1692.95567	18766.55
1696.2139	18719.45
1699.46999	18636.45
1702.72392	18599.35
1705.97571	18511.45
1709.22535	18444.05
1712.47284	18342.55
1715.71819	18310.85
1718.96139	18222.55
1722.20246	18162.25
1725.44139	18110.75
1728.67818	18047.65
1731.91284	17923.15
1735.14537	17837.15
1738.37576	17748.75
1741.60403	17706.55
1744.83017	17664.75
1748.05418	17588.85
1751.27607	17557.45
1754.49584	17558.25
1757.71349	17565.35
1760.92903	17573.65
1764.14244	17526.95
1767.35375	17513.05
1770.56294	17462.25
1773.77002	17423.35
1776.97499	17421.65
1780.17785	17335.65
1783.37861	17302.05
1786.57727	17283.25
1789.77382	17194.25
1792.96828	17196.35
1796.16064	17146.45
1799.3509	17099.15
1802.53907	17052.95
1805.72514	16988.05
1808.90913	16939.65
1812.09102	16918.85
1815.27083	16881.95
1818.44856	16882.45
1821.6242	16837.15
1824.79776	16833.85
1827.96924	16843.15
1831.13864	16874.65
1834.30597	16877.35
1837.47122	16877.15
1840.6344	16864.75
1843.7955	16867.05
1846.95454	16836.45
1850.11151	16844.85
1853.26642	16804.05
1856.41926	16843.95
1859.57004	16785.35
1862.71876	16786.35
1865.86542	16728.35
1869.01003	16712.75
1872.15258	16632.75
1875.29308	16645.55
1878.43152	16556.95
1881.56792	16536.35
1884.70227	16494.65
1887.83457	16466.55
1890.96482	16422.25
1894.09304	16404.35
1897.21921	16366.55
1900.34335	16363.25
1903.46544	16319.65
1906.58551	16293.25
1909.70353	16259.35
1912.81953	16238.85
1915.93349	16196.55
1919.04543	16154.35
1922.15534	16130.05
1925.26322	16110.55
1928.36908	16065.45
1931.47292	15995.35
1934.57473	15974.85
1937.67453	15936.65
1940.77232	15896.15
1943.86808	15867.05
1946.96184	15822.55
1950.05358	15804.95
1953.14331	15742.45
1956.23103	15720.95
1959.31675	15652.65
1962.40046	15605.85
1965.48217	15525.25
1968.56188	15513.35
1971.63959	15465.05
1974.7153	15394.45
1977.78901	15332.55
1980.86073	15263.25
1983.93046	15233.95
1986.99819	15195.15
1990.06394	15167.25
1993.1277	15103.95
1996.18947	15041.65
1999.24925	15009.85
2002.30706	14989.85
2005.36288	14915.75
2008.41672	14861.85
2011.46859	14848.15
2014.51848	14785.25
2017.56639	14753.05
2020.61233	14720.55
2023.6563	14666.75
2026.6983	14639.75
2029.73833	14621.65
2032.7764	14579.25
2035.8125	14517.55
2038.84664	14472.35
2041.87881	14450.65
2044.90903	14423.05
2047.93729	14409.35
2050.96359	14364.45
2053.98794	14349.05
2057.01034	14371.85
2060.03078	14342.35
2063.04927	14319.65
2066.06582	14284.85
2069.08042	14290.45
2072.09307	14270.15
2075.10378	14233.55
2078.11255	14250.85
2081.11938	14258.95
2084.12426	14232.25
2087.12722	14225.75
2090.12824	14198.05
2093.12732	14245.55
2096.12447	14251.45
2099.11969	14236.55
2102.11299	14229.15
2105.10435	14250.35
2108.09379	14268.15
2111.08131	14250.65
2114.0669	14258.65
2117.05057	14272.55
2120.03233	14293.35
2123.01216	14281.65
2125.99008	14282.15
2128.96609	14315.45
2131.94018	14298.25
2134.91236	14315.35
2137.88263	14339.15
2140.851	14318.65
2143.81746	14304.65
2146.78201	14320.05
2149.74466	14311.05
2152.7054	14302.25
2155.66425	14297.75
2158.6212	14329.65
2161.57625	14299.25
2164.52941	14306.65
2167.48067	14305.95
2170.43004	14304.15
2173.37752	14264.55
2176.32311	14257.75
2179.26681	14237.35
2182.20863	14250.85
2185.14856	14251.95
2188.08661	14246.45
2191.02278	14219.75
2193.95707	14210.35
2196.88948	14182.05
2199.82001	14183.35
2202.74867	14149.15
2205.67545	14172.55
2208.60037	14133.15
2211.52341	14113.55
2214.44458	14103.05
2217.36388	14077.45
2220.28132	14069.35
2223.1969	14022.35
2226.11061	13982.25
2229.02246	13975.65
2231.93245	13937.35
2234.84058	13919.65
2237.74686	13871.35
2240.65128	13894.25
2243.55385	13840.85
2246.45456	13789.85
2249.35343	13770.05
2252.25044	13747.85
2255.14561	13739.75
2258.03893	13734.35
2260.93041	13719.05
2263.82004	13672.65
2266.70783	13666.05
2269.59378	13598.15
2272.4779	13561.25
2275.36017	13529.75
2278.24061	13515.45
2281.11922	13459.45
2283.996	13437.15
2286.87094	13436.05
2289.74405	13367.15
2292.61534	13375.95
2295.4848	13340.35
2298.35243	13364.05
2301.21824	13340.45
2304.08223	13316.25
2306.94439	13306.85
2309.80474	13261.55
2312.66327	13268.55
2315.51999	13258.65
2318.37489	13235.35
2321.22797	13204.65
2324.07925	13195.25
2326.92871	13181.65
2329.77637	13201.55
2332.62222	13169.65
2335.46626	13152.55
2338.3085	13125.85
2341.14893	13120.55
2343.98756	13090.45
2346.8244	13082.65
2349.65943	13083.05
2352.49267	13114.85
2355.32411	13084.55
2358.15376	13072.75
2360.98161	13067.15
2363.80768	13055.15
2366.63195	13053.95
2369.45444	13065.15
2372.27514	13028.85
2375.09405	13000.75
2377.91118	12997.55
2380.72652	12954.05
2383.54009	12927.35
2386.35187	12927.15
2389.16188	12850.65
2391.97011	12862.95
2394.77657	12807.35
2397.58125	12810.45
2400.38416	12792.55
2403.18529	12763.25
2405.98466	12760.85
2408.78226	12701.75
2411.57809	12685.35
2414.37216	12691.25
2417.16446	12679.55
2419.955	12667.95
2422.74378	12653.45
2425.5308	12637.85
2428.31606	12613.25
2431.09956	12605.95
2433.88131	12597.15
2436.6613	12588.15
2439.43954	12599.35
2442.21603	12558.35
2444.99077	12540.35
2447.76377	12534.55
2450.53501	12522.75
2453.30451	12531.65
2456.07226	12498.95
2458.83827	12498.65
2461.60254	12480.25
2464.36507	12492.75
2467.12586	12468.25
2469.88492	12449.15
2472.64224	12431.55
2475.39782	12432.05
2478.15167	12439.95
2480.90379	12422.35
2483.65417	12439.45
2486.40283	12409.65
2489.14976	12439.05
2491.89497	12417.35
2494.63845	12438.95
2497.3802	12410.35
2500.12024	12405.35
2502.85855	12388.55
2505.59514	12377.25
2508.33002	12374.85
2511.06318	12347.05
2513.79462	12301.25
2516.52435	12307.05
2519.25237	12296.05
2521.97867	12257.85
2524.70327	12270.35
2527.42616	12265.05
2530.14734	12271.25
2532.86681	12246.75
2535.58458	12202.05
2538.30065	12210.25
2541.01501	12169.15
2543.72768	12192.45
2546.43864	12156.35
2549.14791	12150.25
2551.85548	12131.95
2554.56136	12092.25
2557.26554	12083.15
2559.96803	12082.25
2562.66883	12067.55
2565.36794	12045.95
2568.06536	12033.25
2570.7611	12010.35
2573.45514	12015.85
2576.14751	11994.85
2578.83819	11926.35
2581.52719	11933.35
2584.21451	11919.15
2586.90015	11917.85
2589.58411	11891.55
2592.2664	11880.35
2594.94701	11838.05
2597.62594	11844.85
2600.30321	11806.15
2602.9788	11810.65
2605.65273	11783.05
2608.32498	11754.95
2610.99557	11747.25
2613.66449	11730.25
2616.33175	11723.05
2618.99734	11702.85
2621.66128	11695.15
2624.32355	11691.05
2626.98416	11657.85
2629.64311	11660.95
2632.30041	11619.95
2634.95605	11633.75
2637.61004	11595.75
2640.26238	11600.25
2642.91306	11605.45
2645.56209	11612.15
2648.20948	11590.55
2650.85521	11590.65
2653.4993	11577.25
2656.14175	11579.45
2658.78255	11595.05
2661.42171	11556.95
2664.05923	11567.85
2666.6951	11570.35
2669.32934	11580.15
2671.96194	11556.65
2674.59291	11550.75
2677.22224	11551.85
2679.84993	11578.15
2682.476	11544.55
2685.10043	11540.55
2687.72324	11560.75
2690.34441	11576.65
2692.96396	11580.15
2695.58188	11543.75
2698.19818	11540.85
2700.81285	11577.95
2703.4259	11588.85
2706.03733	11631.85
2708.64714	11609.45
2711.25533	11588.35
2713.86191	11575.95
2716.46687	11610.85
2719.07021	11564.85
2721.67194	11572.85
2724.27206	11563.45
2726.87057	11567.05
2729.46747	11540.55
2732.06276	11573.25
2734.65644	11577.45
2737.24852	11565.25
2739.83899	11513.15
2742.42786	11539.15
2745.01513	11494.45
2747.60079	11496.65
2750.18486	11479.45
2752.76733	11514.25
2755.3482	11504.45
2757.92747	11485.55
2760.50515	11460.35
2763.08123	11459.75
2765.65573	11436.45
2768.22863	11432.05
2770.79994	11415.75
2773.36967	11396.75
2775.9378	11380.75
2778.50435	11375.15
2781.06932	11321.95
2783.6327	11335.85
2786.1945	11316.05
2788.75471	11305.25
2791.31335	11261.85
2793.87041	11254.65
2796.42589	11239.25
2798.97979	11252.35
2801.53212	11209.75
2804.08288	11210.95
2806.63206	11188.55
2809.17967	11140.55
2811.72571	11097.95
2814.27018	11124.85
2816.81308	11117.05
2819.35442	11087.85
2821.89419	11059.85
2824.43239	11069.25
2826.96904	11057.65
2829.50412	11031.85
2832.03763	11018.05
2834.56959	11014.15
2837.1	10979.95
2839.62884	11003.25
2842.15613	11002.35
2844.68186	11029.75
2847.20604	11016.95
2849.72867	11037.05
2852.24974	11001.25
2854.76927	11028.85
2857.28724	11014.25
2859.80367	10999.15
2862.31855	10967.25
2864.83189	10956.05
2867.34368	10945.65
2869.85393	10970.55
2872.36264	10928.55
2874.8698	10922.55
2877.37543	10923.55
2879.87952	10921.25
2882.38207	10914.15
2884.88308	10893.35
2887.38256	10908.15
2889.88051	10886.85
2892.37692	10916.75
2894.8718	10899.15
2897.36515	10917.75
2899.85698	10884.45
2902.34727	10904.35
2904.83604	10920.15
2907.32328	10892.45
2909.809	10915.65
2912.29319	10915.65
2914.77587	10905.65
2917.25702	10906.65
2919.73665	10902.15
2922.21476	10893.95
2924.69136	10880.55
2927.16644	10911.85
2929.64	10893.85
2932.11205	10883.55
2934.58258	10851.55
2937.05161	10882.65
2939.51912	10865.55
2941.98513	10844.55
2944.44962	10800.95
2946.91261	10751.85
2949.37409	10792.25
2951.83407	10747.25
2954.29254	10735.95
2956.74951	10713.85
2959.20498	10725.85
2961.65895	10702.35
2964.11142	10699.15
2966.56239	10656.95
2969.01186	10665.95
2971.45984	10639.45
2973.90632	10597.15
2976.35131	10559.65
2978.7948	10533.55
2981.23681	10501.25
2983.67732	10504.55
2986.11635	10480.85
2988.55388	10469.35
2990.98993	10432.65
2993.4245	10388.65
2995.85758	10386.45
2998.28917	10334.35
3000.71928	10373.45
3003.14791	10304.15
3005.57506	10300.65
3008.00073	10288.55
3010.42493	10275.05
3012.84764	10264.45
3015.26888	10218.75
3017.68865	10185.55
3020.10694	10193.25
3022.52376	10159.35
3024.9391	10169.35
3027.35298	10166.75
3029.76539	10167.05
3032.17632	10136.95
3034.5858	10124.15
3036.9938	10105.75
3039.40034	10092.85
3041.80542	10093.85
3044.20903	10018.05
3046.61118	10039.25
3049.01187	10027.65
3051.4111	10016.35
3053.80888	10003.35
3056.20519	9972.55
3058.60005	9977.65
3060.99345	9960.65
3063.3854	9907.85
3065.7759	9874.65
3068.16494	9863.15
3070.55254	9868.35
3072.93868	9830.95
3075.32338	9812.35
3077.70662	9789.15
3080.08842	9743.55
3082.46878	9752.55
3084.84769	9750.15
3087.22515	9741.05
3089.60118	9728.65
3091.97576	9749.75
3094.3489	9725.15
3096.72061	9710.25
3099.09087	9695.15
3101.4597	9666.15
3103.82709	9686.65
3106.19305	9671.75
3108.55757	9641.95
3110.92066	9644.95
3113.28232	9611.95
3115.64255	9595.85
3118.00134	9563.35
3120.35871	9561.95
3122.71466	9542.15
3125.06917	9540.65
3127.42226	9499.25
3129.77393	9521.65
3132.12417	9499.45
3134.47299	9513.65
3136.82039	9523.45
3139.16636	9524.85
3141.51092	9520.65
3143.85406	9546.75
3146.19579	9536.85
3148.53609	9546.85
3150.87499	9537.75
3153.21246	9546.65
3155.54853	9564.25
3157.88318	9571.95
3160.21642	9575.65
3162.54826	9514.65
3164.87868	9525.05
3167.2077	9544.65
3169.5353	9539.85
3171.86151	9507.45
3174.18631	9510.95
3176.5097	9511.35
3178.83169	9483.75
3181.15228	9481.85
3183.47147	9494.25
3185.78926	9478.75
3188.10565	9453.05
3190.42065	9449.15
3192.73424	9422.45
3195.04645	9458.25
3197.35725	9426.45
3199.66667	9427.65
3201.97469	9444.65
3204.28132	9421.55
3206.58656	9450.85
3208.8904	9442.25
3211.19287	9460.05
3213.49394	9447.35
3215.79363	9429.35
3218.09193	9446.35
3220.38884	9434.05
3222.68438	9436.05
3224.97853	9427.25
3227.2713	9429.75
3229.56269	9400.05
3231.8527	9381.85
3234.14133	9362.25
3236.42858	9361.85
3238.71446	9350.05
3240.99896	9350.05
3243.28209	9328.65
3245.56384	9310.25
3247.84423	9316.85
3250.12324	9298.25
3252.40088	9288.75
3254.67715	9308.45
3256.95205	9273.55
3259.22558	9294.55
3261.49775	9256.65
3263.76855	9250.05
3266.03799	9218.75
3268.30606	9207.25
3270.57277	9195.35
3272.83812	9168.85
3275.10211	9146.55
3277.36474	9128.65
3279.62601	9151.75
3281.88593	9137.75
3284.14448	9142.95
3286.40168	9124.15
3288.65753	9115.55
3290.91202	9092.55
3293.16516	9071.75
3295.41695	9052.35
3297.66738	8981.45
3299.91647	8943.75
3302.16421	8913.05
3304.4106	8853.65
3306.65564	8801.05
3308.89933	8737.05
3311.14169	8669.55
3313.38269	8638.35
3315.62236	8564.55
3317.86068	8484.85
3320.09766	8384.75
3322.3333	8330.75
3324.5676	8327.25
3326.80056	8214.95
3329.03219	8171.75
3331.26248	3.65
3333.49143	-1.05
3335.71905	-1.85
