Data from AgNP_FTO_APTES_CRN_500uM_R6G_10uM_NaF_0.1M_Addition_RamanShift__5__20-09-28-216.txt Node

Date: Wed Dec 15 20:09:28 GMT 2021
User: TCL
Spectrometer: QEP01345
Trigger mode: 4
Integration Time (sec): 7.000000E0
Scans to average: 10
Electric dark correction enabled: true
Nonlinearity correction enabled: false
Boxcar width: 0
XAxis mode: Raman Shifts
Number of Pixels in Spectrum: 1044
>>>>>Begin Spectral Data<<<<<
46.04893	0.15
50.45542	-1.45
54.85868	-0.25
59.25871	-1.05
63.6555	59.65
68.04907	67.25
72.43941	70.65
76.82654	76.15
81.21044	76.95
85.59113	78.15
89.96862	83.15
94.34289	81.35
98.71396	88.35
103.08183	92.65
107.4465	93.45
111.80798	95.55
116.16626	95.65
120.52136	101.45
124.87327	102.25
129.222	106.95
133.56755	111.15
137.90993	119.45
142.24913	132.05
146.58517	147.65
150.91804	167.25
155.24774	199.95
159.57429	248.45
163.89768	317.45
168.21792	407.05
172.53501	554.55
176.84895	771.05
181.15975	1089.55
185.46741	1521.15
189.77193	2112.85
194.07331	2813.15
198.37157	3622.05
202.6667	4485.75
206.9587	5330.45
211.24758	6137.05
215.53334	6970.55
219.81599	7822.05
224.09553	8771.25
228.37195	9805.95
232.64527	10932.55
236.91549	12146.45
241.18261	13388.55
245.44663	14573.55
249.70755	15690.35
253.96539	16610.95
258.22014	17428.25
262.4718	18069.45
266.72039	18583.55
270.96589	18785.25
275.20832	18797.05
279.44768	18702.85
283.68397	18533.55
287.91719	18342.15
292.14735	18226.85
296.37445	18188.85
300.59849	18150.75
304.81948	18171.15
309.03742	18116.55
313.25231	18010.45
317.46415	17748.95
321.67296	17458.95
325.87872	17202.05
330.08145	17113.05
334.28114	17122.25
338.47781	17225.45
342.67145	17392.05
346.86207	17625.25
351.04966	17913.35
355.23424	18188.65
359.4158	18440.25
363.59435	18619.65
367.76989	18751.25
371.94243	18796.55
376.11196	18868.65
380.27849	18981.95
384.44203	19112.05
388.60257	19264.25
392.76012	19426.55
396.91468	19611.45
401.06626	19837.15
405.21485	19999.65
409.36047	20010.75
413.50311	19908.65
417.64277	19794.25
421.77947	19823.25
425.9132	19928.85
430.04396	20048.65
434.17176	20158.85
438.2966	20297.45
442.41849	20574.45
446.53742	20956.05
450.6534	21388.75
454.76644	21725.65
458.87653	21828.35
462.98368	21759.75
467.08789	21603.05
471.18916	21465.25
475.2875	21355.45
479.38291	21275.35
483.4754	21206.05
487.56496	20977.35
491.6516	20706.25
495.73531	20456.45
499.81612	20351.75
503.89401	20461.95
507.96899	20569.65
512.04106	20594.05
516.11023	20496.15
520.1765	20451.35
524.23987	20343.15
528.30034	20256.85
532.35792	20098.55
536.41261	19938.15
540.46441	19818.95
544.51333	19793.65
548.55936	19980.75
552.60252	20323.55
556.64279	20682.45
560.6802	20934.85
564.71473	21012.05
568.7464	21251.85
572.7752	21660.95
576.80114	22065.05
580.82422	22445.15
584.84444	22908.95
588.86181	23504.65
592.87633	23946.45
596.888	23882.75
600.89682	23346.55
604.9028	23230.05
608.90594	24068.75
612.90624	25017.05
616.90371	23881.65
620.89834	21321.25
624.89015	20162.55
628.87913	20063.95
632.86528	20156.15
636.84862	20203.25
640.82913	20006.55
644.80683	19736.65
648.78172	19551.15
652.75379	19543.55
656.72306	19668.05
660.68952	19819.15
664.65319	19700.25
668.61405	19536.65
672.57211	19511.35
676.52738	19568.35
680.47986	19630.15
684.42955	19570.75
688.37646	19475.75
692.32058	19527.05
696.26192	19696.25
700.20048	19857.55
704.13626	19970.25
708.06928	20022.75
711.99952	19995.95
715.927	19999.25
719.85171	20052.35
723.77365	19901.35
727.69284	19744.75
731.60928	19548.05
735.52295	19479.55
739.43388	19499.75
743.34206	19543.55
747.24749	19610.35
751.15017	19710.15
755.05012	19919.35
758.94733	20298.05
762.8418	20957.05
766.73354	21898.25
770.62254	22911.95
774.50882	23036.45
778.39237	22295.15
782.27321	21232.85
786.15132	20303.45
790.02671	19756.55
793.89938	19471.25
797.76935	19355.25
801.6366	19318.55
805.50115	19306.25
809.36299	19247.25
813.22213	19190.15
817.07857	19138.85
820.93231	19076.15
824.78336	19014.55
828.63172	18998.05
832.47738	18989.45
836.32036	18969.55
840.16066	19016.35
843.99827	18981.45
847.8332	18992.35
851.66546	18935.75
855.49504	18909.15
859.32195	18948.35
863.1462	18947.45
866.96777	18902.75
870.78668	18886.85
874.60293	18868.25
878.41652	18895.45
882.22745	18929.85
886.03573	18945.75
889.84136	18967.65
893.64433	18913.85
897.44466	18879.55
901.24235	18847.65
905.0374	18779.85
908.8298	18763.55
912.61957	18794.85
916.40671	18880.75
920.19121	19014.55
923.97308	19147.85
927.75233	19130.95
931.52895	18998.35
935.30295	18822.85
939.07433	18625.25
942.84309	18443.45
946.60924	18328.75
950.37278	18271.95
954.13371	18221.85
957.89203	18236.95
961.64774	18212.15
965.40086	18201.25
969.15137	18129.85
972.89929	18067.75
976.64461	18021.15
980.38733	17993.95
984.12747	18030.75
987.86502	18093.55
991.59999	18193.55
995.33237	18296.95
999.06217	18517.35
1002.78939	18791.35
1006.51404	19010.25
1010.23611	19252.15
1013.95561	19411.95
1017.67255	19423.25
1021.38692	19290.45
1025.09872	19046.95
1028.80796	18955.55
1032.51465	18985.35
1036.21877	19125.45
1039.92035	19186.75
1043.61937	19216.65
1047.31584	19195.15
1051.00976	19164.25
1054.70114	19229.85
1058.38998	19353.45
1062.07627	19581.35
1065.76003	19964.35
1069.44126	20348.65
1073.11995	20708.95
1076.79611	20969.15
1080.46974	20818.35
1084.14085	20606.25
1087.80943	20417.45
1091.47549	20312.75
1095.13903	20202.05
1098.80005	20010.75
1102.45857	19709.25
1106.11456	19435.65
1109.76805	19315.65
1113.41903	19336.45
1117.06751	19373.45
1120.71348	19522.25
1124.35696	19708.75
1127.99793	19918.05
1131.63641	20052.85
1135.2724	19987.85
1138.90589	19858.45
1142.5369	19852.45
1146.16542	19886.25
1149.79145	20010.25
1153.415	20142.05
1157.03607	20357.05
1160.65467	20757.55
1164.27079	21407.05
1167.88443	22275.35
1171.49561	23258.15
1175.10432	24459.35
1178.71056	25961.05
1182.31434	27307.05
1185.91565	27823.35
1189.51451	27602.65
1193.11091	26938.75
1196.70485	26153.45
1200.29634	25409.35
1203.88538	24857.05
1207.47197	24506.95
1211.05612	24261.65
1214.63782	23899.65
1218.21708	23414.05
1221.79391	22993.45
1225.36829	22723.95
1228.94024	22506.85
1232.50976	22303.35
1236.07685	22065.45
1239.6415	21973.15
1243.20374	21892.25
1246.76355	22038.55
1250.32093	22232.25
1253.8759	22560.05
1257.42845	22961.25
1260.97859	23390.85
1264.52631	23842.85
1268.07163	24276.15
1271.61453	24756.45
1275.15503	25249.65
1278.69312	25815.85
1282.22882	26317.65
1285.76211	26971.25
1289.29301	27862.85
1292.82151	28932.55
1296.34761	30275.15
1299.87133	31734.65
1303.39266	33275.55
1306.9116	34590.35
1310.42815	35678.55
1313.94233	36249.65
1317.45412	36111.05
1320.96354	35560.85
1324.47058	35032.05
1327.97525	34611.75
1331.47754	34235.35
1334.97747	33976.65
1338.47502	33759.15
1341.97022	33481.45
1345.46305	33195.05
1348.95352	33022.55
1352.44163	33096.55
1355.92738	33705.35
1359.41078	34710.45
1362.89183	35609.85
1366.37053	35124.95
1369.84688	32885.25
1373.32088	30041.35
1376.79254	28067.75
1380.26186	27342.85
1383.72883	27251.85
1387.19347	27283.95
1390.65578	27116.55
1394.11575	27031.45
1397.57339	27261.25
1401.0287	27587.35
1404.48168	27778.35
1407.93234	27680.85
1411.38068	27143.15
1414.82669	26369.25
1418.27039	25457.75
1421.71177	24544.25
1425.15083	23815.35
1428.58758	23427.45
1432.02203	23530.05
1435.45416	23974.65
1438.88399	24532.65
1442.31151	24994.85
1445.73673	25204.85
1449.15965	25447.15
1452.58027	25584.35
1455.9986	25552.25
1459.41463	25704.25
1462.82837	25998.65
1466.23982	26368.05
1469.64898	26693.85
1473.05586	26900.55
1476.46045	26943.45
1479.86276	26835.15
1483.26279	26633.75
1486.66054	26535.75
1490.05602	26615.15
1493.44922	26826.65
1496.84016	27100.15
1500.22882	27498.95
1503.61521	28073.55
1506.99934	28831.75
1510.38121	29372.25
1513.76081	29435.35
1517.13816	28920.45
1520.51324	28183.55
1523.88607	27611.65
1527.25665	27398.35
1530.62498	27360.15
1533.99105	27375.25
1537.35488	27190.75
1540.71647	26807.95
1544.07581	26226.65
1547.4329	25639.55
1550.78776	25155.15
1554.14038	24788.05
1557.49077	24527.75
1560.83892	24490.65
1564.18484	24540.05
1567.52853	24773.75
1570.86999	25238.15
1574.20922	25939.25
1577.54624	26683.95
1580.88103	27091.05
1584.2136	27224.15
1587.54395	27368.45
1590.87208	27818.65
1594.19801	28625.15
1597.52172	29580.95
1600.84321	29811.35
1604.16251	28848.45
1607.47959	27081.15
1610.79447	25234.05
1614.10715	23496.55
1617.41763	22084.85
1620.7259	21155.65
1624.03199	20685.95
1627.33587	20669.85
1630.63757	21058.95
1633.93707	22055.55
1637.23439	23739.25
1640.52951	26130.85
1643.82246	28953.15
1647.11321	31136.25
1650.40179	31510.45
1653.68819	29572.25
1656.97241	26455.45
1660.25446	23360.85
1663.53433	21098.45
1666.81203	19580.35
1670.08756	18583.05
1673.36092	18003.35
1676.63211	17569.65
1679.90115	17287.15
1683.16801	17061.95
1686.43272	16893.85
1689.69527	16766.55
1692.95567	16676.15
1696.2139	16642.65
1699.46999	16579.65
1702.72392	16570.55
1705.97571	16490.65
1709.22535	16460.45
1712.47284	16436.75
1715.71819	16432.25
1718.96139	16384.05
1722.20246	16303.05
1725.44139	16283.35
1728.67818	16209.15
1731.91284	16099.95
1735.14537	16060.15
1738.37576	15990.45
1741.60403	15981.05
1744.83017	15889.05
1748.05418	15940.05
1751.27607	15872.15
1754.49584	15892.55
1757.71349	15865.75
1760.92903	15859.55
1764.14244	15850.95
1767.35375	15822.25
1770.56294	15774.35
1773.77002	15744.45
1776.97499	15718.45
1780.17785	15699.35
1783.37861	15650.25
1786.57727	15629.25
1789.77382	15579.05
1792.96828	15568.35
1796.16064	15545.15
1799.3509	15494.85
1802.53907	15477.05
1805.72514	15444.75
1808.90913	15377.35
1812.09102	15362.55
1815.27083	15304.05
1818.44856	15331.25
1821.6242	15281.95
1824.79776	15283.25
1827.96924	15247.85
1831.13864	15262.85
1834.30597	15253.45
1837.47122	15263.75
1840.6344	15232.15
1843.7955	15218.75
1846.95454	15220.35
1850.11151	15208.75
1853.26642	15199.55
1856.41926	15171.55
1859.57004	15177.65
1862.71876	15160.15
1865.86542	15158.95
1869.01003	15117.85
1872.15258	15094.35
1875.29308	15089.65
1878.43152	15068.05
1881.56792	15027.35
1884.70227	15031.75
1887.83457	15022.45
1890.96482	15025.55
1894.09304	14982.25
1897.21921	14997.85
1900.34335	14999.05
1903.46544	14937.45
1906.58551	14927.95
1909.70353	14880.55
1912.81953	14883.25
1915.93349	14857.05
1919.04543	14835.65
1922.15534	14778.55
1925.26322	14759.25
1928.36908	14758.05
1931.47292	14736.55
1934.57473	14701.75
1937.67453	14634.85
1940.77232	14605.15
1943.86808	14585.65
1946.96184	14572.75
1950.05358	14518.55
1953.14331	14461.75
1956.23103	14431.95
1959.31675	14386.35
1962.40046	14371.35
1965.48217	14320.65
1968.56188	14254.05
1971.63959	14221.85
1974.7153	14176.05
1977.78901	14143.95
1980.86073	14085.55
1983.93046	14049.95
1986.99819	14025.45
1990.06394	13971.05
1993.1277	13944.15
1996.18947	13896.75
1999.24925	13838.65
2002.30706	13837.05
2005.36288	13769.35
2008.41672	13766.65
2011.46859	13703.15
2014.51848	13661.55
2017.56639	13619.55
2020.61233	13581.05
2023.6563	13581.45
2026.6983	13559.05
2029.73833	13524.55
2032.7764	13473.15
2035.8125	13446.15
2038.84664	13425.75
2041.87881	13419.65
2044.90903	13367.65
2047.93729	13332.75
2050.96359	13365.25
2053.98794	13341.25
2057.01034	13330.05
2060.03078	13313.05
2063.04927	13298.05
2066.06582	13289.35
2069.08042	13297.55
2072.09307	13276.95
2075.10378	13247.55
2078.11255	13228.85
2081.11938	13213.75
2084.12426	13266.55
2087.12722	13220.45
2090.12824	13263.45
2093.12732	13226.55
2096.12447	13251.35
2099.11969	13218.15
2102.11299	13240.05
2105.10435	13236.25
2108.09379	13259.25
2111.08131	13235.15
2114.0669	13245.65
2117.05057	13275.15
2120.03233	13280.65
2123.01216	13287.15
2125.99008	13311.95
2128.96609	13301.65
2131.94018	13321.15
2134.91236	13281.05
2137.88263	13306.05
2140.851	13317.95
2143.81746	13314.85
2146.78201	13315.55
2149.74466	13309.75
2152.7054	13365.95
2155.66425	13353.25
2158.6212	13355.65
2161.57625	13352.15
2164.52941	13322.65
2167.48067	13329.45
2170.43004	13312.25
2173.37752	13316.85
2176.32311	13295.55
2179.26681	13319.95
2182.20863	13338.65
2185.14856	13302.25
2188.08661	13296.35
2191.02278	13287.65
2193.95707	13254.15
2196.88948	13239.95
2199.82001	13241.55
2202.74867	13246.95
2205.67545	13227.25
2208.60037	13195.95
2211.52341	13206.05
2214.44458	13179.05
2217.36388	13160.85
2220.28132	13110.65
2223.1969	13090.85
2226.11061	13085.45
2229.02246	13040.35
2231.93245	13028.35
2234.84058	13006.75
2237.74686	13004.75
2240.65128	12993.65
2243.55385	12951.75
2246.45456	12925.95
2249.35343	12928.55
2252.25044	12915.25
2255.14561	12862.65
2258.03893	12852.85
2260.93041	12837.75
2263.82004	12808.95
2266.70783	12775.15
2269.59378	12731.35
2272.4779	12719.35
2275.36017	12694.65
2278.24061	12652.25
2281.11922	12623.95
2283.996	12597.05
2286.87094	12593.45
2289.74405	12573.55
2292.61534	12562.25
2295.4848	12548.85
2298.35243	12552.15
2301.21824	12509.55
2304.08223	12476.95
2306.94439	12521.95
2309.80474	12492.65
2312.66327	12502.05
2315.51999	12501.95
2318.37489	12472.25
2321.22797	12455.05
2324.07925	12443.05
2326.92871	12448.45
2329.77637	12447.05
2332.62222	12398.75
2335.46626	12386.05
2338.3085	12385.55
2341.14893	12372.65
2343.98756	12343.25
2346.8244	12326.05
2349.65943	12330.05
2352.49267	12307.85
2355.32411	12293.45
2358.15376	12306.15
2360.98161	12306.85
2363.80768	12277.45
2366.63195	12298.65
2369.45444	12257.25
2372.27514	12214.85
2375.09405	12193.25
2377.91118	12211.55
2380.72652	12199.55
2383.54009	12167.15
2386.35187	12162.35
2389.16188	12100.95
2391.97011	12116.75
2394.77657	12049.75
2397.58125	12043.25
2400.38416	12003.85
2403.18529	12028.35
2405.98466	12007.35
2408.78226	11990.25
2411.57809	11984.55
2414.37216	11944.25
2417.16446	11977.45
2419.955	11919.65
2422.74378	11910.25
2425.5308	11878.65
2428.31606	11873.05
2431.09956	11867.25
2433.88131	11851.05
2436.6613	11859.85
2439.43954	11846.75
2442.21603	11846.95
2444.99077	11842.35
2447.76377	11837.25
2450.53501	11826.85
2453.30451	11810.95
2456.07226	11774.05
2458.83827	11797.35
2461.60254	11770.75
2464.36507	11766.45
2467.12586	11758.75
2469.88492	11742.95
2472.64224	11726.15
2475.39782	11713.65
2478.15167	11731.05
2480.90379	11721.75
2483.65417	11740.15
2486.40283	11743.15
2489.14976	11741.65
2491.89497	11708.85
2494.63845	11723.85
2497.3802	11704.45
2500.12024	11661.65
2502.85855	11677.95
2505.59514	11672.55
2508.33002	11701.45
2511.06318	11662.05
2513.79462	11633.55
2516.52435	11623.75
2519.25237	11606.15
2521.97867	11594.95
2524.70327	11602.15
2527.42616	11577.95
2530.14734	11589.85
2532.86681	11530.85
2535.58458	11527.85
2538.30065	11521.35
2541.01501	11509.45
2543.72768	11503.85
2546.43864	11494.75
2549.14791	11455.45
2551.85548	11486.35
2554.56136	11431.55
2557.26554	11399.65
2559.96803	11404.75
2562.66883	11396.05
2565.36794	11353.65
2568.06536	11393.95
2570.7611	11359.55
2573.45514	11344.25
2576.14751	11343.65
2578.83819	11318.55
2581.52719	11313.55
2584.21451	11261.55
2586.90015	11271.95
2589.58411	11269.55
2592.2664	11232.95
2594.94701	11193.35
2597.62594	11204.45
2600.30321	11177.25
2602.9788	11163.15
2605.65273	11158.65
2608.32498	11131.25
2610.99557	11118.05
2613.66449	11145.95
2616.33175	11109.15
2618.99734	11116.35
2621.66128	11084.25
2624.32355	11069.65
2626.98416	11073.95
2629.64311	11089.45
2632.30041	11057.55
2634.95605	11034.45
2637.61004	11026.15
2640.26238	11032.85
2642.91306	11021.85
2645.56209	11010.65
2648.20948	10997.05
2650.85521	10990.25
2653.4993	10978.05
2656.14175	11009.15
2658.78255	10998.45
2661.42171	10988.05
2664.05923	11005.55
2666.6951	10996.35
2669.32934	10996.95
2671.96194	10983.15
2674.59291	10978.25
2677.22224	11008.35
2679.84993	10994.25
2682.476	10964.65
2685.10043	10975.65
2687.72324	10965.55
2690.34441	10964.75
2692.96396	10995.45
2695.58188	10968.25
2698.19818	10960.25
2700.81285	10987.55
2703.4259	10972.45
2706.03733	11047.25
2708.64714	10994.05
2711.25533	11033.25
2713.86191	11005.55
2716.46687	11018.75
2719.07021	11018.25
2721.67194	10999.15
2724.27206	10975.15
2726.87057	10988.35
2729.46747	10962.05
2732.06276	10994.95
2734.65644	10973.75
2737.24852	10976.45
2739.83899	10948.85
2742.42786	10968.05
2745.01513	10930.05
2747.60079	10907.55
2750.18486	10938.55
2752.76733	10907.75
2755.3482	10930.25
2757.92747	10880.85
2760.50515	10899.45
2763.08123	10901.35
2765.65573	10880.85
2768.22863	10884.05
2770.79994	10875.95
2773.36967	10865.15
2775.9378	10859.15
2778.50435	10834.95
2781.06932	10821.55
2783.6327	10796.05
2786.1945	10816.05
2788.75471	10781.65
2791.31335	10759.75
2793.87041	10729.75
2796.42589	10735.45
2798.97979	10716.05
2801.53212	10694.65
2804.08288	10685.35
2806.63206	10632.45
2809.17967	10594.05
2811.72571	10593.55
2814.27018	10574.15
2816.81308	10575.25
2819.35442	10576.85
2821.89419	10554.05
2824.43239	10524.75
2826.96904	10518.55
2829.50412	10519.25
2832.03763	10519.75
2834.56959	10497.85
2837.1	10488.05
2839.62884	10500.45
2842.15613	10482.55
2844.68186	10499.05
2847.20604	10509.15
2849.72867	10525.75
2852.24974	10492.95
2854.76927	10484.25
2857.28724	10458.55
2859.80367	10464.55
2862.31855	10443.15
2864.83189	10443.35
2867.34368	10416.15
2869.85393	10410.15
2872.36264	10380.75
2874.8698	10405.45
2877.37543	10392.95
2879.87952	10408.15
2882.38207	10405.55
2884.88308	10391.15
2887.38256	10401.35
2889.88051	10403.85
2892.37692	10375.75
2894.8718	10378.35
2897.36515	10407.25
2899.85698	10389.15
2902.34727	10433.65
2904.83604	10421.05
2907.32328	10448.45
2909.809	10427.25
2912.29319	10413.05
2914.77587	10439.05
2917.25702	10412.55
2919.73665	10408.55
2922.21476	10421.95
2924.69136	10410.55
2927.16644	10427.75
2929.64	10386.95
2932.11205	10386.25
2934.58258	10368.65
2937.05161	10393.95
2939.51912	10378.05
2941.98513	10371.15
2944.44962	10341.05
2946.91261	10293.95
2949.37409	10308.75
2951.83407	10306.95
2954.29254	10287.35
2956.74951	10258.15
2959.20498	10273.55
2961.65895	10228.75
2964.11142	10253.95
2966.56239	10230.15
2969.01186	10213.05
2971.45984	10196.45
2973.90632	10194.85
2976.35131	10144.15
2978.7948	10163.15
2981.23681	10134.15
2983.67732	10101.25
2986.11635	10099.75
2988.55388	10039.95
2990.98993	10056.25
2993.4245	10040.05
2995.85758	10000.25
2998.28917	9961.35
3000.71928	9964.05
3003.14791	9951.55
3005.57506	9921.15
3008.00073	9931.85
3010.42493	9937.75
3012.84764	9892.75
3015.26888	9881.95
3017.68865	9841.35
3020.10694	9841.65
3022.52376	9814.45
3024.9391	9799.45
3027.35298	9810.65
3029.76539	9799.75
3032.17632	9799.05
3034.5858	9776.25
3036.9938	9770.45
3039.40034	9767.45
3041.80542	9731.25
3044.20903	9726.45
3046.61118	9720.45
3049.01187	9701.35
3051.4111	9720.75
3053.80888	9682.05
3056.20519	9677.85
3058.60005	9660.75
3060.99345	9632.75
3063.3854	9631.55
3065.7759	9608.85
3068.16494	9573.75
3070.55254	9564.95
3072.93868	9551.75
3075.32338	9522.15
3077.70662	9499.35
3080.08842	9467.55
3082.46878	9483.25
3084.84769	9478.25
3087.22515	9473.85
3089.60118	9477.95
3091.97576	9488.75
3094.3489	9493.75
3096.72061	9477.85
3099.09087	9478.45
3101.4597	9462.15
3103.82709	9463.65
3106.19305	9426.25
3108.55757	9433.65
3110.92066	9420.15
3113.28232	9410.65
3115.64255	9397.75
3118.00134	9350.95
3120.35871	9342.65
3122.71466	9327.45
3125.06917	9317.25
3127.42226	9300.35
3129.77393	9290.65
3132.12417	9303.85
3134.47299	9311.75
3136.82039	9291.95
3139.16636	9348.95
3141.51092	9326.95
3143.85406	9349.25
3146.19579	9338.45
3148.53609	9350.95
3150.87499	9366.75
3153.21246	9340.25
3155.54853	9360.15
3157.88318	9328.25
3160.21642	9333.65
3162.54826	9337.35
3164.87868	9366.25
3167.2077	9333.55
3169.5353	9337.35
3171.86151	9340.35
3174.18631	9350.15
3176.5097	9340.45
3178.83169	9306.85
3181.15228	9306.75
3183.47147	9302.45
3185.78926	9333.55
3188.10565	9284.25
3190.42065	9299.75
3192.73424	9275.05
3195.04645	9289.45
3197.35725	9275.25
3199.66667	9292.55
3201.97469	9309.45
3204.28132	9275.55
3206.58656	9305.95
3208.8904	9307.55
3211.19287	9319.35
3213.49394	9283.85
3215.79363	9288.85
3218.09193	9318.35
3220.38884	9284.25
3222.68438	9290.75
3224.97853	9283.85
3227.2713	9284.85
3229.56269	9269.45
3231.8527	9256.75
3234.14133	9232.05
3236.42858	9237.75
3238.71446	9224.05
3240.99896	9205.35
3243.28209	9199.75
3245.56384	9195.05
3247.84423	9203.45
3250.12324	9176.65
3252.40088	9196.95
3254.67715	9189.25
3256.95205	9155.05
3259.22558	9179.75
3261.49775	9154.25
3263.76855	9149.95
3266.03799	9111.35
3268.30606	9088.05
3270.57277	9086.55
3272.83812	9068.05
3275.10211	9036.15
3277.36474	9045.15
3279.62601	9060.05
3281.88593	9046.75
3284.14448	9062.25
3286.40168	9059.65
3288.65753	9028.35
3290.91202	9009.35
3293.16516	9009.55
3295.41695	8982.45
3297.66738	8911.75
3299.91647	8866.35
3302.16421	8820.75
3304.4106	8789.25
3306.65564	8737.45
3308.89933	8676.65
3311.14169	8649.95
3313.38269	8564.45
3315.62236	8530.25
3317.86068	8434.45
3320.09766	8365.85
3322.3333	8291.95
3324.5676	8302.35
3326.80056	8173.25
3329.03219	8115.85
3331.26248	3.55
3333.49143	-0.35
3335.71905	-0.25
