Data from AgNP_FTO_APTES_CRN_50uM_R6G_10uM_NaF_0.1M_Addition_RamanShift__1__17-47-08-055.txt Node

Date: Wed Dec 15 17:47:08 GMT 2021
User: TCL
Spectrometer: QEP01345
Trigger mode: 4
Integration Time (sec): 7.000000E0
Scans to average: 10
Electric dark correction enabled: true
Nonlinearity correction enabled: false
Boxcar width: 0
XAxis mode: Raman Shifts
Number of Pixels in Spectrum: 1044
>>>>>Begin Spectral Data<<<<<
46.04893	1.35
50.45542	-2.05
54.85868	-0.75
59.25871	0.65
63.6555	64.35
68.04907	70.95
72.43941	74.55
76.82654	80.05
81.21044	78.25
85.59113	86.55
89.96862	88.65
94.34289	86.15
98.71396	90.85
103.08183	98.65
107.4465	97.75
111.80798	104.55
116.16626	106.35
120.52136	105.75
124.87327	108.45
129.222	115.85
133.56755	119.55
137.90993	122.85
142.24913	139.45
146.58517	153.85
150.91804	179.25
155.24774	210.35
159.57429	258.45
163.89768	329.95
168.21792	423.75
172.53501	577.95
176.84895	808.95
181.15975	1130.15
185.46741	1581.05
189.77193	2187.65
194.07331	2929.75
198.37157	3769.55
202.6667	4674.95
206.9587	5562.85
211.24758	6452.55
215.53334	7305.45
219.81599	8253.95
224.09553	9278.95
228.37195	10359.25
232.64527	11611.25
236.91549	12916.05
241.18261	14234.55
245.44663	15476.45
249.70755	16581.35
253.96539	17544.85
258.22014	18317.25
262.4718	18977.75
266.72039	19437.75
270.96589	19658.95
275.20832	19697.55
279.44768	19508.65
283.68397	19260.05
287.91719	19041.75
292.14735	18950.25
296.37445	18894.05
300.59849	19014.65
304.81948	19104.25
309.03742	19195.05
313.25231	19145.45
317.46415	18873.85
321.67296	18441.55
325.87872	18076.65
330.08145	17881.65
334.28114	17899.05
338.47781	17999.15
342.67145	18249.25
346.86207	18582.65
351.04966	18967.55
355.23424	19335.45
359.4158	19648.45
363.59435	19856.25
367.76989	19993.25
371.94243	20039.65
376.11196	20105.65
380.27849	20188.35
384.44203	20303.05
388.60257	20431.95
392.76012	20611.85
396.91468	20841.45
401.06626	21200.35
405.21485	21421.05
409.36047	21374.25
413.50311	21109.45
417.64277	20785.25
421.77947	20680.35
425.9132	20698.45
430.04396	20772.15
434.17176	20852.55
438.2966	20960.55
442.41849	21235.65
446.53742	21739.55
450.6534	22227.45
454.76644	22566.75
458.87653	22629.55
462.98368	22501.05
467.08789	22334.55
471.18916	22058.35
475.2875	21807.05
479.38291	21662.35
483.4754	21478.15
487.56496	21298.15
491.6516	21108.15
495.73531	20967.85
499.81612	20931.35
503.89401	21021.15
507.96899	21120.75
512.04106	21151.45
516.11023	21156.35
520.1765	21109.75
524.23987	21100.25
528.30034	21037.05
532.35792	20930.55
536.41261	20645.95
540.46441	20425.85
544.51333	20359.65
548.55936	20489.85
552.60252	20833.65
556.64279	21227.55
560.6802	21510.85
564.71473	21594.45
568.7464	21801.15
572.7752	22091.25
576.80114	22408.25
580.82422	22763.95
584.84444	23409.35
588.86181	24174.75
592.87633	24781.65
596.888	24819.85
600.89682	24233.65
604.9028	24292.15
608.90594	25939.55
612.90624	28103.35
616.90371	26921.05
620.89834	23027.15
624.89015	21271.25
628.87913	20967.55
632.86528	21062.65
636.84862	21096.15
640.82913	20898.25
644.80683	20490.15
648.78172	20236.75
652.75379	20212.25
656.72306	20447.55
660.68952	20745.05
664.65319	20656.35
668.61405	20372.25
672.57211	20312.25
676.52738	20368.85
680.47986	20363.05
684.42955	20245.35
688.37646	20218.25
692.32058	20311.65
696.26192	20504.65
700.20048	20804.15
704.13626	20942.35
708.06928	20934.45
711.99952	20889.45
715.927	20867.35
719.85171	20919.85
723.77365	20831.05
727.69284	20624.55
731.60928	20442.45
735.52295	20366.45
739.43388	20348.25
743.34206	20398.15
747.24749	20494.45
751.15017	20601.65
755.05012	20866.95
758.94733	21339.35
762.8418	22219.45
766.73354	23628.65
770.62254	25061.85
774.50882	25510.75
778.39237	24690.55
782.27321	23256.35
786.15132	21907.25
790.02671	21077.05
793.89938	20668.25
797.76935	20465.55
801.6366	20392.55
805.50115	20337.85
809.36299	20280.25
813.22213	20209.35
817.07857	20171.35
820.93231	20115.65
824.78336	20098.65
828.63172	20085.95
832.47738	20129.05
836.32036	20190.55
840.16066	20244.55
843.99827	20204.65
847.8332	20206.25
851.66546	20135.45
855.49504	20114.75
859.32195	20138.25
863.1462	20086.25
866.96777	20065.55
870.78668	20023.15
874.60293	20060.35
878.41652	20090.05
882.22745	20127.25
886.03573	20218.75
889.84136	20208.25
893.64433	20140.65
897.44466	20104.65
901.24235	20039.25
905.0374	19978.55
908.8298	19947.65
912.61957	19987.15
916.40671	20095.45
920.19121	20209.35
923.97308	20374.55
927.75233	20488.05
931.52895	20469.35
935.30295	20270.65
939.07433	20031.35
942.84309	19747.45
946.60924	19686.55
950.37278	19619.95
954.13371	19574.95
957.89203	19514.85
961.64774	19514.25
965.40086	19521.25
969.15137	19498.65
972.89929	19459.55
976.64461	19452.15
980.38733	19446.15
984.12747	19545.55
987.86502	19639.35
991.59999	19753.25
995.33237	19945.45
999.06217	20239.75
1002.78939	20517.35
1006.51404	20833.65
1010.23611	21077.05
1013.95561	21246.55
1017.67255	21244.65
1021.38692	21127.45
1025.09872	20873.75
1028.80796	20764.35
1032.51465	20893.85
1036.21877	21161.75
1039.92035	21283.95
1043.61937	21286.25
1047.31584	21149.95
1051.00976	21082.35
1054.70114	21079.95
1058.38998	21166.35
1062.07627	21398.95
1065.76003	21748.15
1069.44126	22151.45
1073.11995	22640.05
1076.79611	22942.25
1080.46974	22855.25
1084.14085	22763.45
1087.80943	22661.95
1091.47549	22604.15
1095.13903	22527.25
1098.80005	22235.85
1102.45857	21812.05
1106.11456	21492.75
1109.76805	21340.65
1113.41903	21358.55
1117.06751	21445.95
1120.71348	21664.15
1124.35696	21880.85
1127.99793	22164.75
1131.63641	22280.05
1135.2724	22100.25
1138.90589	21873.85
1142.5369	21806.25
1146.16542	21811.35
1149.79145	21821.45
1153.415	21930.75
1157.03607	21995.45
1160.65467	22354.75
1164.27079	22989.25
1167.88443	23875.05
1171.49561	24988.75
1175.10432	26454.65
1178.71056	28356.25
1182.31434	30032.05
1185.91565	30736.95
1189.51451	30368.65
1193.11091	29455.05
1196.70485	28409.35
1200.29634	27398.65
1203.88538	26716.35
1207.47197	26175.85
1211.05612	25756.65
1214.63782	25353.25
1218.21708	24912.85
1221.79391	24591.65
1225.36829	24290.55
1228.94024	24214.25
1232.50976	24040.45
1236.07685	23815.75
1239.6415	23649.55
1243.20374	23639.95
1246.76355	23813.35
1250.32093	24069.25
1253.8759	24469.75
1257.42845	24995.95
1260.97859	25516.85
1264.52631	26085.05
1268.07163	26643.65
1271.61453	27227.85
1275.15503	27736.65
1278.69312	28270.65
1282.22882	28759.95
1285.76211	29426.15
1289.29301	30260.15
1292.82151	31198.95
1296.34761	32357.05
1299.87133	33769.85
1303.39266	35354.95
1306.9116	37118.95
1310.42815	38789.25
1313.94233	39728.05
1317.45412	39479.05
1320.96354	38487.45
1324.47058	37376.15
1327.97525	36472.95
1331.47754	35754.25
1334.97747	35370.75
1338.47502	35133.65
1341.97022	34919.55
1345.46305	34817.25
1348.95352	34996.75
1352.44163	35681.75
1355.92738	36975.25
1359.41078	38928.45
1362.89183	40733.45
1366.37053	40161.35
1369.84688	37081.95
1373.32088	33303.25
1376.79254	30714.05
1380.26186	29586.45
1383.72883	29266.65
1387.19347	28968.95
1390.65578	28514.25
1394.11575	28189.65
1397.57339	28167.25
1401.0287	28317.15
1404.48168	28415.05
1407.93234	28340.55
1411.38068	28001.95
1414.82669	27544.95
1418.27039	26877.85
1421.71177	26221.95
1425.15083	25647.15
1428.58758	25372.95
1432.02203	25529.45
1435.45416	25919.25
1438.88399	26384.25
1442.31151	26628.55
1445.73673	26801.15
1449.15965	26872.95
1452.58027	26940.75
1455.9986	26909.65
1459.41463	27015.65
1462.82837	27312.35
1466.23982	27789.45
1469.64898	28244.95
1473.05586	28659.85
1476.46045	28860.45
1479.86276	28918.05
1483.26279	28904.65
1486.66054	29058.85
1490.05602	29368.35
1493.44922	29895.55
1496.84016	30548.55
1500.22882	31478.15
1503.61521	32781.35
1506.99934	34296.45
1510.38121	35410.05
1513.76081	35526.95
1517.13816	34506.85
1520.51324	32809.55
1523.88607	31220.85
1527.25665	30266.65
1530.62498	29840.35
1533.99105	29527.75
1537.35488	29196.45
1540.71647	28682.45
1544.07581	28146.05
1547.4329	27634.35
1550.78776	27217.25
1554.14038	26926.85
1557.49077	26845.25
1560.83892	26861.45
1564.18484	27107.25
1567.52853	27500.15
1570.86999	28016.95
1574.20922	28641.15
1577.54624	29229.25
1580.88103	29373.35
1584.2136	29213.75
1587.54395	29130.55
1590.87208	29460.55
1594.19801	30375.35
1597.52172	31575.75
1600.84321	32034.25
1604.16251	31087.35
1607.47959	29362.75
1610.79447	27367.55
1614.10715	25543.75
1617.41763	24084.95
1620.7259	23211.75
1624.03199	22771.55
1627.33587	22765.15
1630.63757	23144.25
1633.93707	24075.85
1637.23439	25620.75
1640.52951	28122.25
1643.82246	31178.35
1647.11321	33905.35
1650.40179	34930.55
1653.68819	33283.65
1656.97241	29876.05
1660.25446	26328.55
1663.53433	23737.55
1666.81203	22027.65
1670.08756	20990.65
1673.36092	20328.05
1676.63211	19854.25
1679.90115	19538.95
1683.16801	19308.95
1686.43272	19167.85
1689.69527	19024.85
1692.95567	18990.05
1696.2139	18954.75
1699.46999	18897.75
1702.72392	18885.15
1705.97571	18858.55
1709.22535	18823.25
1712.47284	18773.45
1715.71819	18751.05
1718.96139	18718.75
1722.20246	18698.25
1725.44139	18642.15
1728.67818	18583.35
1731.91284	18489.45
1735.14537	18423.35
1738.37576	18352.75
1741.60403	18276.55
1744.83017	18277.95
1748.05418	18230.95
1751.27607	18185.85
1754.49584	18199.85
1757.71349	18180.25
1760.92903	18212.05
1764.14244	18197.35
1767.35375	18181.05
1770.56294	18154.05
1773.77002	18122.25
1776.97499	18135.85
1780.17785	18046.65
1783.37861	18020.95
1786.57727	17977.55
1789.77382	17962.95
1792.96828	17913.15
1796.16064	17942.45
1799.3509	17894.85
1802.53907	17860.95
1805.72514	17799.05
1808.90913	17805.75
1812.09102	17751.75
1815.27083	17701.35
1818.44856	17726.25
1821.6242	17687.65
1824.79776	17660.75
1827.96924	17635.75
1831.13864	17640.15
1834.30597	17682.65
1837.47122	17643.85
1840.6344	17615.45
1843.7955	17631.95
1846.95454	17599.25
1850.11151	17600.65
1853.26642	17589.65
1856.41926	17589.45
1859.57004	17576.15
1862.71876	17552.15
1865.86542	17531.05
1869.01003	17494.85
1872.15258	17518.75
1875.29308	17490.35
1878.43152	17453.75
1881.56792	17481.15
1884.70227	17450.65
1887.83457	17421.85
1890.96482	17400.25
1894.09304	17369.85
1897.21921	17401.25
1900.34335	17389.85
1903.46544	17324.15
1906.58551	17369.45
1909.70353	17287.05
1912.81953	17328.05
1915.93349	17275.25
1919.04543	17268.55
1922.15534	17218.05
1925.26322	17197.35
1928.36908	17192.05
1931.47292	17174.15
1934.57473	17101.65
1937.67453	17046.05
1940.77232	17021.65
1943.86808	16988.85
1946.96184	16985.35
1950.05358	16961.55
1953.14331	16904.75
1956.23103	16858.05
1959.31675	16821.45
1962.40046	16774.85
1965.48217	16739.75
1968.56188	16648.45
1971.63959	16630.25
1974.7153	16581.35
1977.78901	16538.45
1980.86073	16483.95
1983.93046	16457.15
1986.99819	16414.75
1990.06394	16360.85
1993.1277	16340.45
1996.18947	16248.45
1999.24925	16233.05
2002.30706	16176.35
2005.36288	16141.85
2008.41672	16115.15
2011.46859	16051.85
2014.51848	16030.95
2017.56639	16000.25
2020.61233	15941.75
2023.6563	15911.75
2026.6983	15894.35
2029.73833	15874.65
2032.7764	15840.45
2035.8125	15801.85
2038.84664	15770.55
2041.87881	15753.85
2044.90903	15747.85
2047.93729	15679.05
2050.96359	15699.05
2053.98794	15681.75
2057.01034	15680.55
2060.03078	15647.55
2063.04927	15654.25
2066.06582	15628.15
2069.08042	15635.55
2072.09307	15602.25
2075.10378	15577.05
2078.11255	15595.15
2081.11938	15627.45
2084.12426	15617.05
2087.12722	15591.95
2090.12824	15592.95
2093.12732	15646.85
2096.12447	15620.25
2099.11969	15595.85
2102.11299	15595.65
2105.10435	15612.55
2108.09379	15662.85
2111.08131	15667.75
2114.0669	15671.65
2117.05057	15671.15
2120.03233	15690.35
2123.01216	15705.65
2125.99008	15686.05
2128.96609	15737.05
2131.94018	15751.45
2134.91236	15754.35
2137.88263	15736.65
2140.851	15782.75
2143.81746	15806.45
2146.78201	15829.15
2149.74466	15850.45
2152.7054	15848.45
2155.66425	15854.15
2158.6212	15859.85
2161.57625	15841.95
2164.52941	15842.05
2167.48067	15841.45
2170.43004	15800.35
2173.37752	15834.45
2176.32311	15808.65
2179.26681	15820.75
2182.20863	15826.45
2185.14856	15810.25
2188.08661	15815.15
2191.02278	15848.35
2193.95707	15805.25
2196.88948	15796.35
2199.82001	15792.15
2202.74867	15746.55
2205.67545	15773.45
2208.60037	15750.25
2211.52341	15769.35
2214.44458	15734.05
2217.36388	15700.05
2220.28132	15678.15
2223.1969	15669.45
2226.11061	15642.95
2229.02246	15641.55
2231.93245	15592.15
2234.84058	15571.55
2237.74686	15548.35
2240.65128	15534.55
2243.55385	15514.25
2246.45456	15495.25
2249.35343	15465.55
2252.25044	15449.35
2255.14561	15412.95
2258.03893	15418.95
2260.93041	15391.15
2263.82004	15352.65
2266.70783	15351.15
2269.59378	15309.45
2272.4779	15277.75
2275.36017	15227.85
2278.24061	15217.85
2281.11922	15164.95
2283.996	15162.05
2286.87094	15131.75
2289.74405	15121.65
2292.61534	15096.55
2295.4848	15123.05
2298.35243	15136.35
2301.21824	15103.85
2304.08223	15094.25
2306.94439	15077.55
2309.80474	15068.55
2312.66327	15076.65
2315.51999	15075.55
2318.37489	15041.95
2321.22797	15037.85
2324.07925	15007.85
2326.92871	15008.65
2329.77637	15043.75
2332.62222	14993.95
2335.46626	14947.95
2338.3085	14953.05
2341.14893	14946.85
2343.98756	14932.25
2346.8244	14939.95
2349.65943	14912.05
2352.49267	14908.65
2355.32411	14897.85
2358.15376	14869.35
2360.98161	14901.25
2363.80768	14896.85
2366.63195	14860.65
2369.45444	14841.05
2372.27514	14833.35
2375.09405	14852.65
2377.91118	14804.85
2380.72652	14774.25
2383.54009	14769.85
2386.35187	14730.25
2389.16188	14720.05
2391.97011	14677.25
2394.77657	14662.05
2397.58125	14613.85
2400.38416	14624.75
2403.18529	14599.75
2405.98466	14565.85
2408.78226	14577.55
2411.57809	14544.95
2414.37216	14507.45
2417.16446	14517.15
2419.955	14494.45
2422.74378	14478.15
2425.5308	14452.85
2428.31606	14455.55
2431.09956	14432.35
2433.88131	14412.45
2436.6613	14446.55
2439.43954	14427.35
2442.21603	14394.15
2444.99077	14358.75
2447.76377	14388.85
2450.53501	14405.75
2453.30451	14356.65
2456.07226	14350.85
2458.83827	14378.75
2461.60254	14347.35
2464.36507	14329.45
2467.12586	14304.95
2469.88492	14326.75
2472.64224	14305.75
2475.39782	14317.35
2478.15167	14317.45
2480.90379	14313.15
2483.65417	14325.55
2486.40283	14349.05
2489.14976	14327.95
2491.89497	14337.85
2494.63845	14356.55
2497.3802	14337.15
2500.12024	14301.25
2502.85855	14289.65
2505.59514	14287.65
2508.33002	14262.45
2511.06318	14274.45
2513.79462	14236.25
2516.52435	14216.95
2519.25237	14211.45
2521.97867	14184.85
2524.70327	14196.85
2527.42616	14167.65
2530.14734	14158.35
2532.86681	14122.75
2535.58458	14133.05
2538.30065	14103.65
2541.01501	14112.05
2543.72768	14065.65
2546.43864	14097.95
2549.14791	14051.35
2551.85548	14051.15
2554.56136	14023.65
2557.26554	14006.75
2559.96803	13995.95
2562.66883	13966.65
2565.36794	13990.75
2568.06536	13975.75
2570.7611	13970.85
2573.45514	13936.15
2576.14751	13912.85
2578.83819	13901.15
2581.52719	13886.75
2584.21451	13859.05
2586.90015	13847.35
2589.58411	13849.75
2592.2664	13795.65
2594.94701	13776.85
2597.62594	13750.75
2600.30321	13748.65
2602.9788	13737.55
2605.65273	13709.35
2608.32498	13703.75
2610.99557	13683.35
2613.66449	13683.25
2616.33175	13669.15
2618.99734	13691.85
2621.66128	13663.45
2624.32355	13653.05
2626.98416	13600.55
2629.64311	13638.25
2632.30041	13611.05
2634.95605	13635.25
2637.61004	13600.55
2640.26238	13568.25
2642.91306	13546.25
2645.56209	13579.55
2648.20948	13550.25
2650.85521	13507.05
2653.4993	13538.55
2656.14175	13540.35
2658.78255	13532.05
2661.42171	13523.35
2664.05923	13543.85
2666.6951	13545.55
2669.32934	13545.05
2671.96194	13515.35
2674.59291	13517.35
2677.22224	13544.25
2679.84993	13544.45
2682.476	13560.95
2685.10043	13564.35
2687.72324	13537.15
2690.34441	13554.35
2692.96396	13555.85
2695.58188	13533.15
2698.19818	13511.05
2700.81285	13551.85
2703.4259	13530.95
2706.03733	13619.15
2708.64714	13594.15
2711.25533	13610.75
2713.86191	13591.85
2716.46687	13586.05
2719.07021	13615.25
2721.67194	13577.65
2724.27206	13579.15
2726.87057	13589.45
2729.46747	13557.45
2732.06276	13595.05
2734.65644	13572.75
2737.24852	13572.55
2739.83899	13550.45
2742.42786	13549.55
2745.01513	13538.65
2747.60079	13527.05
2750.18486	13512.85
2752.76733	13515.95
2755.3482	13529.55
2757.92747	13499.55
2760.50515	13505.85
2763.08123	13490.35
2765.65573	13444.05
2768.22863	13448.65
2770.79994	13422.35
2773.36967	13433.35
2775.9378	13423.25
2778.50435	13401.35
2781.06932	13365.85
2783.6327	13375.15
2786.1945	13366.75
2788.75471	13323.15
2791.31335	13322.75
2793.87041	13313.45
2796.42589	13267.95
2798.97979	13262.25
2801.53212	13255.35
2804.08288	13228.85
2806.63206	13176.85
2809.17967	13184.05
2811.72571	13108.95
2814.27018	13126.95
2816.81308	13125.75
2819.35442	13114.25
2821.89419	13081.15
2824.43239	13059.15
2826.96904	13063.35
2829.50412	13068.75
2832.03763	13037.85
2834.56959	13022.75
2837.1	12996.65
2839.62884	12993.25
2842.15613	13011.35
2844.68186	12995.05
2847.20604	13009.25
2849.72867	13006.35
2852.24974	12985.65
2854.76927	12975.55
2857.28724	12965.25
2859.80367	12960.85
2862.31855	12956.85
2864.83189	12946.45
2867.34368	12938.45
2869.85393	12933.45
2872.36264	12905.75
2874.8698	12905.55
2877.37543	12929.45
2879.87952	12917.35
2882.38207	12942.85
2884.88308	12913.45
2887.38256	12928.95
2889.88051	12927.95
2892.37692	12917.95
2894.8718	12892.25
2897.36515	12889.05
2899.85698	12893.25
2902.34727	12910.95
2904.83604	12922.45
2907.32328	12928.95
2909.809	12940.05
2912.29319	12931.75
2914.77587	12927.65
2917.25702	12928.15
2919.73665	12888.35
2922.21476	12917.95
2924.69136	12950.95
2927.16644	12949.45
2929.64	12901.35
2932.11205	12877.85
2934.58258	12855.35
2937.05161	12883.05
2939.51912	12910.05
2941.98513	12891.85
2944.44962	12826.15
2946.91261	12783.35
2949.37409	12851.15
2951.83407	12823.25
2954.29254	12835.15
2956.74951	12789.35
2959.20498	12808.45
2961.65895	12815.15
2964.11142	12817.35
2966.56239	12779.95
2969.01186	12784.65
2971.45984	12723.55
2973.90632	12718.15
2976.35131	12667.45
2978.7948	12664.45
2981.23681	12655.65
2983.67732	12622.55
2986.11635	12595.85
2988.55388	12591.85
2990.98993	12594.95
2993.4245	12533.95
2995.85758	12514.85
2998.28917	12482.35
3000.71928	12491.15
3003.14791	12469.95
3005.57506	12481.45
3008.00073	12433.25
3010.42493	12445.95
3012.84764	12410.65
3015.26888	12400.35
3017.68865	12382.05
3020.10694	12363.25
3022.52376	12335.45
3024.9391	12316.25
3027.35298	12332.35
3029.76539	12327.35
3032.17632	12300.95
3034.5858	12275.05
3036.9938	12275.35
3039.40034	12261.85
3041.80542	12258.25
3044.20903	12225.75
3046.61118	12215.95
3049.01187	12186.45
3051.4111	12185.85
3053.80888	12174.25
3056.20519	12186.05
3058.60005	12139.75
3060.99345	12102.35
3063.3854	12087.75
3065.7759	12050.05
3068.16494	12034.15
3070.55254	12009.25
3072.93868	12016.15
3075.32338	11960.75
3077.70662	11939.35
3080.08842	11893.35
3082.46878	11911.85
3084.84769	11896.75
3087.22515	11871.95
3089.60118	11904.95
3091.97576	11911.05
3094.3489	11911.15
3096.72061	11870.65
3099.09087	11878.05
3101.4597	11882.55
3103.82709	11845.05
3106.19305	11845.35
3108.55757	11848.65
3110.92066	11785.95
3113.28232	11803.75
3115.64255	11754.85
3118.00134	11748.85
3120.35871	11743.45
3122.71466	11707.55
3125.06917	11705.75
3127.42226	11685.35
3129.77393	11715.05
3132.12417	11699.45
3134.47299	11684.55
3136.82039	11693.45
3139.16636	11695.25
3141.51092	11697.85
3143.85406	11730.85
3146.19579	11728.15
3148.53609	11715.25
3150.87499	11737.35
3153.21246	11724.15
3155.54853	11723.75
3157.88318	11717.45
3160.21642	11735.15
3162.54826	11698.15
3164.87868	11723.05
3167.2077	11728.65
3169.5353	11709.85
3171.86151	11694.95
3174.18631	11692.75
3176.5097	11688.55
3178.83169	11674.85
3181.15228	11688.25
3183.47147	11654.95
3185.78926	11675.05
3188.10565	11640.85
3190.42065	11618.35
3192.73424	11625.05
3195.04645	11628.15
3197.35725	11630.85
3199.66667	11646.05
3201.97469	11668.65
3204.28132	11660.55
3206.58656	11660.35
3208.8904	11666.65
3211.19287	11663.45
3213.49394	11654.85
3215.79363	11623.45
3218.09193	11683.85
3220.38884	11658.05
3222.68438	11656.35
3224.97853	11644.75
3227.2713	11626.35
3229.56269	11617.35
3231.8527	11592.55
3234.14133	11553.35
3236.42858	11530.65
3238.71446	11548.05
3240.99896	11517.75
3243.28209	11492.85
3245.56384	11508.95
3247.84423	11514.05
3250.12324	11510.75
3252.40088	11523.45
3254.67715	11522.85
3256.95205	11455.55
3259.22558	11484.25
3261.49775	11486.35
3263.76855	11459.25
3266.03799	11434.45
3268.30606	11408.05
3270.57277	11394.55
3272.83812	11402.65
3275.10211	11350.25
3277.36474	11351.05
3279.62601	11342.85
3281.88593	11319.35
3284.14448	11345.95
3286.40168	11340.25
3288.65753	11341.25
3290.91202	11304.65
3293.16516	11279.85
3295.41695	11264.45
3297.66738	11199.45
3299.91647	11128.75
3302.16421	11085.45
3304.4106	11033.05
3306.65564	10984.35
3308.89933	10921.35
3311.14169	10866.25
3313.38269	10775.65
3315.62236	10729.95
3317.86068	10628.45
3320.09766	10524.25
3322.3333	10428.85
3324.5676	10463.45
3326.80056	10279.55
3329.03219	10231.85
3331.26248	3.05
3333.49143	-0.15
3335.71905	-1.25
