Data from AgNP_FTO_APTES_CRN_500uM_R6G_10uM_NaF_0.1M_Addition_RamanShift__9__20-14-08-222.txt Node

Date: Wed Dec 15 20:14:08 GMT 2021
User: TCL
Spectrometer: QEP01345
Trigger mode: 4
Integration Time (sec): 7.000000E0
Scans to average: 10
Electric dark correction enabled: true
Nonlinearity correction enabled: false
Boxcar width: 0
XAxis mode: Raman Shifts
Number of Pixels in Spectrum: 1044
>>>>>Begin Spectral Data<<<<<
46.04893	0.35
50.45542	-1.75
54.85868	-1.05
59.25871	-0.35
63.6555	57.15
68.04907	65.05
72.43941	64.45
76.82654	69.15
81.21044	74.35
85.59113	78.05
89.96862	83.15
94.34289	77.05
98.71396	84.45
103.08183	89.05
107.4465	91.55
111.80798	94.25
116.16626	95.25
120.52136	97.25
124.87327	100.05
129.222	102.55
133.56755	108.25
137.90993	118.85
142.24913	125.75
146.58517	139.65
150.91804	158.15
155.24774	185.15
159.57429	229.45
163.89768	288.45
168.21792	371.95
172.53501	513.85
176.84895	706.65
181.15975	989.45
185.46741	1387.25
189.77193	1911.45
194.07331	2548.35
198.37157	3277.55
202.6667	4061.75
206.9587	4826.25
211.24758	5597.35
215.53334	6341.45
219.81599	7104.45
224.09553	7965.25
228.37195	8869.25
232.64527	9898.15
236.91549	10997.45
241.18261	12123.45
245.44663	13201.65
249.70755	14215.65
253.96539	15113.15
258.22014	15843.75
262.4718	16428.85
266.72039	16881.55
270.96589	17068.95
275.20832	17143.55
279.44768	17090.25
283.68397	16932.25
287.91719	16797.95
292.14735	16713.95
296.37445	16685.85
300.59849	16637.65
304.81948	16618.95
309.03742	16548.65
313.25231	16407.95
317.46415	16164.55
321.67296	15892.85
325.87872	15665.95
330.08145	15633.95
334.28114	15631.25
338.47781	15712.65
342.67145	15871.95
346.86207	16059.95
351.04966	16288.65
355.23424	16526.15
359.4158	16708.65
363.59435	16848.45
367.76989	16949.75
371.94243	17031.65
376.11196	17087.75
380.27849	17162.75
384.44203	17255.85
388.60257	17399.65
392.76012	17568.95
396.91468	17773.45
401.06626	17973.05
405.21485	18129.45
409.36047	18158.15
413.50311	18090.15
417.64277	18011.45
421.77947	18054.35
425.9132	18137.35
430.04396	18248.85
434.17176	18351.15
438.2966	18490.85
442.41849	18683.85
446.53742	18979.75
450.6534	19285.45
454.76644	19553.65
458.87653	19679.15
462.98368	19716.25
467.08789	19675.05
471.18916	19574.35
475.2875	19561.25
479.38291	19538.55
483.4754	19455.65
487.56496	19230.45
491.6516	18995.95
495.73531	18769.95
499.81612	18679.85
503.89401	18761.65
507.96899	18885.25
512.04106	18912.05
516.11023	18870.65
520.1765	18795.85
524.23987	18675.05
528.30034	18579.85
532.35792	18421.75
536.41261	18311.95
540.46441	18225.95
544.51333	18267.15
548.55936	18422.05
552.60252	18707.25
556.64279	18986.75
560.6802	19235.85
564.71473	19373.45
568.7464	19587.15
572.7752	20000.75
576.80114	20412.45
580.82422	20827.95
584.84444	21181.05
588.86181	21575.15
592.87633	21878.75
596.888	21743.55
600.89682	21301.35
604.9028	21153.85
608.90594	21643.35
612.90624	22280.55
616.90371	21311.65
620.89834	19370.55
624.89015	18514.75
628.87913	18425.35
632.86528	18545.95
636.84862	18614.35
640.82913	18466.35
644.80683	18266.85
648.78172	18074.15
652.75379	18075.95
656.72306	18163.85
660.68952	18257.15
664.65319	18237.65
668.61405	18104.45
672.57211	18080.85
676.52738	18187.45
680.47986	18201.55
684.42955	18171.65
688.37646	18103.95
692.32058	18127.15
696.26192	18252.85
700.20048	18407.25
704.13626	18537.45
708.06928	18610.65
711.99952	18609.25
715.927	18602.25
719.85171	18532.35
723.77365	18471.85
727.69284	18304.05
731.60928	18148.25
735.52295	18059.85
739.43388	18041.85
743.34206	18090.65
747.24749	18145.55
751.15017	18249.95
755.05012	18454.25
758.94733	18797.05
762.8418	19310.85
766.73354	20136.65
770.62254	20871.75
774.50882	20941.35
778.39237	20327.45
782.27321	19419.75
786.15132	18701.55
790.02671	18253.95
793.89938	18032.35
797.76935	17923.45
801.6366	17898.75
805.50115	17874.45
809.36299	17836.25
813.22213	17762.55
817.07857	17748.05
820.93231	17729.45
824.78336	17689.25
828.63172	17630.25
832.47738	17598.45
836.32036	17601.65
840.16066	17592.45
843.99827	17581.15
847.8332	17550.95
851.66546	17549.95
855.49504	17585.35
859.32195	17575.25
863.1462	17548.95
866.96777	17531.65
870.78668	17523.95
874.60293	17502.25
878.41652	17528.65
882.22745	17558.85
886.03573	17592.05
889.84136	17625.45
893.64433	17609.15
897.44466	17556.75
901.24235	17543.75
905.0374	17482.65
908.8298	17449.55
912.61957	17502.45
916.40671	17610.25
920.19121	17758.15
923.97308	17800.85
927.75233	17794.45
931.52895	17646.65
935.30295	17471.75
939.07433	17256.95
942.84309	17118.35
946.60924	17034.85
950.37278	16992.45
954.13371	16950.75
957.89203	16953.45
961.64774	16971.25
965.40086	16962.95
969.15137	16885.45
972.89929	16788.05
976.64461	16762.65
980.38733	16679.95
984.12747	16712.35
987.86502	16761.25
991.59999	16779.25
995.33237	16837.55
999.06217	16974.35
1002.78939	17166.75
1006.51404	17304.85
1010.23611	17555.55
1013.95561	17665.05
1017.67255	17725.75
1021.38692	17596.05
1025.09872	17465.85
1028.80796	17301.65
1032.51465	17228.85
1036.21877	17269.05
1039.92035	17322.85
1043.61937	17403.25
1047.31584	17477.45
1051.00976	17571.75
1054.70114	17709.75
1058.38998	17907.35
1062.07627	18140.75
1065.76003	18513.85
1069.44126	18875.15
1073.11995	19207.45
1076.79611	19333.75
1080.46974	19217.55
1084.14085	18948.85
1087.80943	18751.15
1091.47549	18695.95
1095.13903	18666.75
1098.80005	18504.65
1102.45857	18230.15
1106.11456	17939.45
1109.76805	17785.55
1113.41903	17767.95
1117.06751	17854.05
1120.71348	17931.95
1124.35696	18093.55
1127.99793	18267.45
1131.63641	18446.25
1135.2724	18363.15
1138.90589	18313.85
1142.5369	18319.85
1146.16542	18354.35
1149.79145	18472.85
1153.415	18633.75
1157.03607	18758.25
1160.65467	19116.45
1164.27079	19653.55
1167.88443	20387.25
1171.49561	21162.05
1175.10432	22136.05
1178.71056	23271.95
1182.31434	24268.65
1185.91565	24795.25
1189.51451	24712.15
1193.11091	24412.15
1196.70485	23829.25
1200.29634	23227.45
1203.88538	22783.85
1207.47197	22545.25
1211.05612	22320.45
1214.63782	22010.55
1218.21708	21541.65
1221.79391	21043.35
1225.36829	20642.85
1228.94024	20468.75
1232.50976	20319.45
1236.07685	20218.65
1239.6415	20152.65
1243.20374	20117.95
1246.76355	20194.75
1250.32093	20415.25
1253.8759	20653.15
1257.42845	21008.45
1260.97859	21384.45
1264.52631	21730.65
1268.07163	22110.05
1271.61453	22500.55
1275.15503	22847.15
1278.69312	23295.55
1282.22882	23817.45
1285.76211	24375.65
1289.29301	25153.25
1292.82151	26042.95
1296.34761	27122.55
1299.87133	28336.15
1303.39266	29433.25
1306.9116	30343.75
1310.42815	31014.45
1313.94233	31348.75
1317.45412	31281.45
1320.96354	31005.55
1324.47058	30796.45
1327.97525	30661.05
1331.47754	30612.65
1334.97747	30529.45
1338.47502	30463.65
1341.97022	30399.95
1345.46305	30254.95
1348.95352	30037.45
1352.44163	29945.65
1355.92738	30033.95
1359.41078	30537.25
1362.89183	30886.15
1366.37053	30434.05
1369.84688	28828.65
1373.32088	26736.15
1376.79254	25231.05
1380.26186	24667.05
1383.72883	24669.75
1387.19347	24719.35
1390.65578	24557.95
1394.11575	24508.55
1397.57339	24563.65
1401.0287	24741.75
1404.48168	24821.85
1407.93234	24600.95
1411.38068	24080.35
1414.82669	23377.35
1418.27039	22560.55
1421.71177	21829.65
1425.15083	21229.25
1428.58758	20908.95
1432.02203	20984.45
1435.45416	21335.15
1438.88399	21768.95
1442.31151	22092.35
1445.73673	22348.15
1449.15965	22539.85
1452.58027	22745.15
1455.9986	22847.05
1459.41463	23035.85
1462.82837	23280.55
1466.23982	23560.35
1469.64898	23778.45
1473.05586	23914.05
1476.46045	23926.15
1479.86276	23805.05
1483.26279	23588.85
1486.66054	23509.45
1490.05602	23588.55
1493.44922	23771.15
1496.84016	24088.15
1500.22882	24469.35
1503.61521	25045.95
1506.99934	25642.55
1510.38121	26070.15
1513.76081	26159.95
1517.13816	25817.65
1520.51324	25428.35
1523.88607	25173.35
1527.25665	25119.05
1530.62498	25114.75
1533.99105	25069.65
1537.35488	24844.55
1540.71647	24399.85
1544.07581	23837.05
1547.4329	23313.65
1550.78776	22885.75
1554.14038	22487.75
1557.49077	22289.45
1560.83892	22224.45
1564.18484	22248.65
1567.52853	22461.45
1570.86999	22854.65
1574.20922	23502.25
1577.54624	24195.25
1580.88103	24598.05
1584.2136	24731.05
1587.54395	24726.25
1590.87208	24970.05
1594.19801	25400.75
1597.52172	26029.45
1600.84321	26067.45
1604.16251	25221.05
1607.47959	23891.85
1610.79447	22501.75
1614.10715	21119.15
1617.41763	20031.65
1620.7259	19202.15
1624.03199	18796.05
1627.33587	18722.25
1630.63757	19054.05
1633.93707	19869.65
1637.23439	21245.45
1640.52951	23204.15
1643.82246	25464.05
1647.11321	27210.25
1650.40179	27555.85
1653.68819	26084.55
1656.97241	23621.55
1660.25446	21074.85
1663.53433	19129.95
1666.81203	17760.05
1670.08756	16919.45
1673.36092	16363.45
1676.63211	16013.35
1679.90115	15684.95
1683.16801	15528.05
1686.43272	15390.85
1689.69527	15226.35
1692.95567	15160.75
1696.2139	15146.95
1699.46999	15099.85
1702.72392	15051.65
1705.97571	15019.75
1709.22535	14969.75
1712.47284	14954.55
1715.71819	14919.45
1718.96139	14902.85
1722.20246	14832.05
1725.44139	14778.85
1728.67818	14715.95
1731.91284	14641.15
1735.14537	14559.05
1738.37576	14536.25
1741.60403	14486.85
1744.83017	14448.45
1748.05418	14424.35
1751.27607	14409.55
1754.49584	14377.85
1757.71349	14405.95
1760.92903	14373.75
1764.14244	14371.85
1767.35375	14347.05
1770.56294	14318.65
1773.77002	14289.75
1776.97499	14265.95
1780.17785	14217.65
1783.37861	14215.65
1786.57727	14152.05
1789.77382	14134.15
1792.96828	14111.95
1796.16064	14064.75
1799.3509	14017.45
1802.53907	14012.05
1805.72514	13963.15
1808.90913	13923.65
1812.09102	13890.85
1815.27083	13885.25
1818.44856	13828.25
1821.6242	13819.35
1824.79776	13818.65
1827.96924	13800.15
1831.13864	13800.95
1834.30597	13799.85
1837.47122	13784.75
1840.6344	13776.25
1843.7955	13776.75
1846.95454	13762.45
1850.11151	13726.75
1853.26642	13697.95
1856.41926	13724.55
1859.57004	13696.55
1862.71876	13648.55
1865.86542	13653.95
1869.01003	13655.45
1872.15258	13612.15
1875.29308	13608.25
1878.43152	13567.45
1881.56792	13564.75
1884.70227	13545.35
1887.83457	13540.45
1890.96482	13501.25
1894.09304	13487.95
1897.21921	13459.75
1900.34335	13440.85
1903.46544	13443.55
1906.58551	13414.25
1909.70353	13381.85
1912.81953	13384.15
1915.93349	13345.55
1919.04543	13279.55
1922.15534	13268.05
1925.26322	13244.95
1928.36908	13220.45
1931.47292	13223.25
1934.57473	13155.35
1937.67453	13094.05
1940.77232	13110.35
1943.86808	13074.95
1946.96184	13056.65
1950.05358	13015.75
1953.14331	12957.65
1956.23103	12913.05
1959.31675	12883.35
1962.40046	12863.15
1965.48217	12814.65
1968.56188	12800.05
1971.63959	12720.65
1974.7153	12703.65
1977.78901	12652.35
1980.86073	12610.45
1983.93046	12598.85
1986.99819	12521.65
1990.06394	12506.05
1993.1277	12486.55
1996.18947	12433.35
1999.24925	12374.85
2002.30706	12361.55
2005.36288	12299.05
2008.41672	12254.75
2011.46859	12213.15
2014.51848	12222.15
2017.56639	12169.95
2020.61233	12137.75
2023.6563	12120.65
2026.6983	12102.65
2029.73833	12055.65
2032.7764	12001.25
2035.8125	11980.05
2038.84664	11967.95
2041.87881	11935.15
2044.90903	11890.25
2047.93729	11871.15
2050.96359	11888.75
2053.98794	11881.75
2057.01034	11854.65
2060.03078	11828.45
2063.04927	11794.15
2066.06582	11835.35
2069.08042	11801.05
2072.09307	11800.45
2075.10378	11784.85
2078.11255	11761.05
2081.11938	11783.35
2084.12426	11769.55
2087.12722	11757.35
2090.12824	11745.25
2093.12732	11742.05
2096.12447	11744.75
2099.11969	11742.75
2102.11299	11753.55
2105.10435	11762.55
2108.09379	11738.05
2111.08131	11776.55
2114.0669	11762.65
2117.05057	11750.95
2120.03233	11774.55
2123.01216	11779.85
2125.99008	11762.55
2128.96609	11767.45
2131.94018	11816.45
2134.91236	11784.55
2137.88263	11777.65
2140.851	11801.45
2143.81746	11808.95
2146.78201	11785.65
2149.74466	11793.75
2152.7054	11812.15
2155.66425	11821.85
2158.6212	11829.75
2161.57625	11777.75
2164.52941	11800.25
2167.48067	11761.95
2170.43004	11755.45
2173.37752	11766.65
2176.32311	11740.95
2179.26681	11753.05
2182.20863	11746.85
2185.14856	11762.55
2188.08661	11729.95
2191.02278	11724.15
2193.95707	11702.55
2196.88948	11689.05
2199.82001	11665.95
2202.74867	11669.05
2205.67545	11660.55
2208.60037	11650.95
2211.52341	11619.85
2214.44458	11590.05
2217.36388	11572.15
2220.28132	11545.85
2223.1969	11514.85
2226.11061	11506.15
2229.02246	11454.65
2231.93245	11458.05
2234.84058	11421.05
2237.74686	11425.75
2240.65128	11404.75
2243.55385	11372.55
2246.45456	11364.95
2249.35343	11328.95
2252.25044	11301.35
2255.14561	11291.55
2258.03893	11292.35
2260.93041	11266.95
2263.82004	11225.85
2266.70783	11213.35
2269.59378	11142.15
2272.4779	11135.45
2275.36017	11097.05
2278.24061	11076.75
2281.11922	11052.85
2283.996	11037.25
2286.87094	11023.85
2289.74405	11006.75
2292.61534	10978.05
2295.4848	10961.55
2298.35243	10974.15
2301.21824	10943.85
2304.08223	10908.25
2306.94439	10910.65
2309.80474	10912.85
2312.66327	10891.55
2315.51999	10882.35
2318.37489	10871.15
2321.22797	10846.05
2324.07925	10865.35
2326.92871	10828.15
2329.77637	10807.75
2332.62222	10796.05
2335.46626	10790.85
2338.3085	10788.35
2341.14893	10756.25
2343.98756	10732.15
2346.8244	10708.85
2349.65943	10706.45
2352.49267	10703.75
2355.32411	10690.45
2358.15376	10683.25
2360.98161	10689.35
2363.80768	10672.85
2366.63195	10658.65
2369.45444	10649.35
2372.27514	10636.25
2375.09405	10628.15
2377.91118	10628.25
2380.72652	10579.35
2383.54009	10562.55
2386.35187	10527.65
2389.16188	10502.65
2391.97011	10461.05
2394.77657	10447.15
2397.58125	10443.05
2400.38416	10418.15
2403.18529	10407.35
2405.98466	10394.95
2408.78226	10395.45
2411.57809	10357.85
2414.37216	10357.45
2417.16446	10343.85
2419.955	10327.15
2422.74378	10303.65
2425.5308	10283.05
2428.31606	10264.95
2431.09956	10230.75
2433.88131	10252.35
2436.6613	10255.35
2439.43954	10239.15
2442.21603	10216.75
2444.99077	10216.65
2447.76377	10205.15
2450.53501	10210.05
2453.30451	10170.05
2456.07226	10174.25
2458.83827	10159.75
2461.60254	10145.85
2464.36507	10139.05
2467.12586	10105.45
2469.88492	10109.05
2472.64224	10097.95
2475.39782	10083.95
2478.15167	10087.25
2480.90379	10088.75
2483.65417	10075.65
2486.40283	10071.15
2489.14976	10086.55
2491.89497	10063.05
2494.63845	10059.85
2497.3802	10061.25
2500.12024	10034.15
2502.85855	10026.65
2505.59514	10023.05
2508.33002	10001.85
2511.06318	9989.35
2513.79462	9967.25
2516.52435	9967.05
2519.25237	9961.75
2521.97867	9947.45
2524.70327	9940.65
2527.42616	9935.35
2530.14734	9883.35
2532.86681	9892.95
2535.58458	9880.55
2538.30065	9861.55
2541.01501	9850.25
2543.72768	9845.05
2546.43864	9820.25
2549.14791	9800.35
2551.85548	9781.05
2554.56136	9770.85
2557.26554	9715.45
2559.96803	9708.35
2562.66883	9723.25
2565.36794	9727.55
2568.06536	9684.45
2570.7611	9669.95
2573.45514	9690.85
2576.14751	9665.15
2578.83819	9646.05
2581.52719	9609.25
2584.21451	9616.35
2586.90015	9597.55
2589.58411	9563.45
2592.2664	9536.85
2594.94701	9525.15
2597.62594	9522.45
2600.30321	9514.25
2602.9788	9478.25
2605.65273	9457.85
2608.32498	9446.75
2610.99557	9437.95
2613.66449	9418.45
2616.33175	9411.05
2618.99734	9413.95
2621.66128	9401.15
2624.32355	9385.25
2626.98416	9396.35
2629.64311	9379.85
2632.30041	9345.85
2634.95605	9352.25
2637.61004	9317.15
2640.26238	9325.85
2642.91306	9326.25
2645.56209	9291.35
2648.20948	9301.85
2650.85521	9287.75
2653.4993	9296.35
2656.14175	9284.55
2658.78255	9281.05
2661.42171	9270.25
2664.05923	9286.75
2666.6951	9283.45
2669.32934	9284.85
2671.96194	9279.45
2674.59291	9285.55
2677.22224	9276.95
2679.84993	9269.85
2682.476	9269.15
2685.10043	9258.65
2687.72324	9256.25
2690.34441	9259.55
2692.96396	9263.05
2695.58188	9243.85
2698.19818	9230.85
2700.81285	9242.15
2703.4259	9246.75
2706.03733	9298.75
2708.64714	9258.05
2711.25533	9304.75
2713.86191	9250.35
2716.46687	9258.45
2719.07021	9242.15
2721.67194	9235.95
2724.27206	9216.85
2726.87057	9246.55
2729.46747	9221.85
2732.06276	9239.75
2734.65644	9207.65
2737.24852	9225.55
2739.83899	9201.45
2742.42786	9202.05
2745.01513	9163.75
2747.60079	9162.75
2750.18486	9160.25
2752.76733	9156.85
2755.3482	9134.95
2757.92747	9156.25
2760.50515	9125.85
2763.08123	9112.45
2765.65573	9099.35
2768.22863	9109.25
2770.79994	9076.55
2773.36967	9076.55
2775.9378	9055.55
2778.50435	9076.35
2781.06932	9020.25
2783.6327	9045.05
2786.1945	9023.65
2788.75471	9002.15
2791.31335	8986.85
2793.87041	8935.25
2796.42589	8923.65
2798.97979	8928.35
2801.53212	8924.05
2804.08288	8876.05
2806.63206	8864.75
2809.17967	8855.65
2811.72571	8812.25
2814.27018	8823.85
2816.81308	8794.05
2819.35442	8783.85
2821.89419	8773.25
2824.43239	8768.55
2826.96904	8743.15
2829.50412	8759.05
2832.03763	8742.55
2834.56959	8754.45
2837.1	8718.95
2839.62884	8722.95
2842.15613	8715.65
2844.68186	8745.45
2847.20604	8751.55
2849.72867	8746.65
2852.24974	8727.95
2854.76927	8734.95
2857.28724	8722.85
2859.80367	8694.75
2862.31855	8678.75
2864.83189	8676.25
2867.34368	8658.85
2869.85393	8650.75
2872.36264	8634.35
2874.8698	8627.45
2877.37543	8635.45
2879.87952	8634.25
2882.38207	8632.35
2884.88308	8631.85
2887.38256	8629.45
2889.88051	8610.45
2892.37692	8591.35
2894.8718	8605.15
2897.36515	8598.55
2899.85698	8613.25
2902.34727	8616.85
2904.83604	8622.55
2907.32328	8621.15
2909.809	8619.55
2912.29319	8598.75
2914.77587	8620.55
2917.25702	8586.55
2919.73665	8610.05
2922.21476	8608.95
2924.69136	8598.95
2927.16644	8588.15
2929.64	8595.05
2932.11205	8566.15
2934.58258	8564.45
2937.05161	8590.05
2939.51912	8584.55
2941.98513	8561.15
2944.44962	8559.35
2946.91261	8486.55
2949.37409	8499.25
2951.83407	8505.25
2954.29254	8466.95
2956.74951	8449.45
2959.20498	8463.95
2961.65895	8414.25
2964.11142	8438.25
2966.56239	8412.15
2969.01186	8403.45
2971.45984	8389.45
2973.90632	8365.95
2976.35131	8335.55
2978.7948	8325.15
2981.23681	8310.25
2983.67732	8280.65
2986.11635	8262.05
2988.55388	8245.95
2990.98993	8231.05
2993.4245	8222.25
2995.85758	8188.05
2998.28917	8172.05
3000.71928	8159.45
3003.14791	8131.35
3005.57506	8141.15
3008.00073	8113.65
3010.42493	8121.15
3012.84764	8090.25
3015.26888	8068.25
3017.68865	8049.65
3020.10694	8068.45
3022.52376	8048.05
3024.9391	8022.95
3027.35298	8003.45
3029.76539	8016.05
3032.17632	8007.85
3034.5858	7990.25
3036.9938	7986.85
3039.40034	7974.45
3041.80542	7956.35
3044.20903	7955.95
3046.61118	7945.85
3049.01187	7910.55
3051.4111	7904.45
3053.80888	7902.25
3056.20519	7871.95
3058.60005	7867.25
3060.99345	7855.05
3063.3854	7835.65
3065.7759	7822.35
3068.16494	7797.35
3070.55254	7768.45
3072.93868	7796.95
3075.32338	7748.55
3077.70662	7729.75
3080.08842	7700.65
3082.46878	7703.45
3084.84769	7704.95
3087.22515	7718.55
3089.60118	7697.45
3091.97576	7719.65
3094.3489	7696.25
3096.72061	7712.85
3099.09087	7697.55
3101.4597	7685.35
3103.82709	7674.35
3106.19305	7673.95
3108.55757	7668.15
3110.92066	7650.05
3113.28232	7623.55
3115.64255	7624.85
3118.00134	7603.95
3120.35871	7602.85
3122.71466	7596.75
3125.06917	7570.15
3127.42226	7563.55
3129.77393	7560.45
3132.12417	7543.55
3134.47299	7549.15
3136.82039	7562.15
3139.16636	7585.45
3141.51092	7570.45
3143.85406	7562.95
3146.19579	7564.55
3148.53609	7580.55
3150.87499	7594.35
3153.21246	7580.75
3155.54853	7607.75
3157.88318	7570.55
3160.21642	7587.15
3162.54826	7576.15
3164.87868	7591.25
3167.2077	7580.35
3169.5353	7578.45
3171.86151	7590.95
3174.18631	7578.05
3176.5097	7576.45
3178.83169	7554.95
3181.15228	7552.95
3183.47147	7554.15
3185.78926	7553.75
3188.10565	7534.45
3190.42065	7546.65
3192.73424	7541.15
3195.04645	7520.55
3197.35725	7540.65
3199.66667	7531.55
3201.97469	7535.15
3204.28132	7531.55
3206.58656	7531.35
3208.8904	7520.15
3211.19287	7528.85
3213.49394	7530.85
3215.79363	7523.55
3218.09193	7510.25
3220.38884	7531.35
3222.68438	7534.85
3224.97853	7520.55
3227.2713	7523.55
3229.56269	7505.25
3231.8527	7483.15
3234.14133	7489.65
3236.42858	7468.05
3238.71446	7456.35
3240.99896	7432.65
3243.28209	7433.25
3245.56384	7435.55
3247.84423	7439.55
3250.12324	7443.25
3252.40088	7446.65
3254.67715	7407.25
3256.95205	7416.85
3259.22558	7388.55
3261.49775	7387.75
3263.76855	7378.45
3266.03799	7353.35
3268.30606	7345.55
3270.57277	7316.45
3272.83812	7319.55
3275.10211	7311.75
3277.36474	7276.15
3279.62601	7288.15
3281.88593	7290.45
3284.14448	7320.45
3286.40168	7303.85
3288.65753	7280.35
3290.91202	7259.35
3293.16516	7215.55
3295.41695	7204.85
3297.66738	7170.65
3299.91647	7142.05
3302.16421	7102.15
3304.4106	7067.65
3306.65564	7030.15
3308.89933	6989.75
3311.14169	6938.85
3313.38269	6902.05
3315.62236	6848.55
3317.86068	6790.65
3320.09766	6705.95
3322.3333	6651.55
3324.5676	6658.05
3326.80056	6561.35
3329.03219	6507.15
3331.26248	3.65
3333.49143	-0.25
3335.71905	-0.05
