Data from AgNP_FTO_APTES_CRN_50uM_R6G_10uM_NaF_0.1M_Addition_RamanShift__30__18-20-58-093.txt Node

Date: Wed Dec 15 18:20:58 GMT 2021
User: TCL
Spectrometer: QEP01345
Trigger mode: 4
Integration Time (sec): 7.000000E0
Scans to average: 10
Electric dark correction enabled: true
Nonlinearity correction enabled: false
Boxcar width: 0
XAxis mode: Raman Shifts
Number of Pixels in Spectrum: 1044
>>>>>Begin Spectral Data<<<<<
46.04893	0.45
50.45542	-0.25
54.85868	-1.05
59.25871	1.15
63.6555	61.15
68.04907	67.15
72.43941	68.65
76.82654	72.45
81.21044	77.35
85.59113	76.35
89.96862	82.55
94.34289	82.05
98.71396	90.05
103.08183	93.45
107.4465	96.25
111.80798	95.55
116.16626	99.45
120.52136	101.35
124.87327	102.55
129.222	107.65
133.56755	111.45
137.90993	119.85
142.24913	128.05
146.58517	143.15
150.91804	165.45
155.24774	195.25
159.57429	239.65
163.89768	304.65
168.21792	393.85
172.53501	536.55
176.84895	750.15
181.15975	1045.35
185.46741	1462.65
189.77193	2009.85
194.07331	2702.25
198.37157	3485.65
202.6667	4303.85
206.9587	5126.75
211.24758	5936.85
215.53334	6739.35
219.81599	7624.55
224.09553	8617.25
228.37195	9686.95
232.64527	10884.05
236.91549	12108.55
241.18261	13304.65
245.44663	14407.85
249.70755	15332.05
253.96539	16137.45
258.22014	16886.55
262.4718	17504.15
266.72039	17960.85
270.96589	18230.45
275.20832	18233.15
279.44768	18120.15
283.68397	17934.75
287.91719	17758.65
292.14735	17740.75
296.37445	17850.75
300.59849	18097.25
304.81948	18407.15
309.03742	18610.75
313.25231	18490.65
317.46415	17889.95
321.67296	17099.35
325.87872	16425.25
330.08145	16094.05
334.28114	16111.65
338.47781	16294.25
342.67145	16576.95
346.86207	17056.45
351.04966	17724.85
355.23424	18347.25
359.4158	18916.75
363.59435	19228.15
367.76989	19384.55
371.94243	19422.15
376.11196	19466.25
380.27849	19472.75
384.44203	19426.45
388.60257	19382.45
392.76012	19380.15
396.91468	19549.55
401.06626	19931.25
405.21485	20212.65
409.36047	20071.35
413.50311	19522.85
417.64277	18976.25
421.77947	18695.35
425.9132	18642.05
430.04396	18689.85
434.17176	18770.15
438.2966	18987.25
442.41849	19322.45
446.53742	19798.25
450.6534	20306.35
454.76644	20691.65
458.87653	20821.15
462.98368	20723.85
467.08789	20515.55
471.18916	20161.95
475.2875	19860.15
479.38291	19559.85
483.4754	19354.65
487.56496	19134.65
491.6516	18928.75
495.73531	18779.25
499.81612	18731.95
503.89401	18861.55
507.96899	19018.15
512.04106	19136.25
516.11023	19346.15
520.1765	19516.15
524.23987	19501.15
528.30034	19368.65
532.35792	19136.65
536.41261	18843.55
540.46441	18598.55
544.51333	18491.95
548.55936	18567.65
552.60252	18841.75
556.64279	19156.35
560.6802	19329.45
564.71473	19461.45
568.7464	19822.85
572.7752	20124.85
576.80114	19929.35
580.82422	19646.95
584.84444	19551.65
588.86181	19647.15
592.87633	19854.65
596.888	20105.45
600.89682	20520.75
604.9028	21799.65
608.90594	25214.15
612.90624	29372.25
616.90371	28301.75
620.89834	22405.25
624.89015	19712.35
628.87913	19217.15
632.86528	19193.15
636.84862	19260.75
640.82913	19057.45
644.80683	18551.85
648.78172	18239.35
652.75379	18275.35
656.72306	18649.85
660.68952	19159.75
664.65319	19102.55
668.61405	18636.45
672.57211	18359.75
676.52738	18364.35
680.47986	18384.25
684.42955	18322.65
688.37646	18327.15
692.32058	18385.85
696.26192	18536.55
700.20048	18672.55
704.13626	18747.75
708.06928	18725.45
711.99952	18601.65
715.927	18576.55
719.85171	18598.45
723.77365	18565.45
727.69284	18414.05
731.60928	18308.85
735.52295	18299.55
739.43388	18336.55
743.34206	18404.65
747.24749	18461.75
751.15017	18571.75
755.05012	18800.25
758.94733	19367.95
762.8418	20521.85
766.73354	22448.35
770.62254	24576.55
774.50882	25483.85
778.39237	24481.65
782.27321	22307.65
786.15132	20262.75
790.02671	19079.85
793.89938	18560.95
797.76935	18371.25
801.6366	18267.15
805.50115	18181.15
809.36299	18101.75
813.22213	18088.75
817.07857	18092.65
820.93231	18108.55
824.78336	18073.55
828.63172	18183.25
832.47738	18229.35
836.32036	18249.85
840.16066	18240.35
843.99827	18187.95
847.8332	18152.85
851.66546	18097.25
855.49504	18045.45
859.32195	18067.35
863.1462	18010.25
866.96777	17953.25
870.78668	17925.05
874.60293	17928.15
878.41652	17977.85
882.22745	18044.35
886.03573	18041.15
889.84136	18032.45
893.64433	17917.45
897.44466	17892.65
901.24235	17891.65
905.0374	17857.55
908.8298	17840.35
912.61957	17849.15
916.40671	17924.65
920.19121	18020.65
923.97308	18139.25
927.75233	18234.55
931.52895	18335.15
935.30295	18201.45
939.07433	17921.95
942.84309	17637.15
946.60924	17482.75
950.37278	17371.45
954.13371	17271.35
957.89203	17219.65
961.64774	17167.35
965.40086	17128.25
969.15137	17053.05
972.89929	17023.55
976.64461	17007.15
980.38733	17029.05
984.12747	17099.05
987.86502	17222.65
991.59999	17329.15
995.33237	17557.85
999.06217	17923.15
1002.78939	18315.85
1006.51404	18612.35
1010.23611	18802.15
1013.95561	18978.65
1017.67255	18934.75
1021.38692	18760.55
1025.09872	18633.15
1028.80796	18739.85
1032.51465	19036.35
1036.21877	19350.55
1039.92035	19428.05
1043.61937	19298.25
1047.31584	18995.85
1051.00976	18697.65
1054.70114	18573.25
1058.38998	18559.45
1062.07627	18633.25
1065.76003	18788.05
1069.44126	19020.65
1073.11995	19305.65
1076.79611	19607.95
1080.46974	19777.95
1084.14085	19861.15
1087.80943	19894.65
1091.47549	19774.05
1095.13903	19477.35
1098.80005	19012.75
1102.45857	18646.75
1106.11456	18488.75
1109.76805	18526.85
1113.41903	18732.35
1117.06751	19034.75
1120.71348	19393.85
1124.35696	19796.05
1127.99793	20165.45
1131.63641	20153.15
1135.2724	19687.25
1138.90589	19223.15
1142.5369	18916.55
1146.16542	18716.95
1149.79145	18628.65
1153.415	18665.45
1157.03607	18737.45
1160.65467	19026.45
1164.27079	19448.35
1167.88443	20180.45
1171.49561	21274.85
1175.10432	23020.55
1178.71056	25242.15
1182.31434	27007.95
1185.91565	27589.25
1189.51451	27103.35
1193.11091	25957.05
1196.70485	24465.15
1200.29634	23330.65
1203.88538	22512.25
1207.47197	21676.85
1211.05612	21010.75
1214.63782	20662.45
1218.21708	20553.85
1221.79391	20568.35
1225.36829	20573.15
1228.94024	20529.45
1232.50976	20422.25
1236.07685	20395.95
1239.6415	20461.55
1243.20374	20565.85
1246.76355	20735.45
1250.32093	21007.85
1253.8759	21359.35
1257.42845	21885.05
1260.97859	22338.35
1264.52631	22729.95
1268.07163	23086.95
1271.61453	23530.15
1275.15503	23959.85
1278.69312	24205.25
1282.22882	24418.15
1285.76211	24765.65
1289.29301	25302.65
1292.82151	25854.45
1296.34761	26496.65
1299.87133	27469.85
1303.39266	28944.35
1306.9116	31083.95
1310.42815	33494.05
1313.94233	35047.55
1317.45412	34908.05
1320.96354	33483.25
1324.47058	31784.05
1327.97525	30271.25
1331.47754	29402.45
1334.97747	29134.95
1338.47502	29382.55
1341.97022	29885.05
1345.46305	30243.45
1348.95352	30755.85
1352.44163	31682.85
1355.92738	33379.45
1359.41078	36413.55
1362.89183	39526.95
1366.37053	39022.85
1369.84688	34703.75
1373.32088	30142.95
1376.79254	27224.75
1380.26186	25744.15
1383.72883	25068.05
1387.19347	24592.15
1390.65578	24072.65
1394.11575	23712.45
1397.57339	23539.55
1401.0287	23737.35
1404.48168	24037.95
1407.93234	24318.35
1411.38068	24519.15
1414.82669	24411.25
1418.27039	23956.75
1421.71177	23428.85
1425.15083	22892.05
1428.58758	22595.15
1432.02203	22597.35
1435.45416	22785.15
1438.88399	22936.75
1442.31151	23050.55
1445.73673	23194.75
1449.15965	23357.95
1452.58027	23380.05
1455.9986	23258.85
1459.41463	23181.95
1462.82837	23355.15
1466.23982	23720.35
1469.64898	24112.75
1473.05586	24445.95
1476.46045	24710.55
1479.86276	24962.05
1483.26279	25288.65
1486.66054	25709.25
1490.05602	26183.55
1493.44922	26744.25
1496.84016	27455.25
1500.22882	28480.25
1503.61521	30049.95
1506.99934	32105.35
1510.38121	34238.45
1513.76081	35469.75
1517.13816	34589.35
1520.51324	32098.15
1523.88607	29283.85
1527.25665	27246.45
1530.62498	26023.95
1533.99105	25334.75
1537.35488	24995.45
1540.71647	24762.05
1544.07581	24613.65
1547.4329	24468.85
1550.78776	24315.35
1554.14038	24222.95
1557.49077	24241.55
1560.83892	24430.45
1564.18484	24744.45
1567.52853	25099.25
1570.86999	25451.05
1574.20922	25819.75
1577.54624	26088.85
1580.88103	25797.05
1584.2136	25149.95
1587.54395	24732.05
1590.87208	24931.35
1594.19801	25866.75
1597.52172	27188.55
1600.84321	27863.95
1604.16251	27150.45
1607.47959	25679.15
1610.79447	23909.75
1614.10715	22335.45
1617.41763	21091.65
1620.7259	20298.85
1624.03199	19932.55
1627.33587	19942.45
1630.63757	20330.95
1633.93707	21074.55
1637.23439	22110.75
1640.52951	23572.85
1643.82246	25391.25
1647.11321	27408.95
1650.40179	28736.25
1653.68819	28036.85
1656.97241	25397.05
1660.25446	22396.85
1663.53433	20184.95
1666.81203	18812.25
1670.08756	18003.15
1673.36092	17439.95
1676.63211	17103.85
1679.90115	16837.05
1683.16801	16683.15
1686.43272	16532.45
1689.69527	16471.95
1692.95567	16408.45
1696.2139	16362.35
1699.46999	16375.75
1702.72392	16320.95
1705.97571	16312.75
1709.22535	16281.45
1712.47284	16262.95
1715.71819	16291.25
1718.96139	16247.45
1722.20246	16219.45
1725.44139	16196.25
1728.67818	16129.85
1731.91284	16068.55
1735.14537	15975.75
1738.37576	15927.25
1741.60403	15878.85
1744.83017	15846.25
1748.05418	15824.95
1751.27607	15788.55
1754.49584	15781.45
1757.71349	15790.15
1760.92903	15762.75
1764.14244	15746.65
1767.35375	15765.75
1770.56294	15735.75
1773.77002	15719.65
1776.97499	15719.85
1780.17785	15621.15
1783.37861	15645.65
1786.57727	15602.15
1789.77382	15587.05
1792.96828	15569.75
1796.16064	15550.75
1799.3509	15524.35
1802.53907	15524.35
1805.72514	15440.45
1808.90913	15438.85
1812.09102	15410.75
1815.27083	15368.95
1818.44856	15332.85
1821.6242	15321.55
1824.79776	15312.95
1827.96924	15310.05
1831.13864	15296.35
1834.30597	15320.45
1837.47122	15318.25
1840.6344	15282.45
1843.7955	15290.85
1846.95454	15246.05
1850.11151	15257.15
1853.26642	15255.95
1856.41926	15228.15
1859.57004	15243.05
1862.71876	15241.45
1865.86542	15222.45
1869.01003	15230.75
1872.15258	15266.15
1875.29308	15250.35
1878.43152	15215.75
1881.56792	15219.65
1884.70227	15195.15
1887.83457	15189.75
1890.96482	15194.75
1894.09304	15184.25
1897.21921	15193.95
1900.34335	15158.65
1903.46544	15150.45
1906.58551	15126.65
1909.70353	15109.05
1912.81953	15120.45
1915.93349	15081.65
1919.04543	15049.25
1922.15534	15059.15
1925.26322	15055.85
1928.36908	15035.45
1931.47292	15001.35
1934.57473	14943.35
1937.67453	14919.25
1940.77232	14867.65
1943.86808	14840.75
1946.96184	14813.45
1950.05358	14787.55
1953.14331	14729.05
1956.23103	14684.45
1959.31675	14652.95
1962.40046	14599.65
1965.48217	14567.35
1968.56188	14557.75
1971.63959	14498.15
1974.7153	14454.25
1977.78901	14397.15
1980.86073	14371.45
1983.93046	14326.85
1986.99819	14302.95
1990.06394	14239.65
1993.1277	14193.85
1996.18947	14181.35
1999.24925	14112.85
2002.30706	14076.65
2005.36288	14059.75
2008.41672	14027.55
2011.46859	13973.05
2014.51848	13938.15
2017.56639	13907.35
2020.61233	13860.45
2023.6563	13850.65
2026.6983	13818.15
2029.73833	13819.25
2032.7764	13778.15
2035.8125	13750.65
2038.84664	13711.55
2041.87881	13687.65
2044.90903	13650.55
2047.93729	13641.95
2050.96359	13655.45
2053.98794	13616.15
2057.01034	13602.15
2060.03078	13598.75
2063.04927	13564.35
2066.06582	13562.85
2069.08042	13550.35
2072.09307	13531.65
2075.10378	13501.95
2078.11255	13540.45
2081.11938	13527.75
2084.12426	13538.55
2087.12722	13518.55
2090.12824	13484.45
2093.12732	13528.35
2096.12447	13505.45
2099.11969	13502.45
2102.11299	13484.45
2105.10435	13508.95
2108.09379	13530.25
2111.08131	13559.25
2114.0669	13550.45
2117.05057	13546.45
2120.03233	13545.65
2123.01216	13549.25
2125.99008	13566.25
2128.96609	13584.25
2131.94018	13612.15
2134.91236	13612.35
2137.88263	13631.25
2140.851	13646.55
2143.81746	13639.95
2146.78201	13657.75
2149.74466	13633.85
2152.7054	13668.65
2155.66425	13645.55
2158.6212	13646.25
2161.57625	13676.75
2164.52941	13641.05
2167.48067	13649.05
2170.43004	13640.75
2173.37752	13605.65
2176.32311	13632.75
2179.26681	13615.95
2182.20863	13632.75
2185.14856	13645.15
2188.08661	13577.95
2191.02278	13645.45
2193.95707	13589.05
2196.88948	13595.55
2199.82001	13585.75
2202.74867	13599.05
2205.67545	13567.95
2208.60037	13574.65
2211.52341	13562.55
2214.44458	13563.35
2217.36388	13519.75
2220.28132	13492.55
2223.1969	13482.25
2226.11061	13482.35
2229.02246	13454.35
2231.93245	13429.15
2234.84058	13381.25
2237.74686	13369.15
2240.65128	13378.25
2243.55385	13335.35
2246.45456	13297.55
2249.35343	13311.55
2252.25044	13288.65
2255.14561	13271.45
2258.03893	13299.85
2260.93041	13279.85
2263.82004	13234.55
2266.70783	13221.05
2269.59378	13179.25
2272.4779	13143.45
2275.36017	13099.25
2278.24061	13067.95
2281.11922	13028.15
2283.996	13024.15
2286.87094	13016.95
2289.74405	12975.25
2292.61534	13012.85
2295.4848	12951.35
2298.35243	12974.55
2301.21824	12980.05
2304.08223	12974.25
2306.94439	12935.95
2309.80474	12953.35
2312.66327	12958.95
2315.51999	12959.25
2318.37489	12956.35
2321.22797	12933.15
2324.07925	12937.75
2326.92871	12915.75
2329.77637	12901.35
2332.62222	12890.75
2335.46626	12894.75
2338.3085	12865.45
2341.14893	12861.75
2343.98756	12871.15
2346.8244	12865.45
2349.65943	12858.95
2352.49267	12879.45
2355.32411	12852.25
2358.15376	12854.85
2360.98161	12846.65
2363.80768	12873.45
2366.63195	12850.45
2369.45444	12797.65
2372.27514	12772.45
2375.09405	12757.45
2377.91118	12763.15
2380.72652	12721.45
2383.54009	12667.85
2386.35187	12685.45
2389.16188	12634.95
2391.97011	12595.25
2394.77657	12580.05
2397.58125	12553.25
2400.38416	12556.85
2403.18529	12510.45
2405.98466	12498.55
2408.78226	12481.75
2411.57809	12461.95
2414.37216	12424.65
2417.16446	12406.75
2419.955	12423.25
2422.74378	12370.35
2425.5308	12367.95
2428.31606	12332.85
2431.09956	12344.25
2433.88131	12337.55
2436.6613	12325.65
2439.43954	12327.65
2442.21603	12335.35
2444.99077	12303.15
2447.76377	12292.35
2450.53501	12270.45
2453.30451	12292.45
2456.07226	12262.15
2458.83827	12260.45
2461.60254	12260.85
2464.36507	12257.35
2467.12586	12240.15
2469.88492	12236.45
2472.64224	12255.05
2475.39782	12234.15
2478.15167	12261.95
2480.90379	12250.75
2483.65417	12263.25
2486.40283	12254.15
2489.14976	12287.55
2491.89497	12290.25
2494.63845	12271.75
2497.3802	12285.15
2500.12024	12240.85
2502.85855	12270.95
2505.59514	12235.15
2508.33002	12221.75
2511.06318	12198.05
2513.79462	12175.25
2516.52435	12147.25
2519.25237	12131.55
2521.97867	12126.05
2524.70327	12120.85
2527.42616	12095.55
2530.14734	12082.65
2532.86681	12043.75
2535.58458	12061.25
2538.30065	12035.15
2541.01501	12029.65
2543.72768	12028.35
2546.43864	12020.05
2549.14791	11997.05
2551.85548	12006.25
2554.56136	11946.35
2557.26554	11952.65
2559.96803	11952.15
2562.66883	11925.15
2565.36794	11922.95
2568.06536	11905.25
2570.7611	11915.05
2573.45514	11899.25
2576.14751	11885.15
2578.83819	11837.25
2581.52719	11845.85
2584.21451	11838.25
2586.90015	11826.75
2589.58411	11774.15
2592.2664	11790.15
2594.94701	11746.95
2597.62594	11750.35
2600.30321	11729.65
2602.9788	11736.85
2605.65273	11723.65
2608.32498	11718.35
2610.99557	11704.45
2613.66449	11725.65
2616.33175	11671.05
2618.99734	11715.75
2621.66128	11674.75
2624.32355	11665.55
2626.98416	11665.05
2629.64311	11693.65
2632.30041	11681.15
2634.95605	11639.85
2637.61004	11645.95
2640.26238	11585.75
2642.91306	11596.85
2645.56209	11593.85
2648.20948	11579.55
2650.85521	11554.35
2653.4993	11538.25
2656.14175	11550.55
2658.78255	11566.05
2661.42171	11561.55
2664.05923	11563.85
2666.6951	11590.15
2669.32934	11587.65
2671.96194	11551.45
2674.59291	11579.55
2677.22224	11577.65
2679.84993	11596.75
2682.476	11565.15
2685.10043	11573.85
2687.72324	11566.35
2690.34441	11578.85
2692.96396	11575.85
2695.58188	11568.65
2698.19818	11547.95
2700.81285	11548.35
2703.4259	11583.45
2706.03733	11641.05
2708.64714	11594.55
2711.25533	11625.55
2713.86191	11582.35
2716.46687	11611.75
2719.07021	11584.15
2721.67194	11579.55
2724.27206	11602.65
2726.87057	11578.55
2729.46747	11586.05
2732.06276	11584.35
2734.65644	11545.95
2737.24852	11582.25
2739.83899	11535.05
2742.42786	11542.85
2745.01513	11545.25
2747.60079	11531.95
2750.18486	11511.55
2752.76733	11519.45
2755.3482	11531.95
2757.92747	11529.25
2760.50515	11512.45
2763.08123	11486.95
2765.65573	11472.75
2768.22863	11465.75
2770.79994	11424.25
2773.36967	11451.65
2775.9378	11421.05
2778.50435	11411.75
2781.06932	11391.35
2783.6327	11405.95
2786.1945	11357.45
2788.75471	11376.45
2791.31335	11339.75
2793.87041	11337.55
2796.42589	11297.85
2798.97979	11288.25
2801.53212	11290.15
2804.08288	11286.15
2806.63206	11250.05
2809.17967	11219.85
2811.72571	11208.45
2814.27018	11195.65
2816.81308	11184.05
2819.35442	11184.75
2821.89419	11194.55
2824.43239	11170.55
2826.96904	11157.95
2829.50412	11188.85
2832.03763	11167.65
2834.56959	11177.15
2837.1	11126.35
2839.62884	11119.85
2842.15613	11125.05
2844.68186	11144.85
2847.20604	11163.05
2849.72867	11161.35
2852.24974	11149.15
2854.76927	11139.65
2857.28724	11169.35
2859.80367	11132.75
2862.31855	11126.95
2864.83189	11078.25
2867.34368	11080.55
2869.85393	11090.35
2872.36264	11092.75
2874.8698	11074.75
2877.37543	11074.65
2879.87952	11068.65
2882.38207	11084.65
2884.88308	11050.25
2887.38256	11091.45
2889.88051	11067.15
2892.37692	11071.55
2894.8718	11036.85
2897.36515	11033.45
2899.85698	11056.75
2902.34727	11074.25
2904.83604	11053.05
2907.32328	11103.75
2909.809	11097.65
2912.29319	11090.45
2914.77587	11091.55
2917.25702	11069.75
2919.73665	11054.85
2922.21476	11076.35
2924.69136	11064.95
2927.16644	11053.55
2929.64	11051.25
2932.11205	11037.95
2934.58258	10981.25
2937.05161	11014.35
2939.51912	11015.75
2941.98513	10986.75
2944.44962	10950.75
2946.91261	10917.25
2949.37409	10939.15
2951.83407	10950.55
2954.29254	10941.25
2956.74951	10888.55
2959.20498	10888.25
2961.65895	10903.05
2964.11142	10905.35
2966.56239	10865.15
2969.01186	10876.15
2971.45984	10825.25
2973.90632	10793.85
2976.35131	10736.85
2978.7948	10743.35
2981.23681	10739.45
2983.67732	10729.25
2986.11635	10738.85
2988.55388	10690.25
2990.98993	10637.25
2993.4245	10660.45
2995.85758	10644.35
2998.28917	10610.85
3000.71928	10582.45
3003.14791	10563.35
3005.57506	10576.15
3008.00073	10582.35
3010.42493	10521.15
3012.84764	10519.65
3015.26888	10492.05
3017.68865	10513.75
3020.10694	10481.65
3022.52376	10453.05
3024.9391	10464.65
3027.35298	10433.15
3029.76539	10451.65
3032.17632	10448.95
3034.5858	10400.05
3036.9938	10401.65
3039.40034	10377.25
3041.80542	10380.65
3044.20903	10335.85
3046.61118	10332.45
3049.01187	10327.75
3051.4111	10313.65
3053.80888	10289.35
3056.20519	10272.15
3058.60005	10241.95
3060.99345	10222.05
3063.3854	10193.95
3065.7759	10167.15
3068.16494	10181.45
3070.55254	10139.45
3072.93868	10115.05
3075.32338	10090.15
3077.70662	10082.45
3080.08842	10036.25
3082.46878	10038.95
3084.84769	10026.85
3087.22515	10036.85
3089.60118	10022.55
3091.97576	10026.45
3094.3489	10029.95
3096.72061	10009.05
3099.09087	10023.35
3101.4597	9999.05
3103.82709	10000.75
3106.19305	9952.15
3108.55757	9997.25
3110.92066	9939.15
3113.28232	9945.65
3115.64255	9887.95
3118.00134	9900.65
3120.35871	9859.25
3122.71466	9856.25
3125.06917	9858.65
3127.42226	9824.65
3129.77393	9868.55
3132.12417	9839.75
3134.47299	9860.15
3136.82039	9841.45
3139.16636	9862.55
3141.51092	9857.55
3143.85406	9855.05
3146.19579	9861.75
3148.53609	9869.05
3150.87499	9868.45
3153.21246	9878.25
3155.54853	9866.65
3157.88318	9856.35
3160.21642	9869.75
3162.54826	9859.45
3164.87868	9855.05
3167.2077	9846.05
3169.5353	9863.05
3171.86151	9857.85
3174.18631	9845.55
3176.5097	9853.55
3178.83169	9834.85
3181.15228	9819.25
3183.47147	9823.15
3185.78926	9805.05
3188.10565	9815.05
3190.42065	9817.55
3192.73424	9805.85
3195.04645	9783.25
3197.35725	9808.85
3199.66667	9826.85
3201.97469	9834.45
3204.28132	9807.25
3206.58656	9816.05
3208.8904	9816.95
3211.19287	9830.85
3213.49394	9821.75
3215.79363	9821.75
3218.09193	9801.65
3220.38884	9823.35
3222.68438	9841.65
3224.97853	9807.75
3227.2713	9798.25
3229.56269	9785.05
3231.8527	9749.85
3234.14133	9773.45
3236.42858	9717.95
3238.71446	9718.55
3240.99896	9725.75
3243.28209	9714.75
3245.56384	9702.75
3247.84423	9688.05
3250.12324	9698.15
3252.40088	9696.55
3254.67715	9697.35
3256.95205	9670.85
3259.22558	9694.35
3261.49775	9661.55
3263.76855	9680.45
3266.03799	9650.85
3268.30606	9626.85
3270.57277	9604.15
3272.83812	9591.75
3275.10211	9577.35
3277.36474	9554.55
3279.62601	9577.85
3281.88593	9557.05
3284.14448	9570.25
3286.40168	9583.45
3288.65753	9538.25
3290.91202	9526.25
3293.16516	9520.35
3295.41695	9487.45
3297.66738	9410.95
3299.91647	9401.45
3302.16421	9367.45
3304.4106	9300.35
3306.65564	9258.75
3308.89933	9186.65
3311.14169	9147.25
3313.38269	9087.95
3315.62236	9051.25
3317.86068	8956.65
3320.09766	8881.85
3322.3333	8807.65
3324.5676	8814.45
3326.80056	8647.25
3329.03219	8615.75
3331.26248	3.45
3333.49143	-1.05
3335.71905	-0.85
