Data from AgNP_FTO_APTES_CRN_100uM_R6G_10uM_NaF_0.1M_Addition_RamanShift__4__18-36-08-110.txt Node

Date: Wed Dec 15 18:36:08 GMT 2021
User: TCL
Spectrometer: QEP01345
Trigger mode: 4
Integration Time (sec): 7.000000E0
Scans to average: 10
Electric dark correction enabled: true
Nonlinearity correction enabled: false
Boxcar width: 0
XAxis mode: Raman Shifts
Number of Pixels in Spectrum: 1044
>>>>>Begin Spectral Data<<<<<
46.04893	1.45
50.45542	-2.35
54.85868	-1.15
59.25871	-1.05
63.6555	57.25
68.04907	66.65
72.43941	68.95
76.82654	71.25
81.21044	73.85
85.59113	77.25
89.96862	82.35
94.34289	77.95
98.71396	82.45
103.08183	87.25
107.4465	94.05
111.80798	91.85
116.16626	95.55
120.52136	98.55
124.87327	97.85
129.222	103.45
133.56755	106.25
137.90993	118.25
142.24913	125.95
146.58517	134.95
150.91804	155.15
155.24774	180.95
159.57429	221.25
163.89768	287.55
168.21792	369.75
172.53501	505.05
176.84895	700.85
181.15975	977.15
185.46741	1359.95
189.77193	1875.65
194.07331	2501.85
198.37157	3222.65
202.6667	3985.95
206.9587	4732.65
211.24758	5449.55
215.53334	6180.05
219.81599	6967.25
224.09553	7807.85
228.37195	8749.95
232.64527	9799.35
236.91549	10878.95
241.18261	12012.75
245.44663	13071.35
249.70755	14011.85
253.96539	14864.85
258.22014	15589.65
262.4718	16139.95
266.72039	16511.55
270.96589	16696.85
275.20832	16738.95
279.44768	16602.75
283.68397	16423.45
287.91719	16292.05
292.14735	16165.45
296.37445	16110.35
300.59849	16070.35
304.81948	16116.55
309.03742	16096.75
313.25231	15950.05
317.46415	15762.35
321.67296	15430.15
325.87872	15181.95
330.08145	15026.55
334.28114	15037.65
338.47781	15141.45
342.67145	15285.75
346.86207	15544.85
351.04966	15745.75
355.23424	16025.65
359.4158	16222.45
363.59435	16360.85
367.76989	16401.35
371.94243	16485.75
376.11196	16533.85
380.27849	16604.75
384.44203	16705.85
388.60257	16850.75
392.76012	17045.45
396.91468	17262.35
401.06626	17494.75
405.21485	17682.55
409.36047	17664.85
413.50311	17506.15
417.64277	17391.45
421.77947	17393.35
425.9132	17421.25
430.04396	17532.55
434.17176	17611.05
438.2966	17705.75
442.41849	17893.85
446.53742	18263.35
450.6534	18648.65
454.76644	18943.35
458.87653	19033.15
462.98368	18994.05
467.08789	18823.25
471.18916	18673.75
475.2875	18550.85
479.38291	18516.05
483.4754	18382.55
487.56496	18211.75
491.6516	17961.75
495.73531	17741.75
499.81612	17686.25
503.89401	17797.15
507.96899	17848.25
512.04106	17868.35
516.11023	17832.35
520.1765	17729.25
524.23987	17667.45
528.30034	17590.95
532.35792	17453.35
536.41261	17213.25
540.46441	17111.95
544.51333	17097.75
548.55936	17221.65
552.60252	17529.65
556.64279	17916.35
560.6802	18170.95
564.71473	18263.45
568.7464	18365.25
572.7752	18749.25
576.80114	19134.15
580.82422	19602.45
584.84444	20193.25
588.86181	20853.55
592.87633	21277.75
596.888	21162.95
600.89682	20529.35
604.9028	20380.05
608.90594	21336.65
612.90624	22349.85
616.90371	21218.15
620.89834	18619.25
624.89015	17494.65
628.87913	17381.85
632.86528	17449.55
636.84862	17433.75
640.82913	17252.65
644.80683	16948.35
648.78172	16764.45
652.75379	16748.55
656.72306	16845.25
660.68952	16974.65
664.65319	16943.05
668.61405	16775.05
672.57211	16758.15
676.52738	16814.65
680.47986	16795.85
684.42955	16737.15
688.37646	16688.25
692.32058	16785.25
696.26192	16918.35
700.20048	17141.15
704.13626	17267.55
708.06928	17359.45
711.99952	17318.35
715.927	17337.45
719.85171	17348.95
723.77365	17237.75
727.69284	17046.95
731.60928	16867.85
735.52295	16792.35
739.43388	16840.75
743.34206	16868.65
747.24749	16929.25
751.15017	17048.45
755.05012	17268.45
758.94733	17701.35
762.8418	18345.25
766.73354	19383.65
770.62254	20364.45
774.50882	20524.75
778.39237	19772.95
782.27321	18663.35
786.15132	17730.65
790.02671	17187.35
793.89938	16919.75
797.76935	16804.25
801.6366	16800.15
805.50115	16746.55
809.36299	16702.45
813.22213	16604.35
817.07857	16589.35
820.93231	16531.15
824.78336	16509.05
828.63172	16488.85
832.47738	16490.15
836.32036	16550.25
840.16066	16586.85
843.99827	16614.35
847.8332	16523.95
851.66546	16453.65
855.49504	16432.75
859.32195	16446.15
863.1462	16387.75
866.96777	16382.65
870.78668	16354.65
874.60293	16350.55
878.41652	16388.65
882.22745	16420.55
886.03573	16508.15
889.84136	16515.15
893.64433	16456.35
897.44466	16399.05
901.24235	16332.15
905.0374	16301.65
908.8298	16283.05
912.61957	16318.25
916.40671	16457.85
920.19121	16605.45
923.97308	16729.15
927.75233	16784.25
931.52895	16715.35
935.30295	16510.75
939.07433	16282.35
942.84309	16096.25
946.60924	15968.45
950.37278	15913.25
954.13371	15884.65
957.89203	15870.05
961.64774	15876.65
965.40086	15850.45
969.15137	15815.75
972.89929	15725.15
976.64461	15709.15
980.38733	15674.75
984.12747	15730.35
987.86502	15822.15
991.59999	15930.65
995.33237	16091.95
999.06217	16384.45
1002.78939	16642.15
1006.51404	16884.15
1010.23611	17070.25
1013.95561	17217.75
1017.67255	17260.15
1021.38692	17051.25
1025.09872	16921.65
1028.80796	16885.75
1032.51465	17074.35
1036.21877	17303.85
1039.92035	17447.85
1043.61937	17399.65
1047.31584	17298.85
1051.00976	17207.85
1054.70114	17190.35
1058.38998	17360.75
1062.07627	17603.55
1065.76003	18026.15
1069.44126	18482.45
1073.11995	18961.75
1076.79611	19172.65
1080.46974	19023.95
1084.14085	18700.45
1087.80943	18446.75
1091.47549	18303.95
1095.13903	18214.45
1098.80005	17949.15
1102.45857	17607.55
1106.11456	17278.55
1109.76805	17159.65
1113.41903	17125.35
1117.06751	17216.35
1120.71348	17345.35
1124.35696	17508.65
1127.99793	17720.35
1131.63641	17860.95
1135.2724	17781.15
1138.90589	17663.65
1142.5369	17647.45
1146.16542	17706.55
1149.79145	17798.75
1153.415	17881.95
1157.03607	18030.75
1160.65467	18422.05
1164.27079	19074.55
1167.88443	19945.75
1171.49561	20954.35
1175.10432	22222.15
1178.71056	23822.35
1182.31434	25204.75
1185.91565	25779.35
1189.51451	25409.25
1193.11091	24649.05
1196.70485	23754.55
1200.29634	22870.15
1203.88538	22339.35
1207.47197	21982.65
1211.05612	21670.35
1214.63782	21343.35
1218.21708	20911.75
1221.79391	20497.35
1225.36829	20230.05
1228.94024	20017.75
1232.50976	19755.75
1236.07685	19567.65
1239.6415	19445.85
1243.20374	19428.75
1246.76355	19524.55
1250.32093	19809.35
1253.8759	20118.15
1257.42845	20616.45
1260.97859	21060.35
1264.52631	21552.45
1268.07163	22043.05
1271.61453	22533.65
1275.15503	23097.05
1278.69312	23693.65
1282.22882	24252.95
1285.76211	24912.45
1289.29301	25759.55
1292.82151	26746.05
1296.34761	27950.95
1299.87133	29391.75
1303.39266	30858.25
1306.9116	32237.85
1310.42815	33411.05
1313.94233	34033.45
1317.45412	33851.25
1320.96354	33179.55
1324.47058	32525.05
1327.97525	31999.95
1331.47754	31662.65
1334.97747	31358.65
1338.47502	31070.55
1341.97022	30783.95
1345.46305	30432.55
1348.95352	30253.35
1352.44163	30476.55
1355.92738	31296.15
1359.41078	32630.25
1362.89183	33682.65
1366.37053	33252.15
1369.84688	31064.95
1373.32088	28214.45
1376.79254	26137.95
1380.26186	25172.75
1383.72883	24980.45
1387.19347	24788.95
1390.65578	24482.15
1394.11575	24445.85
1397.57339	24595.75
1401.0287	24905.15
1404.48168	25100.15
1407.93234	25036.95
1411.38068	24588.85
1414.82669	23932.05
1418.27039	23078.35
1421.71177	22297.35
1425.15083	21550.25
1428.58758	21189.55
1432.02203	21295.85
1435.45416	21701.25
1438.88399	22214.15
1442.31151	22583.55
1445.73673	22807.95
1449.15965	22994.65
1452.58027	23088.55
1455.9986	23084.75
1459.41463	23232.45
1462.82837	23541.75
1466.23982	24000.55
1469.64898	24401.75
1473.05586	24689.65
1476.46045	24876.45
1479.86276	24835.55
1483.26279	24790.45
1486.66054	24775.55
1490.05602	24993.95
1493.44922	25280.45
1496.84016	25626.15
1500.22882	26083.25
1503.61521	26810.15
1506.99934	27578.05
1510.38121	28127.45
1513.76081	28216.25
1517.13816	27541.85
1520.51324	26632.15
1523.88607	25864.65
1527.25665	25477.45
1530.62498	25307.65
1533.99105	25171.95
1537.35488	24970.65
1540.71647	24524.45
1544.07581	24015.85
1547.4329	23504.35
1550.78776	23047.25
1554.14038	22679.05
1557.49077	22511.75
1560.83892	22488.65
1564.18484	22602.85
1567.52853	22865.45
1570.86999	23353.15
1574.20922	24130.05
1577.54624	24859.45
1580.88103	25239.25
1584.2136	25293.35
1587.54395	25236.75
1590.87208	25608.35
1594.19801	26388.15
1597.52172	27369.25
1600.84321	27713.35
1604.16251	26845.55
1607.47959	25138.85
1610.79447	23213.75
1614.10715	21449.45
1617.41763	20094.95
1620.7259	19238.45
1624.03199	18732.35
1627.33587	18683.15
1630.63757	19094.65
1633.93707	19978.45
1637.23439	21518.55
1640.52951	23833.15
1643.82246	26649.75
1647.11321	28967.95
1650.40179	29627.65
1653.68819	27981.35
1656.97241	24936.35
1660.25446	21889.95
1663.53433	19577.55
1666.81203	18021.35
1670.08756	17032.55
1673.36092	16390.35
1676.63211	15971.15
1679.90115	15682.35
1683.16801	15482.55
1686.43272	15339.25
1689.69527	15202.15
1692.95567	15111.85
1696.2139	15091.45
1699.46999	15075.45
1702.72392	15015.45
1705.97571	15001.95
1709.22535	14929.75
1712.47284	14902.95
1715.71819	14878.85
1718.96139	14871.35
1722.20246	14825.65
1725.44139	14779.05
1728.67818	14707.05
1731.91284	14645.45
1735.14537	14596.45
1738.37576	14573.15
1741.60403	14504.95
1744.83017	14483.65
1748.05418	14455.35
1751.27607	14427.95
1754.49584	14440.45
1757.71349	14453.05
1760.92903	14416.65
1764.14244	14408.45
1767.35375	14396.65
1770.56294	14372.05
1773.77002	14314.55
1776.97499	14329.85
1780.17785	14311.45
1783.37861	14256.65
1786.57727	14256.85
1789.77382	14208.05
1792.96828	14175.35
1796.16064	14174.55
1799.3509	14121.15
1802.53907	14105.85
1805.72514	14092.25
1808.90913	14054.85
1812.09102	14027.25
1815.27083	14003.85
1818.44856	13991.05
1821.6242	14001.55
1824.79776	13980.55
1827.96924	13929.15
1831.13864	13973.85
1834.30597	13979.15
1837.47122	14002.95
1840.6344	13942.85
1843.7955	13935.95
1846.95454	13934.35
1850.11151	13927.35
1853.26642	13904.45
1856.41926	13903.35
1859.57004	13894.25
1862.71876	13897.95
1865.86542	13849.45
1869.01003	13876.15
1872.15258	13836.55
1875.29308	13840.05
1878.43152	13783.75
1881.56792	13797.25
1884.70227	13769.05
1887.83457	13778.45
1890.96482	13744.75
1894.09304	13729.45
1897.21921	13747.95
1900.34335	13724.15
1903.46544	13680.55
1906.58551	13686.35
1909.70353	13674.25
1912.81953	13664.95
1915.93349	13652.25
1919.04543	13592.95
1922.15534	13590.65
1925.26322	13581.15
1928.36908	13552.85
1931.47292	13510.45
1934.57473	13484.05
1937.67453	13466.25
1940.77232	13418.15
1943.86808	13383.25
1946.96184	13358.45
1950.05358	13336.95
1953.14331	13315.75
1956.23103	13296.55
1959.31675	13288.85
1962.40046	13221.25
1965.48217	13181.85
1968.56188	13141.55
1971.63959	13099.45
1974.7153	13060.85
1977.78901	13026.85
1980.86073	12962.55
1983.93046	12951.15
1986.99819	12916.15
1990.06394	12901.25
1993.1277	12869.15
1996.18947	12807.05
1999.24925	12766.55
2002.30706	12741.95
2005.36288	12708.95
2008.41672	12697.05
2011.46859	12637.65
2014.51848	12615.45
2017.56639	12588.05
2020.61233	12577.45
2023.6563	12574.95
2026.6983	12539.15
2029.73833	12511.45
2032.7764	12506.95
2035.8125	12475.25
2038.84664	12425.45
2041.87881	12421.55
2044.90903	12405.65
2047.93729	12356.25
2050.96359	12368.75
2053.98794	12349.85
2057.01034	12345.25
2060.03078	12340.15
2063.04927	12333.85
2066.06582	12344.35
2069.08042	12324.35
2072.09307	12314.15
2075.10378	12278.55
2078.11255	12282.45
2081.11938	12295.75
2084.12426	12315.85
2087.12722	12283.45
2090.12824	12269.05
2093.12732	12275.05
2096.12447	12306.25
2099.11969	12292.55
2102.11299	12301.45
2105.10435	12307.75
2108.09379	12356.75
2111.08131	12328.45
2114.0669	12319.05
2117.05057	12367.05
2120.03233	12324.65
2123.01216	12363.05
2125.99008	12346.25
2128.96609	12381.65
2131.94018	12383.45
2134.91236	12398.75
2137.88263	12412.05
2140.851	12417.55
2143.81746	12433.35
2146.78201	12406.15
2149.74466	12426.45
2152.7054	12440.95
2155.66425	12438.15
2158.6212	12462.55
2161.57625	12453.95
2164.52941	12433.15
2167.48067	12436.55
2170.43004	12443.95
2173.37752	12441.35
2176.32311	12431.95
2179.26681	12407.25
2182.20863	12412.95
2185.14856	12438.05
2188.08661	12427.85
2191.02278	12433.25
2193.95707	12435.05
2196.88948	12415.15
2199.82001	12390.25
2202.74867	12386.15
2205.67545	12387.75
2208.60037	12388.45
2211.52341	12387.35
2214.44458	12369.45
2217.36388	12345.55
2220.28132	12292.65
2223.1969	12301.25
2226.11061	12284.15
2229.02246	12276.85
2231.93245	12247.85
2234.84058	12216.55
2237.74686	12243.25
2240.65128	12236.35
2243.55385	12178.95
2246.45456	12136.05
2249.35343	12155.45
2252.25044	12113.65
2255.14561	12124.45
2258.03893	12092.85
2260.93041	12120.75
2263.82004	12084.95
2266.70783	12030.85
2269.59378	12018.25
2272.4779	11966.35
2275.36017	11975.95
2278.24061	11937.05
2281.11922	11922.45
2283.996	11908.05
2286.87094	11871.75
2289.74405	11856.85
2292.61534	11855.45
2295.4848	11864.65
2298.35243	11855.05
2301.21824	11860.05
2304.08223	11876.65
2306.94439	11831.85
2309.80474	11863.95
2312.66327	11838.55
2315.51999	11825.65
2318.37489	11809.05
2321.22797	11813.35
2324.07925	11804.35
2326.92871	11780.45
2329.77637	11805.65
2332.62222	11777.15
2335.46626	11758.45
2338.3085	11731.95
2341.14893	11728.25
2343.98756	11738.25
2346.8244	11715.65
2349.65943	11712.15
2352.49267	11719.55
2355.32411	11732.25
2358.15376	11693.05
2360.98161	11656.35
2363.80768	11679.45
2366.63195	11666.95
2369.45444	11662.95
2372.27514	11663.85
2375.09405	11649.45
2377.91118	11628.35
2380.72652	11633.25
2383.54009	11597.45
2386.35187	11589.95
2389.16188	11534.45
2391.97011	11497.25
2394.77657	11502.05
2397.58125	11490.05
2400.38416	11479.15
2403.18529	11446.15
2405.98466	11462.05
2408.78226	11432.75
2411.57809	11418.35
2414.37216	11406.25
2417.16446	11382.65
2419.955	11382.35
2422.74378	11395.65
2425.5308	11364.65
2428.31606	11321.25
2431.09956	11342.85
2433.88131	11339.55
2436.6613	11332.85
2439.43954	11320.35
2442.21603	11278.25
2444.99077	11266.45
2447.76377	11298.35
2450.53501	11283.05
2453.30451	11289.65
2456.07226	11290.05
2458.83827	11278.25
2461.60254	11244.75
2464.36507	11235.85
2467.12586	11257.95
2469.88492	11244.75
2472.64224	11249.85
2475.39782	11256.15
2478.15167	11289.75
2480.90379	11253.15
2483.65417	11277.35
2486.40283	11270.25
2489.14976	11284.95
2491.89497	11264.95
2494.63845	11262.85
2497.3802	11255.95
2500.12024	11264.25
2502.85855	11260.75
2505.59514	11237.55
2508.33002	11224.35
2511.06318	11205.55
2513.79462	11187.65
2516.52435	11171.85
2519.25237	11160.25
2521.97867	11167.05
2524.70327	11176.45
2527.42616	11160.75
2530.14734	11148.55
2532.86681	11113.55
2535.58458	11119.55
2538.30065	11112.05
2541.01501	11085.35
2543.72768	11083.55
2546.43864	11078.55
2549.14791	11052.45
2551.85548	11060.85
2554.56136	11034.95
2557.26554	11012.75
2559.96803	11029.15
2562.66883	11023.75
2565.36794	11031.65
2568.06536	11007.35
2570.7611	10981.25
2573.45514	11012.05
2576.14751	10959.05
2578.83819	10962.15
2581.52719	10946.55
2584.21451	10945.45
2586.90015	10932.05
2589.58411	10899.15
2592.2664	10905.25
2594.94701	10896.35
2597.62594	10840.65
2600.30321	10849.85
2602.9788	10857.05
2605.65273	10829.55
2608.32498	10826.65
2610.99557	10832.85
2613.66449	10826.05
2616.33175	10800.05
2618.99734	10810.75
2621.66128	10822.95
2624.32355	10786.25
2626.98416	10774.85
2629.64311	10787.15
2632.30041	10765.55
2634.95605	10746.85
2637.61004	10747.15
2640.26238	10720.25
2642.91306	10748.35
2645.56209	10715.55
2648.20948	10720.85
2650.85521	10712.55
2653.4993	10715.25
2656.14175	10730.05
2658.78255	10709.65
2661.42171	10713.45
2664.05923	10717.85
2666.6951	10732.75
2669.32934	10730.55
2671.96194	10706.95
2674.59291	10697.65
2677.22224	10692.45
2679.84993	10739.35
2682.476	10726.65
2685.10043	10713.85
2687.72324	10692.95
2690.34441	10736.65
2692.96396	10756.75
2695.58188	10727.85
2698.19818	10714.15
2700.81285	10738.75
2703.4259	10741.95
2706.03733	10782.85
2708.64714	10754.95
2711.25533	10753.15
2713.86191	10758.25
2716.46687	10766.05
2719.07021	10733.25
2721.67194	10768.25
2724.27206	10742.15
2726.87057	10746.45
2729.46747	10782.15
2732.06276	10777.15
2734.65644	10757.65
2737.24852	10785.25
2739.83899	10737.55
2742.42786	10753.35
2745.01513	10719.35
2747.60079	10750.95
2750.18486	10715.25
2752.76733	10738.25
2755.3482	10726.65
2757.92747	10721.95
2760.50515	10704.25
2763.08123	10694.95
2765.65573	10682.15
2768.22863	10695.35
2770.79994	10691.65
2773.36967	10674.75
2775.9378	10688.25
2778.50435	10649.15
2781.06932	10625.25
2783.6327	10650.45
2786.1945	10633.45
2788.75471	10596.75
2791.31335	10596.25
2793.87041	10590.25
2796.42589	10548.25
2798.97979	10579.05
2801.53212	10565.45
2804.08288	10528.75
2806.63206	10519.25
2809.17967	10478.95
2811.72571	10448.05
2814.27018	10470.55
2816.81308	10456.65
2819.35442	10434.35
2821.89419	10429.45
2824.43239	10414.05
2826.96904	10399.65
2829.50412	10424.95
2832.03763	10370.75
2834.56959	10380.95
2837.1	10392.75
2839.62884	10386.45
2842.15613	10394.95
2844.68186	10426.55
2847.20604	10409.85
2849.72867	10431.55
2852.24974	10427.65
2854.76927	10431.15
2857.28724	10411.15
2859.80367	10414.75
2862.31855	10384.45
2864.83189	10371.95
2867.34368	10349.15
2869.85393	10346.85
2872.36264	10343.75
2874.8698	10347.05
2877.37543	10355.05
2879.87952	10352.95
2882.38207	10360.55
2884.88308	10368.85
2887.38256	10387.65
2889.88051	10370.05
2892.37692	10363.75
2894.8718	10361.75
2897.36515	10362.15
2899.85698	10345.05
2902.34727	10398.45
2904.83604	10377.65
2907.32328	10406.75
2909.809	10395.05
2912.29319	10428.25
2914.77587	10412.85
2917.25702	10411.15
2919.73665	10385.55
2922.21476	10396.25
2924.69136	10388.15
2927.16644	10390.25
2929.64	10375.05
2932.11205	10377.75
2934.58258	10352.15
2937.05161	10408.45
2939.51912	10386.35
2941.98513	10364.15
2944.44962	10355.75
2946.91261	10306.95
2949.37409	10320.45
2951.83407	10321.85
2954.29254	10294.05
2956.74951	10278.55
2959.20498	10296.45
2961.65895	10302.75
2964.11142	10309.15
2966.56239	10248.55
2969.01186	10258.75
2971.45984	10210.75
2973.90632	10209.15
2976.35131	10191.45
2978.7948	10157.75
2981.23681	10168.35
2983.67732	10143.05
2986.11635	10149.85
2988.55388	10093.45
2990.98993	10100.85
2993.4245	10087.65
2995.85758	10054.25
2998.28917	10045.65
3000.71928	10025.65
3003.14791	10013.25
3005.57506	9972.85
3008.00073	9982.05
3010.42493	10003.15
3012.84764	9973.95
3015.26888	9969.35
3017.68865	9910.45
3020.10694	9933.95
3022.52376	9888.45
3024.9391	9911.35
3027.35298	9885.35
3029.76539	9881.45
3032.17632	9898.05
3034.5858	9881.05
3036.9938	9863.45
3039.40034	9867.05
3041.80542	9865.55
3044.20903	9811.75
3046.61118	9837.65
3049.01187	9787.25
3051.4111	9796.55
3053.80888	9795.15
3056.20519	9768.25
3058.60005	9763.35
3060.99345	9712.05
3063.3854	9747.75
3065.7759	9709.65
3068.16494	9701.15
3070.55254	9651.25
3072.93868	9666.65
3075.32338	9660.45
3077.70662	9622.15
3080.08842	9605.85
3082.46878	9595.65
3084.84769	9601.05
3087.22515	9589.45
3089.60118	9590.15
3091.97576	9599.15
3094.3489	9596.75
3096.72061	9582.15
3099.09087	9566.75
3101.4597	9576.15
3103.82709	9584.15
3106.19305	9558.15
3108.55757	9569.25
3110.92066	9554.85
3113.28232	9524.75
3115.64255	9524.95
3118.00134	9486.15
3120.35871	9501.75
3122.71466	9491.85
3125.06917	9470.15
3127.42226	9468.85
3129.77393	9491.45
3132.12417	9494.75
3134.47299	9485.55
3136.82039	9480.75
3139.16636	9478.95
3141.51092	9473.25
3143.85406	9509.05
3146.19579	9503.45
3148.53609	9503.25
3150.87499	9507.85
3153.21246	9497.15
3155.54853	9534.15
3157.88318	9509.25
3160.21642	9531.25
3162.54826	9530.45
3164.87868	9527.65
3167.2077	9519.35
3169.5353	9516.45
3171.86151	9516.95
3174.18631	9520.35
3176.5097	9534.05
3178.83169	9502.65
3181.15228	9496.55
3183.47147	9526.55
3185.78926	9495.45
3188.10565	9497.75
3190.42065	9475.25
3192.73424	9461.55
3195.04645	9482.15
3197.35725	9495.15
3199.66667	9501.05
3201.97469	9516.85
3204.28132	9518.35
3206.58656	9513.45
3208.8904	9526.05
3211.19287	9516.25
3213.49394	9514.55
3215.79363	9500.15
3218.09193	9509.45
3220.38884	9498.85
3222.68438	9533.35
3224.97853	9516.55
3227.2713	9496.05
3229.56269	9484.15
3231.8527	9490.35
3234.14133	9457.85
3236.42858	9440.95
3238.71446	9444.55
3240.99896	9430.25
3243.28209	9458.35
3245.56384	9404.65
3247.84423	9427.15
3250.12324	9418.35
3252.40088	9415.45
3254.67715	9427.35
3256.95205	9414.65
3259.22558	9404.25
3261.49775	9381.95
3263.76855	9397.25
3266.03799	9358.95
3268.30606	9342.75
3270.57277	9338.95
3272.83812	9296.75
3275.10211	9302.15
3277.36474	9293.45
3279.62601	9286.35
3281.88593	9287.15
3284.14448	9294.35
3286.40168	9295.95
3288.65753	9287.95
3290.91202	9270.15
3293.16516	9237.05
3295.41695	9231.75
3297.66738	9162.45
3299.91647	9132.85
3302.16421	9048.25
3304.4106	9034.55
3306.65564	8989.05
3308.89933	8936.95
3311.14169	8912.95
3313.38269	8857.75
3315.62236	8793.05
3317.86068	8719.85
3320.09766	8620.15
3322.3333	8563.55
3324.5676	8548.65
3326.80056	8434.25
3329.03219	8393.05
3331.26248	3.65
3333.49143	-1.15
3335.71905	1.05
