Data from AgNP_FTO_APTES_CRN_50uM_R6G_10uM_NaF_0.1M_Addition_RamanShift__2__17-48-18-057.txt Node

Date: Wed Dec 15 17:48:18 GMT 2021
User: TCL
Spectrometer: QEP01345
Trigger mode: 4
Integration Time (sec): 7.000000E0
Scans to average: 10
Electric dark correction enabled: true
Nonlinearity correction enabled: false
Boxcar width: 0
XAxis mode: Raman Shifts
Number of Pixels in Spectrum: 1044
>>>>>Begin Spectral Data<<<<<
46.04893	1.25
50.45542	-2.95
54.85868	-1.75
59.25871	0.25
63.6555	65.55
68.04907	72.65
72.43941	73.95
76.82654	77.45
81.21044	80.95
85.59113	83.45
89.96862	89.05
94.34289	85.95
98.71396	94.35
103.08183	97.45
107.4465	101.15
111.80798	98.95
116.16626	101.55
120.52136	111.35
124.87327	106.85
129.222	115.55
133.56755	119.95
137.90993	129.15
142.24913	139.25
146.58517	155.05
150.91804	178.05
155.24774	209.25
159.57429	261.45
163.89768	324.25
168.21792	427.55
172.53501	580.25
176.84895	810.35
181.15975	1132.15
185.46741	1575.55
189.77193	2174.55
194.07331	2908.75
198.37157	3746.15
202.6667	4651.75
206.9587	5517.85
211.24758	6387.05
215.53334	7238.25
219.81599	8170.55
224.09553	9150.05
228.37195	10275.85
232.64527	11491.85
236.91549	12780.55
241.18261	14067.65
245.44663	15338.05
249.70755	16427.85
253.96539	17355.05
258.22014	18159.05
262.4718	18814.85
266.72039	19279.25
270.96589	19523.65
275.20832	19507.75
279.44768	19380.95
283.68397	19150.45
287.91719	18962.45
292.14735	18875.85
296.37445	18818.85
300.59849	18854.55
304.81948	18958.35
309.03742	18978.25
313.25231	18891.55
317.46415	18624.15
321.67296	18273.25
325.87872	17938.25
330.08145	17756.45
334.28114	17707.65
338.47781	17855.85
342.67145	18089.95
346.86207	18397.15
351.04966	18738.15
355.23424	19064.65
359.4158	19313.15
363.59435	19519.15
367.76989	19626.65
371.94243	19731.95
376.11196	19811.55
380.27849	19897.35
384.44203	19979.85
388.60257	20120.75
392.76012	20319.35
396.91468	20578.15
401.06626	20891.35
405.21485	21107.05
409.36047	21037.45
413.50311	20822.75
417.64277	20660.95
421.77947	20595.45
425.9132	20623.05
430.04396	20697.95
434.17176	20793.85
438.2966	20903.15
442.41849	21206.25
446.53742	21709.15
450.6534	22246.25
454.76644	22614.85
458.87653	22695.55
462.98368	22545.15
467.08789	22306.35
471.18916	22003.35
475.2875	21763.45
479.38291	21582.65
483.4754	21401.15
487.56496	21219.25
491.6516	20996.55
495.73531	20796.75
499.81612	20771.35
503.89401	20868.55
507.96899	20972.55
512.04106	20998.75
516.11023	20964.95
520.1765	20886.05
524.23987	20839.65
528.30034	20755.15
532.35792	20661.85
536.41261	20383.35
540.46441	20152.45
544.51333	20107.55
548.55936	20240.65
552.60252	20571.35
556.64279	21049.35
560.6802	21297.45
564.71473	21406.45
568.7464	21575.05
572.7752	21934.25
576.80114	22307.55
580.82422	22815.75
584.84444	23437.75
588.86181	24242.45
592.87633	24847.85
596.888	24845.65
600.89682	24215.65
604.9028	24145.75
608.90594	25611.15
612.90624	27336.65
616.90371	26008.15
620.89834	22439.75
624.89015	20892.15
628.87913	20671.15
632.86528	20754.15
636.84862	20687.75
640.82913	20455.45
644.80683	20059.25
648.78172	19823.45
652.75379	19837.85
656.72306	20002.85
660.68952	20270.15
664.65319	20200.35
668.61405	19934.95
672.57211	19870.65
676.52738	19913.05
680.47986	19889.95
684.42955	19812.05
688.37646	19786.45
692.32058	19825.25
696.26192	20105.85
700.20048	20345.65
704.13626	20480.35
708.06928	20493.85
711.99952	20449.75
715.927	20444.25
719.85171	20462.05
723.77365	20384.25
727.69284	20181.45
731.60928	19952.25
735.52295	19904.95
739.43388	19903.65
743.34206	19952.75
747.24749	20043.45
751.15017	20170.85
755.05012	20459.45
758.94733	20923.65
762.8418	21769.25
766.73354	23100.95
770.62254	24388.25
774.50882	24731.25
778.39237	23833.65
782.27321	22451.25
786.15132	21268.75
790.02671	20530.15
793.89938	20150.45
797.76935	20021.65
801.6366	19953.55
805.50115	19907.85
809.36299	19802.75
813.22213	19694.05
817.07857	19670.15
820.93231	19624.95
824.78336	19555.35
828.63172	19547.75
832.47738	19565.35
836.32036	19618.25
840.16066	19686.95
843.99827	19721.25
847.8332	19650.35
851.66546	19584.85
855.49504	19587.75
859.32195	19575.35
863.1462	19475.65
866.96777	19452.65
870.78668	19446.05
874.60293	19460.35
878.41652	19515.25
882.22745	19569.65
886.03573	19627.15
889.84136	19641.05
893.64433	19555.15
897.44466	19472.85
901.24235	19410.35
905.0374	19359.55
908.8298	19359.65
912.61957	19363.55
916.40671	19509.35
920.19121	19693.95
923.97308	19851.55
927.75233	19907.95
931.52895	19855.05
935.30295	19675.25
939.07433	19395.85
942.84309	19203.45
946.60924	19118.95
950.37278	19024.85
954.13371	18995.55
957.89203	18954.05
961.64774	18919.65
965.40086	18882.25
969.15137	18873.25
972.89929	18835.75
976.64461	18789.45
980.38733	18809.85
984.12747	18859.85
987.86502	18996.35
991.59999	19134.55
995.33237	19350.95
999.06217	19714.05
1002.78939	20124.35
1006.51404	20412.45
1010.23611	20663.75
1013.95561	20838.55
1017.67255	20838.75
1021.38692	20674.55
1025.09872	20381.05
1028.80796	20363.55
1032.51465	20631.55
1036.21877	20997.25
1039.92035	21116.55
1043.61937	21019.75
1047.31584	20849.45
1051.00976	20607.15
1054.70114	20509.45
1058.38998	20652.75
1062.07627	20881.55
1065.76003	21199.05
1069.44126	21619.65
1073.11995	22080.95
1076.79611	22354.05
1080.46974	22335.05
1084.14085	22157.05
1087.80943	22076.35
1091.47549	21960.15
1095.13903	21860.85
1098.80005	21538.45
1102.45857	21117.35
1106.11456	20820.65
1109.76805	20659.95
1113.41903	20718.15
1117.06751	20813.65
1120.71348	20986.45
1124.35696	21153.25
1127.99793	21403.35
1131.63641	21516.85
1135.2724	21350.65
1138.90589	21208.95
1142.5369	21147.55
1146.16542	21181.85
1149.79145	21266.55
1153.415	21356.55
1157.03607	21513.25
1160.65467	21951.35
1164.27079	22737.85
1167.88443	23682.75
1171.49561	24841.55
1175.10432	26415.15
1178.71056	28365.65
1182.31434	30093.75
1185.91565	30819.25
1189.51451	30410.95
1193.11091	29436.05
1196.70485	28326.15
1200.29634	27289.75
1203.88538	26620.65
1207.47197	26145.65
1211.05612	25744.55
1214.63782	25269.65
1218.21708	24852.15
1221.79391	24493.25
1225.36829	24281.45
1228.94024	24023.85
1232.50976	23767.85
1236.07685	23448.75
1239.6415	23335.55
1243.20374	23268.05
1246.76355	23480.65
1250.32093	23782.95
1253.8759	24194.65
1257.42845	24742.15
1260.97859	25321.65
1264.52631	25895.05
1268.07163	26483.75
1271.61453	27190.55
1275.15503	27788.25
1278.69312	28435.05
1282.22882	28975.05
1285.76211	29669.15
1289.29301	30484.55
1292.82151	31576.75
1296.34761	32877.35
1299.87133	34499.45
1303.39266	36403.85
1306.9116	38288.15
1310.42815	39935.55
1313.94233	40830.95
1317.45412	40665.25
1320.96354	39616.55
1324.47058	38614.65
1327.97525	37748.55
1331.47754	37072.55
1334.97747	36684.15
1338.47502	36335.55
1341.97022	36026.75
1345.46305	35687.35
1348.95352	35647.35
1352.44163	36089.15
1355.92738	37320.55
1359.41078	39183.35
1362.89183	40703.85
1366.37053	40072.05
1369.84688	37099.95
1373.32088	33380.35
1376.79254	30808.65
1380.26186	29751.65
1383.72883	29470.35
1387.19347	29292.15
1390.65578	28854.95
1394.11575	28654.95
1397.57339	28713.65
1401.0287	29057.85
1404.48168	29250.55
1407.93234	29221.05
1411.38068	28873.55
1414.82669	28238.75
1418.27039	27374.55
1421.71177	26558.25
1425.15083	25792.25
1428.58758	25443.25
1432.02203	25648.25
1435.45416	26137.15
1438.88399	26730.55
1442.31151	27106.85
1445.73673	27350.85
1449.15965	27542.65
1452.58027	27538.45
1455.9986	27473.75
1459.41463	27533.35
1462.82837	27904.85
1466.23982	28420.35
1469.64898	28951.55
1473.05586	29340.85
1476.46045	29522.05
1479.86276	29509.95
1483.26279	29391.85
1486.66054	29435.75
1490.05602	29698.75
1493.44922	30016.95
1496.84016	30551.95
1500.22882	31210.25
1503.61521	32236.55
1506.99934	33437.45
1510.38121	34321.75
1513.76081	34425.85
1517.13816	33505.15
1520.51324	32070.15
1523.88607	30840.25
1527.25665	30125.85
1530.62498	29843.45
1533.99105	29657.55
1537.35488	29428.95
1540.71647	28970.45
1544.07581	28386.25
1547.4329	27824.65
1550.78776	27323.05
1554.14038	26952.75
1557.49077	26801.25
1560.83892	26759.25
1564.18484	26895.45
1567.52853	27188.75
1570.86999	27748.35
1574.20922	28433.75
1577.54624	29045.55
1580.88103	29308.35
1584.2136	29302.95
1587.54395	29481.05
1590.87208	30055.85
1594.19801	31214.35
1597.52172	32574.75
1600.84321	33099.25
1604.16251	32000.75
1607.47959	29952.15
1610.79447	27665.15
1614.10715	25534.65
1617.41763	23951.35
1620.7259	22933.85
1624.03199	22413.85
1627.33587	22461.45
1630.63757	22943.55
1633.93707	24021.35
1637.23439	25861.65
1640.52951	28554.95
1643.82246	31806.95
1647.11321	34563.85
1650.40179	35291.05
1653.68819	33220.85
1656.97241	29523.75
1660.25446	25847.35
1663.53433	23166.75
1666.81203	21411.45
1670.08756	20330.95
1673.36092	19670.05
1676.63211	19198.55
1679.90115	18873.35
1683.16801	18606.65
1686.43272	18481.75
1689.69527	18313.95
1692.95567	18248.85
1696.2139	18223.75
1699.46999	18181.65
1702.72392	18137.95
1705.97571	18094.55
1709.22535	18077.95
1712.47284	18025.25
1715.71819	17994.95
1718.96139	17978.45
1722.20246	17911.95
1725.44139	17905.95
1728.67818	17807.85
1731.91284	17720.85
1735.14537	17650.55
1738.37576	17574.35
1741.60403	17546.35
1744.83017	17512.85
1748.05418	17456.15
1751.27607	17424.55
1754.49584	17372.75
1757.71349	17411.65
1760.92903	17390.25
1764.14244	17425.05
1767.35375	17406.15
1770.56294	17388.15
1773.77002	17353.05
1776.97499	17341.65
1780.17785	17308.25
1783.37861	17230.55
1786.57727	17216.05
1789.77382	17186.45
1792.96828	17165.05
1796.16064	17144.05
1799.3509	17125.75
1802.53907	17078.65
1805.72514	17044.65
1808.90913	17024.85
1812.09102	16954.45
1815.27083	16950.15
1818.44856	16920.25
1821.6242	16906.25
1824.79776	16916.45
1827.96924	16906.25
1831.13864	16894.05
1834.30597	16916.05
1837.47122	16888.75
1840.6344	16867.45
1843.7955	16868.75
1846.95454	16860.65
1850.11151	16835.45
1853.26642	16831.95
1856.41926	16850.25
1859.57004	16839.15
1862.71876	16808.25
1865.86542	16783.65
1869.01003	16789.35
1872.15258	16779.35
1875.29308	16746.55
1878.43152	16727.95
1881.56792	16711.75
1884.70227	16690.85
1887.83457	16666.45
1890.96482	16652.65
1894.09304	16630.55
1897.21921	16689.75
1900.34335	16659.05
1903.46544	16599.15
1906.58551	16583.75
1909.70353	16561.35
1912.81953	16526.75
1915.93349	16517.85
1919.04543	16479.05
1922.15534	16445.15
1925.26322	16440.45
1928.36908	16393.05
1931.47292	16368.55
1934.57473	16340.95
1937.67453	16287.45
1940.77232	16248.55
1943.86808	16264.85
1946.96184	16226.65
1950.05358	16181.65
1953.14331	16131.35
1956.23103	16092.15
1959.31675	16075.15
1962.40046	16025.75
1965.48217	15984.75
1968.56188	15945.45
1971.63959	15886.35
1974.7153	15825.65
1977.78901	15784.65
1980.86073	15729.25
1983.93046	15709.35
1986.99819	15691.75
1990.06394	15648.95
1993.1277	15579.25
1996.18947	15505.65
1999.24925	15492.45
2002.30706	15454.65
2005.36288	15397.95
2008.41672	15361.45
2011.46859	15350.95
2014.51848	15297.65
2017.56639	15288.75
2020.61233	15228.85
2023.6563	15204.05
2026.6983	15183.95
2029.73833	15178.85
2032.7764	15168.25
2035.8125	15097.35
2038.84664	15058.85
2041.87881	15059.95
2044.90903	15025.25
2047.93729	14998.55
2050.96359	14982.95
2053.98794	14977.15
2057.01034	14972.35
2060.03078	14980.55
2063.04927	14933.95
2066.06582	14948.75
2069.08042	14935.85
2072.09307	14912.05
2075.10378	14902.25
2078.11255	14891.15
2081.11938	14915.15
2084.12426	14914.45
2087.12722	14900.35
2090.12824	14881.35
2093.12732	14917.25
2096.12447	14916.35
2099.11969	14900.05
2102.11299	14898.85
2105.10435	14925.65
2108.09379	14929.45
2111.08131	14982.75
2114.0669	14970.85
2117.05057	14997.55
2120.03233	14982.05
2123.01216	14968.35
2125.99008	15008.35
2128.96609	14990.55
2131.94018	15045.25
2134.91236	15061.75
2137.88263	15040.95
2140.851	15070.75
2143.81746	15094.65
2146.78201	15083.95
2149.74466	15079.35
2152.7054	15096.85
2155.66425	15114.05
2158.6212	15103.15
2161.57625	15136.25
2164.52941	15128.45
2167.48067	15096.05
2170.43004	15103.05
2173.37752	15091.85
2176.32311	15063.75
2179.26681	15064.55
2182.20863	15088.25
2185.14856	15107.45
2188.08661	15087.85
2191.02278	15105.35
2193.95707	15068.85
2196.88948	15065.55
2199.82001	15043.55
2202.74867	15034.65
2205.67545	15052.85
2208.60037	15042.75
2211.52341	15026.75
2214.44458	15018.05
2217.36388	14986.95
2220.28132	14968.85
2223.1969	14917.75
2226.11061	14936.85
2229.02246	14931.85
2231.93245	14889.35
2234.84058	14846.75
2237.74686	14833.45
2240.65128	14853.05
2243.55385	14797.05
2246.45456	14773.65
2249.35343	14749.25
2252.25044	14756.85
2255.14561	14722.05
2258.03893	14720.35
2260.93041	14683.65
2263.82004	14668.95
2266.70783	14654.65
2269.59378	14603.35
2272.4779	14600.65
2275.36017	14533.55
2278.24061	14505.45
2281.11922	14455.45
2283.996	14459.65
2286.87094	14464.85
2289.74405	14419.65
2292.61534	14407.25
2295.4848	14416.15
2298.35243	14448.55
2301.21824	14415.95
2304.08223	14410.35
2306.94439	14396.65
2309.80474	14387.25
2312.66327	14412.45
2315.51999	14378.45
2318.37489	14372.15
2321.22797	14388.65
2324.07925	14354.45
2326.92871	14356.65
2329.77637	14328.65
2332.62222	14328.35
2335.46626	14295.05
2338.3085	14317.65
2341.14893	14310.95
2343.98756	14285.95
2346.8244	14241.55
2349.65943	14275.35
2352.49267	14261.55
2355.32411	14247.65
2358.15376	14249.45
2360.98161	14216.15
2363.80768	14245.45
2366.63195	14238.35
2369.45444	14210.75
2372.27514	14195.65
2375.09405	14205.75
2377.91118	14156.55
2380.72652	14129.65
2383.54009	14094.45
2386.35187	14078.55
2389.16188	14031.05
2391.97011	14036.05
2394.77657	14028.65
2397.58125	13992.75
2400.38416	13986.95
2403.18529	13950.65
2405.98466	13951.95
2408.78226	13919.05
2411.57809	13917.95
2414.37216	13890.65
2417.16446	13885.85
2419.955	13852.95
2422.74378	13855.35
2425.5308	13816.25
2428.31606	13815.05
2431.09956	13794.85
2433.88131	13790.75
2436.6613	13806.15
2439.43954	13795.25
2442.21603	13786.25
2444.99077	13760.65
2447.76377	13764.45
2450.53501	13754.25
2453.30451	13748.35
2456.07226	13753.25
2458.83827	13733.75
2461.60254	13754.15
2464.36507	13717.55
2467.12586	13705.05
2469.88492	13747.05
2472.64224	13697.95
2475.39782	13719.25
2478.15167	13725.65
2480.90379	13721.25
2483.65417	13736.25
2486.40283	13745.15
2489.14976	13725.15
2491.89497	13725.65
2494.63845	13759.55
2497.3802	13718.35
2500.12024	13731.65
2502.85855	13705.95
2505.59514	13697.75
2508.33002	13669.55
2511.06318	13654.25
2513.79462	13639.65
2516.52435	13656.15
2519.25237	13631.15
2521.97867	13622.55
2524.70327	13592.05
2527.42616	13610.65
2530.14734	13578.25
2532.86681	13567.75
2535.58458	13581.45
2538.30065	13518.75
2541.01501	13549.25
2543.72768	13526.95
2546.43864	13544.75
2549.14791	13489.15
2551.85548	13488.25
2554.56136	13475.85
2557.26554	13447.75
2559.96803	13461.45
2562.66883	13432.95
2565.36794	13447.35
2568.06536	13451.15
2570.7611	13428.75
2573.45514	13425.55
2576.14751	13391.55
2578.83819	13355.35
2581.52719	13379.55
2584.21451	13330.85
2586.90015	13356.45
2589.58411	13319.05
2592.2664	13305.45
2594.94701	13282.25
2597.62594	13279.35
2600.30321	13236.85
2602.9788	13227.45
2605.65273	13209.75
2608.32498	13209.35
2610.99557	13220.65
2613.66449	13216.65
2616.33175	13182.85
2618.99734	13218.35
2621.66128	13142.85
2624.32355	13156.85
2626.98416	13151.95
2629.64311	13168.25
2632.30041	13156.35
2634.95605	13139.35
2637.61004	13103.45
2640.26238	13122.55
2642.91306	13130.35
2645.56209	13099.95
2648.20948	13101.55
2650.85521	13061.05
2653.4993	13068.55
2656.14175	13072.95
2658.78255	13091.55
2661.42171	13086.75
2664.05923	13091.45
2666.6951	13088.05
2669.32934	13108.05
2671.96194	13103.25
2674.59291	13098.05
2677.22224	13087.15
2679.84993	13101.95
2682.476	13067.15
2685.10043	13124.75
2687.72324	13086.65
2690.34441	13101.65
2692.96396	13101.55
2695.58188	13092.55
2698.19818	13073.35
2700.81285	13122.15
2703.4259	13102.45
2706.03733	13178.35
2708.64714	13172.35
2711.25533	13164.75
2713.86191	13165.55
2716.46687	13128.95
2719.07021	13132.55
2721.67194	13148.15
2724.27206	13151.25
2726.87057	13137.65
2729.46747	13138.15
2732.06276	13119.55
2734.65644	13145.85
2737.24852	13145.15
2739.83899	13131.65
2742.42786	13121.45
2745.01513	13100.95
2747.60079	13117.75
2750.18486	13100.55
2752.76733	13112.15
2755.3482	13110.15
2757.92747	13106.05
2760.50515	13091.85
2763.08123	13058.65
2765.65573	13062.95
2768.22863	13041.45
2770.79994	13025.25
2773.36967	13054.25
2775.9378	13014.35
2778.50435	13005.25
2781.06932	12995.55
2783.6327	12981.65
2786.1945	12973.85
2788.75471	12965.65
2791.31335	12930.15
2793.87041	12912.65
2796.42589	12885.05
2798.97979	12907.05
2801.53212	12860.45
2804.08288	12858.15
2806.63206	12824.85
2809.17967	12796.85
2811.72571	12756.65
2814.27018	12762.55
2816.81308	12738.75
2819.35442	12747.55
2821.89419	12716.75
2824.43239	12721.95
2826.96904	12716.75
2829.50412	12726.25
2832.03763	12670.95
2834.56959	12691.55
2837.1	12644.75
2839.62884	12681.85
2842.15613	12645.45
2844.68186	12649.85
2847.20604	12675.35
2849.72867	12666.55
2852.24974	12650.45
2854.76927	12647.15
2857.28724	12648.45
2859.80367	12627.35
2862.31855	12618.85
2864.83189	12584.25
2867.34368	12581.05
2869.85393	12603.75
2872.36264	12584.35
2874.8698	12589.75
2877.37543	12574.15
2879.87952	12598.95
2882.38207	12594.05
2884.88308	12596.95
2887.38256	12596.35
2889.88051	12593.85
2892.37692	12591.15
2894.8718	12576.55
2897.36515	12612.75
2899.85698	12591.05
2902.34727	12620.85
2904.83604	12615.65
2907.32328	12633.25
2909.809	12626.15
2912.29319	12657.45
2914.77587	12657.85
2917.25702	12632.85
2919.73665	12609.05
2922.21476	12624.65
2924.69136	12598.95
2927.16644	12640.55
2929.64	12617.55
2932.11205	12601.95
2934.58258	12564.65
2937.05161	12571.35
2939.51912	12601.05
2941.98513	12593.75
2944.44962	12539.85
2946.91261	12518.55
2949.37409	12553.85
2951.83407	12558.45
2954.29254	12533.15
2956.74951	12508.55
2959.20498	12519.95
2961.65895	12512.05
2964.11142	12537.95
2966.56239	12494.35
2969.01186	12489.05
2971.45984	12442.05
2973.90632	12407.05
2976.35131	12373.95
2978.7948	12363.65
2981.23681	12346.45
2983.67732	12347.85
2986.11635	12359.65
2988.55388	12297.55
2990.98993	12287.55
2993.4245	12255.85
2995.85758	12242.35
2998.28917	12219.85
3000.71928	12179.15
3003.14791	12196.55
3005.57506	12196.15
3008.00073	12179.55
3010.42493	12166.05
3012.84764	12113.75
3015.26888	12100.35
3017.68865	12110.75
3020.10694	12086.45
3022.52376	12055.25
3024.9391	12055.25
3027.35298	12052.35
3029.76539	12074.55
3032.17632	12048.65
3034.5858	12014.85
3036.9938	12023.45
3039.40034	12013.45
3041.80542	11996.15
3044.20903	11969.05
3046.61118	11968.35
3049.01187	11934.25
3051.4111	11928.35
3053.80888	11903.75
3056.20519	11906.55
3058.60005	11866.55
3060.99345	11840.95
3063.3854	11813.55
3065.7759	11791.15
3068.16494	11801.15
3070.55254	11762.75
3072.93868	11771.75
3075.32338	11705.65
3077.70662	11702.65
3080.08842	11667.95
3082.46878	11674.75
3084.84769	11663.65
3087.22515	11675.95
3089.60118	11657.95
3091.97576	11668.25
3094.3489	11664.95
3096.72061	11635.25
3099.09087	11660.25
3101.4597	11659.55
3103.82709	11638.15
3106.19305	11602.25
3108.55757	11619.45
3110.92066	11587.35
3113.28232	11575.45
3115.64255	11525.05
3118.00134	11521.15
3120.35871	11530.15
3122.71466	11527.15
3125.06917	11481.35
3127.42226	11485.35
3129.77393	11505.65
3132.12417	11484.65
3134.47299	11505.85
3136.82039	11487.65
3139.16636	11521.35
3141.51092	11510.35
3143.85406	11515.95
3146.19579	11517.65
3148.53609	11501.35
3150.87499	11498.75
3153.21246	11516.35
3155.54853	11518.65
3157.88318	11490.05
3160.21642	11534.75
3162.54826	11517.85
3164.87868	11524.25
3167.2077	11497.35
3169.5353	11496.95
3171.86151	11503.55
3174.18631	11518.85
3176.5097	11501.45
3178.83169	11477.25
3181.15228	11483.65
3183.47147	11462.65
3185.78926	11477.15
3188.10565	11448.25
3190.42065	11442.05
3192.73424	11442.15
3195.04645	11426.65
3197.35725	11452.45
3199.66667	11444.35
3201.97469	11458.35
3204.28132	11463.95
3206.58656	11480.65
3208.8904	11480.65
3211.19287	11484.45
3213.49394	11466.35
3215.79363	11445.75
3218.09193	11479.55
3220.38884	11477.15
3222.68438	11477.75
3224.97853	11452.65
3227.2713	11440.05
3229.56269	11419.15
3231.8527	11423.95
3234.14133	11403.95
3236.42858	11393.75
3238.71446	11379.15
3240.99896	11338.95
3243.28209	11344.15
3245.56384	11333.05
3247.84423	11332.05
3250.12324	11351.45
3252.40088	11332.85
3254.67715	11333.15
3256.95205	11318.05
3259.22558	11333.35
3261.49775	11302.75
3263.76855	11319.35
3266.03799	11277.65
3268.30606	11278.25
3270.57277	11240.45
3272.83812	11235.65
3275.10211	11193.25
3277.36474	11196.15
3279.62601	11177.75
3281.88593	11167.95
3284.14448	11206.15
3286.40168	11199.35
3288.65753	11164.15
3290.91202	11152.25
3293.16516	11113.15
3295.41695	11105.15
3297.66738	11040.05
3299.91647	10982.85
3302.16421	10923.35
3304.4106	10880.25
3306.65564	10830.55
3308.89933	10766.85
3311.14169	10712.55
3313.38269	10644.75
3315.62236	10574.55
3317.86068	10480.65
3320.09766	10382.75
3322.3333	10312.25
3324.5676	10317.45
3326.80056	10153.45
3329.03219	10115.95
3331.26248	4.25
3333.49143	-0.75
3335.71905	-0.25
