Data from AgNP_FTO_APTES_CRN_200uM_R6G_10uM_NaF_0.1M_Addition_RamanShift__24__19-44-58-189.txt Node

Date: Wed Dec 15 19:44:58 GMT 2021
User: TCL
Spectrometer: QEP01345
Trigger mode: 4
Integration Time (sec): 7.000000E0
Scans to average: 10
Electric dark correction enabled: true
Nonlinearity correction enabled: false
Boxcar width: 0
XAxis mode: Raman Shifts
Number of Pixels in Spectrum: 1044
>>>>>Begin Spectral Data<<<<<
46.04893	0.55
50.45542	-2.05
54.85868	-0.95
59.25871	-0.85
63.6555	62.25
68.04907	68.45
72.43941	68.95
76.82654	71.85
81.21044	77.15
85.59113	77.55
89.96862	81.75
94.34289	81.75
98.71396	86.05
103.08183	90.15
107.4465	95.55
111.80798	96.25
116.16626	99.75
120.52136	103.35
124.87327	101.65
129.222	108.95
133.56755	110.75
137.90993	119.45
142.24913	131.05
146.58517	142.05
150.91804	166.15
155.24774	193.85
159.57429	241.95
163.89768	301.55
168.21792	391.75
172.53501	536.85
176.84895	746.95
181.15975	1045.65
185.46741	1453.45
189.77193	2005.45
194.07331	2682.35
198.37157	3442.05
202.6667	4276.85
206.9587	5083.65
211.24758	5874.95
215.53334	6669.55
219.81599	7487.85
224.09553	8416.35
228.37195	9408.95
232.64527	10538.45
236.91549	11702.45
241.18261	12902.95
245.44663	14032.65
249.70755	15056.25
253.96539	15962.95
258.22014	16745.35
262.4718	17368.05
266.72039	17810.85
270.96589	18060.25
275.20832	18129.15
279.44768	18030.75
283.68397	17848.95
287.91719	17698.75
292.14735	17587.75
296.37445	17573.55
300.59849	17593.15
304.81948	17577.35
309.03742	17516.05
313.25231	17332.45
317.46415	16994.55
321.67296	16593.45
325.87872	16296.15
330.08145	16205.05
334.28114	16225.55
338.47781	16341.35
342.67145	16537.25
346.86207	16820.85
351.04966	17077.55
355.23424	17397.55
359.4158	17687.55
363.59435	17932.75
367.76989	18037.35
371.94243	18144.65
376.11196	18294.75
380.27849	18419.15
384.44203	18542.95
388.60257	18674.65
392.76012	18786.85
396.91468	18981.25
401.06626	19223.55
405.21485	19411.65
409.36047	19368.95
413.50311	19137.55
417.64277	18904.35
421.77947	18826.65
425.9132	18886.85
430.04396	19041.15
434.17176	19238.75
438.2966	19502.95
442.41849	19872.45
446.53742	20351.45
450.6534	20918.15
454.76644	21329.25
458.87653	21457.45
462.98368	21327.75
467.08789	21089.15
471.18916	20915.25
475.2875	20794.95
479.38291	20736.45
483.4754	20644.45
487.56496	20361.55
491.6516	20093.55
495.73531	19814.25
499.81612	19667.15
503.89401	19715.85
507.96899	19755.35
512.04106	19776.65
516.11023	19780.65
520.1765	19795.95
524.23987	19821.75
528.30034	19793.35
532.35792	19674.95
536.41261	19520.85
540.46441	19372.65
544.51333	19334.25
548.55936	19445.75
552.60252	19747.65
556.64279	20159.05
560.6802	20395.75
564.71473	20516.95
568.7464	20761.45
572.7752	20936.05
576.80114	20973.65
580.82422	21035.95
584.84444	21195.05
588.86181	21535.45
592.87633	22147.45
596.888	22598.05
600.89682	22592.15
604.9028	22785.05
608.90594	23937.25
612.90624	25376.05
616.90371	24250.95
620.89834	21252.05
624.89015	19867.95
628.87913	19707.15
632.86528	19814.75
636.84862	19839.75
640.82913	19693.15
644.80683	19333.35
648.78172	19078.55
652.75379	18998.15
656.72306	19111.15
660.68952	19334.65
664.65319	19326.45
668.61405	19076.55
672.57211	18992.35
676.52738	19018.95
680.47986	19057.75
684.42955	19080.55
688.37646	18992.45
692.32058	19019.25
696.26192	19139.35
700.20048	19286.45
704.13626	19385.65
708.06928	19329.05
711.99952	19282.65
715.927	19204.05
719.85171	19199.75
723.77365	19144.85
727.69284	19070.25
731.60928	18976.95
735.52295	18935.65
739.43388	18920.25
743.34206	18989.15
747.24749	18985.05
751.15017	19094.15
755.05012	19259.05
758.94733	19652.55
762.8418	20355.95
766.73354	21442.35
770.62254	22593.65
774.50882	22908.75
778.39237	22163.25
782.27321	20761.95
786.15132	19716.55
790.02671	19051.45
793.89938	18771.45
797.76935	18673.45
801.6366	18628.25
805.50115	18626.15
809.36299	18591.25
813.22213	18556.15
817.07857	18544.85
820.93231	18515.15
824.78336	18507.95
828.63172	18499.85
832.47738	18484.05
836.32036	18518.45
840.16066	18522.25
843.99827	18521.75
847.8332	18469.35
851.66546	18415.85
855.49504	18403.95
859.32195	18415.15
863.1462	18412.05
866.96777	18374.25
870.78668	18333.55
874.60293	18328.85
878.41652	18351.85
882.22745	18376.75
886.03573	18388.05
889.84136	18379.55
893.64433	18320.15
897.44466	18262.45
901.24235	18226.75
905.0374	18176.05
908.8298	18188.05
912.61957	18168.25
916.40671	18289.85
920.19121	18405.55
923.97308	18512.25
927.75233	18543.75
931.52895	18513.75
935.30295	18371.85
939.07433	18189.55
942.84309	17950.15
946.60924	17843.85
950.37278	17744.25
954.13371	17727.15
957.89203	17706.25
961.64774	17715.85
965.40086	17655.95
969.15137	17565.05
972.89929	17517.35
976.64461	17430.85
980.38733	17420.55
984.12747	17486.55
987.86502	17577.15
991.59999	17691.65
995.33237	17893.95
999.06217	18226.85
1002.78939	18537.95
1006.51404	18731.35
1010.23611	18880.65
1013.95561	19031.75
1017.67255	19010.95
1021.38692	18845.75
1025.09872	18690.25
1028.80796	18637.25
1032.51465	18786.35
1036.21877	18986.95
1039.92035	19031.05
1043.61937	18969.55
1047.31584	18859.25
1051.00976	18720.25
1054.70114	18716.65
1058.38998	18770.45
1062.07627	18983.85
1065.76003	19252.35
1069.44126	19552.45
1073.11995	19987.55
1076.79611	20313.35
1080.46974	20290.55
1084.14085	20103.15
1087.80943	19889.15
1091.47549	19701.75
1095.13903	19555.45
1098.80005	19290.05
1102.45857	18985.45
1106.11456	18798.55
1109.76805	18751.55
1113.41903	18821.65
1117.06751	18948.25
1120.71348	19125.55
1124.35696	19320.05
1127.99793	19534.35
1131.63641	19650.95
1135.2724	19506.75
1138.90589	19335.05
1142.5369	19232.95
1146.16542	19165.15
1149.79145	19227.55
1153.415	19318.75
1157.03607	19473.45
1160.65467	19817.95
1164.27079	20350.35
1167.88443	21114.15
1171.49561	22186.35
1175.10432	23589.15
1178.71056	25310.05
1182.31434	26769.15
1185.91565	27236.75
1189.51451	27005.45
1193.11091	26210.65
1196.70485	25280.65
1200.29634	24427.15
1203.88538	23785.85
1207.47197	23310.35
1211.05612	22933.15
1214.63782	22627.65
1218.21708	22438.65
1221.79391	22310.75
1225.36829	22137.25
1228.94024	21920.75
1232.50976	21624.05
1236.07685	21400.95
1239.6415	21344.95
1243.20374	21328.05
1246.76355	21482.75
1250.32093	21713.25
1253.8759	22029.35
1257.42845	22435.85
1260.97859	22777.75
1264.52631	23158.85
1268.07163	23562.75
1271.61453	24014.15
1275.15503	24474.45
1278.69312	24965.95
1282.22882	25432.65
1285.76211	25912.15
1289.29301	26647.45
1292.82151	27559.15
1296.34761	28697.85
1299.87133	29987.75
1303.39266	31382.05
1306.9116	33033.15
1310.42815	34688.25
1313.94233	35814.85
1317.45412	36076.55
1320.96354	35596.65
1324.47058	34865.95
1327.97525	34112.55
1331.47754	33522.45
1334.97747	33246.95
1338.47502	33235.45
1341.97022	33166.55
1345.46305	32810.95
1348.95352	32336.15
1352.44163	32298.95
1355.92738	32825.85
1359.41078	34138.75
1362.89183	35467.95
1366.37053	35174.05
1369.84688	32783.05
1373.32088	29765.85
1376.79254	27646.15
1380.26186	26777.05
1383.72883	26625.25
1387.19347	26627.65
1390.65578	26500.65
1394.11575	26575.05
1397.57339	26967.05
1401.0287	27548.25
1404.48168	28101.95
1407.93234	28343.95
1411.38068	28118.15
1414.82669	27460.85
1418.27039	26461.95
1421.71177	25338.15
1425.15083	24418.95
1428.58758	23860.05
1432.02203	23809.45
1435.45416	24133.35
1438.88399	24604.45
1442.31151	25029.45
1445.73673	25400.55
1449.15965	25776.35
1452.58027	26080.45
1455.9986	26251.05
1459.41463	26409.65
1462.82837	26746.35
1466.23982	27185.25
1469.64898	27605.85
1473.05586	27814.75
1476.46045	27829.35
1479.86276	27688.55
1483.26279	27381.45
1486.66054	27217.35
1490.05602	27228.55
1493.44922	27227.35
1496.84016	27207.95
1500.22882	27362.15
1503.61521	27853.55
1506.99934	28585.05
1510.38121	29380.95
1513.76081	29717.75
1517.13816	29195.65
1520.51324	28114.85
1523.88607	27108.05
1527.25665	26517.15
1530.62498	26277.85
1533.99105	26244.45
1537.35488	26231.45
1540.71647	26127.45
1544.07581	25887.55
1547.4329	25533.65
1550.78776	25259.85
1554.14038	24933.05
1557.49077	24865.55
1560.83892	24802.65
1564.18484	24843.05
1567.52853	25086.45
1570.86999	25429.75
1574.20922	26068.95
1577.54624	26727.15
1580.88103	27028.65
1584.2136	27066.55
1587.54395	27117.55
1590.87208	27591.45
1594.19801	28547.15
1597.52172	29689.75
1600.84321	30195.65
1604.16251	29411.85
1607.47959	27564.05
1610.79447	25527.35
1614.10715	23548.55
1617.41763	22085.75
1620.7259	21115.55
1624.03199	20647.85
1627.33587	20573.05
1630.63757	20995.85
1633.93707	21851.15
1637.23439	23377.85
1640.52951	25454.95
1643.82246	27935.95
1647.11321	29983.05
1650.40179	30561.55
1653.68819	29068.25
1656.97241	26169.55
1660.25446	23193.25
1663.53433	20870.95
1666.81203	19362.55
1670.08756	18406.55
1673.36092	17789.55
1676.63211	17391.05
1679.90115	17104.45
1683.16801	16923.55
1686.43272	16755.15
1689.69527	16625.35
1692.95567	16525.75
1696.2139	16483.15
1699.46999	16457.45
1702.72392	16448.75
1705.97571	16408.35
1709.22535	16338.05
1712.47284	16305.75
1715.71819	16268.25
1718.96139	16245.35
1722.20246	16187.45
1725.44139	16149.15
1728.67818	16059.95
1731.91284	15970.75
1735.14537	15929.75
1738.37576	15886.45
1741.60403	15868.45
1744.83017	15837.65
1748.05418	15800.45
1751.27607	15775.75
1754.49584	15760.75
1757.71349	15756.75
1760.92903	15743.95
1764.14244	15722.55
1767.35375	15728.75
1770.56294	15708.15
1773.77002	15665.55
1776.97499	15659.05
1780.17785	15632.05
1783.37861	15613.95
1786.57727	15569.45
1789.77382	15548.85
1792.96828	15535.95
1796.16064	15513.35
1799.3509	15483.65
1802.53907	15476.75
1805.72514	15412.65
1808.90913	15369.45
1812.09102	15370.15
1815.27083	15332.35
1818.44856	15308.25
1821.6242	15282.55
1824.79776	15253.65
1827.96924	15260.75
1831.13864	15231.65
1834.30597	15234.85
1837.47122	15227.55
1840.6344	15222.55
1843.7955	15235.15
1846.95454	15195.45
1850.11151	15187.95
1853.26642	15208.25
1856.41926	15198.65
1859.57004	15190.65
1862.71876	15184.15
1865.86542	15170.15
1869.01003	15167.65
1872.15258	15161.15
1875.29308	15167.45
1878.43152	15103.25
1881.56792	15096.95
1884.70227	15124.95
1887.83457	15113.25
1890.96482	15098.85
1894.09304	15099.25
1897.21921	15104.45
1900.34335	15079.15
1903.46544	15077.45
1906.58551	15054.75
1909.70353	15031.65
1912.81953	15022.55
1915.93349	14997.55
1919.04543	14979.75
1922.15534	14931.75
1925.26322	14929.55
1928.36908	14930.45
1931.47292	14908.35
1934.57473	14873.95
1937.67453	14855.05
1940.77232	14780.45
1943.86808	14765.05
1946.96184	14717.95
1950.05358	14678.55
1953.14331	14642.85
1956.23103	14566.75
1959.31675	14552.05
1962.40046	14504.65
1965.48217	14472.75
1968.56188	14434.15
1971.63959	14385.35
1974.7153	14327.05
1977.78901	14300.35
1980.86073	14245.35
1983.93046	14205.05
1986.99819	14176.55
1990.06394	14126.35
1993.1277	14103.95
1996.18947	14033.05
1999.24925	14026.65
2002.30706	13972.45
2005.36288	13946.95
2008.41672	13917.55
2011.46859	13867.55
2014.51848	13833.95
2017.56639	13792.65
2020.61233	13797.55
2023.6563	13758.65
2026.6983	13703.25
2029.73833	13690.95
2032.7764	13671.35
2035.8125	13644.25
2038.84664	13630.45
2041.87881	13602.25
2044.90903	13591.45
2047.93729	13565.45
2050.96359	13547.25
2053.98794	13538.85
2057.01034	13503.05
2060.03078	13501.25
2063.04927	13497.05
2066.06582	13485.55
2069.08042	13469.55
2072.09307	13457.35
2075.10378	13408.85
2078.11255	13440.35
2081.11938	13423.45
2084.12426	13441.55
2087.12722	13445.15
2090.12824	13432.25
2093.12732	13436.25
2096.12447	13425.15
2099.11969	13437.05
2102.11299	13439.55
2105.10435	13429.85
2108.09379	13444.95
2111.08131	13430.05
2114.0669	13456.35
2117.05057	13466.75
2120.03233	13448.95
2123.01216	13469.35
2125.99008	13503.35
2128.96609	13508.65
2131.94018	13511.35
2134.91236	13508.95
2137.88263	13530.35
2140.851	13549.15
2143.81746	13554.35
2146.78201	13561.85
2149.74466	13549.15
2152.7054	13533.95
2155.66425	13553.35
2158.6212	13563.55
2161.57625	13563.85
2164.52941	13577.95
2167.48067	13533.75
2170.43004	13525.45
2173.37752	13549.05
2176.32311	13554.55
2179.26681	13537.65
2182.20863	13543.95
2185.14856	13523.55
2188.08661	13512.55
2191.02278	13538.25
2193.95707	13516.35
2196.88948	13517.45
2199.82001	13485.95
2202.74867	13483.25
2205.67545	13483.05
2208.60037	13499.25
2211.52341	13483.85
2214.44458	13447.75
2217.36388	13413.45
2220.28132	13404.05
2223.1969	13351.65
2226.11061	13335.25
2229.02246	13313.45
2231.93245	13276.95
2234.84058	13278.55
2237.74686	13248.85
2240.65128	13276.85
2243.55385	13234.05
2246.45456	13202.65
2249.35343	13193.75
2252.25044	13175.95
2255.14561	13158.25
2258.03893	13140.65
2260.93041	13100.25
2263.82004	13062.65
2266.70783	13081.45
2269.59378	13027.35
2272.4779	13018.25
2275.36017	12969.15
2278.24061	12950.45
2281.11922	12902.55
2283.996	12877.05
2286.87094	12875.75
2289.74405	12853.75
2292.61534	12840.85
2295.4848	12806.75
2298.35243	12838.15
2301.21824	12815.85
2304.08223	12804.55
2306.94439	12793.85
2309.80474	12820.55
2312.66327	12810.05
2315.51999	12812.85
2318.37489	12796.15
2321.22797	12778.75
2324.07925	12781.35
2326.92871	12750.95
2329.77637	12751.45
2332.62222	12715.65
2335.46626	12687.45
2338.3085	12696.95
2341.14893	12683.55
2343.98756	12666.25
2346.8244	12671.65
2349.65943	12666.45
2352.49267	12659.95
2355.32411	12650.35
2358.15376	12630.35
2360.98161	12618.15
2363.80768	12622.55
2366.63195	12616.65
2369.45444	12624.15
2372.27514	12600.95
2375.09405	12597.25
2377.91118	12563.15
2380.72652	12526.45
2383.54009	12495.15
2386.35187	12490.65
2389.16188	12435.95
2391.97011	12423.75
2394.77657	12394.35
2397.58125	12375.95
2400.38416	12370.65
2403.18529	12344.35
2405.98466	12349.25
2408.78226	12332.05
2411.57809	12311.35
2414.37216	12272.65
2417.16446	12267.95
2419.955	12263.75
2422.74378	12232.55
2425.5308	12223.85
2428.31606	12210.25
2431.09956	12177.05
2433.88131	12174.95
2436.6613	12186.25
2439.43954	12174.55
2442.21603	12185.55
2444.99077	12166.75
2447.76377	12181.95
2450.53501	12141.05
2453.30451	12146.05
2456.07226	12118.45
2458.83827	12099.65
2461.60254	12119.25
2464.36507	12097.25
2467.12586	12115.05
2469.88492	12089.05
2472.64224	12093.85
2475.39782	12077.25
2478.15167	12099.15
2480.90379	12097.35
2483.65417	12099.75
2486.40283	12092.95
2489.14976	12101.95
2491.89497	12100.65
2494.63845	12114.15
2497.3802	12075.45
2500.12024	12060.55
2502.85855	12066.25
2505.59514	12063.95
2508.33002	12037.85
2511.06318	12020.65
2513.79462	12049.05
2516.52435	12005.75
2519.25237	11986.45
2521.97867	11985.25
2524.70327	11990.65
2527.42616	11950.55
2530.14734	11942.55
2532.86681	11905.55
2535.58458	11935.45
2538.30065	11913.45
2541.01501	11921.55
2543.72768	11897.85
2546.43864	11890.35
2549.14791	11860.35
2551.85548	11834.05
2554.56136	11811.05
2557.26554	11775.75
2559.96803	11771.75
2562.66883	11764.75
2565.36794	11774.05
2568.06536	11767.75
2570.7611	11788.15
2573.45514	11750.95
2576.14751	11736.15
2578.83819	11727.45
2581.52719	11736.05
2584.21451	11695.85
2586.90015	11720.85
2589.58411	11672.15
2592.2664	11662.15
2594.94701	11634.95
2597.62594	11641.45
2600.30321	11633.95
2602.9788	11616.95
2605.65273	11581.25
2608.32498	11563.55
2610.99557	11569.05
2613.66449	11577.35
2616.33175	11549.75
2618.99734	11516.95
2621.66128	11534.95
2624.32355	11519.35
2626.98416	11534.65
2629.64311	11527.05
2632.30041	11519.45
2634.95605	11506.15
2637.61004	11487.45
2640.26238	11482.15
2642.91306	11482.55
2645.56209	11469.55
2648.20948	11469.25
2650.85521	11467.25
2653.4993	11461.45
2656.14175	11468.05
2658.78255	11456.25
2661.42171	11446.75
2664.05923	11471.95
2666.6951	11458.75
2669.32934	11488.05
2671.96194	11454.75
2674.59291	11479.65
2677.22224	11458.15
2679.84993	11478.75
2682.476	11440.55
2685.10043	11453.05
2687.72324	11442.85
2690.34441	11429.75
2692.96396	11433.65
2695.58188	11442.35
2698.19818	11424.35
2700.81285	11463.35
2703.4259	11459.75
2706.03733	11541.95
2708.64714	11517.25
2711.25533	11508.35
2713.86191	11484.65
2716.46687	11506.05
2719.07021	11474.75
2721.67194	11471.15
2724.27206	11456.55
2726.87057	11483.35
2729.46747	11496.65
2732.06276	11483.45
2734.65644	11482.65
2737.24852	11473.35
2739.83899	11447.75
2742.42786	11448.55
2745.01513	11424.75
2747.60079	11430.95
2750.18486	11424.35
2752.76733	11423.65
2755.3482	11432.65
2757.92747	11423.25
2760.50515	11427.85
2763.08123	11403.95
2765.65573	11407.85
2768.22863	11392.75
2770.79994	11386.45
2773.36967	11374.35
2775.9378	11358.85
2778.50435	11358.65
2781.06932	11327.25
2783.6327	11352.15
2786.1945	11345.55
2788.75471	11328.85
2791.31335	11300.85
2793.87041	11294.65
2796.42589	11243.95
2798.97979	11260.35
2801.53212	11227.75
2804.08288	11202.95
2806.63206	11181.85
2809.17967	11168.25
2811.72571	11156.15
2814.27018	11131.85
2816.81308	11110.55
2819.35442	11150.55
2821.89419	11075.75
2824.43239	11067.85
2826.96904	11079.25
2829.50412	11066.95
2832.03763	11043.55
2834.56959	11041.95
2837.1	11035.75
2839.62884	11043.35
2842.15613	11045.65
2844.68186	11047.25
2847.20604	11030.95
2849.72867	11048.55
2852.24974	11024.45
2854.76927	11004.85
2857.28724	11007.95
2859.80367	10989.95
2862.31855	10987.75
2864.83189	10954.15
2867.34368	10951.85
2869.85393	10931.35
2872.36264	10936.25
2874.8698	10942.05
2877.37543	10959.75
2879.87952	10967.55
2882.38207	10952.65
2884.88308	10957.35
2887.38256	10963.25
2889.88051	10979.85
2892.37692	10941.45
2894.8718	10958.05
2897.36515	10963.55
2899.85698	10969.25
2902.34727	10974.15
2904.83604	11002.35
2907.32328	10994.05
2909.809	11009.25
2912.29319	11004.75
2914.77587	11000.75
2917.25702	10986.35
2919.73665	10984.55
2922.21476	11036.85
2924.69136	10981.15
2927.16644	10984.85
2929.64	10978.35
2932.11205	10962.75
2934.58258	10932.15
2937.05161	10956.15
2939.51912	10940.95
2941.98513	10942.25
2944.44962	10910.75
2946.91261	10871.05
2949.37409	10890.75
2951.83407	10891.05
2954.29254	10877.85
2956.74951	10848.75
2959.20498	10852.25
2961.65895	10800.55
2964.11142	10827.15
2966.56239	10787.55
2969.01186	10776.55
2971.45984	10745.55
2973.90632	10736.45
2976.35131	10704.15
2978.7948	10680.85
2981.23681	10637.85
2983.67732	10658.45
2986.11635	10608.75
2988.55388	10581.65
2990.98993	10590.45
2993.4245	10538.05
2995.85758	10555.95
2998.28917	10508.35
3000.71928	10492.25
3003.14791	10485.65
3005.57506	10478.05
3008.00073	10452.25
3010.42493	10449.15
3012.84764	10408.15
3015.26888	10401.75
3017.68865	10404.45
3020.10694	10411.15
3022.52376	10356.25
3024.9391	10348.55
3027.35298	10329.85
3029.76539	10321.05
3032.17632	10312.85
3034.5858	10290.45
3036.9938	10294.35
3039.40034	10287.15
3041.80542	10275.55
3044.20903	10250.05
3046.61118	10272.95
3049.01187	10256.95
3051.4111	10231.75
3053.80888	10209.95
3056.20519	10189.55
3058.60005	10152.75
3060.99345	10155.05
3063.3854	10129.15
3065.7759	10105.55
3068.16494	10090.25
3070.55254	10050.45
3072.93868	10067.85
3075.32338	10017.75
3077.70662	9993.35
3080.08842	9979.55
3082.46878	9975.45
3084.84769	9946.95
3087.22515	9967.85
3089.60118	9955.35
3091.97576	9951.95
3094.3489	9959.35
3096.72061	9988.35
3099.09087	9959.25
3101.4597	9932.85
3103.82709	9956.75
3106.19305	9924.65
3108.55757	9934.65
3110.92066	9883.85
3113.28232	9898.15
3115.64255	9870.85
3118.00134	9845.45
3120.35871	9843.15
3122.71466	9818.65
3125.06917	9799.45
3127.42226	9798.85
3129.77393	9788.35
3132.12417	9775.15
3134.47299	9789.25
3136.82039	9796.05
3139.16636	9806.25
3141.51092	9774.85
3143.85406	9786.25
3146.19579	9774.45
3148.53609	9796.75
3150.87499	9782.15
3153.21246	9781.25
3155.54853	9790.55
3157.88318	9803.85
3160.21642	9826.35
3162.54826	9784.05
3164.87868	9813.45
3167.2077	9815.15
3169.5353	9803.05
3171.86151	9782.55
3174.18631	9789.15
3176.5097	9808.65
3178.83169	9777.75
3181.15228	9773.35
3183.47147	9760.65
3185.78926	9759.45
3188.10565	9757.55
3190.42065	9771.25
3192.73424	9764.55
3195.04645	9761.95
3197.35725	9766.85
3199.66667	9758.75
3201.97469	9770.15
3204.28132	9737.85
3206.58656	9770.25
3208.8904	9753.85
3211.19287	9773.05
3213.49394	9744.85
3215.79363	9758.05
3218.09193	9772.25
3220.38884	9775.05
3222.68438	9773.65
3224.97853	9754.15
3227.2713	9745.35
3229.56269	9732.45
3231.8527	9737.75
3234.14133	9754.25
3236.42858	9713.45
3238.71446	9688.05
3240.99896	9669.35
3243.28209	9675.95
3245.56384	9689.65
3247.84423	9675.95
3250.12324	9666.55
3252.40088	9682.05
3254.67715	9666.75
3256.95205	9641.15
3259.22558	9646.85
3261.49775	9620.55
3263.76855	9615.85
3266.03799	9584.05
3268.30606	9562.55
3270.57277	9547.85
3272.83812	9545.75
3275.10211	9529.65
3277.36474	9490.35
3279.62601	9502.95
3281.88593	9509.75
3284.14448	9538.15
3286.40168	9495.25
3288.65753	9497.95
3290.91202	9482.35
3293.16516	9458.25
3295.41695	9426.85
3297.66738	9368.95
3299.91647	9322.45
3302.16421	9277.35
3304.4106	9240.25
3306.65564	9203.85
3308.89933	9110.15
3311.14169	9106.55
3313.38269	9036.85
3315.62236	8963.45
3317.86068	8896.05
3320.09766	8815.45
3322.3333	8758.05
3324.5676	8748.25
3326.80056	8602.45
3329.03219	8567.35
3331.26248	3.35
3333.49143	-0.25
3335.71905	-0.35
