Data from AgNP_FTO_APTES_UA_10uM_CRN_100uM_R6G_10uM_NaF_0.1M_Addition_RamanShift__5__17-30-20-838.txt Node

Date: Thu Feb 10 17:30:20 GMT 2022
User: TCL
Spectrometer: QEP01345
Trigger mode: 4
Integration Time (sec): 7.000000E0
Scans to average: 10
Electric dark correction enabled: true
Nonlinearity correction enabled: false
Boxcar width: 0
XAxis mode: Raman Shifts
Number of Pixels in Spectrum: 1044
>>>>>Begin Spectral Data<<<<<
46.04893	0.35
50.45542	-0.85
54.85868	-1.15
59.25871	-0.35
63.6555	62.25
68.04907	62.35
72.43941	65.55
76.82654	63.75
81.21044	71.15
85.59113	69.15
89.96862	75.05
94.34289	77.25
98.71396	76.85
103.08183	81.15
107.4465	86.05
111.80798	82.15
116.16626	91.55
120.52136	90.75
124.87327	95.75
129.222	97.65
133.56755	107.25
137.90993	111.65
142.24913	121.45
146.58517	136.25
150.91804	154.15
155.24774	184.95
159.57429	225.15
163.89768	281.35
168.21792	375.55
172.53501	518.15
176.84895	706.35
181.15975	991.25
185.46741	1395.35
189.77193	1932.25
194.07331	2595.55
198.37157	3343.75
202.6667	4121.15
206.9587	4896.05
211.24758	5680.25
215.53334	6414.85
219.81599	7215.65
224.09553	8070.25
228.37195	9028.95
232.64527	10053.35
236.91549	11195.35
241.18261	12321.25
245.44663	13450.75
249.70755	14454.65
253.96539	15347.65
258.22014	16114.75
262.4718	16762.95
266.72039	17209.75
270.96589	17418.55
275.20832	17479.05
279.44768	17437.55
283.68397	17301.35
287.91719	17178.05
292.14735	17048.05
296.37445	17006.35
300.59849	17024.25
304.81948	17027.45
309.03742	17000.65
313.25231	16816.45
317.46415	16595.65
321.67296	16265.45
325.87872	16026.05
330.08145	15899.55
334.28114	15912.45
338.47781	16031.25
342.67145	16219.75
346.86207	16405.05
351.04966	16606.35
355.23424	16816.15
359.4158	17068.85
363.59435	17241.45
367.76989	17372.85
371.94243	17481.25
376.11196	17602.95
380.27849	17674.05
384.44203	17799.75
388.60257	17950.85
392.76012	18105.75
396.91468	18343.95
401.06626	18551.85
405.21485	18725.95
409.36047	18687.65
413.50311	18590.05
417.64277	18493.25
421.77947	18530.45
425.9132	18644.95
430.04396	18771.15
434.17176	18871.35
438.2966	18940.25
442.41849	19130.85
446.53742	19482.55
450.6534	19848.05
454.76644	20173.45
458.87653	20281.15
462.98368	20290.45
467.08789	20177.55
471.18916	20048.05
475.2875	19926.65
479.38291	19877.85
483.4754	19805.45
487.56496	19574.85
491.6516	19297.65
495.73531	19067.65
499.81612	18945.35
503.89401	18982.95
507.96899	19102.85
512.04106	19127.05
516.11023	19057.95
520.1765	18911.75
524.23987	18758.95
528.30034	18617.35
532.35792	18487.35
536.41261	18391.15
540.46441	18254.45
544.51333	18358.95
548.55936	18534.05
552.60252	18826.35
556.64279	19121.05
560.6802	19365.55
564.71473	19503.65
568.7464	19731.75
572.7752	20179.65
576.80114	20689.25
580.82422	21169.75
584.84444	21633.55
588.86181	22175.05
592.87633	22609.85
596.888	22364.75
600.89682	21754.45
604.9028	21571.55
608.90594	22297.65
612.90624	23138.95
616.90371	22020.75
620.89834	19766.65
624.89015	18798.55
628.87913	18735.55
632.86528	18837.85
636.84862	18902.15
640.82913	18713.95
644.80683	18431.15
648.78172	18265.55
652.75379	18297.25
656.72306	18378.55
660.68952	18545.95
664.65319	18417.05
668.61405	18301.05
672.57211	18288.15
676.52738	18352.15
680.47986	18370.45
684.42955	18302.15
688.37646	18235.35
692.32058	18325.75
696.26192	18496.85
700.20048	18668.15
704.13626	18780.75
708.06928	18822.45
711.99952	18779.05
715.927	18776.85
719.85171	18752.35
723.77365	18696.65
727.69284	18517.95
731.60928	18383.95
735.52295	18295.65
739.43388	18291.95
743.34206	18313.65
747.24749	18379.35
751.15017	18517.05
755.05012	18784.75
758.94733	19144.85
762.8418	19749.85
766.73354	20614.15
770.62254	21367.15
774.50882	21478.55
778.39237	20812.15
782.27321	19858.65
786.15132	19059.95
790.02671	18581.45
793.89938	18344.75
797.76935	18231.95
801.6366	18197.25
805.50115	18150.65
809.36299	18068.85
813.22213	18008.05
817.07857	17984.65
820.93231	17953.35
824.78336	17911.35
828.63172	17859.05
832.47738	17812.95
836.32036	17797.65
840.16066	17789.45
843.99827	17798.25
847.8332	17835.05
851.66546	17816.85
855.49504	17792.25
859.32195	17845.45
863.1462	17816.25
866.96777	17814.45
870.78668	17786.35
874.60293	17786.65
878.41652	17810.85
882.22745	17835.25
886.03573	17821.85
889.84136	17837.85
893.64433	17793.15
897.44466	17775.85
901.24235	17728.75
905.0374	17679.05
908.8298	17705.25
912.61957	17759.65
916.40671	17889.95
920.19121	18054.75
923.97308	18133.75
927.75233	18066.95
931.52895	17913.25
935.30295	17733.25
939.07433	17525.95
942.84309	17326.85
946.60924	17282.95
950.37278	17257.05
954.13371	17224.15
957.89203	17244.35
961.64774	17217.25
965.40086	17210.15
969.15137	17169.75
972.89929	17052.95
976.64461	17060.45
980.38733	17003.35
984.12747	17056.65
987.86502	17112.85
991.59999	17142.85
995.33237	17186.25
999.06217	17391.95
1002.78939	17564.85
1006.51404	17745.45
1010.23611	17941.55
1013.95561	18119.45
1017.67255	18154.25
1021.38692	18058.05
1025.09872	17876.45
1028.80796	17763.05
1032.51465	17751.25
1036.21877	17750.45
1039.92035	17818.85
1043.61937	17852.95
1047.31584	17862.25
1051.00976	17884.45
1054.70114	17935.15
1058.38998	18032.65
1062.07627	18204.95
1065.76003	18347.85
1069.44126	18530.65
1073.11995	18678.25
1076.79611	18882.85
1080.46974	18923.85
1084.14085	18973.05
1087.80943	19089.35
1091.47549	19193.95
1095.13903	19232.25
1098.80005	19098.55
1102.45857	18803.95
1106.11456	18571.45
1109.76805	18428.55
1113.41903	18415.35
1117.06751	18436.85
1120.71348	18524.55
1124.35696	18677.75
1127.99793	18857.55
1131.63641	18970.95
1135.2724	18942.15
1138.90589	18872.65
1142.5369	18923.35
1146.16542	19049.95
1149.79145	19194.85
1153.415	19336.75
1157.03607	19524.65
1160.65467	19937.25
1164.27079	20593.75
1167.88443	21432.55
1171.49561	22176.45
1175.10432	23087.45
1178.71056	24208.85
1182.31434	25254.15
1185.91565	25809.15
1189.51451	25844.05
1193.11091	25506.45
1196.70485	24940.55
1200.29634	24328.65
1203.88538	23888.55
1207.47197	23747.15
1211.05612	23559.35
1214.63782	23171.45
1218.21708	22601.25
1221.79391	21966.95
1225.36829	21491.75
1228.94024	21229.05
1232.50976	21026.65
1236.07685	20914.35
1239.6415	20897.95
1243.20374	20972.25
1246.76355	21095.05
1250.32093	21295.85
1253.8759	21595.05
1257.42845	22023.55
1260.97859	22418.45
1264.52631	22861.55
1268.07163	23283.75
1271.61453	23723.65
1275.15503	24171.15
1278.69312	24676.55
1282.22882	25266.75
1285.76211	25901.35
1289.29301	26729.05
1292.82151	27808.65
1296.34761	29050.25
1299.87133	30413.15
1303.39266	31678.25
1306.9116	32716.85
1310.42815	33390.45
1313.94233	33714.85
1317.45412	33579.65
1320.96354	33321.75
1324.47058	33174.05
1327.97525	33102.55
1331.47754	32944.45
1334.97747	32895.35
1338.47502	32764.95
1341.97022	32530.05
1345.46305	32205.65
1348.95352	31886.15
1352.44163	31766.95
1355.92738	31881.45
1359.41078	32480.55
1362.89183	32905.75
1366.37053	32267.15
1369.84688	30371.15
1373.32088	27968.55
1376.79254	26367.95
1380.26186	25807.65
1383.72883	25937.85
1387.19347	26077.85
1390.65578	25958.05
1394.11575	25876.95
1397.57339	26016.45
1401.0287	26307.05
1404.48168	26453.15
1407.93234	26318.95
1411.38068	25784.75
1414.82669	24958.95
1418.27039	24085.15
1421.71177	23225.25
1425.15083	22558.15
1428.58758	22200.15
1432.02203	22374.25
1435.45416	22782.55
1438.88399	23373.85
1442.31151	23770.05
1445.73673	24089.85
1449.15965	24279.25
1452.58027	24374.35
1455.9986	24391.15
1459.41463	24541.75
1462.82837	24817.15
1466.23982	25099.15
1469.64898	25418.25
1473.05586	25581.95
1476.46045	25581.65
1479.86276	25464.45
1483.26279	25207.95
1486.66054	25048.45
1490.05602	25092.95
1493.44922	25255.05
1496.84016	25507.15
1500.22882	25912.15
1503.61521	26586.85
1506.99934	27237.45
1510.38121	27761.45
1513.76081	27870.15
1517.13816	27602.85
1520.51324	27124.75
1523.88607	26830.65
1527.25665	26783.05
1530.62498	26849.15
1533.99105	26766.35
1537.35488	26407.25
1540.71647	25927.55
1544.07581	25272.35
1547.4329	24645.15
1550.78776	24113.15
1554.14038	23732.55
1557.49077	23526.95
1560.83892	23409.05
1564.18484	23378.15
1567.52853	23463.05
1570.86999	23644.75
1574.20922	24043.95
1577.54624	24452.75
1580.88103	24737.15
1584.2136	24941.25
1587.54395	25444.85
1590.87208	26288.45
1594.19801	27345.95
1597.52172	28207.15
1600.84321	28291.95
1604.16251	27213.25
1607.47959	25589.95
1610.79447	23964.05
1614.10715	22428.25
1617.41763	21149.85
1620.7259	20347.15
1624.03199	19865.45
1627.33587	19889.25
1630.63757	20267.15
1633.93707	21238.25
1637.23439	22849.85
1640.52951	25110.75
1643.82246	27811.95
1647.11321	29825.85
1650.40179	30099.15
1653.68819	28295.35
1656.97241	25279.95
1660.25446	22313.15
1663.53433	20123.45
1666.81203	18659.15
1670.08756	17708.25
1673.36092	17128.35
1676.63211	16693.05
1679.90115	16461.25
1683.16801	16241.95
1686.43272	16098.25
1689.69527	15983.65
1692.95567	15873.05
1696.2139	15808.85
1699.46999	15786.05
1702.72392	15751.15
1705.97571	15682.75
1709.22535	15645.85
1712.47284	15609.35
1715.71819	15597.85
1718.96139	15554.95
1722.20246	15530.85
1725.44139	15468.15
1728.67818	15383.25
1731.91284	15299.25
1735.14537	15235.65
1738.37576	15189.45
1741.60403	15147.95
1744.83017	15085.65
1748.05418	15075.65
1751.27607	15065.15
1754.49584	15024.75
1757.71349	15039.55
1760.92903	14993.85
1764.14244	15006.55
1767.35375	14965.25
1770.56294	14949.95
1773.77002	14925.65
1776.97499	14878.85
1780.17785	14870.15
1783.37861	14841.75
1786.57727	14794.55
1789.77382	14806.15
1792.96828	14764.35
1796.16064	14702.25
1799.3509	14659.25
1802.53907	14667.05
1805.72514	14613.15
1808.90913	14600.75
1812.09102	14565.85
1815.27083	14522.65
1818.44856	14531.35
1821.6242	14503.15
1824.79776	14459.15
1827.96924	14441.25
1831.13864	14453.45
1834.30597	14432.45
1837.47122	14451.85
1840.6344	14398.45
1843.7955	14404.55
1846.95454	14379.65
1850.11151	14360.35
1853.26642	14380.85
1856.41926	14347.65
1859.57004	14341.75
1862.71876	14340.85
1865.86542	14309.25
1869.01003	14277.45
1872.15258	14293.65
1875.29308	14276.55
1878.43152	14230.85
1881.56792	14211.75
1884.70227	14203.15
1887.83457	14190.35
1890.96482	14143.85
1894.09304	14131.95
1897.21921	14103.85
1900.34335	14077.35
1903.46544	14068.75
1906.58551	14068.55
1909.70353	14036.05
1912.81953	14009.75
1915.93349	14035.45
1919.04543	13974.55
1922.15534	13927.05
1925.26322	13892.75
1928.36908	13904.25
1931.47292	13892.25
1934.57473	13837.95
1937.67453	13808.25
1940.77232	13805.65
1943.86808	13723.05
1946.96184	13685.25
1950.05358	13662.25
1953.14331	13634.75
1956.23103	13599.05
1959.31675	13539.45
1962.40046	13512.75
1965.48217	13445.45
1968.56188	13397.85
1971.63959	13373.45
1974.7153	13338.85
1977.78901	13294.75
1980.86073	13261.85
1983.93046	13224.35
1986.99819	13183.65
1990.06394	13175.65
1993.1277	13104.95
1996.18947	13090.65
1999.24925	13030.95
2002.30706	13004.95
2005.36288	12967.45
2008.41672	12907.45
2011.46859	12876.75
2014.51848	12881.75
2017.56639	12813.65
2020.61233	12795.75
2023.6563	12748.65
2026.6983	12748.75
2029.73833	12654.85
2032.7764	12672.35
2035.8125	12640.65
2038.84664	12594.95
2041.87881	12568.25
2044.90903	12534.65
2047.93729	12501.55
2050.96359	12489.55
2053.98794	12486.35
2057.01034	12479.85
2060.03078	12475.45
2063.04927	12444.35
2066.06582	12432.75
2069.08042	12445.55
2072.09307	12431.65
2075.10378	12416.55
2078.11255	12385.05
2081.11938	12368.95
2084.12426	12354.05
2087.12722	12342.05
2090.12824	12334.85
2093.12732	12347.55
2096.12447	12359.65
2099.11969	12353.15
2102.11299	12345.55
2105.10435	12356.65
2108.09379	12379.45
2111.08131	12381.55
2114.0669	12388.75
2117.05057	12381.75
2120.03233	12402.65
2123.01216	12418.45
2125.99008	12389.85
2128.96609	12402.65
2131.94018	12420.55
2134.91236	12416.15
2137.88263	12406.85
2140.851	12458.05
2143.81746	12432.95
2146.78201	12429.55
2149.74466	12450.15
2152.7054	12411.45
2155.66425	12438.55
2158.6212	12448.75
2161.57625	12448.25
2164.52941	12409.15
2167.48067	12396.75
2170.43004	12406.45
2173.37752	12399.65
2176.32311	12374.35
2179.26681	12404.75
2182.20863	12403.55
2185.14856	12376.55
2188.08661	12356.45
2191.02278	12351.95
2193.95707	12370.05
2196.88948	12376.55
2199.82001	12349.65
2202.74867	12317.65
2205.67545	12298.45
2208.60037	12309.45
2211.52341	12277.45
2214.44458	12254.15
2217.36388	12245.55
2220.28132	12216.75
2223.1969	12191.15
2226.11061	12188.75
2229.02246	12139.95
2231.93245	12092.55
2234.84058	12116.15
2237.74686	12117.65
2240.65128	12087.85
2243.55385	12062.35
2246.45456	12038.45
2249.35343	12023.35
2252.25044	11988.45
2255.14561	11966.35
2258.03893	11958.95
2260.93041	11924.05
2263.82004	11888.35
2266.70783	11853.15
2269.59378	11802.75
2272.4779	11780.55
2275.36017	11767.65
2278.24061	11727.95
2281.11922	11716.15
2283.996	11700.15
2286.87094	11685.65
2289.74405	11678.55
2292.61534	11680.95
2295.4848	11654.85
2298.35243	11640.65
2301.21824	11611.85
2304.08223	11628.65
2306.94439	11602.65
2309.80474	11618.15
2312.66327	11592.25
2315.51999	11586.45
2318.37489	11590.55
2321.22797	11554.55
2324.07925	11537.25
2326.92871	11509.35
2329.77637	11490.25
2332.62222	11488.75
2335.46626	11473.05
2338.3085	11465.15
2341.14893	11460.55
2343.98756	11461.55
2346.8244	11430.35
2349.65943	11401.95
2352.49267	11396.25
2355.32411	11418.55
2358.15376	11415.35
2360.98161	11378.45
2363.80768	11406.95
2366.63195	11359.95
2369.45444	11369.55
2372.27514	11365.95
2375.09405	11325.45
2377.91118	11305.25
2380.72652	11308.95
2383.54009	11258.15
2386.35187	11230.85
2389.16188	11203.45
2391.97011	11177.45
2394.77657	11147.55
2397.58125	11126.15
2400.38416	11128.55
2403.18529	11117.45
2405.98466	11102.25
2408.78226	11085.95
2411.57809	11078.25
2414.37216	11069.45
2417.16446	11033.95
2419.955	11019.35
2422.74378	11037.05
2425.5308	11023.55
2428.31606	11018.85
2431.09956	10994.65
2433.88131	10994.05
2436.6613	10989.05
2439.43954	10973.75
2442.21603	10946.85
2444.99077	10954.65
2447.76377	10918.75
2450.53501	10928.15
2453.30451	10923.45
2456.07226	10922.15
2458.83827	10890.65
2461.60254	10915.55
2464.36507	10885.05
2467.12586	10871.15
2469.88492	10844.05
2472.64224	10870.25
2475.39782	10842.95
2478.15167	10841.25
2480.90379	10848.65
2483.65417	10859.25
2486.40283	10842.95
2489.14976	10844.45
2491.89497	10829.55
2494.63845	10844.95
2497.3802	10828.75
2500.12024	10819.15
2502.85855	10779.95
2505.59514	10783.55
2508.33002	10785.55
2511.06318	10748.55
2513.79462	10761.55
2516.52435	10738.45
2519.25237	10740.75
2521.97867	10730.05
2524.70327	10741.25
2527.42616	10704.85
2530.14734	10725.35
2532.86681	10692.75
2535.58458	10697.05
2538.30065	10681.25
2541.01501	10691.75
2543.72768	10653.35
2546.43864	10647.05
2549.14791	10646.35
2551.85548	10629.05
2554.56136	10624.95
2557.26554	10578.95
2559.96803	10526.35
2562.66883	10547.45
2565.36794	10512.15
2568.06536	10533.65
2570.7611	10481.45
2573.45514	10450.15
2576.14751	10461.05
2578.83819	10441.85
2581.52719	10442.25
2584.21451	10432.55
2586.90015	10419.55
2589.58411	10391.35
2592.2664	10378.55
2594.94701	10377.55
2597.62594	10353.75
2600.30321	10327.25
2602.9788	10318.25
2605.65273	10319.05
2608.32498	10316.05
2610.99557	10294.85
2613.66449	10290.75
2616.33175	10291.05
2618.99734	10262.45
2621.66128	10278.05
2624.32355	10241.75
2626.98416	10254.45
2629.64311	10227.85
2632.30041	10238.45
2634.95605	10176.15
2637.61004	10172.65
2640.26238	10163.05
2642.91306	10165.25
2645.56209	10164.35
2648.20948	10159.25
2650.85521	10149.15
2653.4993	10165.45
2656.14175	10149.45
2658.78255	10144.85
2661.42171	10172.85
2664.05923	10147.65
2666.6951	10174.65
2669.32934	10176.45
2671.96194	10163.25
2674.59291	10159.15
2677.22224	10160.25
2679.84993	10177.25
2682.476	10138.75
2685.10043	10159.15
2687.72324	10119.65
2690.34441	10115.35
2692.96396	10121.75
2695.58188	10155.25
2698.19818	10114.95
2700.81285	10127.55
2703.4259	10128.25
2706.03733	10159.95
2708.64714	10120.75
2711.25533	10137.75
2713.86191	10133.05
2716.46687	10155.15
2719.07021	10126.15
2721.67194	10158.25
2724.27206	10162.05
2726.87057	10171.25
2729.46747	10172.35
2732.06276	10191.55
2734.65644	10160.05
2737.24852	10144.65
2739.83899	10133.95
2742.42786	10161.05
2745.01513	10109.05
2747.60079	10097.25
2750.18486	10077.35
2752.76733	10078.25
2755.3482	10059.95
2757.92747	10069.65
2760.50515	10042.15
2763.08123	10041.35
2765.65573	10031.85
2768.22863	10017.85
2770.79994	10020.35
2773.36967	10010.45
2775.9378	10002.05
2778.50435	10018.45
2781.06932	9988.55
2783.6327	10002.55
2786.1945	9957.05
2788.75471	9978.65
2791.31335	9930.75
2793.87041	9954.45
2796.42589	9939.15
2798.97979	9907.95
2801.53212	9889.05
2804.08288	9868.35
2806.63206	9843.05
2809.17967	9783.05
2811.72571	9784.05
2814.27018	9764.05
2816.81308	9743.75
2819.35442	9718.85
2821.89419	9711.75
2824.43239	9710.55
2826.96904	9673.05
2829.50412	9706.95
2832.03763	9672.85
2834.56959	9655.05
2837.1	9647.55
2839.62884	9631.75
2842.15613	9645.05
2844.68186	9678.45
2847.20604	9665.55
2849.72867	9690.75
2852.24974	9674.75
2854.76927	9642.05
2857.28724	9636.45
2859.80367	9599.15
2862.31855	9592.35
2864.83189	9585.85
2867.34368	9555.85
2869.85393	9546.75
2872.36264	9560.15
2874.8698	9543.65
2877.37543	9551.35
2879.87952	9528.65
2882.38207	9541.05
2884.88308	9514.95
2887.38256	9545.85
2889.88051	9510.45
2892.37692	9511.15
2894.8718	9526.65
2897.36515	9536.35
2899.85698	9505.85
2902.34727	9555.55
2904.83604	9526.35
2907.32328	9543.75
2909.809	9552.95
2912.29319	9550.45
2914.77587	9545.95
2917.25702	9528.15
2919.73665	9512.05
2922.21476	9541.35
2924.69136	9543.15
2927.16644	9500.95
2929.64	9500.55
2932.11205	9486.25
2934.58258	9465.75
2937.05161	9486.85
2939.51912	9493.15
2941.98513	9479.15
2944.44962	9446.05
2946.91261	9419.15
2949.37409	9400.95
2951.83407	9399.25
2954.29254	9390.15
2956.74951	9381.25
2959.20498	9403.35
2961.65895	9376.15
2964.11142	9390.65
2966.56239	9383.55
2969.01186	9377.95
2971.45984	9353.35
2973.90632	9335.35
2976.35131	9316.55
2978.7948	9314.25
2981.23681	9298.15
2983.67732	9263.65
2986.11635	9245.95
2988.55388	9226.45
2990.98993	9207.65
2993.4245	9178.95
2995.85758	9160.95
2998.28917	9135.15
3000.71928	9126.35
3003.14791	9089.05
3005.57506	9092.45
3008.00073	9087.15
3010.42493	9045.15
3012.84764	9021.95
3015.26888	9020.35
3017.68865	8991.75
3020.10694	8993.85
3022.52376	8984.05
3024.9391	8962.75
3027.35298	8962.55
3029.76539	8962.25
3032.17632	8957.05
3034.5858	8938.95
3036.9938	8947.35
3039.40034	8920.05
3041.80542	8932.75
3044.20903	8893.85
3046.61118	8873.65
3049.01187	8865.25
3051.4111	8866.25
3053.80888	8852.15
3056.20519	8821.35
3058.60005	8797.25
3060.99345	8803.05
3063.3854	8770.05
3065.7759	8725.15
3068.16494	8752.45
3070.55254	8733.15
3072.93868	8703.65
3075.32338	8682.35
3077.70662	8653.55
3080.08842	8638.35
3082.46878	8633.05
3084.84769	8627.45
3087.22515	8632.45
3089.60118	8609.15
3091.97576	8622.25
3094.3489	8606.15
3096.72061	8610.85
3099.09087	8603.25
3101.4597	8598.95
3103.82709	8593.05
3106.19305	8580.45
3108.55757	8575.15
3110.92066	8551.35
3113.28232	8558.55
3115.64255	8540.45
3118.00134	8513.75
3120.35871	8486.45
3122.71466	8474.25
3125.06917	8455.15
3127.42226	8453.75
3129.77393	8444.15
3132.12417	8409.15
3134.47299	8421.55
3136.82039	8416.85
3139.16636	8430.45
3141.51092	8402.15
3143.85406	8447.15
3146.19579	8397.85
3148.53609	8416.55
3150.87499	8414.45
3153.21246	8416.45
3155.54853	8455.65
3157.88318	8431.85
3160.21642	8466.35
3162.54826	8439.95
3164.87868	8437.35
3167.2077	8455.45
3169.5353	8464.95
3171.86151	8453.05
3174.18631	8445.65
3176.5097	8442.05
3178.83169	8425.05
3181.15228	8422.15
3183.47147	8398.55
3185.78926	8402.25
3188.10565	8391.05
3190.42065	8386.05
3192.73424	8356.55
3195.04645	8344.85
3197.35725	8340.35
3199.66667	8341.25
3201.97469	8348.15
3204.28132	8351.45
3206.58656	8365.45
3208.8904	8343.75
3211.19287	8356.65
3213.49394	8350.85
3215.79363	8342.95
3218.09193	8384.95
3220.38884	8358.85
3222.68438	8359.55
3224.97853	8337.05
3227.2713	8360.85
3229.56269	8350.55
3231.8527	8319.05
3234.14133	8297.35
3236.42858	8292.35
3238.71446	8276.65
3240.99896	8259.65
3243.28209	8227.35
3245.56384	8233.25
3247.84423	8248.65
3250.12324	8208.65
3252.40088	8214.75
3254.67715	8193.45
3256.95205	8191.65
3259.22558	8213.45
3261.49775	8178.25
3263.76855	8180.75
3266.03799	8148.15
3268.30606	8153.85
3270.57277	8122.35
3272.83812	8111.95
3275.10211	8098.35
3277.36474	8082.35
3279.62601	8074.75
3281.88593	8059.45
3284.14448	8068.45
3286.40168	8064.35
3288.65753	8040.15
3290.91202	8046.95
3293.16516	8035.35
3295.41695	8022.65
3297.66738	7972.95
3299.91647	7918.55
3302.16421	7891.45
3304.4106	7844.15
3306.65564	7789.25
3308.89933	7747.15
3311.14169	7697.85
3313.38269	7611.45
3315.62236	7547.65
3317.86068	7502.85
3320.09766	7439.35
3322.3333	7401.45
3324.5676	7330.15
3326.80056	7217.55
3329.03219	7173.55
3331.26248	3.25
3333.49143	-0.55
3335.71905	-0.85
