Data from AgNP_FTO_APTES_UA_10uM_CRN_1uM_R6G_10uM_NaF_0.1M_Addition_RamanShift__15__13-10-10-513.txt Node

Date: Thu Feb 10 13:10:10 GMT 2022
User: TCL
Spectrometer: QEP01345
Trigger mode: 4
Integration Time (sec): 7.000000E0
Scans to average: 10
Electric dark correction enabled: true
Nonlinearity correction enabled: false
Boxcar width: 0
XAxis mode: Raman Shifts
Number of Pixels in Spectrum: 1044
>>>>>Begin Spectral Data<<<<<
46.04893	-0.85
50.45542	-2.25
54.85868	-1.75
59.25871	-0.05
63.6555	77.25
68.04907	79.95
72.43941	81.15
76.82654	85.05
81.21044	92.35
85.59113	90.55
89.96862	95.35
94.34289	99.95
98.71396	103.05
103.08183	104.55
107.4465	112.45
111.80798	108.75
116.16626	116.25
120.52136	118.25
124.87327	125.05
129.222	132.35
133.56755	141.05
137.90993	150.35
142.24913	165.05
146.58517	184.95
150.91804	219.05
155.24774	264.95
159.57429	323.55
163.89768	412.35
168.21792	555.75
172.53501	756.75
176.84895	1066.45
181.15975	1502.25
185.46741	2100.25
189.77193	2916.25
194.07331	3905.65
198.37157	5047.35
202.6667	6274.85
206.9587	7444.65
211.24758	8613.05
215.53334	9789.85
219.81599	11026.65
224.09553	12394.15
228.37195	13925.05
232.64527	15584.85
236.91549	17284.55
241.18261	19035.95
245.44663	20629.25
249.70755	22060.75
253.96539	23343.55
258.22014	24399.05
262.4718	25302.55
266.72039	25961.95
270.96589	26276.85
275.20832	26290.25
279.44768	26124.85
283.68397	25845.45
287.91719	25616.85
292.14735	25444.25
296.37445	25436.85
300.59849	25511.35
304.81948	25737.05
309.03742	25757.35
313.25231	25631.75
317.46415	25088.75
321.67296	24377.25
325.87872	23793.85
330.08145	23527.15
334.28114	23514.35
338.47781	23686.25
342.67145	23987.45
346.86207	24415.45
351.04966	24969.35
355.23424	25547.35
359.4158	26025.55
363.59435	26385.45
367.76989	26633.25
371.94243	26764.45
376.11196	26852.85
380.27849	26902.85
384.44203	27038.05
388.60257	27137.35
392.76012	27382.25
396.91468	27705.85
401.06626	28046.35
405.21485	28336.75
409.36047	28208.25
413.50311	27744.85
417.64277	27393.05
421.77947	27253.55
425.9132	27322.65
430.04396	27419.25
434.17176	27510.35
438.2966	27628.35
442.41849	27929.55
446.53742	28420.75
450.6534	29091.85
454.76644	29536.15
458.87653	29683.85
462.98368	29642.95
467.08789	29507.55
471.18916	29235.75
475.2875	28847.65
479.38291	28636.65
483.4754	28482.75
487.56496	28323.75
491.6516	28020.85
495.73531	27785.75
499.81612	27639.25
503.89401	27774.75
507.96899	27900.25
512.04106	27952.35
516.11023	27884.75
520.1765	27699.75
524.23987	27520.05
528.30034	27258.85
532.35792	26982.05
536.41261	26704.55
540.46441	26430.95
544.51333	26405.95
548.55936	26627.45
552.60252	27164.55
556.64279	27698.85
560.6802	28086.85
564.71473	28326.05
568.7464	28731.05
572.7752	29406.75
576.80114	29954.85
580.82422	30564.15
584.84444	31149.75
588.86181	31769.75
592.87633	32114.25
596.888	31774.65
600.89682	31131.95
604.9028	31676.15
608.90594	34474.45
612.90624	37596.25
616.90371	35768.75
620.89834	30221.95
624.89015	27580.45
628.87913	27200.75
632.86528	27382.45
636.84862	27533.15
640.82913	27223.45
644.80683	26626.15
648.78172	26127.25
652.75379	26108.65
656.72306	26462.15
660.68952	26936.75
664.65319	26841.35
668.61405	26401.15
672.57211	26266.15
676.52738	26393.15
680.47986	26358.45
684.42955	26183.25
688.37646	26136.45
692.32058	26227.15
696.26192	26556.55
700.20048	26889.35
704.13626	27066.95
708.06928	27072.45
711.99952	26941.35
715.927	26851.95
719.85171	26905.95
723.77365	26865.35
727.69284	26541.95
731.60928	26202.45
735.52295	26093.95
739.43388	26038.95
743.34206	26087.05
747.24749	26222.65
751.15017	26416.35
755.05012	26785.75
758.94733	27487.35
762.8418	28694.35
766.73354	30744.25
770.62254	32688.85
774.50882	33227.95
778.39237	32031.15
782.27321	30088.45
786.15132	28339.85
790.02671	27174.15
793.89938	26545.45
797.76935	26284.85
801.6366	26175.65
805.50115	26049.05
809.36299	25944.35
813.22213	25807.55
817.07857	25732.25
820.93231	25629.25
824.78336	25560.95
828.63172	25481.05
832.47738	25446.65
836.32036	25421.95
840.16066	25407.45
843.99827	25391.85
847.8332	25384.05
851.66546	25395.55
855.49504	25437.05
859.32195	25431.15
863.1462	25419.05
866.96777	25347.95
870.78668	25336.05
874.60293	25360.15
878.41652	25409.25
882.22745	25432.55
886.03573	25553.55
889.84136	25568.15
893.64433	25515.85
897.44466	25462.15
901.24235	25398.25
905.0374	25351.95
908.8298	25263.15
912.61957	25236.95
916.40671	25381.35
920.19121	25564.95
923.97308	25753.45
927.75233	25804.35
931.52895	25751.15
935.30295	25427.25
939.07433	25054.65
942.84309	24741.25
946.60924	24556.35
950.37278	24538.45
954.13371	24514.95
957.89203	24501.75
961.64774	24442.65
965.40086	24440.65
969.15137	24448.25
972.89929	24374.85
976.64461	24318.35
980.38733	24315.05
984.12747	24352.95
987.86502	24473.65
991.59999	24598.95
995.33237	24808.35
999.06217	25079.45
1002.78939	25435.05
1006.51404	25886.55
1010.23611	26282.55
1013.95561	26610.35
1017.67255	26658.05
1021.38692	26414.45
1025.09872	26045.85
1028.80796	25762.55
1032.51465	25740.15
1036.21877	25865.45
1039.92035	25973.75
1043.61937	26052.45
1047.31584	26018.35
1051.00976	25953.25
1054.70114	26014.85
1058.38998	26108.25
1062.07627	26341.55
1065.76003	26628.15
1069.44126	26952.05
1073.11995	27339.15
1076.79611	27791.85
1080.46974	28031.95
1084.14085	28253.85
1087.80943	28575.95
1091.47549	28855.45
1095.13903	28811.95
1098.80005	28504.45
1102.45857	27989.35
1106.11456	27542.75
1109.76805	27318.65
1113.41903	27245.45
1117.06751	27318.05
1120.71348	27553.65
1124.35696	27865.45
1127.99793	28179.75
1131.63641	28338.05
1135.2724	28139.45
1138.90589	27915.95
1142.5369	27834.15
1146.16542	27853.45
1149.79145	27906.95
1153.415	28002.45
1157.03607	28247.25
1160.65467	28792.15
1164.27079	29811.05
1167.88443	31093.45
1171.49561	32704.65
1175.10432	34653.45
1178.71056	37243.35
1182.31434	39653.65
1185.91565	40985.25
1189.51451	41151.15
1193.11091	40359.05
1196.70485	38922.95
1200.29634	37408.45
1203.88538	36149.65
1207.47197	35307.25
1211.05612	34629.15
1214.63782	33889.65
1218.21708	33148.05
1221.79391	32420.65
1225.36829	31994.35
1228.94024	31730.85
1232.50976	31489.75
1236.07685	31305.55
1239.6415	31134.85
1243.20374	31139.55
1246.76355	31243.85
1250.32093	31567.85
1253.8759	32110.35
1257.42845	32917.25
1260.97859	33795.55
1264.52631	34743.15
1268.07163	35655.65
1271.61453	36491.95
1275.15503	37283.05
1278.69312	37994.65
1282.22882	38682.15
1285.76211	39479.35
1289.29301	40440.45
1292.82151	41673.35
1296.34761	43272.35
1299.87133	45153.95
1303.39266	47385.05
1306.9116	49803.75
1310.42815	51957.45
1313.94233	53170.45
1317.45412	52969.25
1320.96354	52105.15
1324.47058	51444.15
1327.97525	50953.85
1331.47754	50606.75
1334.97747	50535.45
1338.47502	50506.85
1341.97022	50432.55
1345.46305	50368.75
1348.95352	50269.45
1352.44163	50279.35
1355.92738	50668.45
1359.41078	52158.45
1362.89183	53795.85
1366.37053	52902.85
1369.84688	48884.75
1373.32088	44051.25
1376.79254	40750.15
1380.26186	39240.75
1383.72883	38780.35
1387.19347	38548.25
1390.65578	38091.45
1394.11575	37822.65
1397.57339	37904.65
1401.0287	38172.85
1404.48168	38534.45
1407.93234	38565.75
1411.38068	38180.15
1414.82669	37310.85
1418.27039	36195.15
1421.71177	35110.75
1425.15083	34267.35
1428.58758	33908.55
1432.02203	34174.15
1435.45416	34845.75
1438.88399	35679.75
1442.31151	36174.05
1445.73673	36514.45
1449.15965	36732.35
1452.58027	36884.75
1455.9986	36908.85
1459.41463	37144.55
1462.82837	37616.05
1466.23982	38184.85
1469.64898	38663.55
1473.05586	38933.45
1476.46045	38873.15
1479.86276	38692.75
1483.26279	38550.55
1486.66054	38578.05
1490.05602	38915.85
1493.44922	39528.95
1496.84016	40446.35
1500.22882	41869.35
1503.61521	43848.85
1506.99934	46009.95
1510.38121	47601.55
1513.76081	47800.75
1517.13816	46306.95
1520.51324	43986.35
1523.88607	41993.65
1527.25665	40770.25
1530.62498	40181.75
1533.99105	39677.95
1537.35488	39246.65
1540.71647	38510.25
1544.07581	37767.55
1547.4329	36981.75
1550.78776	36321.85
1554.14038	35941.95
1557.49077	35818.35
1560.83892	35871.15
1564.18484	36013.45
1567.52853	36260.35
1570.86999	36625.75
1574.20922	37103.55
1577.54624	37477.05
1580.88103	37321.45
1584.2136	37128.95
1587.54395	37486.85
1590.87208	38685.05
1594.19801	40476.65
1597.52172	42256.85
1600.84321	42749.75
1604.16251	41277.65
1607.47959	38852.65
1610.79447	36221.45
1614.10715	33621.45
1617.41763	31381.25
1620.7259	29875.65
1624.03199	29050.95
1627.33587	28902.75
1630.63757	29590.95
1633.93707	31105.15
1637.23439	33753.45
1640.52951	37555.65
1643.82246	42048.85
1647.11321	45617.55
1650.40179	46587.45
1653.68819	43886.75
1656.97241	38750.95
1660.25446	33583.75
1663.53433	29741.35
1666.81203	27243.45
1670.08756	25710.25
1673.36092	24774.65
1676.63211	24146.45
1679.90115	23689.65
1683.16801	23319.05
1686.43272	23096.35
1689.69527	22918.35
1692.95567	22789.95
1696.2139	22722.85
1699.46999	22644.25
1702.72392	22577.35
1705.97571	22515.45
1709.22535	22480.45
1712.47284	22437.25
1715.71819	22398.85
1718.96139	22319.45
1722.20246	22262.15
1725.44139	22169.55
1728.67818	22030.85
1731.91284	21863.85
1735.14537	21762.25
1738.37576	21708.15
1741.60403	21653.15
1744.83017	21553.25
1748.05418	21500.45
1751.27607	21441.85
1754.49584	21410.65
1757.71349	21379.55
1760.92903	21343.95
1764.14244	21356.15
1767.35375	21332.75
1770.56294	21305.45
1773.77002	21251.15
1776.97499	21201.75
1780.17785	21155.85
1783.37861	21118.55
1786.57727	21093.85
1789.77382	21042.05
1792.96828	20971.65
1796.16064	20971.85
1799.3509	20918.95
1802.53907	20902.15
1805.72514	20838.85
1808.90913	20786.75
1812.09102	20731.75
1815.27083	20649.45
1818.44856	20667.25
1821.6242	20596.25
1824.79776	20602.45
1827.96924	20603.35
1831.13864	20583.55
1834.30597	20616.75
1837.47122	20613.45
1840.6344	20622.15
1843.7955	20637.45
1846.95454	20597.95
1850.11151	20600.95
1853.26642	20540.35
1856.41926	20588.85
1859.57004	20569.75
1862.71876	20526.25
1865.86542	20509.55
1869.01003	20472.75
1872.15258	20437.55
1875.29308	20419.35
1878.43152	20374.35
1881.56792	20347.35
1884.70227	20319.05
1887.83457	20262.75
1890.96482	20253.85
1894.09304	20162.95
1897.21921	20112.85
1900.34335	20081.85
1903.46544	20059.95
1906.58551	20068.55
1909.70353	20000.05
1912.81953	19964.25
1915.93349	19933.15
1919.04543	19893.85
1922.15534	19831.85
1925.26322	19782.65
1928.36908	19745.05
1931.47292	19732.35
1934.57473	19683.15
1937.67453	19618.05
1940.77232	19567.75
1943.86808	19504.35
1946.96184	19436.65
1950.05358	19379.05
1953.14331	19336.75
1956.23103	19254.05
1959.31675	19165.95
1962.40046	19149.85
1965.48217	19092.95
1968.56188	19047.05
1971.63959	18972.95
1974.7153	18901.95
1977.78901	18858.55
1980.86073	18828.75
1983.93046	18730.05
1986.99819	18667.35
1990.06394	18639.95
1993.1277	18586.15
1996.18947	18507.95
1999.24925	18462.95
2002.30706	18418.25
2005.36288	18364.65
2008.41672	18293.15
2011.46859	18232.75
2014.51848	18221.55
2017.56639	18172.45
2020.61233	18130.15
2023.6563	18075.85
2026.6983	18042.95
2029.73833	17959.95
2032.7764	17940.95
2035.8125	17890.65
2038.84664	17834.85
2041.87881	17833.55
2044.90903	17816.45
2047.93729	17774.05
2050.96359	17710.55
2053.98794	17676.25
2057.01034	17670.25
2060.03078	17639.15
2063.04927	17652.25
2066.06582	17639.65
2069.08042	17587.05
2072.09307	17574.45
2075.10378	17582.85
2078.11255	17555.65
2081.11938	17570.65
2084.12426	17528.55
2087.12722	17566.95
2090.12824	17529.15
2093.12732	17510.15
2096.12447	17514.95
2099.11969	17492.55
2102.11299	17564.25
2105.10435	17537.25
2108.09379	17546.65
2111.08131	17550.05
2114.0669	17533.65
2117.05057	17537.85
2120.03233	17567.35
2123.01216	17575.15
2125.99008	17622.05
2128.96609	17616.75
2131.94018	17633.45
2134.91236	17645.55
2137.88263	17653.05
2140.851	17652.05
2143.81746	17636.05
2146.78201	17620.75
2149.74466	17658.75
2152.7054	17645.55
2155.66425	17606.65
2158.6212	17576.15
2161.57625	17569.45
2164.52941	17549.65
2167.48067	17566.45
2170.43004	17480.35
2173.37752	17556.25
2176.32311	17563.75
2179.26681	17567.65
2182.20863	17544.95
2185.14856	17567.55
2188.08661	17508.45
2191.02278	17516.05
2193.95707	17534.75
2196.88948	17513.85
2199.82001	17514.15
2202.74867	17450.55
2205.67545	17462.05
2208.60037	17443.25
2211.52341	17413.85
2214.44458	17367.35
2217.36388	17342.15
2220.28132	17294.15
2223.1969	17242.25
2226.11061	17240.25
2229.02246	17212.55
2231.93245	17174.95
2234.84058	17136.35
2237.74686	17090.95
2240.65128	17083.05
2243.55385	17032.75
2246.45456	17024.75
2249.35343	17007.25
2252.25044	16998.05
2255.14561	16965.65
2258.03893	16923.15
2260.93041	16896.85
2263.82004	16885.55
2266.70783	16826.25
2269.59378	16758.55
2272.4779	16766.85
2275.36017	16710.25
2278.24061	16686.85
2281.11922	16681.45
2283.996	16612.15
2286.87094	16591.05
2289.74405	16562.65
2292.61534	16525.35
2295.4848	16512.55
2298.35243	16505.75
2301.21824	16521.95
2304.08223	16512.95
2306.94439	16480.05
2309.80474	16476.45
2312.66327	16487.35
2315.51999	16447.65
2318.37489	16452.55
2321.22797	16431.75
2324.07925	16420.75
2326.92871	16381.45
2329.77637	16367.25
2332.62222	16334.35
2335.46626	16307.05
2338.3085	16262.85
2341.14893	16254.05
2343.98756	16248.25
2346.8244	16250.15
2349.65943	16276.25
2352.49267	16245.15
2355.32411	16216.15
2358.15376	16226.75
2360.98161	16269.85
2363.80768	16242.95
2366.63195	16237.45
2369.45444	16201.75
2372.27514	16203.45
2375.09405	16176.45
2377.91118	16137.35
2380.72652	16096.35
2383.54009	16077.65
2386.35187	16018.85
2389.16188	15965.75
2391.97011	15945.25
2394.77657	15889.15
2397.58125	15870.45
2400.38416	15852.15
2403.18529	15815.55
2405.98466	15824.45
2408.78226	15768.15
2411.57809	15746.65
2414.37216	15762.05
2417.16446	15737.45
2419.955	15673.95
2422.74378	15665.65
2425.5308	15666.35
2428.31606	15681.55
2431.09956	15667.25
2433.88131	15688.85
2436.6613	15684.35
2439.43954	15671.25
2442.21603	15659.15
2444.99077	15615.25
2447.76377	15595.15
2450.53501	15590.85
2453.30451	15592.55
2456.07226	15570.55
2458.83827	15549.85
2461.60254	15606.95
2464.36507	15564.85
2467.12586	15542.05
2469.88492	15531.55
2472.64224	15515.95
2475.39782	15519.65
2478.15167	15527.75
2480.90379	15527.45
2483.65417	15526.85
2486.40283	15524.65
2489.14976	15535.85
2491.89497	15525.65
2494.63845	15513.85
2497.3802	15469.95
2500.12024	15462.95
2502.85855	15472.25
2505.59514	15443.15
2508.33002	15399.95
2511.06318	15400.65
2513.79462	15396.35
2516.52435	15368.15
2519.25237	15358.35
2521.97867	15326.45
2524.70327	15356.25
2527.42616	15300.85
2530.14734	15296.65
2532.86681	15265.65
2535.58458	15290.15
2538.30065	15242.25
2541.01501	15249.05
2543.72768	15260.45
2546.43864	15257.45
2549.14791	15174.45
2551.85548	15189.45
2554.56136	15154.85
2557.26554	15159.95
2559.96803	15100.25
2562.66883	15084.75
2565.36794	15042.35
2568.06536	15030.25
2570.7611	15009.95
2573.45514	14957.55
2576.14751	14966.75
2578.83819	14981.95
2581.52719	14943.95
2584.21451	14889.35
2586.90015	14925.15
2589.58411	14890.55
2592.2664	14864.15
2594.94701	14838.95
2597.62594	14813.15
2600.30321	14787.45
2602.9788	14770.15
2605.65273	14749.45
2608.32498	14767.85
2610.99557	14770.75
2613.66449	14766.35
2616.33175	14700.95
2618.99734	14727.75
2621.66128	14669.85
2624.32355	14636.35
2626.98416	14625.85
2629.64311	14628.95
2632.30041	14622.25
2634.95605	14603.55
2637.61004	14598.85
2640.26238	14563.65
2642.91306	14578.65
2645.56209	14563.35
2648.20948	14536.85
2650.85521	14566.95
2653.4993	14537.75
2656.14175	14560.55
2658.78255	14556.95
2661.42171	14550.05
2664.05923	14585.25
2666.6951	14571.45
2669.32934	14563.75
2671.96194	14561.15
2674.59291	14584.05
2677.22224	14582.15
2679.84993	14578.25
2682.476	14602.45
2685.10043	14530.45
2687.72324	14532.15
2690.34441	14535.65
2692.96396	14518.95
2695.58188	14527.65
2698.19818	14483.45
2700.81285	14506.05
2703.4259	14502.55
2706.03733	14523.65
2708.64714	14490.85
2711.25533	14544.05
2713.86191	14509.05
2716.46687	14532.85
2719.07021	14557.15
2721.67194	14588.45
2724.27206	14585.25
2726.87057	14593.25
2729.46747	14576.75
2732.06276	14599.95
2734.65644	14545.75
2737.24852	14558.85
2739.83899	14526.75
2742.42786	14556.75
2745.01513	14523.85
2747.60079	14494.55
2750.18486	14495.25
2752.76733	14472.95
2755.3482	14473.55
2757.92747	14477.65
2760.50515	14444.05
2763.08123	14404.55
2765.65573	14380.25
2768.22863	14379.75
2770.79994	14372.15
2773.36967	14334.65
2775.9378	14343.15
2778.50435	14331.75
2781.06932	14333.55
2783.6327	14339.95
2786.1945	14315.15
2788.75471	14292.25
2791.31335	14247.45
2793.87041	14252.45
2796.42589	14220.35
2798.97979	14184.95
2801.53212	14191.15
2804.08288	14160.05
2806.63206	14124.65
2809.17967	14059.85
2811.72571	14043.95
2814.27018	14050.15
2816.81308	14034.25
2819.35442	13966.85
2821.89419	13942.05
2824.43239	13939.45
2826.96904	13949.55
2829.50412	13926.05
2832.03763	13859.65
2834.56959	13870.95
2837.1	13840.15
2839.62884	13856.45
2842.15613	13839.15
2844.68186	13863.95
2847.20604	13838.25
2849.72867	13872.75
2852.24974	13863.05
2854.76927	13832.95
2857.28724	13822.25
2859.80367	13776.85
2862.31855	13753.15
2864.83189	13770.65
2867.34368	13735.45
2869.85393	13719.45
2872.36264	13685.95
2874.8698	13712.55
2877.37543	13683.85
2879.87952	13712.65
2882.38207	13706.35
2884.88308	13681.25
2887.38256	13644.45
2889.88051	13656.55
2892.37692	13684.75
2894.8718	13655.95
2897.36515	13704.95
2899.85698	13680.25
2902.34727	13686.25
2904.83604	13688.35
2907.32328	13730.65
2909.809	13717.85
2912.29319	13698.35
2914.77587	13718.25
2917.25702	13681.45
2919.73665	13664.85
2922.21476	13667.25
2924.69136	13642.95
2927.16644	13657.05
2929.64	13605.65
2932.11205	13625.95
2934.58258	13588.55
2937.05161	13603.65
2939.51912	13569.05
2941.98513	13542.55
2944.44962	13523.05
2946.91261	13483.35
2949.37409	13510.15
2951.83407	13487.25
2954.29254	13493.35
2956.74951	13473.85
2959.20498	13475.15
2961.65895	13430.95
2964.11142	13443.45
2966.56239	13407.45
2969.01186	13415.75
2971.45984	13375.35
2973.90632	13378.75
2976.35131	13342.25
2978.7948	13322.65
2981.23681	13270.45
2983.67732	13287.55
2986.11635	13236.95
2988.55388	13204.05
2990.98993	13140.55
2993.4245	13168.45
2995.85758	13118.95
2998.28917	13086.25
3000.71928	13075.45
3003.14791	13034.35
3005.57506	13028.15
3008.00073	12974.55
3010.42493	12871.95
3012.84764	12928.85
3015.26888	12897.85
3017.68865	12843.75
3020.10694	12846.15
3022.52376	12819.35
3024.9391	12812.85
3027.35298	12782.75
3029.76539	12771.75
3032.17632	12769.25
3034.5858	12733.15
3036.9938	12724.85
3039.40034	12733.25
3041.80542	12714.05
3044.20903	12659.75
3046.61118	12654.45
3049.01187	12627.85
3051.4111	12619.15
3053.80888	12587.75
3056.20519	12541.55
3058.60005	12548.05
3060.99345	12500.35
3063.3854	12481.85
3065.7759	12443.55
3068.16494	12436.75
3070.55254	12346.95
3072.93868	12351.65
3075.32338	12332.15
3077.70662	12303.85
3080.08842	12246.25
3082.46878	12249.15
3084.84769	12245.25
3087.22515	12272.95
3089.60118	12237.75
3091.97576	12209.45
3094.3489	12211.05
3096.72061	12207.25
3099.09087	12199.85
3101.4597	12189.35
3103.82709	12176.75
3106.19305	12172.45
3108.55757	12163.65
3110.92066	12128.65
3113.28232	12128.15
3115.64255	12038.85
3118.00134	12038.35
3120.35871	12011.65
3122.71466	11995.05
3125.06917	11959.05
3127.42226	11939.35
3129.77393	11946.95
3132.12417	11895.65
3134.47299	11882.65
3136.82039	11886.85
3139.16636	11899.85
3141.51092	11907.95
3143.85406	11896.05
3146.19579	11867.45
3148.53609	11842.95
3150.87499	11865.55
3153.21246	11865.95
3155.54853	11890.25
3157.88318	11841.95
3160.21642	11857.35
3162.54826	11853.25
3164.87868	11889.15
3167.2077	11886.25
3169.5353	11881.75
3171.86151	11852.55
3174.18631	11858.35
3176.5097	11801.45
3178.83169	11820.95
3181.15228	11787.35
3183.47147	11790.65
3185.78926	11767.95
3188.10565	11751.45
3190.42065	11756.15
3192.73424	11736.65
3195.04645	11718.65
3197.35725	11670.75
3199.66667	11676.95
3201.97469	11700.75
3204.28132	11670.65
3206.58656	11696.05
3208.8904	11709.15
3211.19287	11697.55
3213.49394	11702.35
3215.79363	11680.45
3218.09193	11689.45
3220.38884	11640.15
3222.68438	11675.55
3224.97853	11672.65
3227.2713	11674.95
3229.56269	11659.45
3231.8527	11641.35
3234.14133	11608.05
3236.42858	11598.85
3238.71446	11568.05
3240.99896	11533.55
3243.28209	11503.25
3245.56384	11471.55
3247.84423	11477.45
3250.12324	11470.15
3252.40088	11444.55
3254.67715	11439.35
3256.95205	11441.55
3259.22558	11428.25
3261.49775	11401.65
3263.76855	11413.55
3266.03799	11389.35
3268.30606	11357.55
3270.57277	11309.05
3272.83812	11319.15
3275.10211	11255.55
3277.36474	11251.75
3279.62601	11261.15
3281.88593	11245.85
3284.14448	11238.45
3286.40168	11249.15
3288.65753	11243.55
3290.91202	11210.45
3293.16516	11198.65
3295.41695	11172.65
3297.66738	11109.25
3299.91647	11056.45
3302.16421	10971.05
3304.4106	10941.55
3306.65564	10829.55
3308.89933	10770.65
3311.14169	10713.95
3313.38269	10602.25
3315.62236	10530.65
3317.86068	10454.75
3320.09766	10348.05
3322.3333	10268.65
3324.5676	10222.65
3326.80056	10037.55
3329.03219	9982.75
3331.26248	5.45
3333.49143	0.45
3335.71905	-0.25
