Data from AgNP_FTO_APTES_UA_10uM_CRN_20uM_R6G_10uM_NaF_0.1M_Addition_RamanShift__19__16-25-00-757.txt Node

Date: Thu Feb 10 16:25:00 GMT 2022
User: TCL
Spectrometer: QEP01345
Trigger mode: 4
Integration Time (sec): 7.000000E0
Scans to average: 10
Electric dark correction enabled: true
Nonlinearity correction enabled: false
Boxcar width: 0
XAxis mode: Raman Shifts
Number of Pixels in Spectrum: 1044
>>>>>Begin Spectral Data<<<<<
46.04893	0.15
50.45542	-0.15
54.85868	-2.45
59.25871	-1.05
63.6555	64.05
68.04907	67.85
72.43941	72.15
76.82654	69.45
81.21044	73.95
85.59113	76.45
89.96862	79.35
94.34289	84.25
98.71396	87.75
103.08183	87.45
107.4465	94.55
111.80798	91.65
116.16626	96.15
120.52136	97.95
124.87327	103.35
129.222	108.15
133.56755	117.75
137.90993	123.05
142.24913	135.15
146.58517	146.25
150.91804	174.85
155.24774	205.85
159.57429	258.15
163.89768	327.55
168.21792	434.85
172.53501	596.25
176.84895	825.05
181.15975	1157.15
185.46741	1620.65
189.77193	2236.35
194.07331	2980.55
198.37157	3839.65
202.6667	4750.65
206.9587	5646.15
211.24758	6496.55
215.53334	7355.35
219.81599	8297.05
224.09553	9286.55
228.37195	10384.85
232.64527	11640.15
236.91549	12937.05
241.18261	14210.45
245.44663	15463.05
249.70755	16548.85
253.96539	17516.25
258.22014	18382.45
262.4718	19110.45
266.72039	19636.15
270.96589	19926.55
275.20832	20040.35
279.44768	20056.95
283.68397	19985.55
287.91719	19889.55
292.14735	19849.95
296.37445	19860.05
300.59849	19884.65
304.81948	19884.95
309.03742	19703.85
313.25231	19410.05
317.46415	18921.15
321.67296	18414.45
325.87872	17962.35
330.08145	17781.15
334.28114	17763.35
338.47781	17837.05
342.67145	18042.25
346.86207	18324.15
351.04966	18661.05
355.23424	18967.25
359.4158	19214.45
363.59435	19413.85
367.76989	19561.05
371.94243	19706.85
376.11196	19774.05
380.27849	19870.45
384.44203	19983.05
388.60257	20120.45
392.76012	20354.95
396.91468	20610.95
401.06626	20886.95
405.21485	21053.05
409.36047	20948.65
413.50311	20712.55
417.64277	20475.25
421.77947	20456.65
425.9132	20603.75
430.04396	20736.85
434.17176	20849.75
438.2966	21007.95
442.41849	21391.15
446.53742	21907.45
450.6534	22517.95
454.76644	22977.15
458.87653	23258.05
462.98368	23233.05
467.08789	23108.65
471.18916	22855.45
475.2875	22687.65
479.38291	22658.25
483.4754	22567.65
487.56496	22227.15
491.6516	21750.45
495.73531	21354.75
499.81612	21113.25
503.89401	21143.55
507.96899	21180.25
512.04106	21131.95
516.11023	20968.75
520.1765	20743.15
524.23987	20538.15
528.30034	20332.15
532.35792	20148.45
536.41261	19980.85
540.46441	19807.65
544.51333	19931.85
548.55936	20181.65
552.60252	20654.45
556.64279	21170.95
560.6802	21501.75
564.71473	21750.05
568.7464	22051.25
572.7752	22603.95
576.80114	23031.65
580.82422	23301.25
584.84444	23543.95
588.86181	23712.95
592.87633	23914.15
596.888	24021.55
600.89682	23998.25
604.9028	24496.35
608.90594	26032.25
612.90624	27369.25
616.90371	25535.85
620.89834	22017.05
624.89015	20640.85
628.87913	20581.65
632.86528	20647.35
636.84862	20505.75
640.82913	20197.25
644.80683	19733.75
648.78172	19327.85
652.75379	19241.85
656.72306	19389.95
660.68952	19613.05
664.65319	19547.95
668.61405	19245.85
672.57211	19173.95
676.52738	19204.75
680.47986	19219.75
684.42955	19149.05
688.37646	19103.55
692.32058	19186.65
696.26192	19375.05
700.20048	19587.95
704.13626	19745.75
708.06928	19730.65
711.99952	19606.95
715.927	19507.95
719.85171	19553.65
723.77365	19486.65
727.69284	19311.45
731.60928	19093.85
735.52295	19049.85
739.43388	19014.35
743.34206	19091.75
747.24749	19150.15
751.15017	19342.25
755.05012	19719.85
758.94733	20312.65
762.8418	21286.55
766.73354	22725.35
770.62254	23928.55
774.50882	23981.15
778.39237	22838.55
782.27321	21292.15
786.15132	20126.05
790.02671	19423.95
793.89938	19117.45
797.76935	18968.05
801.6366	18905.35
805.50115	18866.75
809.36299	18773.75
813.22213	18635.75
817.07857	18568.65
820.93231	18547.05
824.78336	18453.75
828.63172	18351.85
832.47738	18318.75
836.32036	18318.85
840.16066	18394.25
843.99827	18468.05
847.8332	18403.15
851.66546	18324.45
855.49504	18302.55
859.32195	18310.65
863.1462	18258.85
866.96777	18162.05
870.78668	18104.95
874.60293	18097.95
878.41652	18080.35
882.22745	18123.15
886.03573	18137.65
889.84136	18168.05
893.64433	18075.35
897.44466	17995.85
901.24235	17954.25
905.0374	17905.85
908.8298	17878.75
912.61957	17965.45
916.40671	18142.65
920.19121	18430.75
923.97308	18616.15
927.75233	18537.95
931.52895	18420.25
935.30295	18184.25
939.07433	17855.05
942.84309	17605.15
946.60924	17483.25
950.37278	17491.85
954.13371	17456.75
957.89203	17382.45
961.64774	17346.05
965.40086	17315.55
969.15137	17231.05
972.89929	17176.35
976.64461	17086.25
980.38733	17071.75
984.12747	17169.25
987.86502	17288.15
991.59999	17506.95
995.33237	17827.55
999.06217	18353.65
1002.78939	18935.35
1006.51404	19211.95
1010.23611	19360.25
1013.95561	19495.15
1017.67255	19482.65
1021.38692	19320.15
1025.09872	19151.15
1028.80796	19253.15
1032.51465	19765.95
1036.21877	20228.55
1039.92035	20301.55
1043.61937	20048.05
1047.31584	19604.15
1051.00976	19170.85
1054.70114	18965.25
1058.38998	19067.55
1062.07627	19211.45
1065.76003	19354.85
1069.44126	19422.25
1073.11995	19623.05
1076.79611	19797.95
1080.46974	19896.95
1084.14085	20047.65
1087.80943	20271.15
1091.47549	20440.85
1095.13903	20454.45
1098.80005	20265.75
1102.45857	19879.75
1106.11456	19545.55
1109.76805	19505.85
1113.41903	19528.05
1117.06751	19622.05
1120.71348	19791.65
1124.35696	19936.95
1127.99793	20154.75
1131.63641	20279.45
1135.2724	20222.75
1138.90589	20174.95
1142.5369	20197.95
1146.16542	20273.45
1149.79145	20473.95
1153.415	20728.15
1157.03607	21121.05
1160.65467	21761.55
1164.27079	22707.05
1167.88443	23979.65
1171.49561	25449.85
1175.10432	27306.25
1178.71056	29503.15
1182.31434	31536.45
1185.91565	32823.65
1189.51451	32903.75
1193.11091	32119.75
1196.70485	30977.25
1200.29634	29614.75
1203.88538	28671.25
1207.47197	28053.45
1211.05612	27475.05
1214.63782	26984.95
1218.21708	26404.35
1221.79391	25986.75
1225.36829	25640.55
1228.94024	25238.15
1232.50976	24759.35
1236.07685	24340.35
1239.6415	24203.15
1243.20374	24203.55
1246.76355	24394.65
1250.32093	24741.65
1253.8759	25309.05
1257.42845	26005.35
1260.97859	26698.15
1264.52631	27380.95
1268.07163	28121.65
1271.61453	29015.75
1275.15503	29910.25
1278.69312	30916.45
1282.22882	31728.55
1285.76211	32578.65
1289.29301	33459.55
1292.82151	34662.25
1296.34761	36319.75
1299.87133	38411.25
1303.39266	40690.15
1306.9116	43025.25
1310.42815	45037.95
1313.94233	46348.15
1317.45412	46556.85
1320.96354	46166.65
1324.47058	45741.35
1327.97525	45358.05
1331.47754	45038.25
1334.97747	44913.45
1338.47502	44939.05
1341.97022	44832.65
1345.46305	44306.15
1348.95352	43275.05
1352.44163	42162.45
1355.92738	41718.05
1359.41078	42216.95
1362.89183	42730.25
1366.37053	41609.35
1369.84688	38619.85
1373.32088	35330.45
1376.79254	33103.85
1380.26186	32398.95
1383.72883	32492.75
1387.19347	32725.85
1390.65578	32769.65
1394.11575	32921.95
1397.57339	33489.95
1401.0287	34221.75
1404.48168	34698.35
1407.93234	34713.35
1411.38068	34075.95
1414.82669	32819.65
1418.27039	31239.65
1421.71177	29708.05
1425.15083	28492.05
1428.58758	27780.65
1432.02203	27877.85
1435.45416	28477.05
1438.88399	29343.85
1442.31151	30191.65
1445.73673	30923.45
1449.15965	31537.45
1452.58027	32032.75
1455.9986	32330.35
1459.41463	32666.85
1462.82837	33141.35
1466.23982	33663.75
1469.64898	34109.15
1473.05586	34289.75
1476.46045	34121.75
1479.86276	33604.05
1483.26279	33061.55
1486.66054	32637.65
1490.05602	32372.35
1493.44922	32345.55
1496.84016	32399.95
1500.22882	32764.75
1503.61521	33367.85
1506.99934	34244.85
1510.38121	35089.45
1513.76081	35377.45
1517.13816	34901.45
1520.51324	34112.35
1523.88607	33404.95
1527.25665	33054.25
1530.62498	33072.75
1533.99105	33155.55
1537.35488	33029.05
1540.71647	32660.85
1544.07581	32077.35
1547.4329	31339.15
1550.78776	30696.05
1554.14038	30274.05
1557.49077	30027.65
1560.83892	29796.45
1564.18484	29696.05
1567.52853	29595.95
1570.86999	29774.45
1574.20922	30235.55
1577.54624	30770.95
1580.88103	31061.75
1584.2136	31492.75
1587.54395	32420.85
1590.87208	33995.05
1594.19801	35778.85
1597.52172	37581.85
1600.84321	37996.25
1604.16251	36402.75
1607.47959	33698.45
1610.79447	30791.45
1614.10715	28193.25
1617.41763	25961.85
1620.7259	24316.35
1624.03199	23506.05
1627.33587	23382.75
1630.63757	24079.65
1633.93707	25745.75
1637.23439	28278.95
1640.52951	31662.95
1643.82246	35229.65
1647.11321	37630.75
1650.40179	37653.25
1653.68819	34912.95
1656.97241	30594.25
1660.25446	26316.45
1663.53433	23040.45
1666.81203	20850.25
1670.08756	19423.45
1673.36092	18507.75
1676.63211	17896.05
1679.90115	17474.95
1683.16801	17147.05
1686.43272	16859.65
1689.69527	16747.75
1692.95567	16579.35
1696.2139	16494.85
1699.46999	16428.35
1702.72392	16336.45
1705.97571	16252.55
1709.22535	16207.05
1712.47284	16147.35
1715.71819	16101.25
1718.96139	16038.55
1722.20246	15989.15
1725.44139	15875.45
1728.67818	15787.05
1731.91284	15687.35
1735.14537	15610.55
1738.37576	15551.55
1741.60403	15481.65
1744.83017	15410.85
1748.05418	15357.75
1751.27607	15352.85
1754.49584	15319.05
1757.71349	15308.75
1760.92903	15288.25
1764.14244	15274.25
1767.35375	15261.95
1770.56294	15206.15
1773.77002	15211.65
1776.97499	15164.15
1780.17785	15110.45
1783.37861	15073.05
1786.57727	15035.85
1789.77382	15027.05
1792.96828	14984.15
1796.16064	14952.95
1799.3509	14921.45
1802.53907	14907.95
1805.72514	14872.15
1808.90913	14812.95
1812.09102	14786.85
1815.27083	14750.65
1818.44856	14730.75
1821.6242	14684.95
1824.79776	14679.95
1827.96924	14684.85
1831.13864	14645.55
1834.30597	14689.95
1837.47122	14657.95
1840.6344	14672.55
1843.7955	14688.55
1846.95454	14676.65
1850.11151	14670.55
1853.26642	14672.45
1856.41926	14660.85
1859.57004	14638.85
1862.71876	14617.35
1865.86542	14595.55
1869.01003	14579.95
1872.15258	14606.85
1875.29308	14555.25
1878.43152	14545.15
1881.56792	14565.55
1884.70227	14551.95
1887.83457	14559.65
1890.96482	14511.25
1894.09304	14486.75
1897.21921	14466.05
1900.34335	14462.75
1903.46544	14465.05
1906.58551	14413.15
1909.70353	14450.25
1912.81953	14381.05
1915.93349	14370.75
1919.04543	14340.35
1922.15534	14287.15
1925.26322	14242.55
1928.36908	14234.95
1931.47292	14204.85
1934.57473	14157.65
1937.67453	14100.25
1940.77232	14095.25
1943.86808	14040.75
1946.96184	14001.75
1950.05358	13930.65
1953.14331	13885.55
1956.23103	13847.45
1959.31675	13814.75
1962.40046	13758.25
1965.48217	13725.85
1968.56188	13692.45
1971.63959	13645.35
1974.7153	13576.75
1977.78901	13544.85
1980.86073	13521.45
1983.93046	13483.25
1986.99819	13456.25
1990.06394	13395.15
1993.1277	13363.05
1996.18947	13313.35
1999.24925	13271.35
2002.30706	13245.65
2005.36288	13192.15
2008.41672	13162.95
2011.46859	13127.55
2014.51848	13086.85
2017.56639	13066.65
2020.61233	13046.95
2023.6563	13021.35
2026.6983	12978.85
2029.73833	12948.85
2032.7764	12923.65
2035.8125	12931.35
2038.84664	12879.15
2041.87881	12844.35
2044.90903	12809.45
2047.93729	12778.95
2050.96359	12791.75
2053.98794	12780.65
2057.01034	12773.85
2060.03078	12766.15
2063.04927	12731.55
2066.06582	12743.35
2069.08042	12733.95
2072.09307	12711.25
2075.10378	12704.15
2078.11255	12708.85
2081.11938	12710.65
2084.12426	12697.25
2087.12722	12684.95
2090.12824	12672.85
2093.12732	12662.35
2096.12447	12649.95
2099.11969	12647.45
2102.11299	12638.35
2105.10435	12657.85
2108.09379	12651.05
2111.08131	12689.85
2114.0669	12682.05
2117.05057	12660.85
2120.03233	12700.15
2123.01216	12673.55
2125.99008	12706.95
2128.96609	12701.55
2131.94018	12733.05
2134.91236	12738.55
2137.88263	12721.65
2140.851	12731.35
2143.81746	12754.75
2146.78201	12752.55
2149.74466	12747.75
2152.7054	12765.05
2155.66425	12735.95
2158.6212	12761.05
2161.57625	12742.55
2164.52941	12739.75
2167.48067	12722.95
2170.43004	12718.05
2173.37752	12682.25
2176.32311	12715.95
2179.26681	12703.05
2182.20863	12723.35
2185.14856	12726.55
2188.08661	12710.05
2191.02278	12738.55
2193.95707	12709.15
2196.88948	12691.05
2199.82001	12706.45
2202.74867	12696.65
2205.67545	12683.85
2208.60037	12678.45
2211.52341	12687.75
2214.44458	12647.25
2217.36388	12634.15
2220.28132	12639.35
2223.1969	12574.75
2226.11061	12574.55
2229.02246	12540.65
2231.93245	12517.65
2234.84058	12476.95
2237.74686	12455.15
2240.65128	12456.85
2243.55385	12423.75
2246.45456	12367.25
2249.35343	12359.55
2252.25044	12371.45
2255.14561	12329.65
2258.03893	12340.35
2260.93041	12306.85
2263.82004	12260.35
2266.70783	12256.65
2269.59378	12164.85
2272.4779	12145.85
2275.36017	12153.25
2278.24061	12111.35
2281.11922	12104.25
2283.996	12092.45
2286.87094	12100.85
2289.74405	12066.25
2292.61534	12048.85
2295.4848	12041.45
2298.35243	12055.05
2301.21824	12038.35
2304.08223	12046.75
2306.94439	12078.55
2309.80474	12085.85
2312.66327	12093.25
2315.51999	12064.65
2318.37489	12076.15
2321.22797	12064.85
2324.07925	12051.65
2326.92871	12030.35
2329.77637	12025.15
2332.62222	12013.95
2335.46626	11988.05
2338.3085	11970.45
2341.14893	11991.55
2343.98756	12027.45
2346.8244	12017.65
2349.65943	12017.85
2352.49267	12011.45
2355.32411	11993.25
2358.15376	12018.05
2360.98161	12014.65
2363.80768	12003.85
2366.63195	12005.95
2369.45444	11950.65
2372.27514	11966.25
2375.09405	11928.95
2377.91118	11891.75
2380.72652	11855.15
2383.54009	11831.75
2386.35187	11820.25
2389.16188	11786.35
2391.97011	11767.15
2394.77657	11721.15
2397.58125	11733.95
2400.38416	11695.75
2403.18529	11672.05
2405.98466	11652.95
2408.78226	11656.05
2411.57809	11631.65
2414.37216	11636.15
2417.16446	11617.95
2419.955	11593.95
2422.74378	11596.75
2425.5308	11572.95
2428.31606	11591.75
2431.09956	11576.55
2433.88131	11552.75
2436.6613	11574.95
2439.43954	11585.55
2442.21603	11545.25
2444.99077	11555.85
2447.76377	11553.95
2450.53501	11541.95
2453.30451	11542.65
2456.07226	11538.95
2458.83827	11532.55
2461.60254	11530.25
2464.36507	11529.95
2467.12586	11499.25
2469.88492	11514.75
2472.64224	11504.05
2475.39782	11539.05
2478.15167	11546.05
2480.90379	11538.55
2483.65417	11564.65
2486.40283	11602.15
2489.14976	11595.05
2491.89497	11551.45
2494.63845	11590.95
2497.3802	11581.15
2500.12024	11599.55
2502.85855	11597.65
2505.59514	11598.55
2508.33002	11565.55
2511.06318	11563.25
2513.79462	11564.95
2516.52435	11521.85
2519.25237	11548.75
2521.97867	11504.55
2524.70327	11525.95
2527.42616	11494.25
2530.14734	11534.75
2532.86681	11511.35
2535.58458	11514.05
2538.30065	11497.45
2541.01501	11507.05
2543.72768	11500.05
2546.43864	11492.25
2549.14791	11481.05
2551.85548	11490.95
2554.56136	11456.55
2557.26554	11467.85
2559.96803	11449.35
2562.66883	11409.55
2565.36794	11389.35
2568.06536	11403.35
2570.7611	11407.65
2573.45514	11379.35
2576.14751	11368.45
2578.83819	11361.55
2581.52719	11365.85
2584.21451	11370.15
2586.90015	11365.95
2589.58411	11381.65
2592.2664	11370.95
2594.94701	11370.25
2597.62594	11353.35
2600.30321	11338.35
2602.9788	11360.55
2605.65273	11356.85
2608.32498	11363.55
2610.99557	11350.55
2613.66449	11361.95
2616.33175	11344.55
2618.99734	11374.45
2621.66128	11337.95
2624.32355	11355.65
2626.98416	11352.85
2629.64311	11367.05
2632.30041	11362.25
2634.95605	11378.15
2637.61004	11365.85
2640.26238	11331.15
2642.91306	11313.75
2645.56209	11315.85
2648.20948	11289.65
2650.85521	11276.05
2653.4993	11311.25
2656.14175	11307.35
2658.78255	11315.95
2661.42171	11307.75
2664.05923	11309.85
2666.6951	11345.25
2669.32934	11355.55
2671.96194	11362.35
2674.59291	11378.65
2677.22224	11364.15
2679.84993	11360.25
2682.476	11347.45
2685.10043	11356.05
2687.72324	11306.05
2690.34441	11318.05
2692.96396	11325.55
2695.58188	11296.85
2698.19818	11286.45
2700.81285	11294.65
2703.4259	11299.95
2706.03733	11320.85
2708.64714	11304.45
2711.25533	11334.85
2713.86191	11331.15
2716.46687	11322.55
2719.07021	11339.05
2721.67194	11371.55
2724.27206	11369.95
2726.87057	11395.55
2729.46747	11385.75
2732.06276	11375.45
2734.65644	11376.85
2737.24852	11400.55
2739.83899	11364.75
2742.42786	11420.95
2745.01513	11361.95
2747.60079	11353.45
2750.18486	11335.85
2752.76733	11345.25
2755.3482	11363.55
2757.92747	11329.55
2760.50515	11314.85
2763.08123	11306.55
2765.65573	11314.05
2768.22863	11340.85
2770.79994	11342.95
2773.36967	11345.45
2775.9378	11340.65
2778.50435	11353.55
2781.06932	11335.25
2783.6327	11353.65
2786.1945	11340.95
2788.75471	11348.65
2791.31335	11315.35
2793.87041	11303.25
2796.42589	11277.75
2798.97979	11291.45
2801.53212	11276.25
2804.08288	11266.85
2806.63206	11230.55
2809.17967	11221.55
2811.72571	11207.85
2814.27018	11164.95
2816.81308	11137.05
2819.35442	11143.15
2821.89419	11116.55
2824.43239	11103.95
2826.96904	11070.95
2829.50412	11090.25
2832.03763	11061.05
2834.56959	11043.95
2837.1	11028.65
2839.62884	11067.25
2842.15613	11073.15
2844.68186	11067.05
2847.20604	11032.55
2849.72867	11064.45
2852.24974	11051.65
2854.76927	11039.65
2857.28724	11012.75
2859.80367	11024.45
2862.31855	10988.85
2864.83189	10992.65
2867.34368	10963.05
2869.85393	10949.05
2872.36264	10984.85
2874.8698	10951.45
2877.37543	10971.95
2879.87952	10966.05
2882.38207	10976.65
2884.88308	10939.75
2887.38256	10979.35
2889.88051	10970.05
2892.37692	10979.35
2894.8718	10994.05
2897.36515	11015.55
2899.85698	11012.45
2902.34727	11055.45
2904.83604	11048.55
2907.32328	11067.95
2909.809	11062.35
2912.29319	11083.05
2914.77587	11075.65
2917.25702	11055.35
2919.73665	11075.75
2922.21476	11075.05
2924.69136	11059.45
2927.16644	11050.25
2929.64	11046.25
2932.11205	11014.35
2934.58258	11004.95
2937.05161	11001.05
2939.51912	10980.65
2941.98513	10980.15
2944.44962	10956.95
2946.91261	10946.25
2949.37409	10963.75
2951.83407	10948.55
2954.29254	10930.45
2956.74951	10937.15
2959.20498	10941.45
2961.65895	10908.55
2964.11142	10921.05
2966.56239	10906.35
2969.01186	10894.85
2971.45984	10846.45
2973.90632	10851.55
2976.35131	10817.45
2978.7948	10824.95
2981.23681	10810.25
2983.67732	10752.05
2986.11635	10744.75
2988.55388	10723.85
2990.98993	10696.25
2993.4245	10677.35
2995.85758	10632.55
2998.28917	10621.85
3000.71928	10577.85
3003.14791	10580.55
3005.57506	10580.55
3008.00073	10508.75
3010.42493	10463.75
3012.84764	10471.65
3015.26888	10460.65
3017.68865	10440.55
3020.10694	10430.15
3022.52376	10405.15
3024.9391	10413.85
3027.35298	10423.55
3029.76539	10414.45
3032.17632	10418.75
3034.5858	10399.85
3036.9938	10405.85
3039.40034	10424.35
3041.80542	10421.35
3044.20903	10385.55
3046.61118	10381.55
3049.01187	10360.95
3051.4111	10337.65
3053.80888	10320.15
3056.20519	10284.55
3058.60005	10267.05
3060.99345	10259.45
3063.3854	10262.45
3065.7759	10220.65
3068.16494	10188.15
3070.55254	10165.75
3072.93868	10155.45
3075.32338	10127.85
3077.70662	10089.95
3080.08842	10050.75
3082.46878	10053.35
3084.84769	10054.85
3087.22515	10063.05
3089.60118	10058.45
3091.97576	10032.55
3094.3489	10036.85
3096.72061	10044.75
3099.09087	10052.85
3101.4597	10051.15
3103.82709	10030.95
3106.19305	10017.25
3108.55757	10033.25
3110.92066	9986.75
3113.28232	9979.75
3115.64255	9963.35
3118.00134	9936.95
3120.35871	9935.75
3122.71466	9926.35
3125.06917	9889.55
3127.42226	9867.05
3129.77393	9870.65
3132.12417	9847.35
3134.47299	9844.45
3136.82039	9863.45
3139.16636	9861.25
3141.51092	9844.25
3143.85406	9859.55
3146.19579	9820.95
3148.53609	9826.75
3150.87499	9822.45
3153.21246	9818.95
3155.54853	9863.75
3157.88318	9843.25
3160.21642	9871.65
3162.54826	9871.15
3164.87868	9871.15
3167.2077	9899.45
3169.5353	9904.95
3171.86151	9910.35
3174.18631	9889.95
3176.5097	9883.15
3178.83169	9870.85
3181.15228	9861.65
3183.47147	9831.05
3185.78926	9858.75
3188.10565	9815.05
3190.42065	9811.25
3192.73424	9817.25
3195.04645	9814.55
3197.35725	9795.75
3199.66667	9794.85
3201.97469	9824.75
3204.28132	9806.85
3206.58656	9848.95
3208.8904	9836.05
3211.19287	9829.55
3213.49394	9815.15
3215.79363	9844.65
3218.09193	9829.75
3220.38884	9847.85
3222.68438	9856.15
3224.97853	9852.05
3227.2713	9813.05
3229.56269	9828.35
3231.8527	9827.55
3234.14133	9785.45
3236.42858	9785.35
3238.71446	9752.65
3240.99896	9749.15
3243.28209	9738.55
3245.56384	9732.95
3247.84423	9738.35
3250.12324	9752.95
3252.40088	9726.75
3254.67715	9699.55
3256.95205	9703.25
3259.22558	9696.65
3261.49775	9697.65
3263.76855	9680.45
3266.03799	9657.85
3268.30606	9650.15
3270.57277	9632.55
3272.83812	9619.95
3275.10211	9593.65
3277.36474	9574.85
3279.62601	9565.55
3281.88593	9555.05
3284.14448	9542.85
3286.40168	9541.45
3288.65753	9589.05
3290.91202	9556.15
3293.16516	9542.05
3295.41695	9515.05
3297.66738	9474.65
3299.91647	9431.95
3302.16421	9394.55
3304.4106	9321.45
3306.65564	9229.25
3308.89933	9208.55
3311.14169	9128.15
3313.38269	9019.35
3315.62236	8980.85
3317.86068	8922.75
3320.09766	8826.55
3322.3333	8785.55
3324.5676	8744.05
3326.80056	8605.35
3329.03219	8548.85
3331.26248	4.45
3333.49143	0.05
3335.71905	-0.45
