Data from AgNP_FTO_APTES_UA_10uM_CRN_500uM_R6G_10uM_NaF_0.1M_Addition_RamanShift__15__18-57-50-946.txt Node

Date: Thu Feb 10 18:57:50 GMT 2022
User: TCL
Spectrometer: QEP01345
Trigger mode: 4
Integration Time (sec): 7.000000E0
Scans to average: 10
Electric dark correction enabled: true
Nonlinearity correction enabled: false
Boxcar width: 0
XAxis mode: Raman Shifts
Number of Pixels in Spectrum: 1044
>>>>>Begin Spectral Data<<<<<
46.04893	0.75
50.45542	-0.35
54.85868	-0.55
59.25871	-2.55
63.6555	58.15
68.04907	56.75
72.43941	59.95
76.82654	60.85
81.21044	66.75
85.59113	64.35
89.96862	70.65
94.34289	70.85
98.71396	72.45
103.08183	76.85
107.4465	78.95
111.80798	76.15
116.16626	79.45
120.52136	87.25
124.87327	90.55
129.222	90.15
133.56755	97.05
137.90993	102.95
142.24913	115.85
146.58517	125.85
150.91804	147.75
155.24774	172.45
159.57429	211.95
163.89768	269.45
168.21792	359.55
172.53501	491.75
176.84895	684.75
181.15975	966.95
185.46741	1357.55
189.77193	1887.55
194.07331	2531.65
198.37157	3282.95
202.6667	4054.55
206.9587	4839.65
211.24758	5608.95
215.53334	6371.75
219.81599	7148.65
224.09553	7991.65
228.37195	8937.25
232.64527	9941.35
236.91549	11083.15
241.18261	12213.55
245.44663	13306.65
249.70755	14303.05
253.96539	15177.15
258.22014	15909.85
262.4718	16544.05
266.72039	16960.95
270.96589	17230.55
275.20832	17308.15
279.44768	17236.95
283.68397	17103.85
287.91719	16997.05
292.14735	16873.85
296.37445	16831.25
300.59849	16824.55
304.81948	16852.05
309.03742	16785.05
313.25231	16599.75
317.46415	16323.75
321.67296	15943.25
325.87872	15670.65
330.08145	15567.25
334.28114	15615.15
338.47781	15726.25
342.67145	15896.75
346.86207	16117.85
351.04966	16368.65
355.23424	16596.05
359.4158	16849.15
363.59435	17033.15
367.76989	17179.95
371.94243	17288.75
376.11196	17410.75
380.27849	17533.15
384.44203	17573.25
388.60257	17688.15
392.76012	17845.15
396.91468	18013.85
401.06626	18201.15
405.21485	18334.95
409.36047	18322.75
413.50311	18131.75
417.64277	17953.45
421.77947	17898.95
425.9132	17910.65
430.04396	18025.15
434.17176	18153.45
438.2966	18234.65
442.41849	18413.75
446.53742	18678.65
450.6534	18921.85
454.76644	19137.75
458.87653	19256.95
462.98368	19324.05
467.08789	19345.35
471.18916	19306.45
475.2875	19250.85
479.38291	19195.75
483.4754	19132.85
487.56496	19007.75
491.6516	18814.35
495.73531	18704.95
499.81612	18592.55
503.89401	18618.85
507.96899	18682.85
512.04106	18716.45
516.11023	18773.15
520.1765	18736.85
524.23987	18679.85
528.30034	18499.55
532.35792	18389.85
536.41261	18328.35
540.46441	18265.05
544.51333	18254.15
548.55936	18409.65
552.60252	18651.95
556.64279	18909.55
560.6802	19069.75
564.71473	19190.35
568.7464	19380.35
572.7752	19643.95
576.80114	19867.35
580.82422	20001.85
584.84444	20031.85
588.86181	20027.35
592.87633	19959.95
596.888	19899.65
600.89682	19906.55
604.9028	20266.55
608.90594	21413.05
612.90624	22814.25
616.90371	22155.05
620.89834	19814.15
624.89015	18701.95
628.87913	18541.45
632.86528	18645.35
636.84862	18774.95
640.82913	18748.45
644.80683	18516.05
648.78172	18287.25
652.75379	18261.05
656.72306	18369.35
660.68952	18558.75
664.65319	18558.55
668.61405	18373.55
672.57211	18355.65
676.52738	18392.35
680.47986	18433.65
684.42955	18416.05
688.37646	18378.65
692.32058	18373.45
696.26192	18468.95
700.20048	18577.95
704.13626	18669.85
708.06928	18689.85
711.99952	18705.65
715.927	18631.55
719.85171	18596.05
723.77365	18580.25
727.69284	18481.05
731.60928	18351.25
735.52295	18281.45
739.43388	18298.95
743.34206	18283.15
747.24749	18314.95
751.15017	18342.75
755.05012	18531.15
758.94733	18799.75
762.8418	19350.35
766.73354	20248.65
770.62254	21132.45
774.50882	21465.15
778.39237	20965.45
782.27321	19997.75
786.15132	19165.65
790.02671	18616.95
793.89938	18367.15
797.76935	18230.75
801.6366	18162.35
805.50115	18116.95
809.36299	18069.45
813.22213	18038.45
817.07857	18016.55
820.93231	18034.55
824.78336	17977.15
828.63172	18008.95
832.47738	18001.85
836.32036	17906.45
840.16066	17909.75
843.99827	17923.25
847.8332	17900.25
851.66546	17925.65
855.49504	17948.15
859.32195	17950.55
863.1462	17956.15
866.96777	17939.25
870.78668	17957.15
874.60293	17967.95
878.41652	17942.25
882.22745	17993.85
886.03573	17979.15
889.84136	17999.25
893.64433	17972.55
897.44466	17963.25
901.24235	17917.15
905.0374	17841.55
908.8298	17812.95
912.61957	17814.85
916.40671	17845.25
920.19121	17969.85
923.97308	18017.85
927.75233	17975.35
931.52895	17892.05
935.30295	17813.85
939.07433	17644.35
942.84309	17494.85
946.60924	17424.15
950.37278	17341.85
954.13371	17274.25
957.89203	17275.55
961.64774	17248.65
965.40086	17221.75
969.15137	17186.25
972.89929	17134.65
976.64461	17122.05
980.38733	17085.15
984.12747	17109.75
987.86502	17154.15
991.59999	17183.45
995.33237	17247.15
999.06217	17330.95
1002.78939	17417.65
1006.51404	17547.15
1010.23611	17656.35
1013.95561	17760.05
1017.67255	17801.65
1021.38692	17742.45
1025.09872	17663.15
1028.80796	17596.25
1032.51465	17533.65
1036.21877	17565.35
1039.92035	17633.35
1043.61937	17626.65
1047.31584	17656.15
1051.00976	17662.95
1054.70114	17756.75
1058.38998	17793.95
1062.07627	17903.75
1065.76003	18018.65
1069.44126	18091.65
1073.11995	18225.35
1076.79611	18311.55
1080.46974	18359.45
1084.14085	18423.15
1087.80943	18477.95
1091.47549	18598.55
1095.13903	18645.35
1098.80005	18556.05
1102.45857	18332.25
1106.11456	18179.25
1109.76805	18067.25
1113.41903	18070.75
1117.06751	18124.75
1120.71348	18262.95
1124.35696	18397.45
1127.99793	18569.35
1131.63641	18659.35
1135.2724	18573.95
1138.90589	18395.35
1142.5369	18295.95
1146.16542	18289.75
1149.79145	18269.65
1153.415	18329.05
1157.03607	18410.85
1160.65467	18659.25
1164.27079	19036.45
1167.88443	19546.35
1171.49561	20145.95
1175.10432	20881.85
1178.71056	21889.55
1182.31434	22826.35
1185.91565	23481.15
1189.51451	23691.25
1193.11091	23538.45
1196.70485	23028.95
1200.29634	22447.55
1203.88538	21872.75
1207.47197	21397.35
1211.05612	20948.85
1214.63782	20606.55
1218.21708	20281.05
1221.79391	19995.25
1225.36829	19754.75
1228.94024	19574.65
1232.50976	19492.15
1236.07685	19430.65
1239.6415	19458.65
1243.20374	19513.05
1246.76355	19542.05
1250.32093	19642.35
1253.8759	19833.65
1257.42845	20130.95
1260.97859	20393.15
1264.52631	20714.25
1268.07163	21008.75
1271.61453	21298.15
1275.15503	21525.25
1278.69312	21808.65
1282.22882	22001.95
1285.76211	22266.95
1289.29301	22647.15
1292.82151	23176.75
1296.34761	23739.65
1299.87133	24575.85
1303.39266	25400.75
1306.9116	26203.25
1310.42815	26939.75
1313.94233	27368.95
1317.45412	27281.15
1320.96354	26986.75
1324.47058	26694.55
1327.97525	26450.15
1331.47754	26349.85
1334.97747	26327.85
1338.47502	26489.45
1341.97022	26748.25
1345.46305	26973.85
1348.95352	27179.95
1352.44163	27327.85
1355.92738	27396.35
1359.41078	27731.05
1362.89183	28213.55
1366.37053	27714.25
1369.84688	25972.35
1373.32088	24099.15
1376.79254	22813.85
1380.26186	22227.75
1383.72883	21979.35
1387.19347	21913.15
1390.65578	21817.95
1394.11575	21696.45
1397.57339	21607.55
1401.0287	21547.35
1404.48168	21479.25
1407.93234	21365.25
1411.38068	21102.65
1414.82669	20687.85
1418.27039	20226.45
1421.71177	19824.25
1425.15083	19410.95
1428.58758	19223.65
1432.02203	19224.35
1435.45416	19380.65
1438.88399	19603.35
1442.31151	19760.35
1445.73673	19911.75
1449.15965	20077.15
1452.58027	20242.95
1455.9986	20407.65
1459.41463	20564.75
1462.82837	20654.75
1466.23982	20805.85
1469.64898	20939.05
1473.05586	21061.95
1476.46045	21063.85
1479.86276	21009.05
1483.26279	21008.95
1486.66054	21025.85
1490.05602	21174.75
1493.44922	21430.05
1496.84016	21825.45
1500.22882	22574.55
1503.61521	23494.25
1506.99934	24564.85
1510.38121	25323.85
1513.76081	25546.75
1517.13816	24998.55
1520.51324	24072.05
1523.88607	23240.95
1527.25665	22744.35
1530.62498	22503.75
1533.99105	22346.45
1537.35488	22194.55
1540.71647	21871.55
1544.07581	21571.45
1547.4329	21278.55
1550.78776	21026.75
1554.14038	20853.55
1557.49077	20792.55
1560.83892	20774.75
1564.18484	20877.15
1567.52853	20944.05
1570.86999	21108.65
1574.20922	21319.75
1577.54624	21455.15
1580.88103	21356.15
1584.2136	21116.25
1587.54395	21051.65
1590.87208	21269.35
1594.19801	21643.65
1597.52172	22151.65
1600.84321	22336.85
1604.16251	21937.15
1607.47959	21269.15
1610.79447	20507.95
1614.10715	19702.55
1617.41763	18861.95
1620.7259	18230.15
1624.03199	17799.95
1627.33587	17632.15
1630.63757	17732.95
1633.93707	18174.05
1637.23439	18854.75
1640.52951	19958.35
1643.82246	21277.45
1647.11321	22577.65
1650.40179	23175.75
1653.68819	22676.35
1656.97241	21193.15
1660.25446	19459.35
1663.53433	18067.15
1666.81203	17026.85
1670.08756	16355.55
1673.36092	15930.25
1676.63211	15619.95
1679.90115	15390.55
1683.16801	15264.95
1686.43272	15124.55
1689.69527	15028.25
1692.95567	14955.45
1696.2139	14912.05
1699.46999	14890.65
1702.72392	14845.85
1705.97571	14791.25
1709.22535	14784.75
1712.47284	14710.15
1715.71819	14729.05
1718.96139	14700.95
1722.20246	14673.25
1725.44139	14618.25
1728.67818	14549.45
1731.91284	14475.25
1735.14537	14403.15
1738.37576	14359.95
1741.60403	14330.15
1744.83017	14293.05
1748.05418	14267.35
1751.27607	14259.65
1754.49584	14258.55
1757.71349	14246.15
1760.92903	14206.65
1764.14244	14247.75
1767.35375	14196.95
1770.56294	14161.55
1773.77002	14115.75
1776.97499	14079.05
1780.17785	14061.85
1783.37861	14005.55
1786.57727	13968.95
1789.77382	13953.75
1792.96828	13918.55
1796.16064	13895.05
1799.3509	13855.85
1802.53907	13833.45
1805.72514	13816.45
1808.90913	13767.25
1812.09102	13751.65
1815.27083	13692.65
1818.44856	13665.15
1821.6242	13641.55
1824.79776	13618.15
1827.96924	13607.35
1831.13864	13569.05
1834.30597	13576.85
1837.47122	13570.25
1840.6344	13553.45
1843.7955	13561.45
1846.95454	13518.75
1850.11151	13470.85
1853.26642	13479.05
1856.41926	13471.15
1859.57004	13469.35
1862.71876	13413.65
1865.86542	13412.55
1869.01003	13402.35
1872.15258	13372.55
1875.29308	13364.25
1878.43152	13367.95
1881.56792	13327.55
1884.70227	13306.25
1887.83457	13284.35
1890.96482	13255.15
1894.09304	13217.65
1897.21921	13207.25
1900.34335	13186.05
1903.46544	13187.25
1906.58551	13145.15
1909.70353	13121.95
1912.81953	13129.05
1915.93349	13108.35
1919.04543	13090.35
1922.15534	13014.85
1925.26322	12982.25
1928.36908	12971.85
1931.47292	12971.25
1934.57473	12942.55
1937.67453	12900.85
1940.77232	12865.25
1943.86808	12828.15
1946.96184	12789.55
1950.05358	12757.25
1953.14331	12707.65
1956.23103	12663.85
1959.31675	12641.75
1962.40046	12601.35
1965.48217	12577.75
1968.56188	12538.25
1971.63959	12481.35
1974.7153	12462.45
1977.78901	12396.55
1980.86073	12363.55
1983.93046	12319.95
1986.99819	12292.85
1990.06394	12238.85
1993.1277	12216.35
1996.18947	12164.55
1999.24925	12123.55
2002.30706	12096.25
2005.36288	12039.25
2008.41672	12015.05
2011.46859	11983.85
2014.51848	11922.75
2017.56639	11926.85
2020.61233	11910.45
2023.6563	11822.85
2026.6983	11795.95
2029.73833	11757.55
2032.7764	11766.75
2035.8125	11733.45
2038.84664	11672.85
2041.87881	11631.85
2044.90903	11621.15
2047.93729	11590.35
2050.96359	11557.65
2053.98794	11543.85
2057.01034	11546.95
2060.03078	11530.35
2063.04927	11525.65
2066.06582	11519.45
2069.08042	11507.65
2072.09307	11503.15
2075.10378	11523.95
2078.11255	11488.05
2081.11938	11441.15
2084.12426	11459.15
2087.12722	11443.45
2090.12824	11449.25
2093.12732	11457.15
2096.12447	11426.65
2099.11969	11416.15
2102.11299	11405.05
2105.10435	11406.75
2108.09379	11412.65
2111.08131	11423.35
2114.0669	11428.45
2117.05057	11412.15
2120.03233	11438.95
2123.01216	11410.35
2125.99008	11444.55
2128.96609	11455.25
2131.94018	11476.05
2134.91236	11466.95
2137.88263	11458.05
2140.851	11472.25
2143.81746	11474.65
2146.78201	11436.65
2149.74466	11478.05
2152.7054	11482.95
2155.66425	11454.35
2158.6212	11446.35
2161.57625	11442.45
2164.52941	11446.45
2167.48067	11414.35
2170.43004	11431.15
2173.37752	11460.65
2176.32311	11389.15
2179.26681	11406.45
2182.20863	11389.65
2185.14856	11378.85
2188.08661	11376.15
2191.02278	11380.95
2193.95707	11377.45
2196.88948	11369.25
2199.82001	11355.25
2202.74867	11303.25
2205.67545	11305.05
2208.60037	11287.05
2211.52341	11261.85
2214.44458	11274.05
2217.36388	11226.65
2220.28132	11195.75
2223.1969	11189.15
2226.11061	11167.55
2229.02246	11128.45
2231.93245	11083.25
2234.84058	11043.95
2237.74686	11072.25
2240.65128	11043.85
2243.55385	11014.95
2246.45456	10986.45
2249.35343	10964.45
2252.25044	10979.55
2255.14561	10938.95
2258.03893	10931.95
2260.93041	10915.35
2263.82004	10859.75
2266.70783	10846.35
2269.59378	10825.65
2272.4779	10752.55
2275.36017	10740.65
2278.24061	10726.25
2281.11922	10709.45
2283.996	10708.65
2286.87094	10689.55
2289.74405	10691.45
2292.61534	10655.25
2295.4848	10645.65
2298.35243	10664.75
2301.21824	10635.45
2304.08223	10606.55
2306.94439	10587.35
2309.80474	10592.05
2312.66327	10565.05
2315.51999	10529.35
2318.37489	10546.95
2321.22797	10516.25
2324.07925	10504.55
2326.92871	10476.55
2329.77637	10476.15
2332.62222	10413.55
2335.46626	10402.65
2338.3085	10398.15
2341.14893	10387.85
2343.98756	10375.95
2346.8244	10363.55
2349.65943	10348.35
2352.49267	10342.95
2355.32411	10338.65
2358.15376	10326.55
2360.98161	10334.15
2363.80768	10334.15
2366.63195	10317.25
2369.45444	10302.85
2372.27514	10268.75
2375.09405	10264.95
2377.91118	10276.65
2380.72652	10207.45
2383.54009	10192.15
2386.35187	10174.35
2389.16188	10125.35
2391.97011	10117.55
2394.77657	10085.15
2397.58125	10069.35
2400.38416	10037.95
2403.18529	10030.95
2405.98466	10028.15
2408.78226	10011.25
2411.57809	9964.25
2414.37216	9968.95
2417.16446	9966.65
2419.955	9927.85
2422.74378	9936.45
2425.5308	9925.75
2428.31606	9913.75
2431.09956	9904.45
2433.88131	9889.85
2436.6613	9872.65
2439.43954	9851.15
2442.21603	9831.65
2444.99077	9813.35
2447.76377	9834.85
2450.53501	9784.55
2453.30451	9784.35
2456.07226	9771.25
2458.83827	9787.85
2461.60254	9774.55
2464.36507	9783.05
2467.12586	9755.35
2469.88492	9727.55
2472.64224	9727.35
2475.39782	9738.65
2478.15167	9724.15
2480.90379	9713.55
2483.65417	9692.65
2486.40283	9711.75
2489.14976	9699.45
2491.89497	9691.05
2494.63845	9677.55
2497.3802	9657.45
2500.12024	9647.65
2502.85855	9623.15
2505.59514	9626.95
2508.33002	9616.45
2511.06318	9592.35
2513.79462	9573.55
2516.52435	9563.15
2519.25237	9531.05
2521.97867	9534.05
2524.70327	9537.35
2527.42616	9512.45
2530.14734	9487.75
2532.86681	9459.55
2535.58458	9460.65
2538.30065	9451.95
2541.01501	9460.25
2543.72768	9402.25
2546.43864	9411.35
2549.14791	9382.85
2551.85548	9366.75
2554.56136	9328.95
2557.26554	9329.15
2559.96803	9298.65
2562.66883	9289.45
2565.36794	9253.15
2568.06536	9233.45
2570.7611	9218.45
2573.45514	9190.55
2576.14751	9204.55
2578.83819	9159.85
2581.52719	9159.45
2584.21451	9156.45
2586.90015	9126.55
2589.58411	9085.85
2592.2664	9084.25
2594.94701	9060.35
2597.62594	9022.45
2600.30321	9034.65
2602.9788	9007.75
2605.65273	8990.25
2608.32498	8971.05
2610.99557	8970.05
2613.66449	8984.75
2616.33175	8952.65
2618.99734	8954.15
2621.66128	8936.25
2624.32355	8923.35
2626.98416	8903.15
2629.64311	8872.35
2632.30041	8882.05
2634.95605	8864.75
2637.61004	8827.15
2640.26238	8833.15
2642.91306	8811.65
2645.56209	8802.75
2648.20948	8811.05
2650.85521	8779.75
2653.4993	8783.65
2656.14175	8777.25
2658.78255	8794.85
2661.42171	8777.75
2664.05923	8765.15
2666.6951	8786.25
2669.32934	8790.75
2671.96194	8769.55
2674.59291	8780.55
2677.22224	8749.35
2679.84993	8776.75
2682.476	8734.05
2685.10043	8751.75
2687.72324	8725.05
2690.34441	8751.45
2692.96396	8724.65
2695.58188	8712.75
2698.19818	8709.45
2700.81285	8712.65
2703.4259	8716.15
2706.03733	8721.55
2708.64714	8704.95
2711.25533	8729.65
2713.86191	8706.55
2716.46687	8706.95
2719.07021	8697.55
2721.67194	8707.75
2724.27206	8694.75
2726.87057	8711.85
2729.46747	8701.95
2732.06276	8710.25
2734.65644	8686.25
2737.24852	8689.35
2739.83899	8677.45
2742.42786	8685.45
2745.01513	8632.25
2747.60079	8645.05
2750.18486	8625.35
2752.76733	8603.65
2755.3482	8582.05
2757.92747	8578.85
2760.50515	8545.75
2763.08123	8511.75
2765.65573	8524.05
2768.22863	8539.65
2770.79994	8523.35
2773.36967	8493.35
2775.9378	8478.45
2778.50435	8494.45
2781.06932	8478.55
2783.6327	8462.95
2786.1945	8443.65
2788.75471	8437.25
2791.31335	8388.95
2793.87041	8392.65
2796.42589	8379.95
2798.97979	8366.35
2801.53212	8368.15
2804.08288	8344.35
2806.63206	8316.05
2809.17967	8292.55
2811.72571	8285.75
2814.27018	8254.05
2816.81308	8221.65
2819.35442	8189.75
2821.89419	8184.85
2824.43239	8186.85
2826.96904	8167.65
2829.50412	8176.75
2832.03763	8142.05
2834.56959	8156.65
2837.1	8122.95
2839.62884	8159.55
2842.15613	8152.65
2844.68186	8182.95
2847.20604	8184.25
2849.72867	8190.85
2852.24974	8181.55
2854.76927	8156.95
2857.28724	8141.25
2859.80367	8110.45
2862.31855	8095.35
2864.83189	8090.95
2867.34368	8077.75
2869.85393	8067.05
2872.36264	8055.25
2874.8698	8046.45
2877.37543	8042.25
2879.87952	8053.35
2882.38207	8020.55
2884.88308	7995.95
2887.38256	8004.25
2889.88051	8001.95
2892.37692	8001.65
2894.8718	7999.35
2897.36515	8037.85
2899.85698	8013.35
2902.34727	8034.35
2904.83604	8031.55
2907.32328	8049.75
2909.809	8026.45
2912.29319	8020.55
2914.77587	8021.85
2917.25702	8010.65
2919.73665	8004.25
2922.21476	7997.65
2924.69136	7989.15
2927.16644	7998.75
2929.64	7985.65
2932.11205	7997.95
2934.58258	7967.65
2937.05161	7961.15
2939.51912	7974.85
2941.98513	7940.05
2944.44962	7908.45
2946.91261	7908.55
2949.37409	7895.75
2951.83407	7900.95
2954.29254	7888.75
2956.74951	7860.15
2959.20498	7852.95
2961.65895	7857.15
2964.11142	7858.25
2966.56239	7849.75
2969.01186	7826.05
2971.45984	7796.55
2973.90632	7813.85
2976.35131	7777.25
2978.7948	7772.45
2981.23681	7733.65
2983.67732	7714.75
2986.11635	7689.15
2988.55388	7695.95
2990.98993	7657.75
2993.4245	7653.15
2995.85758	7641.35
2998.28917	7613.75
3000.71928	7597.85
3003.14791	7602.65
3005.57506	7586.65
3008.00073	7582.15
3010.42493	7558.65
3012.84764	7537.95
3015.26888	7489.35
3017.68865	7493.65
3020.10694	7493.25
3022.52376	7499.15
3024.9391	7485.85
3027.35298	7449.95
3029.76539	7444.45
3032.17632	7440.65
3034.5858	7444.05
3036.9938	7435.35
3039.40034	7420.75
3041.80542	7424.35
3044.20903	7398.65
3046.61118	7386.95
3049.01187	7376.35
3051.4111	7375.75
3053.80888	7369.75
3056.20519	7345.25
3058.60005	7335.95
3060.99345	7327.85
3063.3854	7296.65
3065.7759	7270.45
3068.16494	7265.45
3070.55254	7256.85
3072.93868	7248.05
3075.32338	7221.05
3077.70662	7218.85
3080.08842	7195.55
3082.46878	7183.55
3084.84769	7165.45
3087.22515	7194.45
3089.60118	7177.65
3091.97576	7176.15
3094.3489	7172.15
3096.72061	7160.95
3099.09087	7170.95
3101.4597	7152.15
3103.82709	7152.15
3106.19305	7145.85
3108.55757	7152.75
3110.92066	7138.55
3113.28232	7138.25
3115.64255	7107.65
3118.00134	7105.85
3120.35871	7106.15
3122.71466	7086.85
3125.06917	7053.65
3127.42226	7043.65
3129.77393	7054.75
3132.12417	7035.15
3134.47299	7033.15
3136.82039	7031.95
3139.16636	7051.45
3141.51092	7042.65
3143.85406	7052.75
3146.19579	7055.45
3148.53609	7064.15
3150.87499	7060.75
3153.21246	7059.65
3155.54853	7065.15
3157.88318	7071.35
3160.21642	7069.65
3162.54826	7052.75
3164.87868	7051.45
3167.2077	7069.15
3169.5353	7078.25
3171.86151	7060.65
3174.18631	7077.65
3176.5097	7060.35
3178.83169	7060.65
3181.15228	7052.25
3183.47147	7041.15
3185.78926	7039.75
3188.10565	7028.05
3190.42065	7006.45
3192.73424	6983.35
3195.04645	6997.05
3197.35725	6985.65
3199.66667	6991.85
3201.97469	6984.25
3204.28132	6988.65
3206.58656	7006.95
3208.8904	7009.65
3211.19287	6985.65
3213.49394	6999.25
3215.79363	7015.55
3218.09193	7007.55
3220.38884	6995.85
3222.68438	6978.05
3224.97853	6989.65
3227.2713	6985.55
3229.56269	6968.85
3231.8527	6975.95
3234.14133	6966.55
3236.42858	6959.85
3238.71446	6933.25
3240.99896	6897.05
3243.28209	6920.75
3245.56384	6897.15
3247.84423	6888.95
3250.12324	6887.65
3252.40088	6890.45
3254.67715	6884.15
3256.95205	6864.85
3259.22558	6872.95
3261.49775	6866.95
3263.76855	6857.45
3266.03799	6824.45
3268.30606	6833.85
3270.57277	6817.15
3272.83812	6785.85
3275.10211	6772.35
3277.36474	6768.45
3279.62601	6749.35
3281.88593	6743.35
3284.14448	6734.95
3286.40168	6729.75
3288.65753	6759.95
3290.91202	6713.45
3293.16516	6692.65
3295.41695	6681.55
3297.66738	6653.75
3299.91647	6635.35
3302.16421	6573.35
3304.4106	6566.25
3306.65564	6512.65
3308.89933	6470.75
3311.14169	6407.55
3313.38269	6369.15
3315.62236	6327.95
3317.86068	6282.55
3320.09766	6230.85
3322.3333	6190.15
3324.5676	6142.75
3326.80056	6048.25
3329.03219	6021.05
3331.26248	3.45
3333.49143	-0.05
3335.71905	0.05
