Data from AgNP_FTO_APTES_UA_10uM_CRN_0uM_R6G_10uM_NaF_0.1M_Addition_RamanShift__12__12-22-20-449.txt Node

Date: Thu Feb 10 12:22:20 GMT 2022
User: TCL
Spectrometer: QEP01345
Trigger mode: 4
Integration Time (sec): 7.000000E0
Scans to average: 10
Electric dark correction enabled: true
Nonlinearity correction enabled: false
Boxcar width: 0
XAxis mode: Raman Shifts
Number of Pixels in Spectrum: 1044
>>>>>Begin Spectral Data<<<<<
46.04893	0.75
50.45542	-0.85
54.85868	-1.35
59.25871	-0.85
63.6555	59.05
68.04907	62.45
72.43941	63.75
76.82654	62.85
81.21044	67.65
85.59113	65.55
89.96862	72.75
94.34289	75.95
98.71396	72.95
103.08183	81.25
107.4465	80.35
111.80798	80.45
116.16626	84.15
120.52136	89.75
124.87327	93.85
129.222	97.15
133.56755	102.05
137.90993	108.85
142.24913	120.35
146.58517	136.95
150.91804	159.25
155.24774	189.25
159.57429	241.95
163.89768	303.45
168.21792	405.15
172.53501	550.65
176.84895	781.85
181.15975	1096.95
185.46741	1537.05
189.77193	2129.95
194.07331	2856.95
198.37157	3688.85
202.6667	4589.65
206.9587	5473.35
211.24758	6328.95
215.53334	7213.85
219.81599	8141.85
224.09553	9138.65
228.37195	10216.25
232.64527	11456.65
236.91549	12768.85
241.18261	14098.45
245.44663	15345.75
249.70755	16434.15
253.96539	17404.95
258.22014	18212.45
262.4718	18796.45
266.72039	19209.95
270.96589	19392.55
275.20832	19310.15
279.44768	19125.65
283.68397	18801.45
287.91719	18537.45
292.14735	18363.25
296.37445	18221.65
300.59849	18254.85
304.81948	18286.35
309.03742	18331.85
313.25231	18217.15
317.46415	17970.55
321.67296	17560.15
325.87872	17202.05
330.08145	17053.85
334.28114	17012.55
338.47781	17116.65
342.67145	17298.35
346.86207	17600.85
351.04966	17943.15
355.23424	18334.25
359.4158	18669.15
363.59435	18932.65
367.76989	19075.95
371.94243	19138.55
376.11196	19148.75
380.27849	19127.45
384.44203	19166.55
388.60257	19246.35
392.76012	19488.45
396.91468	19716.55
401.06626	20026.35
405.21485	20219.75
409.36047	20078.45
413.50311	19744.95
417.64277	19484.65
421.77947	19452.65
425.9132	19537.35
430.04396	19656.65
434.17176	19715.55
438.2966	19776.25
442.41849	19959.55
446.53742	20236.65
450.6534	20557.15
454.76644	20789.35
458.87653	20811.55
462.98368	20770.25
467.08789	20685.55
471.18916	20510.85
475.2875	20282.65
479.38291	20081.25
483.4754	19997.35
487.56496	19938.55
491.6516	19842.15
495.73531	19706.65
499.81612	19622.95
503.89401	19692.15
507.96899	19796.05
512.04106	19860.55
516.11023	19898.35
520.1765	19794.85
524.23987	19684.95
528.30034	19570.35
532.35792	19410.45
536.41261	19227.25
540.46441	19074.85
544.51333	19036.65
548.55936	19192.05
552.60252	19489.95
556.64279	19812.55
560.6802	20037.85
564.71473	20175.25
568.7464	20397.25
572.7752	20871.65
576.80114	21299.35
580.82422	21795.05
584.84444	22367.55
588.86181	23079.35
592.87633	23708.05
596.888	23855.85
600.89682	23223.75
604.9028	23096.45
608.90594	24649.95
612.90624	26728.45
616.90371	25560.15
620.89834	21843.75
624.89015	20062.55
628.87913	19762.45
632.86528	19910.25
636.84862	20028.35
640.82913	19741.45
644.80683	19244.15
648.78172	18913.45
652.75379	18846.05
656.72306	19054.65
660.68952	19340.25
664.65319	19332.45
668.61405	19003.35
672.57211	18868.25
676.52738	18921.05
680.47986	18885.85
684.42955	18762.75
688.37646	18690.95
692.32058	18732.55
696.26192	18847.75
700.20048	19081.35
704.13626	19255.65
708.06928	19333.35
711.99952	19302.55
715.927	19241.05
719.85171	19164.65
723.77365	19078.55
727.69284	18857.85
731.60928	18658.95
735.52295	18551.25
739.43388	18552.05
743.34206	18598.15
747.24749	18683.75
751.15017	18826.75
755.05012	19085.85
758.94733	19523.85
762.8418	20334.45
766.73354	21770.55
770.62254	23081.85
774.50882	23396.95
778.39237	22631.25
782.27321	21382.35
786.15132	20247.45
790.02671	19430.15
793.89938	18971.75
797.76935	18713.25
801.6366	18630.05
805.50115	18556.15
809.36299	18429.55
813.22213	18351.15
817.07857	18281.55
820.93231	18174.65
824.78336	18237.95
828.63172	18202.65
832.47738	18148.25
836.32036	18127.95
840.16066	18115.55
843.99827	18078.65
847.8332	18077.85
851.66546	18123.45
855.49504	18155.35
859.32195	18169.35
863.1462	18163.95
866.96777	18124.75
870.78668	18104.45
874.60293	18143.95
878.41652	18218.85
882.22745	18264.25
886.03573	18362.35
889.84136	18357.15
893.64433	18380.15
897.44466	18466.45
901.24235	18454.25
905.0374	18448.55
908.8298	18418.65
912.61957	18425.45
916.40671	18497.35
920.19121	18669.95
923.97308	18835.45
927.75233	18908.75
931.52895	18830.75
935.30295	18558.15
939.07433	18232.35
942.84309	17931.15
946.60924	17786.15
950.37278	17675.35
954.13371	17620.85
957.89203	17626.55
961.64774	17560.25
965.40086	17539.45
969.15137	17426.85
972.89929	17388.85
976.64461	17315.65
980.38733	17262.55
984.12747	17271.95
987.86502	17304.75
991.59999	17387.45
995.33237	17454.05
999.06217	17632.85
1002.78939	17909.45
1006.51404	18231.05
1010.23611	18500.65
1013.95561	18717.35
1017.67255	18758.65
1021.38692	18634.25
1025.09872	18362.65
1028.80796	18144.45
1032.51465	18007.75
1036.21877	17991.75
1039.92035	18026.65
1043.61937	18073.45
1047.31584	18156.05
1051.00976	18213.05
1054.70114	18295.85
1058.38998	18324.15
1062.07627	18441.95
1065.76003	18573.65
1069.44126	18794.45
1073.11995	19077.75
1076.79611	19433.55
1080.46974	19599.25
1084.14085	19725.15
1087.80943	19902.45
1091.47549	20059.05
1095.13903	20074.15
1098.80005	19846.45
1102.45857	19460.95
1106.11456	19139.05
1109.76805	18904.95
1113.41903	18832.45
1117.06751	18847.85
1120.71348	19013.25
1124.35696	19293.45
1127.99793	19542.65
1131.63641	19700.15
1135.2724	19596.15
1138.90589	19405.95
1142.5369	19358.55
1146.16542	19328.95
1149.79145	19335.65
1153.415	19409.05
1157.03607	19552.95
1160.65467	19927.75
1164.27079	20606.45
1167.88443	21484.55
1171.49561	22528.15
1175.10432	23899.25
1178.71056	25600.05
1182.31434	27200.75
1185.91565	28175.15
1189.51451	28387.35
1193.11091	27862.55
1196.70485	26962.55
1200.29634	25671.35
1203.88538	24632.75
1207.47197	23899.35
1211.05612	23418.85
1214.63782	22910.85
1218.21708	22444.35
1221.79391	21977.75
1225.36829	21709.45
1228.94024	21601.75
1232.50976	21500.65
1236.07685	21449.95
1239.6415	21349.75
1243.20374	21296.75
1246.76355	21296.45
1250.32093	21442.85
1253.8759	21679.75
1257.42845	22199.65
1260.97859	22851.35
1264.52631	23529.65
1268.07163	24191.85
1271.61453	24789.45
1275.15503	25300.45
1278.69312	25862.85
1282.22882	26472.45
1285.76211	27117.35
1289.29301	27797.85
1292.82151	28572.05
1296.34761	29470.05
1299.87133	30632.15
1303.39266	31897.55
1306.9116	33253.55
1310.42815	34556.25
1313.94233	35307.35
1317.45412	35223.85
1320.96354	34645.55
1324.47058	34155.45
1327.97525	33831.95
1331.47754	33572.45
1334.97747	33359.15
1338.47502	33211.45
1341.97022	33294.45
1345.46305	33427.65
1348.95352	33701.75
1352.44163	33965.15
1355.92738	34352.05
1359.41078	35266.75
1362.89183	36149.15
1366.37053	35803.45
1369.84688	33324.25
1373.32088	29971.25
1376.79254	27583.35
1380.26186	26432.15
1383.72883	25862.05
1387.19347	25403.65
1390.65578	24933.15
1394.11575	24739.75
1397.57339	24751.55
1401.0287	24872.55
1404.48168	25033.15
1407.93234	24926.85
1411.38068	24491.65
1414.82669	24012.45
1418.27039	23410.55
1421.71177	22925.05
1425.15083	22442.75
1428.58758	22184.35
1432.02203	22304.65
1435.45416	22624.75
1438.88399	22975.45
1442.31151	23194.15
1445.73673	23414.45
1449.15965	23620.25
1452.58027	23791.95
1455.9986	23898.85
1459.41463	24140.45
1462.82837	24498.25
1466.23982	24892.15
1469.64898	25177.05
1473.05586	25398.75
1476.46045	25420.55
1479.86276	25442.05
1483.26279	25500.25
1486.66054	25712.45
1490.05602	26008.65
1493.44922	26712.15
1496.84016	27659.75
1500.22882	28815.55
1503.61521	30135.55
1506.99934	31459.05
1510.38121	32424.45
1513.76081	32439.45
1517.13816	31492.55
1520.51324	30038.75
1523.88607	28681.45
1527.25665	27776.75
1530.62498	27196.65
1533.99105	26640.35
1537.35488	26115.95
1540.71647	25483.55
1544.07581	24843.05
1547.4329	24300.55
1550.78776	23911.75
1554.14038	23650.25
1557.49077	23638.55
1560.83892	23795.05
1564.18484	23974.75
1567.52853	24225.25
1570.86999	24450.05
1574.20922	24710.75
1577.54624	24946.25
1580.88103	24718.15
1584.2136	24403.55
1587.54395	24518.55
1590.87208	25115.15
1594.19801	26081.15
1597.52172	27093.95
1600.84321	27275.25
1604.16251	26362.25
1607.47959	24943.55
1610.79447	23482.65
1614.10715	21946.75
1617.41763	20631.45
1620.7259	19692.35
1624.03199	19206.35
1627.33587	19155.15
1630.63757	19625.25
1633.93707	20614.35
1637.23439	22422.25
1640.52951	24977.65
1643.82246	27952.55
1647.11321	30526.05
1650.40179	31241.75
1653.68819	29593.95
1656.97241	26192.35
1660.25446	22673.75
1663.53433	20058.95
1666.81203	18355.05
1670.08756	17324.85
1673.36092	16731.45
1676.63211	16321.75
1679.90115	16045.85
1683.16801	15826.55
1686.43272	15701.65
1689.69527	15564.05
1692.95567	15451.65
1696.2139	15387.45
1699.46999	15332.85
1702.72392	15248.85
1705.97571	15239.65
1709.22535	15225.35
1712.47284	15210.55
1715.71819	15174.65
1718.96139	15133.15
1722.20246	15074.65
1725.44139	15022.15
1728.67818	14915.65
1731.91284	14820.85
1735.14537	14746.95
1738.37576	14692.25
1741.60403	14635.55
1744.83017	14623.55
1748.05418	14584.65
1751.27607	14535.15
1754.49584	14496.25
1757.71349	14478.35
1760.92903	14430.65
1764.14244	14428.05
1767.35375	14455.25
1770.56294	14373.15
1773.77002	14362.35
1776.97499	14332.95
1780.17785	14309.75
1783.37861	14293.85
1786.57727	14250.25
1789.77382	14218.65
1792.96828	14179.25
1796.16064	14144.05
1799.3509	14146.35
1802.53907	14123.85
1805.72514	14061.85
1808.90913	13999.95
1812.09102	13993.75
1815.27083	13983.75
1818.44856	13960.05
1821.6242	13908.75
1824.79776	13906.55
1827.96924	13897.35
1831.13864	13903.05
1834.30597	13909.85
1837.47122	13932.35
1840.6344	13975.45
1843.7955	13932.75
1846.95454	13969.65
1850.11151	13944.15
1853.26642	13937.65
1856.41926	13984.75
1859.57004	13991.45
1862.71876	13953.85
1865.86542	13924.25
1869.01003	13892.65
1872.15258	13857.65
1875.29308	13859.95
1878.43152	13773.35
1881.56792	13782.75
1884.70227	13752.45
1887.83457	13708.85
1890.96482	13665.55
1894.09304	13611.35
1897.21921	13583.45
1900.34335	13544.55
1903.46544	13519.65
1906.58551	13504.45
1909.70353	13481.25
1912.81953	13434.15
1915.93349	13422.25
1919.04543	13401.65
1922.15534	13331.65
1925.26322	13282.85
1928.36908	13254.85
1931.47292	13232.95
1934.57473	13206.95
1937.67453	13136.65
1940.77232	13080.85
1943.86808	13057.35
1946.96184	13017.75
1950.05358	12936.05
1953.14331	12892.65
1956.23103	12845.85
1959.31675	12809.35
1962.40046	12772.45
1965.48217	12724.85
1968.56188	12668.95
1971.63959	12625.95
1974.7153	12567.45
1977.78901	12523.95
1980.86073	12508.75
1983.93046	12417.05
1986.99819	12390.35
1990.06394	12387.15
1993.1277	12355.55
1996.18947	12286.95
1999.24925	12275.05
2002.30706	12257.35
2005.36288	12172.15
2008.41672	12149.05
2011.46859	12098.75
2014.51848	12083.95
2017.56639	12052.95
2020.61233	11955.45
2023.6563	11954.15
2026.6983	11946.25
2029.73833	11882.65
2032.7764	11825.25
2035.8125	11833.55
2038.84664	11794.75
2041.87881	11772.05
2044.90903	11746.65
2047.93729	11715.25
2050.96359	11708.75
2053.98794	11691.15
2057.01034	11657.85
2060.03078	11659.75
2063.04927	11666.85
2066.06582	11660.95
2069.08042	11643.75
2072.09307	11643.25
2075.10378	11654.95
2078.11255	11647.15
2081.11938	11628.85
2084.12426	11614.45
2087.12722	11616.65
2090.12824	11608.35
2093.12732	11586.05
2096.12447	11598.35
2099.11969	11580.55
2102.11299	11575.45
2105.10435	11579.55
2108.09379	11581.95
2111.08131	11582.85
2114.0669	11557.45
2117.05057	11590.65
2120.03233	11599.05
2123.01216	11588.45
2125.99008	11609.75
2128.96609	11593.55
2131.94018	11587.85
2134.91236	11625.05
2137.88263	11592.95
2140.851	11586.05
2143.81746	11596.35
2146.78201	11562.55
2149.74466	11558.95
2152.7054	11534.25
2155.66425	11522.65
2158.6212	11532.65
2161.57625	11536.95
2164.52941	11516.45
2167.48067	11494.55
2170.43004	11524.15
2173.37752	11490.25
2176.32311	11499.75
2179.26681	11499.85
2182.20863	11493.35
2185.14856	11499.85
2188.08661	11431.25
2191.02278	11446.75
2193.95707	11422.45
2196.88948	11422.25
2199.82001	11415.85
2202.74867	11409.95
2205.67545	11372.95
2208.60037	11351.55
2211.52341	11366.65
2214.44458	11322.35
2217.36388	11313.35
2220.28132	11265.75
2223.1969	11223.15
2226.11061	11191.15
2229.02246	11201.15
2231.93245	11161.15
2234.84058	11129.65
2237.74686	11145.35
2240.65128	11145.15
2243.55385	11094.45
2246.45456	11079.85
2249.35343	11039.45
2252.25044	11051.55
2255.14561	11036.45
2258.03893	11013.75
2260.93041	10980.35
2263.82004	10948.45
2266.70783	10903.35
2269.59378	10905.15
2272.4779	10850.55
2275.36017	10800.25
2278.24061	10810.25
2281.11922	10776.75
2283.996	10763.35
2286.87094	10768.95
2289.74405	10716.55
2292.61534	10702.85
2295.4848	10676.05
2298.35243	10673.15
2301.21824	10689.95
2304.08223	10701.25
2306.94439	10655.25
2309.80474	10630.95
2312.66327	10610.05
2315.51999	10594.05
2318.37489	10579.35
2321.22797	10551.75
2324.07925	10566.05
2326.92871	10520.55
2329.77637	10496.65
2332.62222	10508.55
2335.46626	10485.85
2338.3085	10442.95
2341.14893	10465.85
2343.98756	10454.25
2346.8244	10450.35
2349.65943	10434.75
2352.49267	10426.85
2355.32411	10408.85
2358.15376	10432.05
2360.98161	10471.65
2363.80768	10435.45
2366.63195	10419.95
2369.45444	10408.45
2372.27514	10396.05
2375.09405	10365.25
2377.91118	10352.55
2380.72652	10324.95
2383.54009	10330.65
2386.35187	10271.05
2389.16188	10240.15
2391.97011	10222.05
2394.77657	10160.55
2397.58125	10160.25
2400.38416	10154.05
2403.18529	10119.55
2405.98466	10130.95
2408.78226	10101.15
2411.57809	10084.85
2414.37216	10085.15
2417.16446	10047.95
2419.955	10045.85
2422.74378	10033.15
2425.5308	10009.85
2428.31606	10020.85
2431.09956	10029.65
2433.88131	10004.15
2436.6613	9996.95
2439.43954	9985.75
2442.21603	9984.85
2444.99077	9958.95
2447.76377	9975.55
2450.53501	9938.75
2453.30451	9956.65
2456.07226	9940.05
2458.83827	9947.45
2461.60254	9910.25
2464.36507	9879.35
2467.12586	9862.25
2469.88492	9871.65
2472.64224	9894.45
2475.39782	9883.15
2478.15167	9892.15
2480.90379	9886.05
2483.65417	9893.85
2486.40283	9867.55
2489.14976	9876.75
2491.89497	9859.65
2494.63845	9852.75
2497.3802	9833.45
2500.12024	9821.65
2502.85855	9818.45
2505.59514	9816.05
2508.33002	9787.75
2511.06318	9784.45
2513.79462	9757.15
2516.52435	9741.35
2519.25237	9739.85
2521.97867	9712.45
2524.70327	9713.55
2527.42616	9683.85
2530.14734	9694.05
2532.86681	9659.85
2535.58458	9667.95
2538.30065	9637.35
2541.01501	9645.25
2543.72768	9636.85
2546.43864	9612.55
2549.14791	9590.05
2551.85548	9615.75
2554.56136	9557.25
2557.26554	9519.95
2559.96803	9528.85
2562.66883	9506.25
2565.36794	9497.05
2568.06536	9478.55
2570.7611	9470.65
2573.45514	9454.55
2576.14751	9413.65
2578.83819	9389.25
2581.52719	9368.45
2584.21451	9376.15
2586.90015	9356.65
2589.58411	9351.05
2592.2664	9327.95
2594.94701	9324.15
2597.62594	9294.55
2600.30321	9280.05
2602.9788	9273.15
2605.65273	9256.45
2608.32498	9275.15
2610.99557	9253.35
2613.66449	9239.75
2616.33175	9250.35
2618.99734	9220.25
2621.66128	9213.35
2624.32355	9171.55
2626.98416	9186.55
2629.64311	9150.25
2632.30041	9170.25
2634.95605	9118.15
2637.61004	9127.05
2640.26238	9117.75
2642.91306	9120.25
2645.56209	9116.45
2648.20948	9101.85
2650.85521	9092.15
2653.4993	9110.65
2656.14175	9106.35
2658.78255	9111.15
2661.42171	9099.35
2664.05923	9113.45
2666.6951	9103.75
2669.32934	9119.25
2671.96194	9099.15
2674.59291	9122.45
2677.22224	9097.65
2679.84993	9106.25
2682.476	9103.85
2685.10043	9112.55
2687.72324	9064.95
2690.34441	9088.55
2692.96396	9050.85
2695.58188	9045.85
2698.19818	9058.35
2700.81285	9056.35
2703.4259	9053.45
2706.03733	9026.55
2708.64714	9026.95
2711.25533	9034.45
2713.86191	9036.35
2716.46687	9045.65
2719.07021	9035.25
2721.67194	9069.35
2724.27206	9079.85
2726.87057	9073.35
2729.46747	9055.15
2732.06276	9081.45
2734.65644	9086.35
2737.24852	9052.35
2739.83899	9029.75
2742.42786	9030.45
2745.01513	9014.45
2747.60079	9003.05
2750.18486	8977.65
2752.76733	8988.25
2755.3482	8951.05
2757.92747	8930.25
2760.50515	8940.35
2763.08123	8910.55
2765.65573	8914.05
2768.22863	8893.75
2770.79994	8883.15
2773.36967	8882.75
2775.9378	8868.65
2778.50435	8838.95
2781.06932	8852.35
2783.6327	8853.25
2786.1945	8849.75
2788.75471	8841.55
2791.31335	8826.75
2793.87041	8792.45
2796.42589	8762.85
2798.97979	8772.45
2801.53212	8752.55
2804.08288	8750.05
2806.63206	8716.25
2809.17967	8707.85
2811.72571	8687.95
2814.27018	8645.25
2816.81308	8667.35
2819.35442	8598.05
2821.89419	8588.15
2824.43239	8599.45
2826.96904	8602.05
2829.50412	8606.85
2832.03763	8576.95
2834.56959	8574.45
2837.1	8568.85
2839.62884	8562.05
2842.15613	8551.75
2844.68186	8581.55
2847.20604	8569.95
2849.72867	8580.95
2852.24974	8541.15
2854.76927	8526.65
2857.28724	8538.25
2859.80367	8502.85
2862.31855	8506.65
2864.83189	8499.75
2867.34368	8488.85
2869.85393	8482.15
2872.36264	8475.65
2874.8698	8450.55
2877.37543	8461.15
2879.87952	8449.55
2882.38207	8458.85
2884.88308	8450.75
2887.38256	8458.35
2889.88051	8429.45
2892.37692	8455.35
2894.8718	8445.55
2897.36515	8465.05
2899.85698	8455.85
2902.34727	8436.95
2904.83604	8447.45
2907.32328	8468.05
2909.809	8454.15
2912.29319	8441.65
2914.77587	8434.55
2917.25702	8447.65
2919.73665	8428.05
2922.21476	8434.85
2924.69136	8448.35
2927.16644	8423.95
2929.64	8420.35
2932.11205	8376.05
2934.58258	8352.75
2937.05161	8356.05
2939.51912	8366.55
2941.98513	8358.55
2944.44962	8329.25
2946.91261	8309.35
2949.37409	8294.05
2951.83407	8294.55
2954.29254	8297.35
2956.74951	8282.85
2959.20498	8261.25
2961.65895	8273.05
2964.11142	8274.25
2966.56239	8263.85
2969.01186	8244.75
2971.45984	8221.55
2973.90632	8226.75
2976.35131	8210.35
2978.7948	8167.55
2981.23681	8166.65
2983.67732	8127.45
2986.11635	8115.55
2988.55388	8098.85
2990.98993	8070.65
2993.4245	8066.15
2995.85758	8040.45
2998.28917	8009.25
3000.71928	8010.15
3003.14791	7981.45
3005.57506	7971.85
3008.00073	7965.65
3010.42493	7959.85
3012.84764	7922.75
3015.26888	7877.35
3017.68865	7884.25
3020.10694	7866.15
3022.52376	7849.65
3024.9391	7845.25
3027.35298	7838.25
3029.76539	7819.55
3032.17632	7816.95
3034.5858	7808.35
3036.9938	7802.85
3039.40034	7784.25
3041.80542	7794.75
3044.20903	7751.85
3046.61118	7783.95
3049.01187	7721.95
3051.4111	7732.95
3053.80888	7703.95
3056.20519	7687.05
3058.60005	7676.25
3060.99345	7644.05
3063.3854	7654.85
3065.7759	7622.65
3068.16494	7608.05
3070.55254	7590.65
3072.93868	7585.05
3075.32338	7556.25
3077.70662	7530.05
3080.08842	7525.75
3082.46878	7532.55
3084.84769	7501.75
3087.22515	7488.65
3089.60118	7480.45
3091.97576	7501.35
3094.3489	7476.15
3096.72061	7498.65
3099.09087	7490.75
3101.4597	7479.75
3103.82709	7472.55
3106.19305	7458.65
3108.55757	7443.25
3110.92066	7451.05
3113.28232	7423.55
3115.64255	7419.75
3118.00134	7397.75
3120.35871	7405.15
3122.71466	7362.25
3125.06917	7352.55
3127.42226	7347.25
3129.77393	7335.35
3132.12417	7331.05
3134.47299	7340.25
3136.82039	7303.65
3139.16636	7329.25
3141.51092	7318.45
3143.85406	7309.85
3146.19579	7319.15
3148.53609	7299.25
3150.87499	7327.15
3153.21246	7312.65
3155.54853	7352.55
3157.88318	7331.95
3160.21642	7338.35
3162.54826	7340.15
3164.87868	7348.35
3167.2077	7315.65
3169.5353	7357.95
3171.86151	7323.05
3174.18631	7329.95
3176.5097	7316.55
3178.83169	7303.05
3181.15228	7296.45
3183.47147	7278.35
3185.78926	7297.85
3188.10565	7276.45
3190.42065	7280.85
3192.73424	7286.25
3195.04645	7276.05
3197.35725	7274.45
3199.66667	7246.45
3201.97469	7252.85
3204.28132	7242.65
3206.58656	7263.45
3208.8904	7264.55
3211.19287	7252.15
3213.49394	7263.25
3215.79363	7279.25
3218.09193	7260.65
3220.38884	7252.05
3222.68438	7242.05
3224.97853	7250.15
3227.2713	7257.95
3229.56269	7243.75
3231.8527	7240.85
3234.14133	7201.95
3236.42858	7188.95
3238.71446	7178.75
3240.99896	7165.85
3243.28209	7146.35
3245.56384	7148.15
3247.84423	7171.05
3250.12324	7139.15
3252.40088	7122.25
3254.67715	7112.45
3256.95205	7111.35
3259.22558	7085.95
3261.49775	7116.25
3263.76855	7085.95
3266.03799	7071.45
3268.30606	7065.65
3270.57277	7029.25
3272.83812	7038.45
3275.10211	6996.85
3277.36474	7011.15
3279.62601	6994.45
3281.88593	6985.75
3284.14448	6990.75
3286.40168	6982.35
3288.65753	6972.45
3290.91202	6983.55
3293.16516	6964.85
3295.41695	6952.55
3297.66738	6913.05
3299.91647	6861.25
3302.16421	6810.75
3304.4106	6771.45
3306.65564	6753.95
3308.89933	6686.65
3311.14169	6657.75
3313.38269	6578.05
3315.62236	6537.95
3317.86068	6486.45
3320.09766	6433.55
3322.3333	6381.75
3324.5676	6352.55
3326.80056	6236.05
3329.03219	6205.45
3331.26248	3.15
3333.49143	-0.75
3335.71905	-1.65
