Data from AgNP_FTO_APTES_UA_10uM_CRN_200uM_R6G_10uM_NaF_0.1M_Addition_RamanShift__1__18-01-50-877.txt Node

Date: Thu Feb 10 18:01:50 GMT 2022
User: TCL
Spectrometer: QEP01345
Trigger mode: 4
Integration Time (sec): 7.000000E0
Scans to average: 10
Electric dark correction enabled: true
Nonlinearity correction enabled: false
Boxcar width: 0
XAxis mode: Raman Shifts
Number of Pixels in Spectrum: 1044
>>>>>Begin Spectral Data<<<<<
46.04893	-0.45
50.45542	-0.35
54.85868	-1.95
59.25871	-1.85
63.6555	68.35
68.04907	70.05
72.43941	71.45
76.82654	72.55
81.21044	79.95
85.59113	75.05
89.96862	80.75
94.34289	83.55
98.71396	83.55
103.08183	91.35
107.4465	94.35
111.80798	92.55
116.16626	95.65
120.52136	102.75
124.87327	105.95
129.222	112.25
133.56755	117.85
137.90993	121.95
142.24913	130.75
146.58517	148.55
150.91804	173.55
155.24774	205.45
159.57429	252.55
163.89768	318.25
168.21792	426.05
172.53501	579.45
176.84895	806.85
181.15975	1140.65
185.46741	1590.95
189.77193	2204.75
194.07331	2960.95
198.37157	3825.65
202.6667	4714.95
206.9587	5615.45
211.24758	6472.25
215.53334	7368.95
219.81599	8286.65
224.09553	9268.95
228.37195	10399.15
232.64527	11654.45
236.91549	12917.55
241.18261	14222.95
245.44663	15502.45
249.70755	16637.45
253.96539	17663.85
258.22014	18507.65
262.4718	19249.35
266.72039	19731.85
270.96589	20013.75
275.20832	20029.25
279.44768	19894.85
283.68397	19620.15
287.91719	19437.75
292.14735	19265.35
296.37445	19241.35
300.59849	19292.55
304.81948	19342.95
309.03742	19324.25
313.25231	19201.75
317.46415	18958.95
321.67296	18611.85
325.87872	18386.85
330.08145	18217.65
334.28114	18268.95
338.47781	18444.15
342.67145	18668.35
346.86207	18942.05
351.04966	19237.15
355.23424	19588.25
359.4158	19899.85
363.59435	20173.95
367.76989	20382.25
371.94243	20556.85
376.11196	20686.35
380.27849	20841.45
384.44203	20963.45
388.60257	21117.75
392.76012	21262.85
396.91468	21490.55
401.06626	21760.75
405.21485	21948.95
409.36047	21892.45
413.50311	21712.45
417.64277	21543.55
421.77947	21535.85
425.9132	21573.35
430.04396	21654.75
434.17176	21780.05
438.2966	21924.45
442.41849	22241.95
446.53742	22699.25
450.6534	23259.05
454.76644	23600.15
458.87653	23699.55
462.98368	23551.35
467.08789	23350.55
471.18916	23097.15
475.2875	22888.75
479.38291	22745.45
483.4754	22665.65
487.56496	22456.85
491.6516	22308.35
495.73531	22078.75
499.81612	22027.15
503.89401	22067.15
507.96899	22133.05
512.04106	22143.25
516.11023	22085.15
520.1765	22016.95
524.23987	21942.65
528.30034	21887.35
532.35792	21810.85
536.41261	21655.05
540.46441	21427.55
544.51333	21426.65
548.55936	21562.35
552.60252	21879.65
556.64279	22239.75
560.6802	22523.95
564.71473	22616.65
568.7464	22816.25
572.7752	23150.55
576.80114	23483.75
580.82422	23810.25
584.84444	24291.15
588.86181	25010.05
592.87633	25692.85
596.888	25684.55
600.89682	25033.65
604.9028	25005.55
608.90594	26475.55
612.90624	28266.25
616.90371	27104.85
620.89834	23893.15
624.89015	22497.55
628.87913	22340.25
632.86528	22361.25
636.84862	22356.45
640.82913	22107.25
644.80683	21794.55
648.78172	21597.15
652.75379	21605.85
656.72306	21856.45
660.68952	22089.05
664.65319	22001.95
668.61405	21694.35
672.57211	21710.65
676.52738	21765.35
680.47986	21759.15
684.42955	21682.45
688.37646	21626.35
692.32058	21724.25
696.26192	21964.35
700.20048	22150.35
704.13626	22321.85
708.06928	22337.15
711.99952	22227.05
715.927	22207.25
719.85171	22272.45
723.77365	22258.05
727.69284	22053.75
731.60928	21908.25
735.52295	21829.85
739.43388	21823.85
743.34206	21892.05
747.24749	21973.65
751.15017	22097.35
755.05012	22299.85
758.94733	22742.25
762.8418	23394.05
766.73354	24507.45
770.62254	25616.25
774.50882	25990.05
778.39237	25345.85
782.27321	24149.75
786.15132	23080.05
790.02671	22393.85
793.89938	22079.85
797.76935	21911.15
801.6366	21885.45
805.50115	21893.55
809.36299	21796.65
813.22213	21696.95
817.07857	21648.35
820.93231	21644.15
824.78336	21556.15
828.63172	21536.55
832.47738	21615.15
836.32036	21651.65
840.16066	21710.15
843.99827	21765.05
847.8332	21747.65
851.66546	21702.75
855.49504	21719.35
859.32195	21765.65
863.1462	21700.25
866.96777	21672.75
870.78668	21635.55
874.60293	21641.55
878.41652	21687.95
882.22745	21714.45
886.03573	21732.55
889.84136	21743.25
893.64433	21678.15
897.44466	21645.45
901.24235	21571.35
905.0374	21556.25
908.8298	21501.55
912.61957	21497.45
916.40671	21608.25
920.19121	21785.55
923.97308	21945.35
927.75233	21995.05
931.52895	21961.55
935.30295	21767.45
939.07433	21543.45
942.84309	21360.85
946.60924	21275.35
950.37278	21236.95
954.13371	21181.95
957.89203	21121.65
961.64774	21110.55
965.40086	21080.95
969.15137	21056.35
972.89929	21019.95
976.64461	21042.45
980.38733	21062.45
984.12747	21182.25
987.86502	21284.45
991.59999	21412.85
995.33237	21649.05
999.06217	21979.65
1002.78939	22289.15
1006.51404	22528.15
1010.23611	22688.95
1013.95561	22812.85
1017.67255	22820.85
1021.38692	22618.35
1025.09872	22465.45
1028.80796	22506.85
1032.51465	22760.05
1036.21877	23092.25
1039.92035	23257.15
1043.61937	23124.95
1047.31584	22850.35
1051.00976	22605.75
1054.70114	22464.65
1058.38998	22479.15
1062.07627	22490.65
1065.76003	22646.75
1069.44126	22754.45
1073.11995	22964.75
1076.79611	23212.95
1080.46974	23291.45
1084.14085	23402.85
1087.80943	23582.65
1091.47549	23676.75
1095.13903	23691.45
1098.80005	23492.25
1102.45857	23214.75
1106.11456	23012.65
1109.76805	22885.65
1113.41903	22924.75
1117.06751	23005.65
1120.71348	23134.25
1124.35696	23329.25
1127.99793	23547.15
1131.63641	23663.65
1135.2724	23565.65
1138.90589	23342.65
1142.5369	23323.55
1146.16542	23313.35
1149.79145	23362.35
1153.415	23449.65
1157.03607	23569.25
1160.65467	23987.45
1164.27079	24664.05
1167.88443	25515.05
1171.49561	26423.85
1175.10432	27618.25
1178.71056	29155.75
1182.31434	30585.25
1185.91565	31297.35
1189.51451	31049.45
1193.11091	30340.45
1196.70485	29452.65
1200.29634	28678.05
1203.88538	28259.25
1207.47197	27858.25
1211.05612	27548.85
1214.63782	27048.65
1218.21708	26596.65
1221.79391	26299.85
1225.36829	26019.55
1228.94024	25764.15
1232.50976	25527.25
1236.07685	25281.85
1239.6415	25188.85
1243.20374	25219.75
1246.76355	25396.25
1250.32093	25719.85
1253.8759	26055.05
1257.42845	26464.35
1260.97859	26968.65
1264.52631	27537.85
1268.07163	28073.35
1271.61453	28628.95
1275.15503	29149.25
1278.69312	29708.35
1282.22882	30142.75
1285.76211	30786.75
1289.29301	31556.15
1292.82151	32588.15
1296.34761	33846.35
1299.87133	35400.55
1303.39266	37088.75
1306.9116	38789.05
1310.42815	40142.15
1313.94233	40724.95
1317.45412	40307.85
1320.96354	39346.65
1324.47058	38354.95
1327.97525	37504.65
1331.47754	36846.15
1334.97747	36430.45
1338.47502	36118.65
1341.97022	35797.35
1345.46305	35465.55
1348.95352	35450.75
1352.44163	35946.45
1355.92738	37094.35
1359.41078	38806.05
1362.89183	40063.05
1366.37053	39467.05
1369.84688	36599.65
1373.32088	33199.85
1376.79254	30997.45
1380.26186	30190.35
1383.72883	30076.55
1387.19347	29962.15
1390.65578	29749.55
1394.11575	29574.65
1397.57339	29664.45
1401.0287	29931.55
1404.48168	30123.75
1407.93234	30043.65
1411.38068	29646.05
1414.82669	29068.45
1418.27039	28334.95
1421.71177	27606.05
1425.15083	26916.35
1428.58758	26604.35
1432.02203	26794.75
1435.45416	27231.75
1438.88399	27772.95
1442.31151	28116.65
1445.73673	28327.85
1449.15965	28473.55
1452.58027	28423.75
1455.9986	28316.65
1459.41463	28413.35
1462.82837	28623.15
1466.23982	29035.75
1469.64898	29420.45
1473.05586	29720.05
1476.46045	29865.75
1479.86276	29849.65
1483.26279	29701.05
1486.66054	29604.25
1490.05602	29699.55
1493.44922	30018.75
1496.84016	30369.35
1500.22882	30931.85
1503.61521	31849.45
1506.99934	32868.05
1510.38121	33727.55
1513.76081	33910.55
1517.13816	33237.65
1520.51324	32069.55
1523.88607	31099.95
1527.25665	30566.95
1530.62498	30400.15
1533.99105	30219.15
1537.35488	29994.85
1540.71647	29605.45
1544.07581	29081.85
1547.4329	28625.85
1550.78776	28206.35
1554.14038	27933.05
1557.49077	27797.45
1560.83892	27719.85
1564.18484	27748.25
1567.52853	27874.05
1570.86999	28108.85
1574.20922	28482.15
1577.54624	28733.55
1580.88103	28792.75
1584.2136	28857.45
1587.54395	29397.05
1590.87208	30415.55
1594.19801	31758.55
1597.52172	33006.25
1600.84321	33299.65
1604.16251	32240.75
1607.47959	30331.65
1610.79447	28347.45
1614.10715	26564.95
1617.41763	25280.85
1620.7259	24432.75
1624.03199	24010.05
1627.33587	24091.75
1630.63757	24537.15
1633.93707	25516.55
1637.23439	27075.35
1640.52951	29350.55
1643.82246	32153.15
1647.11321	34477.05
1650.40179	34925.15
1653.68819	33004.75
1656.97241	29664.15
1660.25446	26454.15
1663.53433	24253.65
1666.81203	22797.75
1670.08756	21896.05
1673.36092	21365.95
1676.63211	21019.75
1679.90115	20775.15
1683.16801	20531.75
1686.43272	20367.45
1689.69527	20287.75
1692.95567	20207.05
1696.2139	20171.35
1699.46999	20131.85
1702.72392	20101.75
1705.97571	20078.35
1709.22535	20033.95
1712.47284	20002.25
1715.71819	20015.45
1718.96139	19935.65
1722.20246	19958.75
1725.44139	19888.35
1728.67818	19800.35
1731.91284	19671.25
1735.14537	19627.85
1738.37576	19595.35
1741.60403	19569.35
1744.83017	19526.15
1748.05418	19481.25
1751.27607	19432.35
1754.49584	19438.75
1757.71349	19460.35
1760.92903	19420.65
1764.14244	19415.75
1767.35375	19431.05
1770.56294	19368.85
1773.77002	19380.35
1776.97499	19332.55
1780.17785	19286.25
1783.37861	19247.05
1786.57727	19231.75
1789.77382	19208.55
1792.96828	19179.95
1796.16064	19145.35
1799.3509	19122.65
1802.53907	19104.45
1805.72514	19034.25
1808.90913	19001.95
1812.09102	18997.05
1815.27083	18935.95
1818.44856	18927.05
1821.6242	18890.75
1824.79776	18877.05
1827.96924	18840.25
1831.13864	18848.35
1834.30597	18821.35
1837.47122	18855.65
1840.6344	18825.65
1843.7955	18819.25
1846.95454	18784.85
1850.11151	18771.05
1853.26642	18774.45
1856.41926	18757.75
1859.57004	18806.05
1862.71876	18774.45
1865.86542	18716.35
1869.01003	18727.55
1872.15258	18708.55
1875.29308	18693.85
1878.43152	18676.75
1881.56792	18650.15
1884.70227	18642.95
1887.83457	18607.55
1890.96482	18563.85
1894.09304	18539.25
1897.21921	18539.85
1900.34335	18531.75
1903.46544	18502.85
1906.58551	18517.05
1909.70353	18454.75
1912.81953	18452.75
1915.93349	18462.85
1919.04543	18415.75
1922.15534	18346.55
1925.26322	18349.55
1928.36908	18327.35
1931.47292	18318.45
1934.57473	18267.85
1937.67453	18220.25
1940.77232	18202.15
1943.86808	18141.55
1946.96184	18107.55
1950.05358	18033.05
1953.14331	18014.75
1956.23103	17918.15
1959.31675	17890.55
1962.40046	17864.25
1965.48217	17843.75
1968.56188	17766.25
1971.63959	17711.85
1974.7153	17656.85
1977.78901	17630.95
1980.86073	17587.75
1983.93046	17550.35
1986.99819	17494.45
1990.06394	17469.45
1993.1277	17424.45
1996.18947	17367.45
1999.24925	17304.05
2002.30706	17239.65
2005.36288	17206.55
2008.41672	17166.65
2011.46859	17142.25
2014.51848	17108.55
2017.56639	17045.45
2020.61233	17023.85
2023.6563	16989.95
2026.6983	16946.35
2029.73833	16904.45
2032.7764	16861.65
2035.8125	16849.75
2038.84664	16814.15
2041.87881	16758.55
2044.90903	16743.75
2047.93729	16699.95
2050.96359	16703.95
2053.98794	16693.25
2057.01034	16661.35
2060.03078	16614.65
2063.04927	16653.85
2066.06582	16619.15
2069.08042	16633.65
2072.09307	16602.75
2075.10378	16617.25
2078.11255	16603.45
2081.11938	16632.15
2084.12426	16604.45
2087.12722	16609.35
2090.12824	16597.95
2093.12732	16598.95
2096.12447	16610.55
2099.11969	16623.25
2102.11299	16573.65
2105.10435	16558.35
2108.09379	16583.15
2111.08131	16611.95
2114.0669	16624.65
2117.05057	16619.95
2120.03233	16685.45
2123.01216	16700.05
2125.99008	16688.25
2128.96609	16706.35
2131.94018	16750.45
2134.91236	16737.65
2137.88263	16748.45
2140.851	16780.35
2143.81746	16799.35
2146.78201	16791.95
2149.74466	16788.35
2152.7054	16788.65
2155.66425	16794.15
2158.6212	16779.35
2161.57625	16787.25
2164.52941	16767.15
2167.48067	16743.55
2170.43004	16795.75
2173.37752	16759.65
2176.32311	16762.85
2179.26681	16768.45
2182.20863	16820.85
2185.14856	16794.75
2188.08661	16768.15
2191.02278	16802.65
2193.95707	16823.75
2196.88948	16800.45
2199.82001	16789.25
2202.74867	16758.35
2205.67545	16711.25
2208.60037	16716.15
2211.52341	16699.85
2214.44458	16682.15
2217.36388	16677.55
2220.28132	16618.05
2223.1969	16632.15
2226.11061	16581.55
2229.02246	16563.25
2231.93245	16564.75
2234.84058	16523.55
2237.74686	16512.45
2240.65128	16475.75
2243.55385	16430.15
2246.45456	16388.05
2249.35343	16396.25
2252.25044	16356.25
2255.14561	16360.95
2258.03893	16361.45
2260.93041	16348.85
2263.82004	16284.65
2266.70783	16250.15
2269.59378	16215.35
2272.4779	16155.65
2275.36017	16119.65
2278.24061	16114.85
2281.11922	16092.05
2283.996	16088.75
2286.87094	16091.75
2289.74405	16055.95
2292.61534	16063.85
2295.4848	16039.45
2298.35243	16062.65
2301.21824	16012.85
2304.08223	16003.95
2306.94439	16040.95
2309.80474	16031.15
2312.66327	16065.85
2315.51999	16015.45
2318.37489	16021.65
2321.22797	15966.85
2324.07925	15941.05
2326.92871	15925.65
2329.77637	15894.85
2332.62222	15895.95
2335.46626	15892.95
2338.3085	15832.85
2341.14893	15875.45
2343.98756	15855.95
2346.8244	15834.35
2349.65943	15819.75
2352.49267	15808.55
2355.32411	15848.35
2358.15376	15795.15
2360.98161	15803.05
2363.80768	15818.95
2366.63195	15772.65
2369.45444	15733.95
2372.27514	15757.95
2375.09405	15725.55
2377.91118	15724.25
2380.72652	15668.15
2383.54009	15643.05
2386.35187	15628.45
2389.16188	15558.55
2391.97011	15555.05
2394.77657	15527.95
2397.58125	15493.85
2400.38416	15481.85
2403.18529	15457.45
2405.98466	15449.85
2408.78226	15416.65
2411.57809	15405.45
2414.37216	15377.05
2417.16446	15347.45
2419.955	15334.65
2422.74378	15367.85
2425.5308	15322.25
2428.31606	15325.75
2431.09956	15338.45
2433.88131	15304.35
2436.6613	15297.45
2439.43954	15285.35
2442.21603	15286.55
2444.99077	15292.45
2447.76377	15269.65
2450.53501	15249.95
2453.30451	15245.15
2456.07226	15220.75
2458.83827	15214.45
2461.60254	15239.65
2464.36507	15222.95
2467.12586	15203.15
2469.88492	15196.95
2472.64224	15196.85
2475.39782	15162.95
2478.15167	15184.75
2480.90379	15163.75
2483.65417	15214.15
2486.40283	15181.65
2489.14976	15196.75
2491.89497	15181.25
2494.63845	15186.25
2497.3802	15154.25
2500.12024	15161.55
2502.85855	15140.95
2505.59514	15132.25
2508.33002	15117.55
2511.06318	15104.05
2513.79462	15091.85
2516.52435	15091.95
2519.25237	15067.15
2521.97867	15053.65
2524.70327	15045.35
2527.42616	15015.35
2530.14734	15042.55
2532.86681	15038.25
2535.58458	15031.85
2538.30065	15001.65
2541.01501	14994.75
2543.72768	14974.35
2546.43864	14952.75
2549.14791	14961.45
2551.85548	14961.25
2554.56136	14927.15
2557.26554	14911.15
2559.96803	14855.95
2562.66883	14857.45
2565.36794	14810.75
2568.06536	14810.65
2570.7611	14789.85
2573.45514	14755.15
2576.14751	14754.05
2578.83819	14720.85
2581.52719	14708.75
2584.21451	14704.85
2586.90015	14693.05
2589.58411	14686.95
2592.2664	14652.95
2594.94701	14667.75
2597.62594	14635.15
2600.30321	14596.55
2602.9788	14579.35
2605.65273	14538.95
2608.32498	14565.15
2610.99557	14533.75
2613.66449	14540.55
2616.33175	14511.55
2618.99734	14484.95
2621.66128	14496.25
2624.32355	14489.75
2626.98416	14472.35
2629.64311	14440.15
2632.30041	14436.15
2634.95605	14417.55
2637.61004	14371.85
2640.26238	14365.85
2642.91306	14399.85
2645.56209	14345.05
2648.20948	14327.45
2650.85521	14377.75
2653.4993	14353.65
2656.14175	14389.15
2658.78255	14369.85
2661.42171	14346.05
2664.05923	14387.55
2666.6951	14415.15
2669.32934	14418.05
2671.96194	14408.45
2674.59291	14410.55
2677.22224	14391.55
2679.84993	14370.45
2682.476	14368.15
2685.10043	14380.15
2687.72324	14337.45
2690.34441	14360.95
2692.96396	14330.55
2695.58188	14347.75
2698.19818	14331.05
2700.81285	14346.75
2703.4259	14364.55
2706.03733	14396.05
2708.64714	14371.65
2711.25533	14377.55
2713.86191	14376.85
2716.46687	14389.05
2719.07021	14376.25
2721.67194	14380.25
2724.27206	14391.65
2726.87057	14415.85
2729.46747	14422.25
2732.06276	14414.15
2734.65644	14402.05
2737.24852	14387.95
2739.83899	14391.35
2742.42786	14364.45
2745.01513	14342.15
2747.60079	14337.45
2750.18486	14307.95
2752.76733	14350.75
2755.3482	14272.45
2757.92747	14303.65
2760.50515	14248.85
2763.08123	14264.05
2765.65573	14216.25
2768.22863	14246.35
2770.79994	14215.45
2773.36967	14227.95
2775.9378	14193.35
2778.50435	14175.55
2781.06932	14188.35
2783.6327	14186.15
2786.1945	14185.95
2788.75471	14192.95
2791.31335	14138.85
2793.87041	14139.35
2796.42589	14089.65
2798.97979	14118.55
2801.53212	14094.05
2804.08288	14039.15
2806.63206	14021.45
2809.17967	13971.45
2811.72571	13911.75
2814.27018	13931.65
2816.81308	13912.65
2819.35442	13877.55
2821.89419	13839.35
2824.43239	13814.45
2826.96904	13807.35
2829.50412	13792.25
2832.03763	13808.25
2834.56959	13801.25
2837.1	13779.35
2839.62884	13805.35
2842.15613	13765.75
2844.68186	13820.95
2847.20604	13829.95
2849.72867	13856.45
2852.24974	13811.45
2854.76927	13831.65
2857.28724	13772.65
2859.80367	13755.35
2862.31855	13711.85
2864.83189	13739.75
2867.34368	13703.85
2869.85393	13666.25
2872.36264	13692.25
2874.8698	13660.95
2877.37543	13670.45
2879.87952	13653.65
2882.38207	13679.95
2884.88308	13657.25
2887.38256	13670.25
2889.88051	13670.35
2892.37692	13657.35
2894.8718	13667.15
2897.36515	13686.75
2899.85698	13705.55
2902.34727	13740.85
2904.83604	13746.35
2907.32328	13795.15
2909.809	13739.55
2912.29319	13716.15
2914.77587	13712.65
2917.25702	13749.05
2919.73665	13709.05
2922.21476	13720.25
2924.69136	13698.25
2927.16644	13674.15
2929.64	13691.55
2932.11205	13676.75
2934.58258	13643.85
2937.05161	13657.05
2939.51912	13678.45
2941.98513	13651.95
2944.44962	13628.45
2946.91261	13572.45
2949.37409	13605.95
2951.83407	13597.05
2954.29254	13573.75
2956.74951	13589.15
2959.20498	13591.15
2961.65895	13542.85
2964.11142	13579.65
2966.56239	13547.55
2969.01186	13544.25
2971.45984	13517.25
2973.90632	13517.65
2976.35131	13450.75
2978.7948	13457.05
2981.23681	13438.35
2983.67732	13411.75
2986.11635	13403.85
2988.55388	13355.55
2990.98993	13328.95
2993.4245	13346.35
2995.85758	13279.25
2998.28917	13254.25
3000.71928	13244.05
3003.14791	13218.35
3005.57506	13204.15
3008.00073	13181.85
3010.42493	13180.75
3012.84764	13182.75
3015.26888	13157.65
3017.68865	13116.95
3020.10694	13106.45
3022.52376	13098.75
3024.9391	13056.35
3027.35298	13034.45
3029.76539	13023.95
3032.17632	13061.55
3034.5858	13038.15
3036.9938	13034.35
3039.40034	13035.35
3041.80542	13018.55
3044.20903	12970.95
3046.61118	12948.05
3049.01187	12942.55
3051.4111	12929.45
3053.80888	12901.35
3056.20519	12891.65
3058.60005	12879.15
3060.99345	12849.85
3063.3854	12841.15
3065.7759	12808.65
3068.16494	12791.15
3070.55254	12780.15
3072.93868	12754.85
3075.32338	12724.45
3077.70662	12709.45
3080.08842	12673.25
3082.46878	12638.65
3084.84769	12659.15
3087.22515	12632.85
3089.60118	12645.05
3091.97576	12663.65
3094.3489	12626.55
3096.72061	12624.35
3099.09087	12644.65
3101.4597	12652.85
3103.82709	12658.75
3106.19305	12633.55
3108.55757	12616.15
3110.92066	12593.45
3113.28232	12596.25
3115.64255	12530.25
3118.00134	12515.85
3120.35871	12493.75
3122.71466	12479.65
3125.06917	12454.25
3127.42226	12434.85
3129.77393	12414.85
3132.12417	12412.05
3134.47299	12405.05
3136.82039	12427.85
3139.16636	12399.05
3141.51092	12440.85
3143.85406	12426.25
3146.19579	12417.55
3148.53609	12405.25
3150.87499	12434.75
3153.21246	12426.55
3155.54853	12428.35
3157.88318	12444.65
3160.21642	12464.75
3162.54826	12444.55
3164.87868	12475.65
3167.2077	12481.05
3169.5353	12463.55
3171.86151	12445.45
3174.18631	12469.45
3176.5097	12445.55
3178.83169	12441.15
3181.15228	12419.95
3183.47147	12420.55
3185.78926	12400.35
3188.10565	12385.95
3190.42065	12357.55
3192.73424	12347.75
3195.04645	12350.25
3197.35725	12359.15
3199.66667	12324.65
3201.97469	12358.65
3204.28132	12349.65
3206.58656	12371.75
3208.8904	12349.85
3211.19287	12356.75
3213.49394	12361.45
3215.79363	12369.05
3218.09193	12396.85
3220.38884	12393.55
3222.68438	12401.25
3224.97853	12379.85
3227.2713	12362.15
3229.56269	12362.15
3231.8527	12341.75
3234.14133	12308.05
3236.42858	12296.55
3238.71446	12316.35
3240.99896	12248.65
3243.28209	12243.25
3245.56384	12233.85
3247.84423	12219.35
3250.12324	12199.15
3252.40088	12198.85
3254.67715	12172.55
3256.95205	12141.55
3259.22558	12184.95
3261.49775	12147.25
3263.76855	12136.65
3266.03799	12121.65
3268.30606	12128.05
3270.57277	12114.25
3272.83812	12089.75
3275.10211	12080.65
3277.36474	12032.55
3279.62601	12026.25
3281.88593	12003.45
3284.14448	12011.35
3286.40168	11995.75
3288.65753	12029.45
3290.91202	12028.85
3293.16516	12003.25
3295.41695	11935.45
3297.66738	11902.35
3299.91647	11834.65
3302.16421	11762.75
3304.4106	11710.45
3306.65564	11645.05
3308.89933	11541.45
3311.14169	11492.45
3313.38269	11403.65
3315.62236	11325.25
3317.86068	11233.05
3320.09766	11125.75
3322.3333	11075.05
3324.5676	10997.15
3326.80056	10837.05
3329.03219	10760.85
3331.26248	4.35
3333.49143	0.75
3335.71905	-0.55
