Data from AgNP_FTO_APTES_UA_10uM_CRN_2uM_R6G_10uM_NaF_0.1M_Addition_RamanShift__7__14-05-00-584.txt Node

Date: Thu Feb 10 14:05:00 GMT 2022
User: TCL
Spectrometer: QEP01345
Trigger mode: 4
Integration Time (sec): 7.000000E0
Scans to average: 10
Electric dark correction enabled: true
Nonlinearity correction enabled: false
Boxcar width: 0
XAxis mode: Raman Shifts
Number of Pixels in Spectrum: 1044
>>>>>Begin Spectral Data<<<<<
46.04893	-0.15
50.45542	-0.75
54.85868	-1.25
59.25871	-0.85
63.6555	69.55
68.04907	70.55
72.43941	76.05
76.82654	74.85
81.21044	80.75
85.59113	81.35
89.96862	86.55
94.34289	89.55
98.71396	90.65
103.08183	97.05
107.4465	98.75
111.80798	98.85
116.16626	103.05
120.52136	106.35
124.87327	112.55
129.222	120.35
133.56755	126.95
137.90993	134.25
142.24913	143.75
146.58517	166.95
150.91804	193.95
155.24774	232.65
159.57429	292.15
163.89768	368.65
168.21792	500.65
172.53501	686.25
176.84895	950.85
181.15975	1336.65
185.46741	1868.95
189.77193	2588.35
194.07331	3465.75
198.37157	4462.85
202.6667	5523.45
206.9587	6572.65
211.24758	7603.25
215.53334	8645.45
219.81599	9748.85
224.09553	10968.35
228.37195	12336.45
232.64527	13785.85
236.91549	15312.05
241.18261	16839.85
245.44663	18192.65
249.70755	19453.55
253.96539	20497.05
258.22014	21392.95
262.4718	22168.65
266.72039	22661.85
270.96589	22946.15
275.20832	22965.85
279.44768	22832.65
283.68397	22574.05
287.91719	22432.45
292.14735	22334.25
296.37445	22388.25
300.59849	22599.25
304.81948	22879.75
309.03742	22966.25
313.25231	22836.25
317.46415	22348.15
321.67296	21614.25
325.87872	21034.35
330.08145	20694.95
334.28114	20641.15
338.47781	20823.25
342.67145	21132.85
346.86207	21512.55
351.04966	22019.65
355.23424	22487.35
359.4158	22875.85
363.59435	23126.55
367.76989	23295.05
371.94243	23378.85
376.11196	23398.25
380.27849	23392.65
384.44203	23493.45
388.60257	23636.35
392.76012	23816.15
396.91468	24112.15
401.06626	24512.45
405.21485	24746.75
409.36047	24495.85
413.50311	24043.55
417.64277	23705.95
421.77947	23586.95
425.9132	23644.05
430.04396	23760.05
434.17176	23825.55
438.2966	23992.65
442.41849	24341.65
446.53742	24911.85
450.6534	25617.55
454.76644	26080.45
458.87653	26222.15
462.98368	26092.55
467.08789	25867.35
471.18916	25519.85
475.2875	25148.55
479.38291	24852.35
483.4754	24640.65
487.56496	24343.65
491.6516	24008.15
495.73531	23625.55
499.81612	23478.85
503.89401	23561.45
507.96899	23710.35
512.04106	23751.75
516.11023	23745.55
520.1765	23543.95
524.23987	23371.95
528.30034	23141.85
532.35792	22930.35
536.41261	22597.65
540.46441	22335.85
544.51333	22267.65
548.55936	22541.55
552.60252	23075.55
556.64279	23669.75
560.6802	24114.65
564.71473	24320.45
568.7464	24793.35
572.7752	25538.55
576.80114	26241.05
580.82422	26902.45
584.84444	27585.25
588.86181	28465.05
592.87633	29158.55
596.888	28964.75
600.89682	28026.15
604.9028	28116.15
608.90594	30538.85
612.90624	33416.85
616.90371	31389.15
620.89834	25821.55
624.89015	23345.75
628.87913	22993.45
632.86528	23143.95
636.84862	23228.85
640.82913	22835.15
644.80683	22188.25
648.78172	21715.05
652.75379	21644.75
656.72306	22021.25
660.68952	22454.95
664.65319	22295.05
668.61405	21775.85
672.57211	21622.15
676.52738	21725.25
680.47986	21699.65
684.42955	21544.75
688.37646	21434.95
692.32058	21538.75
696.26192	21824.55
700.20048	22166.75
704.13626	22396.15
708.06928	22373.15
711.99952	22237.85
715.927	22203.95
719.85171	22256.55
723.77365	22183.45
727.69284	21831.05
731.60928	21544.15
735.52295	21422.05
739.43388	21369.05
743.34206	21468.45
747.24749	21617.35
751.15017	21827.25
755.05012	22246.25
758.94733	22933.85
762.8418	24306.05
766.73354	26435.25
770.62254	28412.15
774.50882	28835.95
778.39237	27465.05
782.27321	25335.55
786.15132	23541.25
790.02671	22386.75
793.89938	21836.35
797.76935	21547.75
801.6366	21458.15
805.50115	21359.05
809.36299	21212.55
813.22213	21036.55
817.07857	20957.15
820.93231	20940.95
824.78336	20839.75
828.63172	20761.65
832.47738	20723.45
836.32036	20719.65
840.16066	20708.95
843.99827	20772.65
847.8332	20697.25
851.66546	20743.75
855.49504	20728.35
859.32195	20731.85
863.1462	20671.95
866.96777	20585.45
870.78668	20566.55
874.60293	20556.15
878.41652	20572.35
882.22745	20651.65
886.03573	20709.15
889.84136	20718.85
893.64433	20628.35
897.44466	20549.75
901.24235	20530.05
905.0374	20461.65
908.8298	20444.85
912.61957	20450.45
916.40671	20589.45
920.19121	20877.15
923.97308	21095.95
927.75233	21157.95
931.52895	21014.15
935.30295	20686.95
939.07433	20300.85
942.84309	19952.15
946.60924	19802.45
950.37278	19764.45
954.13371	19692.85
957.89203	19686.35
961.64774	19683.95
965.40086	19679.35
969.15137	19646.15
972.89929	19586.35
976.64461	19546.95
980.38733	19558.45
984.12747	19612.65
987.86502	19741.45
991.59999	19887.15
995.33237	20097.35
999.06217	20452.05
1002.78939	20935.55
1006.51404	21325.25
1010.23611	21675.45
1013.95561	21975.85
1017.67255	22029.45
1021.38692	21776.55
1025.09872	21430.55
1028.80796	21219.65
1032.51465	21306.25
1036.21877	21606.75
1039.92035	21748.85
1043.61937	21739.35
1047.31584	21557.95
1051.00976	21353.45
1054.70114	21278.85
1058.38998	21344.45
1062.07627	21527.45
1065.76003	21768.75
1069.44126	22006.65
1073.11995	22391.95
1076.79611	22741.85
1080.46974	22970.35
1084.14085	23227.75
1087.80943	23522.15
1091.47549	23782.65
1095.13903	23729.95
1098.80005	23292.05
1102.45857	22741.65
1106.11456	22312.95
1109.76805	22156.15
1113.41903	22161.55
1117.06751	22320.85
1120.71348	22640.45
1124.35696	23000.45
1127.99793	23411.45
1131.63641	23510.55
1135.2724	23282.75
1138.90589	23069.05
1142.5369	22950.15
1146.16542	22977.35
1149.79145	23162.45
1153.415	23329.15
1157.03607	23641.35
1160.65467	24286.55
1164.27079	25356.05
1167.88443	26812.25
1171.49561	28487.05
1175.10432	30628.65
1178.71056	33352.85
1182.31434	35941.85
1185.91565	37252.75
1189.51451	37142.95
1193.11091	36101.75
1196.70485	34587.55
1200.29634	32998.55
1203.88538	31737.75
1207.47197	30929.05
1211.05612	30276.55
1214.63782	29586.65
1218.21708	28878.75
1221.79391	28157.65
1225.36829	27680.75
1228.94024	27371.85
1232.50976	27022.45
1236.07685	26622.25
1239.6415	26352.55
1243.20374	26309.55
1246.76355	26468.95
1250.32093	26851.85
1253.8759	27387.95
1257.42845	28235.55
1260.97859	29135.65
1264.52631	30002.85
1268.07163	30983.05
1271.61453	31942.35
1275.15503	32790.75
1278.69312	33646.65
1282.22882	34431.05
1285.76211	35381.15
1289.29301	36604.95
1292.82151	38184.35
1296.34761	40163.35
1299.87133	42652.65
1303.39266	45354.05
1306.9116	48141.75
1310.42815	50523.85
1313.94233	51766.55
1317.45412	51317.75
1320.96354	50033.55
1324.47058	48853.85
1327.97525	47915.45
1331.47754	47301.65
1334.97747	46883.85
1338.47502	46625.75
1341.97022	46471.25
1345.46305	46396.25
1348.95352	46350.35
1352.44163	46490.35
1355.92738	47252.45
1359.41078	49151.85
1362.89183	51013.45
1366.37053	50019.45
1369.84688	45441.65
1373.32088	40121.55
1376.79254	36657.85
1380.26186	35326.25
1383.72883	35049.95
1387.19347	35055.05
1390.65578	34697.65
1394.11575	34525.45
1397.57339	34652.75
1401.0287	35009.25
1404.48168	35238.85
1407.93234	35141.35
1411.38068	34570.35
1414.82669	33511.45
1418.27039	32282.35
1421.71177	31114.55
1425.15083	30123.45
1428.58758	29707.45
1432.02203	30032.15
1435.45416	30874.45
1438.88399	31795.95
1442.31151	32428.05
1445.73673	32808.25
1449.15965	33073.55
1452.58027	33141.85
1455.9986	33238.65
1459.41463	33509.55
1462.82837	33983.65
1466.23982	34438.05
1469.64898	34904.25
1473.05586	35181.55
1476.46045	35169.35
1479.86276	34950.75
1483.26279	34690.15
1486.66054	34720.45
1490.05602	35102.05
1493.44922	35745.15
1496.84016	36715.15
1500.22882	38166.95
1503.61521	40145.65
1506.99934	42331.75
1510.38121	44013.75
1513.76081	44102.95
1517.13816	42434.35
1520.51324	40029.75
1523.88607	38119.65
1527.25665	37045.55
1530.62498	36680.55
1533.99105	36349.85
1537.35488	35866.35
1540.71647	35049.05
1544.07581	34130.95
1547.4329	33198.85
1550.78776	32497.05
1554.14038	31997.25
1557.49077	31779.45
1560.83892	31792.15
1564.18484	31876.15
1567.52853	32089.95
1570.86999	32498.25
1574.20922	33128.55
1577.54624	33519.35
1580.88103	33379.35
1584.2136	33241.75
1587.54395	33741.85
1590.87208	35154.45
1594.19801	37085.65
1597.52172	39136.45
1600.84321	39690.55
1604.16251	38055.75
1607.47959	35414.85
1610.79447	32536.95
1614.10715	29675.25
1617.41763	27285.65
1620.7259	25642.15
1624.03199	24761.55
1627.33587	24789.25
1630.63757	25556.55
1633.93707	27292.35
1637.23439	30173.85
1640.52951	34506.25
1643.82246	39589.55
1647.11321	43716.95
1650.40179	44589.55
1653.68819	41463.85
1656.97241	35581.35
1660.25446	29869.55
1663.53433	25699.75
1666.81203	23051.55
1670.08756	21436.15
1673.36092	20439.75
1676.63211	19741.95
1679.90115	19314.35
1683.16801	18927.85
1686.43272	18716.35
1689.69527	18514.05
1692.95567	18386.15
1696.2139	18304.75
1699.46999	18237.85
1702.72392	18167.05
1705.97571	18086.75
1709.22535	18045.25
1712.47284	18032.15
1715.71819	17969.35
1718.96139	17916.25
1722.20246	17843.25
1725.44139	17752.65
1728.67818	17633.95
1731.91284	17512.75
1735.14537	17413.45
1738.37576	17323.05
1741.60403	17263.85
1744.83017	17155.65
1748.05418	17146.85
1751.27607	17058.45
1754.49584	17068.55
1757.71349	17076.35
1760.92903	17078.75
1764.14244	17003.45
1767.35375	17010.25
1770.56294	16950.45
1773.77002	16935.15
1776.97499	16866.55
1780.17785	16792.15
1783.37861	16760.65
1786.57727	16718.85
1789.77382	16696.95
1792.96828	16681.85
1796.16064	16636.65
1799.3509	16610.45
1802.53907	16581.55
1805.72514	16519.05
1808.90913	16452.45
1812.09102	16405.35
1815.27083	16374.85
1818.44856	16365.55
1821.6242	16345.05
1824.79776	16299.05
1827.96924	16304.45
1831.13864	16307.35
1834.30597	16336.05
1837.47122	16303.25
1840.6344	16306.75
1843.7955	16302.35
1846.95454	16301.85
1850.11151	16250.45
1853.26642	16240.95
1856.41926	16235.95
1859.57004	16238.85
1862.71876	16181.55
1865.86542	16138.75
1869.01003	16142.85
1872.15258	16138.65
1875.29308	16112.35
1878.43152	16085.55
1881.56792	16052.45
1884.70227	16029.95
1887.83457	16017.55
1890.96482	16009.85
1894.09304	15968.75
1897.21921	15936.95
1900.34335	15942.65
1903.46544	15921.05
1906.58551	15895.35
1909.70353	15827.35
1912.81953	15835.65
1915.93349	15796.65
1919.04543	15735.15
1922.15534	15716.45
1925.26322	15639.65
1928.36908	15675.35
1931.47292	15625.95
1934.57473	15577.85
1937.67453	15523.05
1940.77232	15517.75
1943.86808	15431.25
1946.96184	15394.55
1950.05358	15331.05
1953.14331	15309.45
1956.23103	15284.15
1959.31675	15240.05
1962.40046	15170.75
1965.48217	15152.25
1968.56188	15108.75
1971.63959	15047.45
1974.7153	14997.95
1977.78901	14972.15
1980.86073	14920.65
1983.93046	14866.45
1986.99819	14829.95
1990.06394	14804.35
1993.1277	14745.35
1996.18947	14676.55
1999.24925	14619.85
2002.30706	14598.85
2005.36288	14563.15
2008.41672	14526.85
2011.46859	14452.95
2014.51848	14414.55
2017.56639	14379.65
2020.61233	14352.25
2023.6563	14320.85
2026.6983	14262.25
2029.73833	14240.45
2032.7764	14186.45
2035.8125	14168.05
2038.84664	14144.55
2041.87881	14120.15
2044.90903	14105.85
2047.93729	14093.45
2050.96359	14055.55
2053.98794	14048.65
2057.01034	14020.25
2060.03078	14003.95
2063.04927	13976.65
2066.06582	13980.85
2069.08042	13975.85
2072.09307	13969.85
2075.10378	13958.75
2078.11255	13912.95
2081.11938	13937.05
2084.12426	13926.15
2087.12722	13900.65
2090.12824	13896.25
2093.12732	13907.85
2096.12447	13895.15
2099.11969	13854.15
2102.11299	13894.75
2105.10435	13924.75
2108.09379	13899.45
2111.08131	13927.65
2114.0669	13910.55
2117.05057	13945.25
2120.03233	13956.05
2123.01216	13938.45
2125.99008	13942.15
2128.96609	13959.55
2131.94018	14003.05
2134.91236	13985.35
2137.88263	14025.75
2140.851	13995.75
2143.81746	13998.95
2146.78201	13985.55
2149.74466	13979.35
2152.7054	13997.55
2155.66425	13966.35
2158.6212	13958.25
2161.57625	13974.85
2164.52941	13940.95
2167.48067	13944.15
2170.43004	13951.45
2173.37752	13936.15
2176.32311	13933.65
2179.26681	13943.95
2182.20863	13931.75
2185.14856	13939.85
2188.08661	13910.15
2191.02278	13937.65
2193.95707	13921.55
2196.88948	13879.35
2199.82001	13896.05
2202.74867	13892.45
2205.67545	13858.85
2208.60037	13845.15
2211.52341	13828.25
2214.44458	13802.05
2217.36388	13747.35
2220.28132	13727.25
2223.1969	13680.35
2226.11061	13719.55
2229.02246	13663.85
2231.93245	13664.25
2234.84058	13628.15
2237.74686	13613.85
2240.65128	13598.95
2243.55385	13560.35
2246.45456	13547.35
2249.35343	13525.05
2252.25044	13557.75
2255.14561	13493.75
2258.03893	13456.65
2260.93041	13442.15
2263.82004	13415.55
2266.70783	13393.95
2269.59378	13338.05
2272.4779	13305.25
2275.36017	13255.95
2278.24061	13247.95
2281.11922	13224.85
2283.996	13194.55
2286.87094	13201.45
2289.74405	13172.55
2292.61534	13163.25
2295.4848	13181.45
2298.35243	13141.45
2301.21824	13121.75
2304.08223	13132.95
2306.94439	13134.75
2309.80474	13131.75
2312.66327	13127.05
2315.51999	13102.25
2318.37489	13141.55
2321.22797	13094.75
2324.07925	13084.05
2326.92871	13053.85
2329.77637	13074.25
2332.62222	13043.35
2335.46626	13015.45
2338.3085	13031.45
2341.14893	12983.15
2343.98756	13014.75
2346.8244	12998.85
2349.65943	13015.35
2352.49267	12964.25
2355.32411	12993.05
2358.15376	13010.25
2360.98161	12995.45
2363.80768	12982.55
2366.63195	12972.15
2369.45444	12959.95
2372.27514	12942.25
2375.09405	12939.65
2377.91118	12901.25
2380.72652	12857.15
2383.54009	12870.65
2386.35187	12827.85
2389.16188	12788.65
2391.97011	12731.55
2394.77657	12703.75
2397.58125	12693.25
2400.38416	12685.35
2403.18529	12645.95
2405.98466	12658.85
2408.78226	12630.05
2411.57809	12602.85
2414.37216	12602.55
2417.16446	12584.15
2419.955	12545.35
2422.74378	12573.95
2425.5308	12550.45
2428.31606	12534.95
2431.09956	12556.35
2433.88131	12528.45
2436.6613	12545.85
2439.43954	12519.75
2442.21603	12509.25
2444.99077	12526.25
2447.76377	12539.25
2450.53501	12509.45
2453.30451	12518.55
2456.07226	12477.35
2458.83827	12509.65
2461.60254	12507.25
2464.36507	12507.45
2467.12586	12487.05
2469.88492	12490.25
2472.64224	12475.25
2475.39782	12512.05
2478.15167	12505.75
2480.90379	12513.15
2483.65417	12546.35
2486.40283	12522.45
2489.14976	12540.45
2491.89497	12546.75
2494.63845	12523.85
2497.3802	12479.55
2500.12024	12446.15
2502.85855	12469.05
2505.59514	12447.05
2508.33002	12444.55
2511.06318	12413.15
2513.79462	12444.95
2516.52435	12403.95
2519.25237	12416.55
2521.97867	12411.65
2524.70327	12388.25
2527.42616	12394.95
2530.14734	12397.25
2532.86681	12379.95
2535.58458	12395.85
2538.30065	12377.65
2541.01501	12370.95
2543.72768	12337.55
2546.43864	12313.45
2549.14791	12303.75
2551.85548	12328.85
2554.56136	12314.75
2557.26554	12284.45
2559.96803	12268.65
2562.66883	12242.35
2565.36794	12213.25
2568.06536	12211.65
2570.7611	12214.25
2573.45514	12177.75
2576.14751	12174.65
2578.83819	12178.45
2581.52719	12158.55
2584.21451	12176.15
2586.90015	12148.35
2589.58411	12147.85
2592.2664	12126.15
2594.94701	12101.85
2597.62594	12100.25
2600.30321	12094.15
2602.9788	12076.05
2605.65273	12060.55
2608.32498	12094.65
2610.99557	12095.05
2613.66449	12101.05
2616.33175	12069.35
2618.99734	12055.95
2621.66128	12054.55
2624.32355	12050.95
2626.98416	12026.95
2629.64311	12024.75
2632.30041	11971.35
2634.95605	11987.85
2637.61004	11994.35
2640.26238	11974.45
2642.91306	11979.35
2645.56209	11963.35
2648.20948	11966.85
2650.85521	11951.85
2653.4993	11978.35
2656.14175	11983.75
2658.78255	12017.65
2661.42171	12019.25
2664.05923	11991.05
2666.6951	12011.85
2669.32934	12046.55
2671.96194	12025.85
2674.59291	12009.05
2677.22224	11991.15
2679.84993	12012.35
2682.476	12012.45
2685.10043	11991.45
2687.72324	11967.55
2690.34441	11982.15
2692.96396	11966.55
2695.58188	11979.25
2698.19818	11950.95
2700.81285	11967.15
2703.4259	11989.35
2706.03733	11988.05
2708.64714	11988.05
2711.25533	12000.15
2713.86191	12013.25
2716.46687	12048.25
2719.07021	12032.75
2721.67194	12052.05
2724.27206	12046.45
2726.87057	12053.25
2729.46747	12043.95
2732.06276	12093.35
2734.65644	12060.05
2737.24852	12084.25
2739.83899	12033.15
2742.42786	12061.75
2745.01513	12020.95
2747.60079	12015.05
2750.18486	12013.35
2752.76733	12005.35
2755.3482	12002.85
2757.92747	11999.45
2760.50515	11951.45
2763.08123	11952.35
2765.65573	11932.45
2768.22863	11950.05
2770.79994	11960.65
2773.36967	11931.55
2775.9378	11939.65
2778.50435	11907.05
2781.06932	11925.95
2783.6327	11943.15
2786.1945	11932.45
2788.75471	11926.05
2791.31335	11902.85
2793.87041	11895.45
2796.42589	11881.75
2798.97979	11894.15
2801.53212	11845.45
2804.08288	11847.55
2806.63206	11821.55
2809.17967	11776.75
2811.72571	11736.55
2814.27018	11747.55
2816.81308	11725.35
2819.35442	11687.75
2821.89419	11685.25
2824.43239	11665.95
2826.96904	11662.65
2829.50412	11651.35
2832.03763	11646.25
2834.56959	11634.25
2837.1	11585.45
2839.62884	11606.55
2842.15613	11626.75
2844.68186	11657.95
2847.20604	11637.85
2849.72867	11643.35
2852.24974	11637.55
2854.76927	11627.65
2857.28724	11589.25
2859.80367	11581.25
2862.31855	11602.45
2864.83189	11557.15
2867.34368	11580.65
2869.85393	11567.15
2872.36264	11546.85
2874.8698	11548.35
2877.37543	11535.85
2879.87952	11533.45
2882.38207	11549.35
2884.88308	11513.15
2887.38256	11532.75
2889.88051	11525.65
2892.37692	11501.75
2894.8718	11510.65
2897.36515	11525.55
2899.85698	11540.05
2902.34727	11546.55
2904.83604	11547.25
2907.32328	11604.35
2909.809	11591.75
2912.29319	11596.15
2914.77587	11592.25
2917.25702	11607.85
2919.73665	11556.15
2922.21476	11561.45
2924.69136	11542.95
2927.16644	11549.15
2929.64	11511.65
2932.11205	11519.35
2934.58258	11484.35
2937.05161	11477.75
2939.51912	11459.25
2941.98513	11467.95
2944.44962	11454.95
2946.91261	11410.95
2949.37409	11430.65
2951.83407	11401.75
2954.29254	11412.85
2956.74951	11420.35
2959.20498	11402.55
2961.65895	11394.45
2964.11142	11431.05
2966.56239	11363.25
2969.01186	11367.15
2971.45984	11330.75
2973.90632	11337.45
2976.35131	11309.95
2978.7948	11302.15
2981.23681	11270.95
2983.67732	11237.65
2986.11635	11225.55
2988.55388	11174.15
2990.98993	11172.25
2993.4245	11150.35
2995.85758	11116.45
2998.28917	11099.85
3000.71928	11093.75
3003.14791	11065.95
3005.57506	11042.45
3008.00073	10984.45
3010.42493	10869.45
3012.84764	10959.05
3015.26888	10943.45
3017.68865	10892.05
3020.10694	10874.05
3022.52376	10882.75
3024.9391	10871.45
3027.35298	10855.45
3029.76539	10845.15
3032.17632	10846.65
3034.5858	10821.45
3036.9938	10818.75
3039.40034	10843.15
3041.80542	10799.95
3044.20903	10762.15
3046.61118	10780.15
3049.01187	10755.35
3051.4111	10760.35
3053.80888	10716.35
3056.20519	10713.45
3058.60005	10655.85
3060.99345	10645.05
3063.3854	10631.65
3065.7759	10599.95
3068.16494	10587.55
3070.55254	10516.65
3072.93868	10513.95
3075.32338	10519.85
3077.70662	10460.95
3080.08842	10440.25
3082.46878	10448.75
3084.84769	10403.15
3087.22515	10417.65
3089.60118	10417.05
3091.97576	10404.25
3094.3489	10383.05
3096.72061	10382.05
3099.09087	10402.15
3101.4597	10360.55
3103.82709	10380.25
3106.19305	10382.55
3108.55757	10388.35
3110.92066	10333.05
3113.28232	10340.35
3115.64255	10292.45
3118.00134	10279.55
3120.35871	10241.45
3122.71466	10228.25
3125.06917	10225.45
3127.42226	10206.95
3129.77393	10203.75
3132.12417	10158.45
3134.47299	10141.45
3136.82039	10133.45
3139.16636	10161.65
3141.51092	10163.35
3143.85406	10142.45
3146.19579	10132.05
3148.53609	10118.75
3150.87499	10130.25
3153.21246	10153.05
3155.54853	10138.05
3157.88318	10146.55
3160.21642	10149.35
3162.54826	10159.35
3164.87868	10176.85
3167.2077	10175.55
3169.5353	10187.25
3171.86151	10180.75
3174.18631	10150.55
3176.5097	10136.15
3178.83169	10115.65
3181.15228	10125.35
3183.47147	10098.45
3185.78926	10125.35
3188.10565	10104.75
3190.42065	10106.35
3192.73424	10089.65
3195.04645	10047.65
3197.35725	10028.05
3199.66667	10012.35
3201.97469	10060.45
3204.28132	10032.05
3206.58656	10048.55
3208.8904	10029.65
3211.19287	10062.35
3213.49394	10046.05
3215.79363	10032.65
3218.09193	10070.55
3220.38884	10043.55
3222.68438	10034.25
3224.97853	10050.45
3227.2713	10056.95
3229.56269	10017.15
3231.8527	10026.05
3234.14133	9997.15
3236.42858	9987.75
3238.71446	9984.55
3240.99896	9942.65
3243.28209	9926.15
3245.56384	9899.45
3247.84423	9890.75
3250.12324	9873.25
3252.40088	9860.95
3254.67715	9875.95
3256.95205	9832.95
3259.22558	9855.05
3261.49775	9813.25
3263.76855	9835.25
3266.03799	9816.65
3268.30606	9784.25
3270.57277	9771.05
3272.83812	9732.45
3275.10211	9756.35
3277.36474	9718.65
3279.62601	9705.95
3281.88593	9673.35
3284.14448	9728.85
3286.40168	9702.15
3288.65753	9715.55
3290.91202	9701.35
3293.16516	9680.65
3295.41695	9688.55
3297.66738	9620.25
3299.91647	9570.65
3302.16421	9477.85
3304.4106	9443.35
3306.65564	9391.65
3308.89933	9305.55
3311.14169	9273.65
3313.38269	9159.35
3315.62236	9125.25
3317.86068	9019.95
3320.09766	8947.45
3322.3333	8897.35
3324.5676	8872.05
3326.80056	8708.15
3329.03219	8647.05
3331.26248	4.45
3333.49143	-0.35
3335.71905	-0.65
