Data from AgNP_FTO_APTES_UA_10uM_CRN_10uM_R6G_10uM_NaF_0.1M_Addition_RamanShift__29__15-58-10-724.txt Node

Date: Thu Feb 10 15:58:10 GMT 2022
User: TCL
Spectrometer: QEP01345
Trigger mode: 4
Integration Time (sec): 7.000000E0
Scans to average: 10
Electric dark correction enabled: true
Nonlinearity correction enabled: false
Boxcar width: 0
XAxis mode: Raman Shifts
Number of Pixels in Spectrum: 1044
>>>>>Begin Spectral Data<<<<<
46.04893	0.15
50.45542	-0.75
54.85868	-0.85
59.25871	-0.65
63.6555	47.95
68.04907	51.95
72.43941	54.05
76.82654	56.45
81.21044	57.95
85.59113	59.85
89.96862	63.15
94.34289	65.05
98.71396	67.85
103.08183	69.95
107.4465	71.55
111.80798	70.95
116.16626	78.05
120.52136	78.75
124.87327	78.65
129.222	82.35
133.56755	88.45
137.90993	90.15
142.24913	95.25
146.58517	105.15
150.91804	122.05
155.24774	139.15
159.57429	172.25
163.89768	215.55
168.21792	283.25
172.53501	376.85
176.84895	520.25
181.15975	726.15
185.46741	1010.85
189.77193	1397.15
194.07331	1851.85
198.37157	2374.65
202.6667	2931.55
206.9587	3488.85
211.24758	4026.35
215.53334	4603.85
219.81599	5248.55
224.09553	5964.35
228.37195	6786.35
232.64527	7652.85
236.91549	8560.05
241.18261	9356.75
245.44663	10029.45
249.70755	10581.75
253.96539	11056.15
258.22014	11509.05
262.4718	11948.85
266.72039	12263.65
270.96589	12484.55
275.20832	12602.15
279.44768	12545.85
283.68397	12452.05
287.91719	12404.05
292.14735	12465.25
296.37445	12697.05
300.59849	13045.65
304.81948	13460.45
309.03742	13731.45
313.25231	13626.65
317.46415	12920.25
321.67296	11966.95
325.87872	11214.55
330.08145	10830.65
334.28114	10809.35
338.47781	10928.65
342.67145	11295.35
346.86207	11722.55
351.04966	12379.85
355.23424	13119.75
359.4158	13661.45
363.59435	13901.95
367.76989	13974.75
371.94243	13968.45
376.11196	13888.25
380.27849	13815.25
384.44203	13679.05
388.60257	13503.35
392.76012	13450.65
396.91468	13617.85
401.06626	13964.65
405.21485	14279.15
409.36047	14025.05
413.50311	13358.55
417.64277	12716.85
421.77947	12385.55
425.9132	12287.85
430.04396	12320.85
434.17176	12350.15
438.2966	12502.55
442.41849	12716.05
446.53742	13055.55
450.6534	13395.75
454.76644	13630.35
458.87653	13726.45
462.98368	13612.55
467.08789	13413.95
471.18916	13136.55
475.2875	12829.85
479.38291	12556.75
483.4754	12361.25
487.56496	12173.55
491.6516	12071.25
495.73531	12004.35
499.81612	12075.35
503.89401	12219.35
507.96899	12351.85
512.04106	12490.15
516.11023	12659.55
520.1765	12754.25
524.23987	12672.55
528.30034	12405.95
532.35792	12120.25
536.41261	11913.85
540.46441	11656.25
544.51333	11590.45
548.55936	11747.55
552.60252	12037.65
556.64279	12428.55
560.6802	12546.15
564.71473	12667.15
568.7464	13107.95
572.7752	13480.25
576.80114	13265.15
580.82422	12897.65
584.84444	12738.85
588.86181	12646.65
592.87633	12605.05
596.888	12687.35
600.89682	13131.85
604.9028	14634.15
608.90594	18560.95
612.90624	23672.45
616.90371	22374.95
620.89834	15750.05
624.89015	12793.05
628.87913	12281.65
632.86528	12327.45
636.84862	12495.35
640.82913	12275.05
644.80683	11744.85
648.78172	11402.85
652.75379	11467.85
656.72306	11965.25
660.68952	12536.95
664.65319	12443.45
668.61405	11834.25
672.57211	11537.45
676.52738	11488.75
680.47986	11523.05
684.42955	11453.15
688.37646	11400.25
692.32058	11453.25
696.26192	11588.15
700.20048	11767.75
704.13626	11896.55
708.06928	11924.65
711.99952	11802.25
715.927	11732.95
719.85171	11737.25
723.77365	11713.95
727.69284	11571.35
731.60928	11448.35
735.52295	11432.15
739.43388	11441.25
743.34206	11508.25
747.24749	11609.55
751.15017	11713.45
755.05012	12012.25
758.94733	12623.25
762.8418	13971.65
766.73354	16275.85
770.62254	18640.25
774.50882	19664.95
778.39237	18521.65
782.27321	15962.95
786.15132	13728.75
790.02671	12435.55
793.89938	11884.65
797.76935	11630.35
801.6366	11517.05
805.50115	11424.05
809.36299	11347.75
813.22213	11304.55
817.07857	11275.75
820.93231	11285.55
824.78336	11319.45
828.63172	11375.85
832.47738	11383.75
836.32036	11369.25
840.16066	11322.35
843.99827	11309.75
847.8332	11247.15
851.66546	11219.75
855.49504	11216.35
859.32195	11196.65
863.1462	11128.95
866.96777	11076.05
870.78668	11087.95
874.60293	11093.75
878.41652	11137.05
882.22745	11195.15
886.03573	11234.95
889.84136	11206.95
893.64433	11130.15
897.44466	11113.85
901.24235	11126.85
905.0374	11120.35
908.8298	11102.55
912.61957	11105.75
916.40671	11197.65
920.19121	11328.95
923.97308	11459.05
927.75233	11535.35
931.52895	11539.35
935.30295	11416.15
939.07433	11076.65
942.84309	10816.75
946.60924	10681.75
950.37278	10576.75
954.13371	10525.55
957.89203	10452.95
961.64774	10430.55
965.40086	10400.05
969.15137	10387.45
972.89929	10350.45
976.64461	10356.65
980.38733	10356.55
984.12747	10391.65
987.86502	10408.25
991.59999	10498.05
995.33237	10674.15
999.06217	10951.45
1002.78939	11259.05
1006.51404	11543.55
1010.23611	11802.85
1013.95561	11999.75
1017.67255	11931.35
1021.38692	11767.65
1025.09872	11591.95
1028.80796	11584.55
1032.51465	11769.45
1036.21877	11994.65
1039.92035	12078.35
1043.61937	12019.85
1047.31584	11892.15
1051.00976	11731.55
1054.70114	11696.55
1058.38998	11707.25
1062.07627	11803.45
1065.76003	11884.95
1069.44126	11962.15
1073.11995	12065.75
1076.79611	12189.45
1080.46974	12327.25
1084.14085	12585.15
1087.80943	12925.45
1091.47549	13073.35
1095.13903	12859.45
1098.80005	12456.45
1102.45857	12063.05
1106.11456	11861.35
1109.76805	11863.65
1113.41903	12063.95
1117.06751	12435.45
1120.71348	12859.75
1124.35696	13319.85
1127.99793	13731.15
1131.63641	13723.35
1135.2724	13204.25
1138.90589	12676.45
1142.5369	12358.85
1146.16542	12145.15
1149.79145	12053.25
1153.415	12047.95
1157.03607	12224.15
1160.65467	12498.65
1164.27079	12943.65
1167.88443	13656.75
1171.49561	14707.35
1175.10432	16456.05
1178.71056	18774.75
1182.31434	20511.25
1185.91565	20957.05
1189.51451	20489.35
1193.11091	19237.95
1196.70485	17710.05
1200.29634	16598.55
1203.88538	15745.55
1207.47197	14860.95
1211.05612	14073.75
1214.63782	13664.55
1218.21708	13493.95
1221.79391	13544.35
1225.36829	13647.95
1228.94024	13742.05
1232.50976	13815.75
1236.07685	13902.15
1239.6415	13895.45
1243.20374	13890.75
1246.76355	13962.45
1250.32093	14172.45
1253.8759	14550.15
1257.42845	15040.65
1260.97859	15533.25
1264.52631	15944.85
1268.07163	16388.95
1271.61453	16766.35
1275.15503	17161.85
1278.69312	17348.35
1282.22882	17474.05
1285.76211	17775.35
1289.29301	18248.15
1292.82151	18728.75
1296.34761	19257.15
1299.87133	20133.95
1303.39266	21608.65
1306.9116	23929.65
1310.42815	26570.35
1313.94233	28254.45
1317.45412	28016.95
1320.96354	26468.05
1324.47058	24658.15
1327.97525	23071.65
1331.47754	22074.25
1334.97747	21791.35
1338.47502	21951.45
1341.97022	22413.05
1345.46305	23001.45
1348.95352	23735.85
1352.44163	24839.85
1355.92738	26799.25
1359.41078	30196.75
1362.89183	33583.35
1366.37053	32747.05
1369.84688	28018.65
1373.32088	23357.05
1376.79254	20418.25
1380.26186	18933.85
1383.72883	18261.45
1387.19347	17730.85
1390.65578	17174.45
1394.11575	16724.35
1397.57339	16471.45
1401.0287	16518.15
1404.48168	16776.15
1407.93234	17131.15
1411.38068	17392.55
1414.82669	17366.35
1418.27039	17045.75
1421.71177	16544.55
1425.15083	16099.75
1428.58758	15776.75
1432.02203	15728.75
1435.45416	15841.65
1438.88399	15904.95
1442.31151	15939.35
1445.73673	16049.45
1449.15965	16158.55
1452.58027	16186.45
1455.9986	16049.45
1459.41463	16065.95
1462.82837	16196.05
1466.23982	16510.65
1469.64898	16901.45
1473.05586	17192.35
1476.46045	17420.85
1479.86276	17745.25
1483.26279	18148.55
1486.66054	18664.85
1490.05602	19239.65
1493.44922	20052.05
1496.84016	21173.45
1500.22882	22910.15
1503.61521	25210.05
1506.99934	27955.25
1510.38121	30549.25
1513.76081	31911.25
1517.13816	30738.45
1520.51324	27557.75
1523.88607	24248.25
1527.25665	21835.05
1530.62498	20352.15
1533.99105	19468.55
1537.35488	18851.85
1540.71647	18493.65
1544.07581	18270.75
1547.4329	18067.45
1550.78776	17895.05
1554.14038	17837.65
1557.49077	17963.55
1560.83892	18288.15
1564.18484	18770.45
1567.52853	19202.25
1570.86999	19465.05
1574.20922	19634.25
1577.54624	19467.95
1580.88103	18649.05
1584.2136	17592.75
1587.54395	17189.65
1590.87208	17587.85
1594.19801	18655.15
1597.52172	19962.05
1600.84321	20457.65
1604.16251	19660.05
1607.47959	18266.65
1610.79447	16824.55
1614.10715	15555.55
1617.41763	14522.85
1620.7259	13870.65
1624.03199	13583.55
1627.33587	13592.35
1630.63757	13898.65
1633.93707	14639.45
1637.23439	15689.85
1640.52951	17087.25
1643.82246	18851.85
1647.11321	20853.55
1650.40179	22387.25
1653.68819	21894.05
1656.97241	19317.95
1660.25446	16282.25
1663.53433	14060.15
1666.81203	12701.65
1670.08756	11887.35
1673.36092	11384.05
1676.63211	11065.05
1679.90115	10842.65
1683.16801	10672.75
1686.43272	10571.15
1689.69527	10477.05
1692.95567	10439.95
1696.2139	10402.35
1699.46999	10419.55
1702.72392	10384.15
1705.97571	10325.95
1709.22535	10293.85
1712.47284	10248.75
1715.71819	10275.95
1718.96139	10272.65
1722.20246	10227.05
1725.44139	10204.95
1728.67818	10112.35
1731.91284	10041.45
1735.14537	9968.15
1738.37576	9938.95
1741.60403	9861.05
1744.83017	9844.25
1748.05418	9828.15
1751.27607	9803.65
1754.49584	9784.05
1757.71349	9798.15
1760.92903	9794.15
1764.14244	9780.45
1767.35375	9778.85
1770.56294	9739.45
1773.77002	9722.85
1776.97499	9687.05
1780.17785	9654.75
1783.37861	9623.65
1786.57727	9588.85
1789.77382	9583.05
1792.96828	9564.75
1796.16064	9572.05
1799.3509	9550.55
1802.53907	9538.25
1805.72514	9500.35
1808.90913	9473.55
1812.09102	9433.05
1815.27083	9403.85
1818.44856	9394.75
1821.6242	9386.65
1824.79776	9384.05
1827.96924	9371.55
1831.13864	9372.15
1834.30597	9351.65
1837.47122	9340.75
1840.6344	9333.15
1843.7955	9363.85
1846.95454	9332.95
1850.11151	9346.45
1853.26642	9344.15
1856.41926	9363.65
1859.57004	9369.75
1862.71876	9337.85
1865.86542	9347.05
1869.01003	9356.35
1872.15258	9350.35
1875.29308	9361.45
1878.43152	9375.95
1881.56792	9387.25
1884.70227	9381.15
1887.83457	9377.75
1890.96482	9373.25
1894.09304	9399.85
1897.21921	9382.75
1900.34335	9394.75
1903.46544	9399.05
1906.58551	9389.55
1909.70353	9422.75
1912.81953	9399.25
1915.93349	9424.35
1919.04543	9412.35
1922.15534	9390.85
1925.26322	9375.35
1928.36908	9338.25
1931.47292	9325.95
1934.57473	9251.35
1937.67453	9217.35
1940.77232	9186.05
1943.86808	9116.95
1946.96184	9064.85
1950.05358	9011.95
1953.14331	8986.85
1956.23103	8955.85
1959.31675	8917.75
1962.40046	8898.15
1965.48217	8871.95
1968.56188	8821.45
1971.63959	8800.55
1974.7153	8783.65
1977.78901	8757.25
1980.86073	8725.45
1983.93046	8702.75
1986.99819	8660.95
1990.06394	8651.25
1993.1277	8606.35
1996.18947	8595.05
1999.24925	8565.55
2002.30706	8515.55
2005.36288	8497.35
2008.41672	8475.85
2011.46859	8439.05
2014.51848	8453.55
2017.56639	8437.05
2020.61233	8388.85
2023.6563	8365.95
2026.6983	8330.85
2029.73833	8296.05
2032.7764	8299.05
2035.8125	8284.45
2038.84664	8254.95
2041.87881	8239.95
2044.90903	8234.05
2047.93729	8189.65
2050.96359	8196.75
2053.98794	8193.25
2057.01034	8174.15
2060.03078	8168.05
2063.04927	8149.75
2066.06582	8134.05
2069.08042	8144.25
2072.09307	8131.25
2075.10378	8126.25
2078.11255	8104.05
2081.11938	8116.45
2084.12426	8108.25
2087.12722	8121.55
2090.12824	8064.15
2093.12732	8084.25
2096.12447	8075.75
2099.11969	8076.65
2102.11299	8047.95
2105.10435	8078.75
2108.09379	8072.65
2111.08131	8060.15
2114.0669	8075.55
2117.05057	8082.25
2120.03233	8092.05
2123.01216	8120.35
2125.99008	8107.15
2128.96609	8117.65
2131.94018	8125.05
2134.91236	8110.25
2137.88263	8119.35
2140.851	8115.75
2143.81746	8130.55
2146.78201	8104.35
2149.74466	8097.05
2152.7054	8099.35
2155.66425	8103.05
2158.6212	8075.95
2161.57625	8108.85
2164.52941	8095.15
2167.48067	8097.75
2170.43004	8076.25
2173.37752	8070.75
2176.32311	8088.15
2179.26681	8068.95
2182.20863	8096.65
2185.14856	8077.95
2188.08661	8073.85
2191.02278	8078.15
2193.95707	8055.45
2196.88948	8058.75
2199.82001	8054.15
2202.74867	8033.85
2205.67545	8032.95
2208.60037	8023.55
2211.52341	8018.95
2214.44458	8011.05
2217.36388	7997.75
2220.28132	7964.85
2223.1969	7945.45
2226.11061	7945.65
2229.02246	7921.25
2231.93245	7920.15
2234.84058	7858.45
2237.74686	7880.05
2240.65128	7875.05
2243.55385	7848.15
2246.45456	7865.85
2249.35343	7835.45
2252.25044	7832.85
2255.14561	7821.05
2258.03893	7822.85
2260.93041	7836.55
2263.82004	7811.45
2266.70783	7785.35
2269.59378	7753.45
2272.4779	7739.55
2275.36017	7716.65
2278.24061	7712.35
2281.11922	7665.45
2283.996	7671.95
2286.87094	7674.25
2289.74405	7641.05
2292.61534	7641.25
2295.4848	7627.35
2298.35243	7619.25
2301.21824	7593.45
2304.08223	7608.65
2306.94439	7609.75
2309.80474	7632.65
2312.66327	7617.25
2315.51999	7636.35
2318.37489	7622.25
2321.22797	7584.15
2324.07925	7599.65
2326.92871	7556.55
2329.77637	7583.25
2332.62222	7613.25
2335.46626	7566.35
2338.3085	7533.65
2341.14893	7553.45
2343.98756	7566.65
2346.8244	7572.65
2349.65943	7564.65
2352.49267	7581.05
2355.32411	7579.95
2358.15376	7585.65
2360.98161	7599.25
2363.80768	7590.75
2366.63195	7580.95
2369.45444	7580.65
2372.27514	7572.05
2375.09405	7558.85
2377.91118	7552.95
2380.72652	7503.45
2383.54009	7483.15
2386.35187	7433.85
2389.16188	7420.05
2391.97011	7385.45
2394.77657	7377.35
2397.58125	7362.75
2400.38416	7352.35
2403.18529	7338.15
2405.98466	7306.85
2408.78226	7277.05
2411.57809	7276.65
2414.37216	7269.55
2417.16446	7258.35
2419.955	7241.55
2422.74378	7241.05
2425.5308	7231.65
2428.31606	7229.55
2431.09956	7234.15
2433.88131	7221.85
2436.6613	7222.85
2439.43954	7228.35
2442.21603	7243.45
2444.99077	7231.05
2447.76377	7209.85
2450.53501	7230.05
2453.30451	7232.85
2456.07226	7202.65
2458.83827	7214.95
2461.60254	7211.95
2464.36507	7196.65
2467.12586	7169.45
2469.88492	7158.35
2472.64224	7184.85
2475.39782	7179.05
2478.15167	7212.25
2480.90379	7205.95
2483.65417	7200.65
2486.40283	7265.15
2489.14976	7228.05
2491.89497	7250.75
2494.63845	7274.55
2497.3802	7270.55
2500.12024	7250.65
2502.85855	7232.95
2505.59514	7220.35
2508.33002	7195.75
2511.06318	7184.25
2513.79462	7159.65
2516.52435	7128.05
2519.25237	7107.35
2521.97867	7109.55
2524.70327	7089.85
2527.42616	7073.35
2530.14734	7059.95
2532.86681	7057.55
2535.58458	7048.25
2538.30065	7061.35
2541.01501	7072.15
2543.72768	7050.85
2546.43864	7046.25
2549.14791	7052.15
2551.85548	7051.65
2554.56136	7023.45
2557.26554	7012.05
2559.96803	6992.75
2562.66883	6997.35
2565.36794	6977.15
2568.06536	6962.25
2570.7611	6942.05
2573.45514	6946.75
2576.14751	6937.35
2578.83819	6916.25
2581.52719	6944.15
2584.21451	6925.35
2586.90015	6923.95
2589.58411	6897.15
2592.2664	6914.95
2594.94701	6897.75
2597.62594	6916.55
2600.30321	6876.25
2602.9788	6886.85
2605.65273	6883.35
2608.32498	6889.55
2610.99557	6869.35
2613.66449	6892.75
2616.33175	6891.35
2618.99734	6873.95
2621.66128	6878.45
2624.32355	6873.15
2626.98416	6879.25
2629.64311	6858.65
2632.30041	6847.65
2634.95605	6853.25
2637.61004	6837.65
2640.26238	6813.15
2642.91306	6797.95
2645.56209	6784.55
2648.20948	6774.15
2650.85521	6789.55
2653.4993	6785.55
2656.14175	6762.75
2658.78255	6784.75
2661.42171	6770.75
2664.05923	6797.35
2666.6951	6808.25
2669.32934	6815.65
2671.96194	6820.65
2674.59291	6828.65
2677.22224	6827.25
2679.84993	6840.65
2682.476	6833.65
2685.10043	6829.45
2687.72324	6813.65
2690.34441	6827.45
2692.96396	6804.85
2695.58188	6813.15
2698.19818	6792.45
2700.81285	6798.65
2703.4259	6796.55
2706.03733	6827.35
2708.64714	6790.95
2711.25533	6806.25
2713.86191	6794.05
2716.46687	6794.15
2719.07021	6792.65
2721.67194	6823.65
2724.27206	6813.85
2726.87057	6821.35
2729.46747	6826.25
2732.06276	6800.85
2734.65644	6816.95
2737.24852	6793.35
2739.83899	6805.55
2742.42786	6796.95
2745.01513	6791.65
2747.60079	6770.55
2750.18486	6757.65
2752.76733	6757.25
2755.3482	6736.75
2757.92747	6744.55
2760.50515	6722.05
2763.08123	6724.65
2765.65573	6700.85
2768.22863	6733.35
2770.79994	6690.95
2773.36967	6706.05
2775.9378	6696.05
2778.50435	6697.95
2781.06932	6692.35
2783.6327	6693.95
2786.1945	6671.85
2788.75471	6672.95
2791.31335	6664.25
2793.87041	6647.45
2796.42589	6654.85
2798.97979	6645.05
2801.53212	6637.15
2804.08288	6642.85
2806.63206	6614.65
2809.17967	6611.95
2811.72571	6618.75
2814.27018	6603.45
2816.81308	6607.55
2819.35442	6579.55
2821.89419	6584.45
2824.43239	6589.55
2826.96904	6593.45
2829.50412	6592.85
2832.03763	6588.55
2834.56959	6615.65
2837.1	6598.85
2839.62884	6602.15
2842.15613	6605.95
2844.68186	6631.55
2847.20604	6648.15
2849.72867	6674.45
2852.24974	6688.25
2854.76927	6680.45
2857.28724	6665.25
2859.80367	6639.25
2862.31855	6622.95
2864.83189	6598.65
2867.34368	6609.45
2869.85393	6606.55
2872.36264	6609.35
2874.8698	6591.45
2877.37543	6598.75
2879.87952	6597.55
2882.38207	6585.15
2884.88308	6582.65
2887.38256	6576.95
2889.88051	6569.55
2892.37692	6560.95
2894.8718	6556.05
2897.36515	6601.25
2899.85698	6579.35
2902.34727	6586.25
2904.83604	6589.25
2907.32328	6613.75
2909.809	6602.65
2912.29319	6607.15
2914.77587	6595.55
2917.25702	6606.95
2919.73665	6579.45
2922.21476	6597.45
2924.69136	6588.95
2927.16644	6566.45
2929.64	6563.65
2932.11205	6548.95
2934.58258	6496.15
2937.05161	6503.55
2939.51912	6507.25
2941.98513	6488.65
2944.44962	6460.75
2946.91261	6443.55
2949.37409	6446.55
2951.83407	6414.25
2954.29254	6411.25
2956.74951	6412.55
2959.20498	6404.15
2961.65895	6392.05
2964.11142	6380.35
2966.56239	6363.15
2969.01186	6365.85
2971.45984	6345.65
2973.90632	6330.35
2976.35131	6320.45
2978.7948	6307.35
2981.23681	6277.75
2983.67732	6273.55
2986.11635	6267.95
2988.55388	6242.85
2990.98993	6221.35
2993.4245	6218.95
2995.85758	6199.95
2998.28917	6170.15
3000.71928	6189.95
3003.14791	6163.15
3005.57506	6167.95
3008.00073	6138.95
3010.42493	6014.65
3012.84764	6106.05
3015.26888	6110.15
3017.68865	6084.95
3020.10694	6079.25
3022.52376	6076.15
3024.9391	6072.15
3027.35298	6060.25
3029.76539	6077.85
3032.17632	6044.35
3034.5858	6043.95
3036.9938	6039.95
3039.40034	6021.65
3041.80542	6019.85
3044.20903	6005.95
3046.61118	6002.65
3049.01187	5982.25
3051.4111	5974.65
3053.80888	5970.45
3056.20519	5958.45
3058.60005	5928.05
3060.99345	5928.25
3063.3854	5904.55
3065.7759	5882.65
3068.16494	5874.05
3070.55254	5855.75
3072.93868	5864.45
3075.32338	5818.05
3077.70662	5811.85
3080.08842	5805.55
3082.46878	5781.85
3084.84769	5765.35
3087.22515	5768.95
3089.60118	5762.45
3091.97576	5765.25
3094.3489	5747.45
3096.72061	5786.45
3099.09087	5772.05
3101.4597	5762.95
3103.82709	5756.25
3106.19305	5727.65
3108.55757	5712.15
3110.92066	5732.05
3113.28232	5727.55
3115.64255	5717.65
3118.00134	5700.95
3120.35871	5690.75
3122.71466	5657.45
3125.06917	5668.95
3127.42226	5648.05
3129.77393	5656.15
3132.12417	5662.15
3134.47299	5647.65
3136.82039	5634.55
3139.16636	5646.05
3141.51092	5653.65
3143.85406	5638.15
3146.19579	5647.05
3148.53609	5653.15
3150.87499	5663.05
3153.21246	5674.55
3155.54853	5653.95
3157.88318	5664.85
3160.21642	5666.25
3162.54826	5675.15
3164.87868	5680.05
3167.2077	5678.15
3169.5353	5683.55
3171.86151	5681.85
3174.18631	5673.45
3176.5097	5670.85
3178.83169	5661.25
3181.15228	5664.95
3183.47147	5665.05
3185.78926	5647.25
3188.10565	5644.35
3190.42065	5644.75
3192.73424	5648.75
3195.04645	5647.55
3197.35725	5628.15
3199.66667	5651.45
3201.97469	5656.55
3204.28132	5657.45
3206.58656	5654.05
3208.8904	5647.85
3211.19287	5674.15
3213.49394	5677.95
3215.79363	5670.15
3218.09193	5679.65
3220.38884	5689.95
3222.68438	5678.35
3224.97853	5656.25
3227.2713	5663.25
3229.56269	5649.35
3231.8527	5652.05
3234.14133	5635.35
3236.42858	5628.65
3238.71446	5616.15
3240.99896	5613.05
3243.28209	5614.95
3245.56384	5592.25
3247.84423	5598.35
3250.12324	5588.25
3252.40088	5584.85
3254.67715	5562.65
3256.95205	5571.25
3259.22558	5586.05
3261.49775	5560.15
3263.76855	5545.05
3266.03799	5555.45
3268.30606	5537.25
3270.57277	5515.95
3272.83812	5505.45
3275.10211	5515.05
3277.36474	5500.45
3279.62601	5485.55
3281.88593	5462.45
3284.14448	5469.05
3286.40168	5481.85
3288.65753	5482.25
3290.91202	5478.35
3293.16516	5461.15
3295.41695	5440.85
3297.66738	5404.55
3299.91647	5404.65
3302.16421	5355.05
3304.4106	5334.15
3306.65564	5287.75
3308.89933	5261.55
3311.14169	5220.95
3313.38269	5155.35
3315.62236	5116.75
3317.86068	5104.25
3320.09766	5035.65
3322.3333	5010.15
3324.5676	4991.55
3326.80056	4911.05
3329.03219	4861.95
3331.26248	2.95
3333.49143	-0.35
3335.71905	-1.25
