Data from AgNP_FTO_APTES_UA_10uM_CRN_50uM_R6G_10uM_NaF_0.1M_Addition_RamanShift__7__16-50-40-789.txt Node

Date: Thu Feb 10 16:50:40 GMT 2022
User: TCL
Spectrometer: QEP01345
Trigger mode: 4
Integration Time (sec): 7.000000E0
Scans to average: 10
Electric dark correction enabled: true
Nonlinearity correction enabled: false
Boxcar width: 0
XAxis mode: Raman Shifts
Number of Pixels in Spectrum: 1044
>>>>>Begin Spectral Data<<<<<
46.04893	-0.35
50.45542	-1.75
54.85868	-2.25
59.25871	-1.05
63.6555	61.85
68.04907	67.95
72.43941	71.15
76.82654	69.85
81.21044	75.35
85.59113	75.05
89.96862	80.65
94.34289	81.95
98.71396	84.65
103.08183	92.65
107.4465	93.45
111.80798	94.85
116.16626	99.05
120.52136	103.25
124.87327	105.25
129.222	109.15
133.56755	120.85
137.90993	124.25
142.24913	132.35
146.58517	151.65
150.91804	180.65
155.24774	213.95
159.57429	261.25
163.89768	335.55
168.21792	444.25
172.53501	609.75
176.84895	847.15
181.15975	1188.15
185.46741	1655.35
189.77193	2302.75
194.07331	3050.95
198.37157	3914.25
202.6667	4853.25
206.9587	5769.05
211.24758	6643.35
215.53334	7543.75
219.81599	8487.65
224.09553	9511.45
228.37195	10649.75
232.64527	11888.85
236.91549	13219.85
241.18261	14482.95
245.44663	15729.25
249.70755	16890.85
253.96539	17832.35
258.22014	18740.25
262.4718	19406.55
266.72039	19902.95
270.96589	20227.75
275.20832	20302.35
279.44768	20248.65
283.68397	20126.05
287.91719	20013.85
292.14735	19950.65
296.37445	19957.95
300.59849	20001.95
304.81948	20062.85
309.03742	20027.35
313.25231	19811.25
317.46415	19472.15
321.67296	19007.65
325.87872	18658.75
330.08145	18459.15
334.28114	18439.45
338.47781	18530.25
342.67145	18731.75
346.86207	18998.25
351.04966	19212.45
355.23424	19460.05
359.4158	19729.95
363.59435	19953.35
367.76989	20072.15
371.94243	20178.75
376.11196	20282.25
380.27849	20314.25
384.44203	20425.85
388.60257	20578.05
392.76012	20800.55
396.91468	21120.35
401.06626	21444.25
405.21485	21604.25
409.36047	21563.85
413.50311	21292.95
417.64277	21251.75
421.77947	21345.85
425.9132	21486.45
430.04396	21607.85
434.17176	21648.75
438.2966	21793.45
442.41849	22041.35
446.53742	22548.25
450.6534	23078.45
454.76644	23484.55
458.87653	23726.35
462.98368	23682.15
467.08789	23480.95
471.18916	23314.85
475.2875	23135.65
479.38291	23136.25
483.4754	23085.65
487.56496	22844.05
491.6516	22409.15
495.73531	21905.55
499.81612	21629.35
503.89401	21676.85
507.96899	21771.25
512.04106	21831.85
516.11023	21700.85
520.1765	21417.05
524.23987	21164.75
528.30034	20930.15
532.35792	20728.65
536.41261	20565.05
540.46441	20450.85
544.51333	20510.75
548.55936	20809.35
552.60252	21176.05
556.64279	21681.05
560.6802	22068.75
564.71473	22330.65
568.7464	22833.15
572.7752	23630.85
576.80114	24508.55
580.82422	25247.65
584.84444	25847.15
588.86181	26610.25
592.87633	27205.35
596.888	26764.95
600.89682	25685.15
604.9028	25289.25
608.90594	26134.95
612.90624	26916.45
616.90371	25200.15
620.89834	22238.25
624.89015	20963.85
628.87913	20943.75
632.86528	21130.75
636.84862	21141.65
640.82913	20812.55
644.80683	20395.75
648.78172	20091.35
652.75379	20079.55
656.72306	20201.45
660.68952	20383.35
664.65319	20300.25
668.61405	20071.95
672.57211	20035.95
676.52738	20111.65
680.47986	20121.75
684.42955	20040.85
688.37646	20003.35
692.32058	20089.25
696.26192	20313.75
700.20048	20551.65
704.13626	20765.65
708.06928	20798.85
711.99952	20789.25
715.927	20753.75
719.85171	20743.55
723.77365	20634.35
727.69284	20370.45
731.60928	20090.05
735.52295	19941.55
739.43388	19930.05
743.34206	19982.65
747.24749	20147.15
751.15017	20325.55
755.05012	20723.05
758.94733	21326.55
762.8418	22195.15
766.73354	23407.95
770.62254	24366.25
774.50882	24284.05
778.39237	23238.95
782.27321	21916.45
786.15132	20922.55
790.02671	20329.85
793.89938	19980.05
797.76935	19862.85
801.6366	19778.15
805.50115	19795.55
809.36299	19663.25
813.22213	19566.75
817.07857	19544.45
820.93231	19519.95
824.78336	19404.65
828.63172	19283.65
832.47738	19235.95
836.32036	19178.25
840.16066	19138.55
843.99827	19156.65
847.8332	19187.75
851.66546	19192.85
855.49504	19228.85
859.32195	19253.95
863.1462	19211.25
866.96777	19128.65
870.78668	19110.95
874.60293	19127.15
878.41652	19128.85
882.22745	19129.65
886.03573	19164.45
889.84136	19125.35
893.64433	19097.85
897.44466	19040.05
901.24235	19027.75
905.0374	18982.15
908.8298	18993.35
912.61957	19118.45
916.40671	19306.75
920.19121	19593.05
923.97308	19755.55
927.75233	19625.05
931.52895	19340.15
935.30295	19035.45
939.07433	18729.65
942.84309	18534.35
946.60924	18404.95
950.37278	18399.75
954.13371	18384.85
957.89203	18403.75
961.64774	18410.55
965.40086	18379.15
969.15137	18327.85
972.89929	18239.25
976.64461	18165.45
980.38733	18095.05
984.12747	18155.35
987.86502	18167.85
991.59999	18253.55
995.33237	18383.45
999.06217	18614.75
1002.78939	18897.35
1006.51404	19205.15
1010.23611	19475.65
1013.95561	19703.85
1017.67255	19739.15
1021.38692	19561.35
1025.09872	19283.15
1028.80796	19145.45
1032.51465	19151.75
1036.21877	19253.45
1039.92035	19304.35
1043.61937	19339.75
1047.31584	19377.75
1051.00976	19382.85
1054.70114	19451.35
1058.38998	19579.35
1062.07627	19805.05
1065.76003	20072.85
1069.44126	20298.55
1073.11995	20593.75
1076.79611	20808.35
1080.46974	20905.65
1084.14085	20970.65
1087.80943	21194.85
1091.47549	21319.55
1095.13903	21430.85
1098.80005	21216.35
1102.45857	20778.15
1106.11456	20330.95
1109.76805	20075.55
1113.41903	20059.85
1117.06751	20139.95
1120.71348	20310.15
1124.35696	20485.85
1127.99793	20679.25
1131.63641	20867.05
1135.2724	20844.75
1138.90589	20880.75
1142.5369	21021.05
1146.16542	21261.95
1149.79145	21536.45
1153.415	21780.55
1157.03607	22156.65
1160.65467	22858.55
1164.27079	23904.45
1167.88443	25123.25
1171.49561	26362.55
1175.10432	27671.35
1178.71056	29270.75
1182.31434	30776.35
1185.91565	31502.75
1189.51451	31529.35
1193.11091	31020.65
1196.70485	30252.05
1200.29634	29375.35
1203.88538	28799.95
1207.47197	28723.65
1211.05612	28604.05
1214.63782	28141.05
1218.21708	27244.55
1221.79391	26238.85
1225.36829	25374.35
1228.94024	24878.75
1232.50976	24574.25
1236.07685	24343.05
1239.6415	24241.95
1243.20374	24344.25
1246.76355	24528.55
1250.32093	24874.45
1253.8759	25373.05
1257.42845	25998.65
1260.97859	26660.85
1264.52631	27313.95
1268.07163	28041.55
1271.61453	28763.25
1275.15503	29463.65
1278.69312	30375.65
1282.22882	31292.25
1285.76211	32519.45
1289.29301	33855.35
1292.82151	35667.55
1296.34761	37699.65
1299.87133	39898.95
1303.39266	41852.75
1306.9116	43246.05
1310.42815	44136.35
1313.94233	44493.75
1317.45412	44283.15
1320.96354	43973.55
1324.47058	43928.65
1327.97525	44039.65
1331.47754	44004.45
1334.97747	43930.35
1338.47502	43645.55
1341.97022	43197.95
1345.46305	42422.15
1348.95352	41610.15
1352.44163	40931.05
1355.92738	40843.55
1359.41078	41395.55
1362.89183	41783.95
1366.37053	40957.45
1369.84688	38394.65
1373.32088	35197.25
1376.79254	32965.45
1380.26186	32388.55
1383.72883	32803.25
1387.19347	33121.35
1390.65578	33104.55
1394.11575	33043.95
1397.57339	33334.75
1401.0287	33799.35
1404.48168	34048.75
1407.93234	33790.55
1411.38068	32805.15
1414.82669	31366.85
1418.27039	29841.85
1421.71177	28488.45
1425.15083	27463.45
1428.58758	27000.45
1432.02203	27233.95
1435.45416	28007.55
1438.88399	29001.95
1442.31151	29786.65
1445.73673	30290.85
1449.15965	30689.95
1452.58027	30874.65
1455.9986	30968.15
1459.41463	31170.65
1462.82837	31498.85
1466.23982	31888.75
1469.64898	32245.55
1473.05586	32399.35
1476.46045	32273.05
1479.86276	31924.55
1483.26279	31502.55
1486.66054	31237.75
1490.05602	31271.65
1493.44922	31506.95
1496.84016	31823.55
1500.22882	32293.55
1503.61521	32996.45
1506.99934	33771.75
1510.38121	34412.05
1513.76081	34592.55
1517.13816	34355.65
1520.51324	34032.85
1523.88607	33929.05
1527.25665	34136.95
1530.62498	34360.85
1533.99105	34240.35
1537.35488	33698.25
1540.71647	32783.95
1544.07581	31737.05
1547.4329	30654.45
1550.78776	29785.45
1554.14038	29181.85
1557.49077	28837.95
1560.83892	28664.55
1564.18484	28604.35
1567.52853	28595.65
1570.86999	28952.35
1574.20922	29673.85
1577.54624	30407.85
1580.88103	30902.85
1584.2136	31542.35
1587.54395	32550.35
1590.87208	33908.85
1594.19801	35503.45
1597.52172	36757.75
1600.84321	36538.25
1604.16251	34639.25
1607.47959	31993.75
1610.79447	29326.75
1614.10715	26998.95
1617.41763	25157.45
1620.7259	23849.65
1624.03199	23226.15
1627.33587	23298.05
1630.63757	24039.25
1633.93707	25675.95
1637.23439	28321.55
1640.52951	32105.05
1643.82246	36316.45
1647.11321	39516.05
1650.40179	39734.55
1653.68819	36711.75
1656.97241	31847.95
1660.25446	27209.35
1663.53433	23764.05
1666.81203	21467.05
1670.08756	20002.95
1673.36092	19121.45
1676.63211	18515.05
1679.90115	18083.95
1683.16801	17816.85
1686.43272	17559.85
1689.69527	17423.95
1692.95567	17273.75
1696.2139	17204.95
1699.46999	17134.65
1702.72392	17074.35
1705.97571	16948.85
1709.22535	16925.55
1712.47284	16857.15
1715.71819	16829.15
1718.96139	16772.15
1722.20246	16725.85
1725.44139	16650.95
1728.67818	16509.75
1731.91284	16415.95
1735.14537	16298.75
1738.37576	16275.45
1741.60403	16211.35
1744.83017	16159.85
1748.05418	16121.05
1751.27607	16092.35
1754.49584	16063.85
1757.71349	16041.25
1760.92903	16033.35
1764.14244	15988.85
1767.35375	15948.05
1770.56294	15961.35
1773.77002	15916.35
1776.97499	15886.15
1780.17785	15825.85
1783.37861	15813.25
1786.57727	15743.95
1789.77382	15716.75
1792.96828	15714.35
1796.16064	15656.65
1799.3509	15605.45
1802.53907	15596.45
1805.72514	15563.95
1808.90913	15516.25
1812.09102	15465.55
1815.27083	15435.65
1818.44856	15450.25
1821.6242	15386.95
1824.79776	15375.75
1827.96924	15351.95
1831.13864	15326.15
1834.30597	15384.55
1837.47122	15366.45
1840.6344	15325.15
1843.7955	15309.05
1846.95454	15326.45
1850.11151	15283.05
1853.26642	15278.55
1856.41926	15287.65
1859.57004	15275.45
1862.71876	15260.95
1865.86542	15193.55
1869.01003	15178.95
1872.15258	15142.75
1875.29308	15142.85
1878.43152	15148.75
1881.56792	15125.75
1884.70227	15080.35
1887.83457	15092.85
1890.96482	15039.65
1894.09304	15032.05
1897.21921	14989.95
1900.34335	14949.25
1903.46544	14936.55
1906.58551	14926.15
1909.70353	14899.95
1912.81953	14866.15
1915.93349	14852.95
1919.04543	14819.55
1922.15534	14769.65
1925.26322	14777.55
1928.36908	14717.85
1931.47292	14681.95
1934.57473	14637.55
1937.67453	14627.55
1940.77232	14617.85
1943.86808	14508.85
1946.96184	14470.25
1950.05358	14449.35
1953.14331	14432.05
1956.23103	14407.95
1959.31675	14354.35
1962.40046	14294.55
1965.48217	14240.95
1968.56188	14196.45
1971.63959	14166.25
1974.7153	14096.75
1977.78901	14051.75
1980.86073	14032.45
1983.93046	13984.15
1986.99819	13925.95
1990.06394	13901.35
1993.1277	13886.35
1996.18947	13819.55
1999.24925	13780.05
2002.30706	13734.75
2005.36288	13698.05
2008.41672	13650.85
2011.46859	13602.45
2014.51848	13602.55
2017.56639	13544.65
2020.61233	13523.65
2023.6563	13480.15
2026.6983	13449.75
2029.73833	13425.15
2032.7764	13387.35
2035.8125	13364.65
2038.84664	13314.05
2041.87881	13285.75
2044.90903	13275.45
2047.93729	13230.85
2050.96359	13201.85
2053.98794	13192.25
2057.01034	13198.95
2060.03078	13164.35
2063.04927	13175.25
2066.06582	13168.75
2069.08042	13180.05
2072.09307	13155.55
2075.10378	13119.75
2078.11255	13090.35
2081.11938	13108.05
2084.12426	13100.85
2087.12722	13089.05
2090.12824	13071.05
2093.12732	13077.65
2096.12447	13060.15
2099.11969	13049.05
2102.11299	13067.25
2105.10435	13076.75
2108.09379	13104.65
2111.08131	13071.45
2114.0669	13075.75
2117.05057	13093.35
2120.03233	13090.15
2123.01216	13095.45
2125.99008	13086.55
2128.96609	13094.65
2131.94018	13110.85
2134.91236	13113.55
2137.88263	13140.25
2140.851	13116.55
2143.81746	13143.05
2146.78201	13107.65
2149.74466	13138.15
2152.7054	13094.25
2155.66425	13122.95
2158.6212	13136.85
2161.57625	13123.85
2164.52941	13090.85
2167.48067	13100.95
2170.43004	13094.85
2173.37752	13077.95
2176.32311	13075.65
2179.26681	13080.15
2182.20863	13039.95
2185.14856	13057.55
2188.08661	13048.15
2191.02278	13069.95
2193.95707	13052.35
2196.88948	13063.25
2199.82001	13074.05
2202.74867	13009.35
2205.67545	12984.95
2208.60037	12971.55
2211.52341	12958.85
2214.44458	12933.55
2217.36388	12921.45
2220.28132	12879.55
2223.1969	12886.35
2226.11061	12833.75
2229.02246	12824.55
2231.93245	12788.95
2234.84058	12792.35
2237.74686	12770.85
2240.65128	12766.55
2243.55385	12744.75
2246.45456	12717.25
2249.35343	12667.45
2252.25044	12671.25
2255.14561	12619.45
2258.03893	12603.55
2260.93041	12573.35
2263.82004	12503.75
2266.70783	12498.05
2269.59378	12461.65
2272.4779	12407.65
2275.36017	12383.25
2278.24061	12391.95
2281.11922	12354.45
2283.996	12345.05
2286.87094	12315.05
2289.74405	12316.85
2292.61534	12270.85
2295.4848	12290.25
2298.35243	12264.55
2301.21824	12246.85
2304.08223	12257.75
2306.94439	12231.85
2309.80474	12237.05
2312.66327	12225.45
2315.51999	12249.85
2318.37489	12220.25
2321.22797	12191.75
2324.07925	12157.95
2326.92871	12159.15
2329.77637	12145.75
2332.62222	12125.85
2335.46626	12085.75
2338.3085	12086.35
2341.14893	12086.75
2343.98756	12090.75
2346.8244	12103.85
2349.65943	12057.85
2352.49267	12070.35
2355.32411	12070.25
2358.15376	12080.85
2360.98161	12098.55
2363.80768	12062.45
2366.63195	12067.45
2369.45444	12013.45
2372.27514	12030.95
2375.09405	11972.35
2377.91118	11973.95
2380.72652	11931.95
2383.54009	11898.65
2386.35187	11868.05
2389.16188	11843.55
2391.97011	11829.35
2394.77657	11798.15
2397.58125	11781.55
2400.38416	11783.55
2403.18529	11747.85
2405.98466	11749.35
2408.78226	11774.75
2411.57809	11738.35
2414.37216	11729.05
2417.16446	11713.55
2419.955	11678.25
2422.74378	11696.65
2425.5308	11664.25
2428.31606	11665.15
2431.09956	11668.85
2433.88131	11662.35
2436.6613	11640.15
2439.43954	11634.35
2442.21603	11605.75
2444.99077	11614.15
2447.76377	11610.15
2450.53501	11613.05
2453.30451	11606.75
2456.07226	11571.25
2458.83827	11573.65
2461.60254	11575.45
2464.36507	11569.45
2467.12586	11578.65
2469.88492	11549.25
2472.64224	11558.35
2475.39782	11548.85
2478.15167	11574.25
2480.90379	11558.45
2483.65417	11560.95
2486.40283	11571.05
2489.14976	11528.75
2491.89497	11557.45
2494.63845	11562.35
2497.3802	11560.55
2500.12024	11561.15
2502.85855	11513.15
2505.59514	11532.95
2508.33002	11498.55
2511.06318	11504.75
2513.79462	11512.35
2516.52435	11478.85
2519.25237	11486.35
2521.97867	11491.95
2524.70327	11473.85
2527.42616	11478.85
2530.14734	11422.65
2532.86681	11442.75
2535.58458	11436.15
2538.30065	11445.75
2541.01501	11443.85
2543.72768	11437.95
2546.43864	11427.15
2549.14791	11401.85
2551.85548	11415.65
2554.56136	11349.75
2557.26554	11376.05
2559.96803	11330.95
2562.66883	11298.65
2565.36794	11304.35
2568.06536	11272.55
2570.7611	11268.35
2573.45514	11255.85
2576.14751	11249.05
2578.83819	11226.15
2581.52719	11207.15
2584.21451	11198.85
2586.90015	11195.15
2589.58411	11188.15
2592.2664	11192.35
2594.94701	11168.65
2597.62594	11176.95
2600.30321	11119.15
2602.9788	11170.15
2605.65273	11129.75
2608.32498	11167.05
2610.99557	11132.85
2613.66449	11123.35
2616.33175	11125.25
2618.99734	11099.95
2621.66128	11127.55
2624.32355	11108.05
2626.98416	11091.15
2629.64311	11086.45
2632.30041	11069.35
2634.95605	11047.75
2637.61004	11052.35
2640.26238	11034.95
2642.91306	11036.05
2645.56209	11022.05
2648.20948	11044.85
2650.85521	11034.75
2653.4993	11031.65
2656.14175	11040.55
2658.78255	11041.75
2661.42171	11037.45
2664.05923	11079.55
2666.6951	11071.55
2669.32934	11083.35
2671.96194	11073.35
2674.59291	11092.15
2677.22224	11074.55
2679.84993	11075.25
2682.476	11039.75
2685.10043	11044.95
2687.72324	11029.25
2690.34441	11057.65
2692.96396	11030.25
2695.58188	11053.85
2698.19818	11050.65
2700.81285	11039.55
2703.4259	11082.05
2706.03733	11073.35
2708.64714	11047.85
2711.25533	11046.55
2713.86191	11051.75
2716.46687	11070.65
2719.07021	11067.65
2721.67194	11095.35
2724.27206	11074.25
2726.87057	11121.15
2729.46747	11089.35
2732.06276	11126.15
2734.65644	11104.75
2737.24852	11126.65
2739.83899	11088.05
2742.42786	11085.95
2745.01513	11075.15
2747.60079	11069.25
2750.18486	11043.35
2752.76733	11066.55
2755.3482	11030.05
2757.92747	11009.65
2760.50515	11017.75
2763.08123	11015.45
2765.65573	10993.85
2768.22863	11011.05
2770.79994	10992.55
2773.36967	11004.85
2775.9378	10978.35
2778.50435	10999.75
2781.06932	11006.05
2783.6327	11004.25
2786.1945	10979.85
2788.75471	10961.45
2791.31335	10961.75
2793.87041	10950.45
2796.42589	10955.85
2798.97979	10930.75
2801.53212	10906.15
2804.08288	10880.65
2806.63206	10880.55
2809.17967	10834.15
2811.72571	10809.85
2814.27018	10783.25
2816.81308	10776.35
2819.35442	10761.85
2821.89419	10718.35
2824.43239	10727.05
2826.96904	10691.95
2829.50412	10688.55
2832.03763	10684.55
2834.56959	10678.85
2837.1	10660.35
2839.62884	10669.95
2842.15613	10685.65
2844.68186	10669.65
2847.20604	10657.75
2849.72867	10687.55
2852.24974	10643.65
2854.76927	10639.45
2857.28724	10648.85
2859.80367	10621.95
2862.31855	10580.85
2864.83189	10591.65
2867.34368	10572.55
2869.85393	10577.65
2872.36264	10559.55
2874.8698	10540.25
2877.37543	10535.75
2879.87952	10519.95
2882.38207	10532.25
2884.88308	10523.55
2887.38256	10530.05
2889.88051	10540.75
2892.37692	10509.25
2894.8718	10524.25
2897.36515	10532.35
2899.85698	10559.85
2902.34727	10568.55
2904.83604	10551.85
2907.32328	10592.15
2909.809	10559.75
2912.29319	10552.55
2914.77587	10566.05
2917.25702	10559.05
2919.73665	10556.85
2922.21476	10568.65
2924.69136	10547.45
2927.16644	10552.85
2929.64	10532.05
2932.11205	10532.05
2934.58258	10482.75
2937.05161	10496.05
2939.51912	10522.35
2941.98513	10508.85
2944.44962	10473.95
2946.91261	10419.15
2949.37409	10464.55
2951.83407	10419.45
2954.29254	10420.95
2956.74951	10394.35
2959.20498	10417.45
2961.65895	10394.35
2964.11142	10401.75
2966.56239	10374.75
2969.01186	10388.65
2971.45984	10354.65
2973.90632	10357.65
2976.35131	10367.95
2978.7948	10318.95
2981.23681	10283.75
2983.67732	10274.45
2986.11635	10271.75
2988.55388	10247.15
2990.98993	10193.55
2993.4245	10169.85
2995.85758	10121.95
2998.28917	10131.25
3000.71928	10108.35
3003.14791	10083.95
3005.57506	10072.95
3008.00073	10029.05
3010.42493	10011.55
3012.84764	9971.05
3015.26888	9969.15
3017.68865	9938.65
3020.10694	9919.85
3022.52376	9926.35
3024.9391	9915.45
3027.35298	9918.75
3029.76539	9868.95
3032.17632	9874.85
3034.5858	9877.75
3036.9938	9863.05
3039.40034	9877.05
3041.80542	9885.85
3044.20903	9824.05
3046.61118	9844.15
3049.01187	9808.55
3051.4111	9812.55
3053.80888	9777.65
3056.20519	9772.05
3058.60005	9718.95
3060.99345	9732.05
3063.3854	9707.25
3065.7759	9652.35
3068.16494	9637.65
3070.55254	9620.75
3072.93868	9598.55
3075.32338	9561.15
3077.70662	9544.65
3080.08842	9523.95
3082.46878	9469.05
3084.84769	9480.35
3087.22515	9499.65
3089.60118	9485.55
3091.97576	9474.65
3094.3489	9451.25
3096.72061	9450.55
3099.09087	9453.65
3101.4597	9448.85
3103.82709	9436.55
3106.19305	9420.85
3108.55757	9426.45
3110.92066	9403.05
3113.28232	9397.35
3115.64255	9384.65
3118.00134	9357.05
3120.35871	9317.75
3122.71466	9306.25
3125.06917	9281.75
3127.42226	9272.55
3129.77393	9280.15
3132.12417	9239.35
3134.47299	9244.95
3136.82039	9214.45
3139.16636	9245.35
3141.51092	9231.15
3143.85406	9232.35
3146.19579	9217.25
3148.53609	9208.35
3150.87499	9242.85
3153.21246	9206.75
3155.54853	9235.75
3157.88318	9223.75
3160.21642	9228.15
3162.54826	9224.55
3164.87868	9246.55
3167.2077	9265.35
3169.5353	9263.65
3171.86151	9242.35
3174.18631	9235.05
3176.5097	9240.45
3178.83169	9223.25
3181.15228	9206.35
3183.47147	9186.45
3185.78926	9197.45
3188.10565	9152.45
3190.42065	9169.85
3192.73424	9119.65
3195.04645	9117.65
3197.35725	9083.75
3199.66667	9115.45
3201.97469	9115.35
3204.28132	9105.15
3206.58656	9097.45
3208.8904	9090.15
3211.19287	9104.65
3213.49394	9060.15
3215.79363	9106.15
3218.09193	9117.95
3220.38884	9112.35
3222.68438	9133.15
3224.97853	9095.05
3227.2713	9120.25
3229.56269	9078.45
3231.8527	9070.75
3234.14133	9038.25
3236.42858	9025.55
3238.71446	9012.45
3240.99896	9017.95
3243.28209	8974.15
3245.56384	8978.05
3247.84423	9018.25
3250.12324	8961.05
3252.40088	8957.35
3254.67715	8967.05
3256.95205	8934.85
3259.22558	8925.15
3261.49775	8898.35
3263.76855	8901.15
3266.03799	8908.65
3268.30606	8860.85
3270.57277	8855.55
3272.83812	8842.35
3275.10211	8822.55
3277.36474	8782.55
3279.62601	8795.75
3281.88593	8776.45
3284.14448	8781.55
3286.40168	8779.75
3288.65753	8780.15
3290.91202	8786.25
3293.16516	8768.35
3295.41695	8761.35
3297.66738	8705.15
3299.91647	8647.45
3302.16421	8583.65
3304.4106	8570.05
3306.65564	8490.35
3308.89933	8410.75
3311.14169	8356.95
3313.38269	8269.45
3315.62236	8219.35
3317.86068	8150.75
3320.09766	8069.55
3322.3333	8015.45
3324.5676	7988.25
3326.80056	7835.35
3329.03219	7806.25
3331.26248	3.45
3333.49143	0.65
3335.71905	0.25
