Data from AgNP_FTO_APTES_UA_10uM_CRN_100uM_R6G_10uM_NaF_0.1M_Addition_RamanShift__13__17-39-40-850.txt Node

Date: Thu Feb 10 17:39:40 GMT 2022
User: TCL
Spectrometer: QEP01345
Trigger mode: 4
Integration Time (sec): 7.000000E0
Scans to average: 10
Electric dark correction enabled: true
Nonlinearity correction enabled: false
Boxcar width: 0
XAxis mode: Raman Shifts
Number of Pixels in Spectrum: 1044
>>>>>Begin Spectral Data<<<<<
46.04893	0.65
50.45542	-0.95
54.85868	-2.15
59.25871	-1.45
63.6555	58.55
68.04907	59.25
72.43941	64.75
76.82654	63.35
81.21044	69.35
85.59113	71.95
89.96862	75.85
94.34289	81.85
98.71396	79.65
103.08183	82.95
107.4465	87.25
111.80798	83.25
116.16626	90.95
120.52136	90.55
124.87327	95.95
129.222	98.95
133.56755	106.35
137.90993	112.75
142.24913	118.15
146.58517	135.75
150.91804	158.05
155.24774	183.95
159.57429	226.65
163.89768	281.65
168.21792	375.75
172.53501	511.85
176.84895	710.45
181.15975	1010.75
185.46741	1416.25
189.77193	1955.75
194.07331	2612.15
198.37157	3379.65
202.6667	4187.25
206.9587	4987.55
211.24758	5769.05
215.53334	6523.95
219.81599	7337.45
224.09553	8195.85
228.37195	9160.65
232.64527	10218.05
236.91549	11365.05
241.18261	12530.95
245.44663	13691.25
249.70755	14726.85
253.96539	15640.15
258.22014	16449.25
262.4718	17128.05
266.72039	17544.55
270.96589	17871.05
275.20832	17920.05
279.44768	17841.25
283.68397	17736.55
287.91719	17580.85
292.14735	17484.15
296.37445	17440.55
300.59849	17385.45
304.81948	17400.65
309.03742	17275.45
313.25231	17074.55
317.46415	16763.05
321.67296	16413.55
325.87872	16157.75
330.08145	16005.65
334.28114	16059.65
338.47781	16214.25
342.67145	16420.85
346.86207	16616.45
351.04966	16898.25
355.23424	17114.45
359.4158	17325.55
363.59435	17531.95
367.76989	17701.45
371.94243	17839.25
376.11196	17937.75
380.27849	18050.35
384.44203	18185.85
388.60257	18308.05
392.76012	18413.85
396.91468	18609.35
401.06626	18802.75
405.21485	18953.65
409.36047	18963.45
413.50311	18805.15
417.64277	18626.35
421.77947	18579.05
425.9132	18645.55
430.04396	18744.75
434.17176	18809.95
438.2966	18934.95
442.41849	19156.15
446.53742	19415.85
450.6534	19716.55
454.76644	19986.55
458.87653	20143.95
462.98368	20175.15
467.08789	20132.85
471.18916	20062.95
475.2875	19987.65
479.38291	19971.75
483.4754	19914.05
487.56496	19700.05
491.6516	19505.85
495.73531	19345.45
499.81612	19259.85
503.89401	19329.45
507.96899	19378.15
512.04106	19408.75
516.11023	19402.65
520.1765	19321.35
524.23987	19241.95
528.30034	19116.95
532.35792	19025.25
536.41261	18942.85
540.46441	18861.65
544.51333	18926.55
548.55936	19065.65
552.60252	19327.15
556.64279	19589.55
560.6802	19741.25
564.71473	19766.95
568.7464	19957.95
572.7752	20170.85
576.80114	20385.05
580.82422	20541.85
584.84444	20687.25
588.86181	20745.75
592.87633	20763.65
596.888	20727.35
600.89682	20822.35
604.9028	21283.85
608.90594	22436.65
612.90624	23698.95
616.90371	22788.85
620.89834	20467.75
624.89015	19458.25
628.87913	19368.95
632.86528	19451.95
636.84862	19476.35
640.82913	19381.75
644.80683	19114.15
648.78172	18915.35
652.75379	18885.75
656.72306	18975.25
660.68952	19170.95
664.65319	19153.75
668.61405	18993.05
672.57211	18966.85
676.52738	19007.25
680.47986	19053.15
684.42955	18966.35
688.37646	18953.15
692.32058	18987.15
696.26192	19077.75
700.20048	19225.45
704.13626	19345.05
708.06928	19322.75
711.99952	19250.55
715.927	19218.35
719.85171	19213.45
723.77365	19171.25
727.69284	19122.55
731.60928	18958.75
735.52295	18910.85
739.43388	18897.15
743.34206	18951.85
747.24749	18978.35
751.15017	19067.15
755.05012	19218.55
758.94733	19565.45
762.8418	20142.45
766.73354	21014.95
770.62254	21869.25
774.50882	22185.05
778.39237	21603.45
782.27321	20556.65
786.15132	19764.15
790.02671	19255.45
793.89938	18988.75
797.76935	18853.75
801.6366	18823.45
805.50115	18773.75
809.36299	18678.35
813.22213	18649.65
817.07857	18618.85
820.93231	18582.65
824.78336	18574.45
828.63172	18585.35
832.47738	18562.75
836.32036	18574.35
840.16066	18578.85
843.99827	18590.35
847.8332	18614.85
851.66546	18575.25
855.49504	18567.35
859.32195	18612.55
863.1462	18574.25
866.96777	18556.45
870.78668	18521.45
874.60293	18550.35
878.41652	18563.55
882.22745	18574.65
886.03573	18603.65
889.84136	18603.85
893.64433	18548.75
897.44466	18526.55
901.24235	18461.15
905.0374	18407.05
908.8298	18406.85
912.61957	18443.35
916.40671	18534.95
920.19121	18679.05
923.97308	18671.75
927.75233	18650.95
931.52895	18624.65
935.30295	18496.75
939.07433	18316.85
942.84309	18159.55
946.60924	18064.15
950.37278	18057.15
954.13371	17991.25
957.89203	17952.45
961.64774	17916.15
965.40086	17883.95
969.15137	17849.55
972.89929	17800.25
976.64461	17792.65
980.38733	17770.65
984.12747	17834.25
987.86502	17922.45
991.59999	18003.55
995.33237	18151.95
999.06217	18321.95
1002.78939	18512.75
1006.51404	18633.35
1010.23611	18726.25
1013.95561	18794.65
1017.67255	18843.15
1021.38692	18757.85
1025.09872	18698.25
1028.80796	18705.65
1032.51465	18871.95
1036.21877	19002.05
1039.92035	19090.85
1043.61937	18973.45
1047.31584	18864.25
1051.00976	18799.45
1054.70114	18774.85
1058.38998	18789.25
1062.07627	18929.35
1065.76003	19025.55
1069.44126	19093.55
1073.11995	19205.75
1076.79611	19323.45
1080.46974	19376.95
1084.14085	19442.85
1087.80943	19569.15
1091.47549	19614.35
1095.13903	19667.55
1098.80005	19566.35
1102.45857	19347.75
1106.11456	19212.15
1109.76805	19107.55
1113.41903	19118.85
1117.06751	19183.05
1120.71348	19304.95
1124.35696	19406.45
1127.99793	19549.95
1131.63641	19646.45
1135.2724	19532.65
1138.90589	19383.25
1142.5369	19348.55
1146.16542	19298.25
1149.79145	19300.45
1153.415	19396.95
1157.03607	19537.35
1160.65467	19807.25
1164.27079	20266.55
1167.88443	20800.25
1171.49561	21508.45
1175.10432	22404.25
1178.71056	23501.75
1182.31434	24602.55
1185.91565	25264.55
1189.51451	25461.25
1193.11091	25126.75
1196.70485	24485.95
1200.29634	23795.75
1203.88538	23221.35
1207.47197	22764.75
1211.05612	22351.25
1214.63782	22002.25
1218.21708	21679.75
1221.79391	21427.65
1225.36829	21252.05
1228.94024	21113.05
1232.50976	20926.15
1236.07685	20801.75
1239.6415	20769.35
1243.20374	20845.35
1246.76355	20950.05
1250.32093	21125.45
1253.8759	21372.55
1257.42845	21699.95
1260.97859	22037.95
1264.52631	22317.55
1268.07163	22654.55
1271.61453	23001.85
1275.15503	23377.15
1278.69312	23747.85
1282.22882	24048.15
1285.76211	24346.85
1289.29301	24699.35
1292.82151	25256.05
1296.34761	25955.55
1299.87133	26860.65
1303.39266	27847.25
1306.9116	28892.05
1310.42815	29927.35
1313.94233	30500.05
1317.45412	30449.35
1320.96354	30084.75
1324.47058	29815.65
1327.97525	29518.45
1331.47754	29312.95
1334.97747	29277.25
1338.47502	29435.35
1341.97022	29606.15
1345.46305	29693.45
1348.95352	29668.75
1352.44163	29534.55
1355.92738	29616.35
1359.41078	30048.85
1362.89183	30504.85
1366.37053	29954.45
1369.84688	28134.05
1373.32088	26139.55
1376.79254	24800.15
1380.26186	24155.15
1383.72883	23976.45
1387.19347	23888.85
1390.65578	23785.65
1394.11575	23709.75
1397.57339	23724.85
1401.0287	23833.85
1404.48168	23892.95
1407.93234	23842.65
1411.38068	23558.25
1414.82669	23126.65
1418.27039	22526.65
1421.71177	21979.75
1425.15083	21517.85
1428.58758	21214.85
1432.02203	21264.85
1435.45416	21417.35
1438.88399	21728.85
1442.31151	21964.45
1445.73673	22214.35
1449.15965	22422.15
1452.58027	22604.85
1455.9986	22740.65
1459.41463	22944.85
1462.82837	23197.65
1466.23982	23413.65
1469.64898	23705.95
1473.05586	23781.45
1476.46045	23806.65
1479.86276	23761.05
1483.26279	23615.05
1486.66054	23582.95
1490.05602	23574.35
1493.44922	23768.75
1496.84016	24101.85
1500.22882	24647.65
1503.61521	25400.95
1506.99934	26333.45
1510.38121	27111.95
1513.76081	27297.15
1517.13816	26850.25
1520.51324	26022.35
1523.88607	25251.35
1527.25665	24753.85
1530.62498	24578.25
1533.99105	24428.45
1537.35488	24275.65
1540.71647	24023.05
1544.07581	23741.65
1547.4329	23387.15
1550.78776	23108.05
1554.14038	22962.95
1557.49077	22881.05
1560.83892	22858.45
1564.18484	22878.05
1567.52853	22956.75
1570.86999	23124.65
1574.20922	23285.15
1577.54624	23429.95
1580.88103	23381.65
1584.2136	23294.55
1587.54395	23387.55
1590.87208	23789.65
1594.19801	24504.75
1597.52172	25265.45
1600.84321	25533.45
1604.16251	24955.65
1607.47959	23984.15
1610.79447	22950.55
1614.10715	21838.85
1617.41763	20847.65
1620.7259	20126.75
1624.03199	19655.95
1627.33587	19528.85
1630.63757	19766.35
1633.93707	20315.25
1637.23439	21252.05
1640.52951	22576.95
1643.82246	24107.25
1647.11321	25396.75
1650.40179	25858.05
1653.68819	25095.55
1656.97241	23267.65
1660.25446	21278.05
1663.53433	19714.65
1666.81203	18597.05
1670.08756	17852.75
1673.36092	17362.05
1676.63211	17005.25
1679.90115	16797.15
1683.16801	16599.55
1686.43272	16485.05
1689.69527	16397.55
1692.95567	16299.95
1696.2139	16285.55
1699.46999	16251.75
1702.72392	16198.15
1705.97571	16189.95
1709.22535	16123.55
1712.47284	16114.45
1715.71819	16071.55
1718.96139	16059.15
1722.20246	16054.35
1725.44139	15998.65
1728.67818	15895.35
1731.91284	15808.65
1735.14537	15758.35
1738.37576	15728.85
1741.60403	15669.05
1744.83017	15665.45
1748.05418	15597.55
1751.27607	15578.65
1754.49584	15612.45
1757.71349	15597.85
1760.92903	15588.55
1764.14244	15559.35
1767.35375	15512.45
1770.56294	15510.55
1773.77002	15475.95
1776.97499	15445.85
1780.17785	15443.55
1783.37861	15410.05
1786.57727	15363.45
1789.77382	15337.95
1792.96828	15319.45
1796.16064	15272.65
1799.3509	15257.15
1802.53907	15234.95
1805.72514	15193.25
1808.90913	15184.55
1812.09102	15120.95
1815.27083	15107.05
1818.44856	15097.35
1821.6242	15042.85
1824.79776	15050.35
1827.96924	15019.75
1831.13864	15010.45
1834.30597	14998.55
1837.47122	15002.35
1840.6344	14979.95
1843.7955	14958.15
1846.95454	14909.65
1850.11151	14938.85
1853.26642	14939.35
1856.41926	14910.55
1859.57004	14937.25
1862.71876	14877.15
1865.86542	14886.75
1869.01003	14845.75
1872.15258	14827.75
1875.29308	14842.15
1878.43152	14794.55
1881.56792	14797.85
1884.70227	14751.35
1887.83457	14727.65
1890.96482	14722.15
1894.09304	14677.85
1897.21921	14701.25
1900.34335	14635.95
1903.46544	14637.25
1906.58551	14624.75
1909.70353	14611.45
1912.81953	14559.55
1915.93349	14578.75
1919.04543	14548.15
1922.15534	14503.45
1925.26322	14472.35
1928.36908	14457.75
1931.47292	14430.95
1934.57473	14403.65
1937.67453	14402.75
1940.77232	14368.45
1943.86808	14292.75
1946.96184	14222.45
1950.05358	14215.25
1953.14331	14193.65
1956.23103	14161.55
1959.31675	14089.75
1962.40046	14042.35
1965.48217	14018.85
1968.56188	13971.45
1971.63959	13915.25
1974.7153	13877.85
1977.78901	13854.75
1980.86073	13820.65
1983.93046	13792.65
1986.99819	13761.55
1990.06394	13726.55
1993.1277	13689.85
1996.18947	13615.85
1999.24925	13575.45
2002.30706	13555.55
2005.36288	13529.15
2008.41672	13487.25
2011.46859	13426.35
2014.51848	13392.25
2017.56639	13385.45
2020.61233	13332.25
2023.6563	13294.65
2026.6983	13273.75
2029.73833	13231.05
2032.7764	13199.15
2035.8125	13178.95
2038.84664	13134.55
2041.87881	13094.45
2044.90903	13064.95
2047.93729	13034.95
2050.96359	13047.45
2053.98794	13011.45
2057.01034	13010.45
2060.03078	12990.75
2063.04927	12977.35
2066.06582	12954.05
2069.08042	12956.05
2072.09307	12949.35
2075.10378	12913.85
2078.11255	12935.85
2081.11938	12926.85
2084.12426	12870.05
2087.12722	12900.85
2090.12824	12880.05
2093.12732	12878.85
2096.12447	12871.65
2099.11969	12895.35
2102.11299	12890.25
2105.10435	12888.65
2108.09379	12929.55
2111.08131	12915.95
2114.0669	12922.75
2117.05057	12925.65
2120.03233	12926.25
2123.01216	12956.65
2125.99008	12978.95
2128.96609	12949.65
2131.94018	12970.35
2134.91236	12978.05
2137.88263	12976.75
2140.851	12997.45
2143.81746	12998.95
2146.78201	13020.05
2149.74466	13028.45
2152.7054	12986.95
2155.66425	12997.35
2158.6212	13000.35
2161.57625	12989.05
2164.52941	12966.85
2167.48067	12983.55
2170.43004	12963.65
2173.37752	12952.15
2176.32311	12946.35
2179.26681	12952.05
2182.20863	12940.45
2185.14856	12928.45
2188.08661	12925.65
2191.02278	12944.25
2193.95707	12940.45
2196.88948	12929.95
2199.82001	12932.75
2202.74867	12901.55
2205.67545	12895.95
2208.60037	12879.45
2211.52341	12855.75
2214.44458	12851.35
2217.36388	12826.45
2220.28132	12802.75
2223.1969	12772.55
2226.11061	12761.95
2229.02246	12703.55
2231.93245	12692.65
2234.84058	12648.15
2237.74686	12662.95
2240.65128	12639.25
2243.55385	12618.05
2246.45456	12593.25
2249.35343	12562.65
2252.25044	12571.75
2255.14561	12541.15
2258.03893	12543.45
2260.93041	12503.05
2263.82004	12461.15
2266.70783	12444.75
2269.59378	12383.25
2272.4779	12354.85
2275.36017	12352.05
2278.24061	12296.05
2281.11922	12318.35
2283.996	12295.05
2286.87094	12244.45
2289.74405	12241.55
2292.61534	12213.25
2295.4848	12235.15
2298.35243	12191.95
2301.21824	12175.45
2304.08223	12202.15
2306.94439	12206.05
2309.80474	12207.95
2312.66327	12203.65
2315.51999	12149.15
2318.37489	12162.65
2321.22797	12121.85
2324.07925	12101.35
2326.92871	12079.95
2329.77637	12087.35
2332.62222	12057.65
2335.46626	12049.75
2338.3085	12024.25
2341.14893	12030.85
2343.98756	12024.25
2346.8244	11971.25
2349.65943	11994.25
2352.49267	11995.65
2355.32411	12003.65
2358.15376	11976.35
2360.98161	11963.15
2363.80768	11975.05
2366.63195	11966.65
2369.45444	11932.25
2372.27514	11899.45
2375.09405	11893.65
2377.91118	11874.45
2380.72652	11843.85
2383.54009	11811.85
2386.35187	11770.15
2389.16188	11752.65
2391.97011	11732.95
2394.77657	11705.55
2397.58125	11683.65
2400.38416	11684.85
2403.18529	11660.45
2405.98466	11627.25
2408.78226	11599.45
2411.57809	11623.65
2414.37216	11590.95
2417.16446	11588.15
2419.955	11550.05
2422.74378	11563.05
2425.5308	11532.55
2428.31606	11555.55
2431.09956	11540.35
2433.88131	11515.35
2436.6613	11526.75
2439.43954	11498.35
2442.21603	11492.25
2444.99077	11469.35
2447.76377	11459.25
2450.53501	11423.35
2453.30451	11432.75
2456.07226	11433.95
2458.83827	11418.55
2461.60254	11399.75
2464.36507	11376.85
2467.12586	11374.55
2469.88492	11377.95
2472.64224	11365.75
2475.39782	11371.05
2478.15167	11371.85
2480.90379	11352.05
2483.65417	11370.25
2486.40283	11381.05
2489.14976	11340.55
2491.89497	11344.75
2494.63845	11321.25
2497.3802	11335.85
2500.12024	11320.25
2502.85855	11316.55
2505.59514	11281.45
2508.33002	11289.35
2511.06318	11264.25
2513.79462	11275.65
2516.52435	11233.95
2519.25237	11217.65
2521.97867	11213.15
2524.70327	11230.15
2527.42616	11223.85
2530.14734	11190.05
2532.86681	11192.85
2535.58458	11195.45
2538.30065	11178.55
2541.01501	11161.15
2543.72768	11147.05
2546.43864	11150.95
2549.14791	11115.25
2551.85548	11123.45
2554.56136	11098.05
2557.26554	11052.35
2559.96803	11034.25
2562.66883	10994.15
2565.36794	10996.65
2568.06536	10970.15
2570.7611	10963.85
2573.45514	10922.35
2576.14751	10920.25
2578.83819	10885.65
2581.52719	10912.25
2584.21451	10865.85
2586.90015	10855.25
2589.58411	10843.55
2592.2664	10833.45
2594.94701	10816.75
2597.62594	10815.85
2600.30321	10779.25
2602.9788	10776.15
2605.65273	10730.15
2608.32498	10736.45
2610.99557	10725.05
2613.66449	10712.55
2616.33175	10713.85
2618.99734	10685.85
2621.66128	10707.85
2624.32355	10700.65
2626.98416	10687.05
2629.64311	10648.35
2632.30041	10638.95
2634.95605	10615.25
2637.61004	10585.75
2640.26238	10584.95
2642.91306	10575.75
2645.56209	10585.95
2648.20948	10553.25
2650.85521	10557.55
2653.4993	10577.35
2656.14175	10546.15
2658.78255	10536.25
2661.42171	10563.45
2664.05923	10559.85
2666.6951	10587.85
2669.32934	10575.65
2671.96194	10551.55
2674.59291	10579.95
2677.22224	10567.25
2679.84993	10542.45
2682.476	10545.65
2685.10043	10511.25
2687.72324	10499.65
2690.34441	10509.05
2692.96396	10520.25
2695.58188	10509.65
2698.19818	10490.35
2700.81285	10493.35
2703.4259	10525.35
2706.03733	10520.05
2708.64714	10487.45
2711.25533	10506.15
2713.86191	10516.35
2716.46687	10502.75
2719.07021	10530.65
2721.67194	10556.65
2724.27206	10524.35
2726.87057	10522.55
2729.46747	10540.45
2732.06276	10517.95
2734.65644	10499.95
2737.24852	10518.85
2739.83899	10479.35
2742.42786	10486.55
2745.01513	10441.95
2747.60079	10439.25
2750.18486	10427.35
2752.76733	10431.75
2755.3482	10403.15
2757.92747	10408.35
2760.50515	10392.35
2763.08123	10364.65
2765.65573	10361.55
2768.22863	10367.25
2770.79994	10382.05
2773.36967	10361.35
2775.9378	10335.85
2778.50435	10344.15
2781.06932	10346.25
2783.6327	10325.95
2786.1945	10325.35
2788.75471	10299.55
2791.31335	10275.45
2793.87041	10260.25
2796.42589	10253.25
2798.97979	10239.35
2801.53212	10206.05
2804.08288	10211.75
2806.63206	10160.25
2809.17967	10128.55
2811.72571	10104.85
2814.27018	10088.65
2816.81308	10087.85
2819.35442	10052.35
2821.89419	10043.25
2824.43239	10028.75
2826.96904	10030.95
2829.50412	10003.25
2832.03763	9994.25
2834.56959	9984.15
2837.1	9975.15
2839.62884	9978.25
2842.15613	9977.65
2844.68186	10001.95
2847.20604	9965.35
2849.72867	9981.55
2852.24974	9988.75
2854.76927	9960.45
2857.28724	9926.25
2859.80367	9931.55
2862.31855	9909.25
2864.83189	9897.25
2867.34368	9887.45
2869.85393	9862.65
2872.36264	9869.75
2874.8698	9869.85
2877.37543	9840.75
2879.87952	9850.35
2882.38207	9856.05
2884.88308	9825.65
2887.38256	9856.95
2889.88051	9835.45
2892.37692	9822.25
2894.8718	9853.15
2897.36515	9863.55
2899.85698	9860.95
2902.34727	9880.95
2904.83604	9858.55
2907.32328	9879.45
2909.809	9883.85
2912.29319	9902.75
2914.77587	9877.05
2917.25702	9871.95
2919.73665	9856.45
2922.21476	9845.75
2924.69136	9858.35
2927.16644	9836.45
2929.64	9833.75
2932.11205	9825.95
2934.58258	9794.25
2937.05161	9795.45
2939.51912	9810.55
2941.98513	9819.15
2944.44962	9791.45
2946.91261	9746.75
2949.37409	9743.75
2951.83407	9746.25
2954.29254	9735.25
2956.74951	9727.35
2959.20498	9736.05
2961.65895	9721.55
2964.11142	9724.85
2966.56239	9702.75
2969.01186	9700.85
2971.45984	9690.05
2973.90632	9678.15
2976.35131	9648.75
2978.7948	9630.25
2981.23681	9636.95
2983.67732	9615.25
2986.11635	9597.35
2988.55388	9587.85
2990.98993	9559.05
2993.4245	9535.05
2995.85758	9510.55
2998.28917	9507.65
3000.71928	9477.05
3003.14791	9448.85
3005.57506	9469.45
3008.00073	9439.65
3010.42493	9417.85
3012.84764	9404.15
3015.26888	9367.05
3017.68865	9362.65
3020.10694	9375.75
3022.52376	9361.15
3024.9391	9348.45
3027.35298	9328.75
3029.76539	9300.35
3032.17632	9306.95
3034.5858	9309.25
3036.9938	9303.35
3039.40034	9322.95
3041.80542	9283.45
3044.20903	9273.65
3046.61118	9292.25
3049.01187	9251.45
3051.4111	9248.55
3053.80888	9222.45
3056.20519	9201.95
3058.60005	9184.25
3060.99345	9178.85
3063.3854	9154.25
3065.7759	9137.85
3068.16494	9120.65
3070.55254	9090.65
3072.93868	9105.55
3075.32338	9093.85
3077.70662	9052.95
3080.08842	9049.55
3082.46878	9038.45
3084.84769	9028.75
3087.22515	9035.35
3089.60118	9036.45
3091.97576	9016.05
3094.3489	9000.65
3096.72061	9005.75
3099.09087	9011.65
3101.4597	9028.25
3103.82709	9000.05
3106.19305	8994.25
3108.55757	9003.05
3110.92066	8998.75
3113.28232	9006.45
3115.64255	8958.45
3118.00134	8952.35
3120.35871	8943.55
3122.71466	8889.05
3125.06917	8896.35
3127.42226	8858.55
3129.77393	8865.85
3132.12417	8850.65
3134.47299	8849.75
3136.82039	8882.25
3139.16636	8860.75
3141.51092	8871.15
3143.85406	8862.25
3146.19579	8867.75
3148.53609	8862.75
3150.87499	8872.55
3153.21246	8890.65
3155.54853	8904.55
3157.88318	8890.85
3160.21642	8897.95
3162.54826	8889.65
3164.87868	8898.35
3167.2077	8920.55
3169.5353	8936.25
3171.86151	8934.25
3174.18631	8910.65
3176.5097	8914.45
3178.83169	8898.85
3181.15228	8874.35
3183.47147	8885.75
3185.78926	8870.65
3188.10565	8862.05
3190.42065	8850.65
3192.73424	8834.85
3195.04645	8812.85
3197.35725	8833.45
3199.66667	8820.05
3201.97469	8839.75
3204.28132	8833.35
3206.58656	8848.05
3208.8904	8849.65
3211.19287	8840.35
3213.49394	8867.05
3215.79363	8857.95
3218.09193	8876.25
3220.38884	8853.15
3222.68438	8875.65
3224.97853	8863.55
3227.2713	8818.05
3229.56269	8842.35
3231.8527	8818.25
3234.14133	8810.95
3236.42858	8774.55
3238.71446	8767.25
3240.99896	8775.05
3243.28209	8752.45
3245.56384	8725.85
3247.84423	8738.85
3250.12324	8722.35
3252.40088	8720.45
3254.67715	8731.45
3256.95205	8713.85
3259.22558	8722.45
3261.49775	8690.85
3263.76855	8717.65
3266.03799	8700.45
3268.30606	8679.95
3270.57277	8667.35
3272.83812	8651.25
3275.10211	8624.75
3277.36474	8633.35
3279.62601	8593.75
3281.88593	8579.25
3284.14448	8588.35
3286.40168	8578.65
3288.65753	8605.35
3290.91202	8568.05
3293.16516	8568.95
3295.41695	8544.05
3297.66738	8501.75
3299.91647	8477.15
3302.16421	8416.85
3304.4106	8389.45
3306.65564	8340.65
3308.89933	8261.75
3311.14169	8211.35
3313.38269	8125.75
3315.62236	8106.45
3317.86068	8017.95
3320.09766	7943.25
3322.3333	7921.85
3324.5676	7862.95
3326.80056	7748.95
3329.03219	7685.35
3331.26248	4.05
3333.49143	-0.25
3335.71905	0.05
