Data from AgNP_FTO_APTES_UA_10uM_CRN_1uM_R6G_10uM_NaF_0.1M_Addition_RamanShift__10__13-04-20-505.txt Node

Date: Thu Feb 10 13:04:20 GMT 2022
User: TCL
Spectrometer: QEP01345
Trigger mode: 4
Integration Time (sec): 7.000000E0
Scans to average: 10
Electric dark correction enabled: true
Nonlinearity correction enabled: false
Boxcar width: 0
XAxis mode: Raman Shifts
Number of Pixels in Spectrum: 1044
>>>>>Begin Spectral Data<<<<<
46.04893	-0.45
50.45542	-1.25
54.85868	-1.35
59.25871	-0.05
63.6555	75.65
68.04907	75.75
72.43941	84.55
76.82654	81.95
81.21044	89.55
85.59113	91.25
89.96862	96.25
94.34289	99.15
98.71396	99.95
103.08183	102.85
107.4465	107.85
111.80798	103.95
116.16626	111.05
120.52136	115.45
124.87327	125.25
129.222	128.45
133.56755	139.35
137.90993	145.65
142.24913	164.55
146.58517	182.15
150.91804	218.85
155.24774	260.95
159.57429	322.35
163.89768	416.75
168.21792	555.25
172.53501	765.45
176.84895	1057.65
181.15975	1497.25
185.46741	2100.95
189.77193	2902.15
194.07331	3878.45
198.37157	5000.45
202.6667	6201.95
206.9587	7364.25
211.24758	8496.15
215.53334	9692.95
219.81599	10909.25
224.09553	12247.55
228.37195	13724.65
232.64527	15376.65
236.91549	17120.65
241.18261	18824.25
245.44663	20364.55
249.70755	21779.15
253.96539	22993.75
258.22014	24019.05
262.4718	24823.55
266.72039	25399.05
270.96589	25641.95
275.20832	25675.85
279.44768	25452.05
283.68397	25149.45
287.91719	24942.35
292.14735	24800.45
296.37445	24744.15
300.59849	24798.85
304.81948	24970.65
309.03742	25054.75
313.25231	24980.55
317.46415	24682.35
321.67296	24117.25
325.87872	23644.45
330.08145	23410.45
334.28114	23407.85
338.47781	23552.05
342.67145	23807.95
346.86207	24231.25
351.04966	24691.15
355.23424	25196.45
359.4158	25639.55
363.59435	25982.35
367.76989	26157.05
371.94243	26248.95
376.11196	26274.85
380.27849	26290.05
384.44203	26381.35
388.60257	26539.75
392.76012	26833.45
396.91468	27281.45
401.06626	27700.65
405.21485	28026.25
409.36047	27831.25
413.50311	27568.85
417.64277	27392.35
421.77947	27551.15
425.9132	27691.85
430.04396	27916.45
434.17176	27935.65
438.2966	27996.85
442.41849	28289.75
446.53742	28842.65
450.6534	29620.55
454.76644	30082.15
458.87653	30147.05
462.98368	30012.95
467.08789	29686.25
471.18916	29250.55
475.2875	28702.15
479.38291	28384.45
483.4754	28128.05
487.56496	27952.75
491.6516	27636.45
495.73531	27372.25
499.81612	27242.55
503.89401	27448.95
507.96899	27632.35
512.04106	27671.75
516.11023	27570.55
520.1765	27234.85
524.23987	26972.35
528.30034	26680.15
532.35792	26377.75
536.41261	26089.55
540.46441	25776.05
544.51333	25727.15
548.55936	25951.75
552.60252	26476.65
556.64279	27035.95
560.6802	27517.15
564.71473	27784.35
568.7464	28243.35
572.7752	29169.65
576.80114	30291.85
580.82422	31537.55
584.84444	33023.85
588.86181	34951.95
592.87633	36538.55
596.888	36195.55
600.89682	33978.85
604.9028	32881.25
608.90594	34489.25
612.90624	36524.55
616.90371	34336.05
620.89834	29286.35
624.89015	27039.55
628.87913	26860.25
632.86528	27083.35
636.84862	27081.05
640.82913	26568.25
644.80683	25823.65
648.78172	25416.65
652.75379	25372.45
656.72306	25718.15
660.68952	26130.65
664.65319	26000.95
668.61405	25539.55
672.57211	25484.65
676.52738	25654.75
680.47986	25601.85
684.42955	25379.65
688.37646	25294.55
692.32058	25481.25
696.26192	25871.85
700.20048	26323.95
704.13626	26534.35
708.06928	26534.65
711.99952	26412.15
715.927	26382.15
719.85171	26413.05
723.77365	26263.85
727.69284	25796.85
731.60928	25353.35
735.52295	25191.25
739.43388	25116.55
743.34206	25244.85
747.24749	25466.65
751.15017	25749.75
755.05012	26239.95
758.94733	26985.25
762.8418	28227.45
766.73354	30131.15
770.62254	31814.75
774.50882	32039.45
778.39237	30669.25
782.27321	28873.15
786.15132	27320.65
790.02671	26228.95
793.89938	25725.15
797.76935	25445.75
801.6366	25366.25
805.50115	25298.25
809.36299	25138.85
813.22213	24970.45
817.07857	24857.75
820.93231	24707.35
824.78336	24609.65
828.63172	24483.15
832.47738	24413.45
836.32036	24339.05
840.16066	24350.95
843.99827	24340.65
847.8332	24334.55
851.66546	24406.45
855.49504	24435.05
859.32195	24439.65
863.1462	24403.75
866.96777	24363.35
870.78668	24300.65
874.60293	24349.95
878.41652	24370.25
882.22745	24450.35
886.03573	24525.95
889.84136	24554.45
893.64433	24441.55
897.44466	24415.45
901.24235	24316.35
905.0374	24308.15
908.8298	24251.75
912.61957	24247.45
916.40671	24434.95
920.19121	24716.95
923.97308	25025.35
927.75233	25117.35
931.52895	24934.15
935.30295	24483.75
939.07433	23991.25
942.84309	23654.55
946.60924	23542.75
950.37278	23485.45
954.13371	23530.35
957.89203	23466.75
961.64774	23460.15
965.40086	23474.85
969.15137	23457.95
972.89929	23360.85
976.64461	23277.95
980.38733	23261.35
984.12747	23346.55
987.86502	23434.85
991.59999	23551.65
995.33237	23793.65
999.06217	24145.95
1002.78939	24665.25
1006.51404	25250.15
1010.23611	25833.55
1013.95561	26205.65
1017.67255	26291.75
1021.38692	25980.65
1025.09872	25432.45
1028.80796	25087.15
1032.51465	25034.55
1036.21877	25067.45
1039.92035	25170.05
1043.61937	25236.45
1047.31584	25218.75
1051.00976	25215.85
1054.70114	25253.75
1058.38998	25335.65
1062.07627	25611.25
1065.76003	25962.05
1069.44126	26331.65
1073.11995	26944.95
1076.79611	27390.75
1080.46974	27647.35
1084.14085	27858.75
1087.80943	28267.45
1091.47549	28526.65
1095.13903	28508.85
1098.80005	28123.35
1102.45857	27399.65
1106.11456	26874.75
1109.76805	26539.45
1113.41903	26405.85
1117.06751	26484.85
1120.71348	26732.55
1124.35696	26961.75
1127.99793	27309.85
1131.63641	27502.85
1135.2724	27470.95
1138.90589	27412.05
1142.5369	27442.05
1146.16542	27622.35
1149.79145	27910.05
1153.415	28123.25
1157.03607	28426.95
1160.65467	29170.35
1164.27079	30443.65
1167.88443	32082.05
1171.49561	33757.15
1175.10432	35820.75
1178.71056	38372.45
1182.31434	40917.05
1185.91565	42299.75
1189.51451	42302.05
1193.11091	41461.25
1196.70485	40095.45
1200.29634	38603.75
1203.88538	37481.15
1207.47197	36968.05
1211.05612	36713.15
1214.63782	36023.65
1218.21708	34930.55
1221.79391	33779.45
1225.36829	33037.05
1228.94024	32650.95
1232.50976	32334.35
1236.07685	31946.75
1239.6415	31588.35
1243.20374	31513.65
1246.76355	31664.85
1250.32093	32159.95
1253.8759	32822.35
1257.42845	33819.35
1260.97859	34887.65
1264.52631	36092.05
1268.07163	37218.55
1271.61453	38344.75
1275.15503	39366.95
1278.69312	40436.05
1282.22882	41511.55
1285.76211	42909.45
1289.29301	44431.15
1292.82151	46306.25
1296.34761	48582.15
1299.87133	51324.95
1303.39266	54287.05
1306.9116	56957.75
1310.42815	58946.45
1313.94233	59787.05
1317.45412	59089.45
1320.96354	57761.15
1324.47058	56890.55
1327.97525	56610.95
1331.47754	56440.45
1334.97747	56286.45
1338.47502	55885.15
1341.97022	55356.45
1345.46305	54813.75
1348.95352	54272.05
1352.44163	54030.15
1355.92738	54739.15
1359.41078	56527.25
1362.89183	58263.55
1366.37053	57573.25
1369.84688	53397.75
1373.32088	47856.65
1376.79254	43791.35
1380.26186	42239.55
1383.72883	42082.65
1387.19347	42015.65
1390.65578	41566.75
1394.11575	41380.55
1397.57339	41786.25
1401.0287	42455.25
1404.48168	43099.55
1407.93234	43111.45
1411.38068	42422.85
1414.82669	41003.55
1418.27039	39435.45
1421.71177	37859.25
1425.15083	36775.75
1428.58758	36482.75
1432.02203	37033.75
1435.45416	38258.05
1438.88399	39429.65
1442.31151	40100.25
1445.73673	40429.15
1449.15965	40389.05
1452.58027	40255.85
1455.9986	40236.45
1459.41463	40577.35
1462.82837	41243.05
1466.23982	42079.75
1469.64898	42700.45
1473.05586	42920.95
1476.46045	42831.95
1479.86276	42457.65
1483.26279	42071.95
1486.66054	42055.85
1490.05602	42314.05
1493.44922	42843.75
1496.84016	43558.15
1500.22882	44480.35
1503.61521	45749.25
1506.99934	47145.75
1510.38121	48133.35
1513.76081	48051.15
1517.13816	46929.95
1520.51324	45601.35
1523.88607	44723.95
1527.25665	44430.35
1530.62498	44360.45
1533.99105	44033.35
1537.35488	43331.05
1540.71647	42281.05
1544.07581	40997.35
1547.4329	39779.05
1550.78776	38842.95
1554.14038	38161.45
1557.49077	37719.35
1560.83892	37520.25
1564.18484	37468.75
1567.52853	37515.75
1570.86999	37890.35
1574.20922	38544.45
1577.54624	39117.15
1580.88103	39334.65
1584.2136	39789.55
1587.54395	41071.55
1590.87208	43339.85
1594.19801	46173.05
1597.52172	48627.25
1600.84321	48935.55
1604.16251	46525.45
1607.47959	42762.75
1610.79447	38922.65
1614.10715	35386.85
1617.41763	32619.15
1620.7259	30777.35
1624.03199	29870.75
1627.33587	29931.25
1630.63757	30940.25
1633.93707	33172.65
1637.23439	37001.85
1640.52951	42559.65
1643.82246	49035.85
1647.11321	53857.85
1650.40179	54252.55
1653.68819	49437.55
1656.97241	42091.15
1660.25446	35341.35
1663.53433	30608.15
1666.81203	27695.85
1670.08756	25883.15
1673.36092	24770.35
1676.63211	24035.25
1679.90115	23536.65
1683.16801	23161.15
1686.43272	22880.85
1689.69527	22640.25
1692.95567	22472.65
1696.2139	22392.95
1699.46999	22273.75
1702.72392	22186.35
1705.97571	22161.65
1709.22535	22075.55
1712.47284	22050.65
1715.71819	22013.45
1718.96139	21926.55
1722.20246	21868.05
1725.44139	21759.25
1728.67818	21603.55
1731.91284	21403.55
1735.14537	21320.05
1738.37576	21221.65
1741.60403	21166.85
1744.83017	21076.95
1748.05418	21020.95
1751.27607	20967.85
1754.49584	20898.35
1757.71349	20899.75
1760.92903	20880.25
1764.14244	20866.85
1767.35375	20815.15
1770.56294	20791.05
1773.77002	20733.85
1776.97499	20705.75
1780.17785	20673.75
1783.37861	20584.55
1786.57727	20561.85
1789.77382	20519.15
1792.96828	20468.25
1796.16064	20415.35
1799.3509	20353.15
1802.53907	20358.95
1805.72514	20295.55
1808.90913	20234.55
1812.09102	20224.95
1815.27083	20188.25
1818.44856	20139.55
1821.6242	20139.35
1824.79776	20095.35
1827.96924	20100.65
1831.13864	20108.35
1834.30597	20142.25
1837.47122	20124.55
1840.6344	20112.55
1843.7955	20126.75
1846.95454	20139.35
1850.11151	20122.05
1853.26642	20038.75
1856.41926	20080.65
1859.57004	20086.95
1862.71876	20059.95
1865.86542	20007.95
1869.01003	19946.25
1872.15258	19962.65
1875.29308	19922.75
1878.43152	19913.45
1881.56792	19857.95
1884.70227	19818.65
1887.83457	19827.45
1890.96482	19744.55
1894.09304	19684.15
1897.21921	19643.75
1900.34335	19648.65
1903.46544	19650.65
1906.58551	19630.65
1909.70353	19577.25
1912.81953	19496.85
1915.93349	19496.45
1919.04543	19472.75
1922.15534	19410.95
1925.26322	19349.45
1928.36908	19310.05
1931.47292	19241.55
1934.57473	19220.85
1937.67453	19159.05
1940.77232	19145.35
1943.86808	19089.65
1946.96184	19011.65
1950.05358	18923.35
1953.14331	18911.85
1956.23103	18853.25
1959.31675	18797.05
1962.40046	18741.25
1965.48217	18654.05
1968.56188	18606.75
1971.63959	18562.75
1974.7153	18497.75
1977.78901	18444.35
1980.86073	18372.75
1983.93046	18279.35
1986.99819	18251.45
1990.06394	18226.55
1993.1277	18142.55
1996.18947	18149.25
1999.24925	18082.55
2002.30706	18034.15
2005.36288	17977.25
2008.41672	17932.55
2011.46859	17832.35
2014.51848	17822.75
2017.56639	17765.75
2020.61233	17758.45
2023.6563	17702.55
2026.6983	17664.15
2029.73833	17623.35
2032.7764	17553.05
2035.8125	17524.55
2038.84664	17472.95
2041.87881	17448.95
2044.90903	17435.35
2047.93729	17428.85
2050.96359	17379.75
2053.98794	17356.35
2057.01034	17337.75
2060.03078	17302.75
2063.04927	17263.25
2066.06582	17289.65
2069.08042	17260.95
2072.09307	17234.05
2075.10378	17239.25
2078.11255	17232.95
2081.11938	17246.05
2084.12426	17211.05
2087.12722	17181.85
2090.12824	17194.05
2093.12732	17204.55
2096.12447	17186.55
2099.11969	17189.55
2102.11299	17177.55
2105.10435	17205.55
2108.09379	17201.75
2111.08131	17233.75
2114.0669	17209.05
2117.05057	17252.65
2120.03233	17242.45
2123.01216	17276.15
2125.99008	17286.85
2128.96609	17286.25
2131.94018	17295.15
2134.91236	17304.25
2137.88263	17313.65
2140.851	17310.25
2143.81746	17294.05
2146.78201	17279.15
2149.74466	17274.05
2152.7054	17299.65
2155.66425	17256.35
2158.6212	17254.45
2161.57625	17260.05
2164.52941	17178.65
2167.48067	17219.65
2170.43004	17188.35
2173.37752	17201.25
2176.32311	17240.25
2179.26681	17238.25
2182.20863	17228.65
2185.14856	17226.85
2188.08661	17185.05
2191.02278	17182.85
2193.95707	17199.15
2196.88948	17160.75
2199.82001	17213.05
2202.74867	17137.45
2205.67545	17139.05
2208.60037	17077.45
2211.52341	17105.75
2214.44458	17055.85
2217.36388	17025.35
2220.28132	16997.65
2223.1969	16956.35
2226.11061	16947.75
2229.02246	16913.75
2231.93245	16900.35
2234.84058	16847.55
2237.74686	16851.55
2240.65128	16851.25
2243.55385	16768.75
2246.45456	16765.25
2249.35343	16754.95
2252.25044	16697.25
2255.14561	16669.75
2258.03893	16658.35
2260.93041	16588.35
2263.82004	16582.65
2266.70783	16519.75
2269.59378	16472.75
2272.4779	16452.45
2275.36017	16398.95
2278.24061	16381.35
2281.11922	16375.05
2283.996	16334.15
2286.87094	16342.35
2289.74405	16260.85
2292.61534	16219.25
2295.4848	16265.05
2298.35243	16286.45
2301.21824	16263.45
2304.08223	16221.75
2306.94439	16226.75
2309.80474	16243.65
2312.66327	16202.65
2315.51999	16223.55
2318.37489	16215.25
2321.22797	16201.15
2324.07925	16173.55
2326.92871	16139.55
2329.77637	16111.55
2332.62222	16122.85
2335.46626	16077.95
2338.3085	16066.95
2341.14893	16028.15
2343.98756	16073.05
2346.8244	16037.75
2349.65943	16059.65
2352.49267	16048.35
2355.32411	16034.55
2358.15376	16056.25
2360.98161	16083.45
2363.80768	16061.15
2366.63195	16036.95
2369.45444	16002.55
2372.27514	16005.35
2375.09405	16001.85
2377.91118	15973.85
2380.72652	15906.05
2383.54009	15846.55
2386.35187	15832.45
2389.16188	15773.75
2391.97011	15776.55
2394.77657	15736.45
2397.58125	15694.55
2400.38416	15657.35
2403.18529	15669.05
2405.98466	15627.75
2408.78226	15587.45
2411.57809	15605.05
2414.37216	15598.55
2417.16446	15587.05
2419.955	15554.25
2422.74378	15529.05
2425.5308	15570.55
2428.31606	15560.95
2431.09956	15556.35
2433.88131	15517.25
2436.6613	15568.95
2439.43954	15553.65
2442.21603	15513.95
2444.99077	15495.45
2447.76377	15464.75
2450.53501	15487.55
2453.30451	15488.75
2456.07226	15446.85
2458.83827	15468.75
2461.60254	15459.35
2464.36507	15507.55
2467.12586	15439.75
2469.88492	15419.05
2472.64224	15453.15
2475.39782	15438.25
2478.15167	15486.05
2480.90379	15437.05
2483.65417	15467.95
2486.40283	15431.45
2489.14976	15425.25
2491.89497	15459.45
2494.63845	15443.75
2497.3802	15424.95
2500.12024	15409.25
2502.85855	15398.45
2505.59514	15402.25
2508.33002	15374.15
2511.06318	15378.25
2513.79462	15369.85
2516.52435	15350.65
2519.25237	15370.25
2521.97867	15309.95
2524.70327	15310.75
2527.42616	15300.35
2530.14734	15309.05
2532.86681	15304.65
2535.58458	15324.55
2538.30065	15289.65
2541.01501	15284.55
2543.72768	15276.55
2546.43864	15264.45
2549.14791	15228.85
2551.85548	15230.55
2554.56136	15221.05
2557.26554	15218.15
2559.96803	15176.25
2562.66883	15145.45
2565.36794	15099.55
2568.06536	15107.95
2570.7611	15097.45
2573.45514	15082.45
2576.14751	15077.35
2578.83819	15034.65
2581.52719	15065.95
2584.21451	15022.15
2586.90015	15025.55
2589.58411	15006.65
2592.2664	14986.55
2594.94701	14954.05
2597.62594	14980.35
2600.30321	14942.75
2602.9788	14949.25
2605.65273	14942.65
2608.32498	14944.45
2610.99557	14950.25
2613.66449	14958.35
2616.33175	14918.25
2618.99734	14896.55
2621.66128	14895.15
2624.32355	14849.75
2626.98416	14851.05
2629.64311	14826.85
2632.30041	14823.25
2634.95605	14804.85
2637.61004	14770.15
2640.26238	14784.15
2642.91306	14794.95
2645.56209	14817.65
2648.20948	14810.45
2650.85521	14772.85
2653.4993	14810.35
2656.14175	14801.35
2658.78255	14821.25
2661.42171	14837.45
2664.05923	14860.05
2666.6951	14859.35
2669.32934	14879.15
2671.96194	14859.15
2674.59291	14881.95
2677.22224	14883.15
2679.84993	14867.15
2682.476	14858.85
2685.10043	14877.95
2687.72324	14818.15
2690.34441	14841.85
2692.96396	14843.15
2695.58188	14844.05
2698.19818	14812.15
2700.81285	14824.05
2703.4259	14821.45
2706.03733	14799.85
2708.64714	14833.35
2711.25533	14838.85
2713.86191	14870.55
2716.46687	14894.05
2719.07021	14909.55
2721.67194	14930.75
2724.27206	14901.55
2726.87057	14888.75
2729.46747	14941.75
2732.06276	14928.05
2734.65644	14954.75
2737.24852	14951.55
2739.83899	14922.15
2742.42786	14946.75
2745.01513	14889.55
2747.60079	14895.05
2750.18486	14898.65
2752.76733	14906.55
2755.3482	14856.15
2757.92747	14859.45
2760.50515	14845.75
2763.08123	14824.35
2765.65573	14805.55
2768.22863	14814.85
2770.79994	14778.05
2773.36967	14786.85
2775.9378	14754.35
2778.50435	14783.65
2781.06932	14776.75
2783.6327	14765.75
2786.1945	14745.05
2788.75471	14748.65
2791.31335	14692.65
2793.87041	14718.25
2796.42589	14678.85
2798.97979	14698.45
2801.53212	14639.45
2804.08288	14649.65
2806.63206	14591.75
2809.17967	14566.45
2811.72571	14501.75
2814.27018	14509.65
2816.81308	14457.85
2819.35442	14447.95
2821.89419	14418.25
2824.43239	14397.25
2826.96904	14410.55
2829.50412	14394.85
2832.03763	14338.55
2834.56959	14363.65
2837.1	14345.05
2839.62884	14299.75
2842.15613	14317.45
2844.68186	14328.55
2847.20604	14313.75
2849.72867	14371.75
2852.24974	14336.25
2854.76927	14311.15
2857.28724	14309.35
2859.80367	14260.05
2862.31855	14243.05
2864.83189	14256.35
2867.34368	14269.65
2869.85393	14220.05
2872.36264	14203.65
2874.8698	14174.75
2877.37543	14206.55
2879.87952	14194.65
2882.38207	14209.35
2884.88308	14167.85
2887.38256	14179.95
2889.88051	14149.55
2892.37692	14157.45
2894.8718	14152.25
2897.36515	14198.25
2899.85698	14207.85
2902.34727	14213.25
2904.83604	14235.95
2907.32328	14271.55
2909.809	14241.95
2912.29319	14260.35
2914.77587	14235.25
2917.25702	14218.45
2919.73665	14187.65
2922.21476	14208.25
2924.69136	14179.05
2927.16644	14189.25
2929.64	14134.85
2932.11205	14180.35
2934.58258	14140.05
2937.05161	14126.45
2939.51912	14146.65
2941.98513	14117.35
2944.44962	14071.35
2946.91261	14046.75
2949.37409	14065.65
2951.83407	14024.95
2954.29254	14040.35
2956.74951	14027.05
2959.20498	14011.05
2961.65895	13966.95
2964.11142	13998.35
2966.56239	13943.25
2969.01186	13987.75
2971.45984	13932.05
2973.90632	13897.25
2976.35131	13872.65
2978.7948	13876.85
2981.23681	13791.95
2983.67732	13795.75
2986.11635	13767.65
2988.55388	13736.25
2990.98993	13693.65
2993.4245	13674.55
2995.85758	13605.65
2998.28917	13602.65
3000.71928	13581.85
3003.14791	13557.95
3005.57506	13510.15
3008.00073	13477.25
3010.42493	13407.35
3012.84764	13399.15
3015.26888	13387.65
3017.68865	13319.95
3020.10694	13285.95
3022.52376	13287.15
3024.9391	13271.75
3027.35298	13267.85
3029.76539	13270.25
3032.17632	13263.35
3034.5858	13206.35
3036.9938	13212.35
3039.40034	13224.35
3041.80542	13214.25
3044.20903	13178.35
3046.61118	13183.05
3049.01187	13150.15
3051.4111	13114.65
3053.80888	13103.15
3056.20519	13057.55
3058.60005	13013.65
3060.99345	13014.35
3063.3854	12960.55
3065.7759	12921.15
3068.16494	12887.95
3070.55254	12847.85
3072.93868	12822.85
3075.32338	12788.25
3077.70662	12757.15
3080.08842	12740.15
3082.46878	12739.05
3084.84769	12677.05
3087.22515	12664.05
3089.60118	12682.55
3091.97576	12642.95
3094.3489	12648.15
3096.72061	12622.65
3099.09087	12656.75
3101.4597	12623.25
3103.82709	12617.85
3106.19305	12591.65
3108.55757	12596.95
3110.92066	12551.85
3113.28232	12547.65
3115.64255	12509.75
3118.00134	12483.05
3120.35871	12441.95
3122.71466	12390.65
3125.06917	12367.05
3127.42226	12353.25
3129.77393	12322.85
3132.12417	12336.25
3134.47299	12305.95
3136.82039	12299.85
3139.16636	12309.45
3141.51092	12309.25
3143.85406	12294.65
3146.19579	12262.45
3148.53609	12268.85
3150.87499	12285.55
3153.21246	12263.85
3155.54853	12306.25
3157.88318	12272.05
3160.21642	12243.05
3162.54826	12272.85
3164.87868	12274.05
3167.2077	12276.15
3169.5353	12266.45
3171.86151	12269.35
3174.18631	12270.15
3176.5097	12231.75
3178.83169	12183.75
3181.15228	12185.85
3183.47147	12176.65
3185.78926	12185.95
3188.10565	12142.65
3190.42065	12131.45
3192.73424	12116.05
3195.04645	12096.65
3197.35725	12072.85
3199.66667	12061.95
3201.97469	12054.05
3204.28132	12047.45
3206.58656	12064.25
3208.8904	12063.55
3211.19287	12058.65
3213.49394	12068.35
3215.79363	12069.75
3218.09193	12064.45
3220.38884	12016.55
3222.68438	12049.25
3224.97853	12047.55
3227.2713	12073.65
3229.56269	12048.95
3231.8527	12035.05
3234.14133	11974.15
3236.42858	11954.25
3238.71446	11958.65
3240.99896	11897.35
3243.28209	11887.85
3245.56384	11875.05
3247.84423	11866.85
3250.12324	11844.55
3252.40088	11832.15
3254.67715	11803.55
3256.95205	11818.35
3259.22558	11784.85
3261.49775	11754.25
3263.76855	11771.75
3266.03799	11719.55
3268.30606	11723.75
3270.57277	11661.05
3272.83812	11639.95
3275.10211	11641.65
3277.36474	11583.25
3279.62601	11580.85
3281.88593	11584.65
3284.14448	11600.45
3286.40168	11607.05
3288.65753	11613.35
3290.91202	11590.65
3293.16516	11541.15
3295.41695	11527.35
3297.66738	11465.85
3299.91647	11404.05
3302.16421	11326.35
3304.4106	11261.75
3306.65564	11192.85
3308.89933	11117.05
3311.14169	11036.55
3313.38269	10920.65
3315.62236	10859.45
3317.86068	10758.35
3320.09766	10666.35
3322.3333	10593.45
3324.5676	10529.85
3326.80056	10333.75
3329.03219	10261.35
3331.26248	3.85
3333.49143	-0.05
3335.71905	-1.05
