Data from AgNP_FTO_APTES_UA_10uM_CRN_5uM_R6G_10uM_NaF_0.1M_Addition_RamanShift__1__14-43-30-632.txt Node

Date: Thu Feb 10 14:43:30 GMT 2022
User: TCL
Spectrometer: QEP01345
Trigger mode: 4
Integration Time (sec): 7.000000E0
Scans to average: 10
Electric dark correction enabled: true
Nonlinearity correction enabled: false
Boxcar width: 0
XAxis mode: Raman Shifts
Number of Pixels in Spectrum: 1044
>>>>>Begin Spectral Data<<<<<
46.04893	-0.15
50.45542	-1.05
54.85868	-2.25
59.25871	-2.25
63.6555	81.65
68.04907	81.75
72.43941	88.05
76.82654	86.25
81.21044	94.35
85.59113	93.25
89.96862	96.95
94.34289	104.05
98.71396	107.25
103.08183	111.85
107.4465	114.45
111.80798	117.65
116.16626	117.25
120.52136	126.65
124.87327	131.35
129.222	135.75
133.56755	149.75
137.90993	152.15
142.24913	169.05
146.58517	191.05
150.91804	221.35
155.24774	268.95
159.57429	331.45
163.89768	429.15
168.21792	565.95
172.53501	776.85
176.84895	1088.25
181.15975	1531.45
185.46741	2135.35
189.77193	2952.35
194.07331	3937.65
198.37157	5080.15
202.6667	6265.95
206.9587	7423.05
211.24758	8588.95
215.53334	9751.35
219.81599	10962.75
224.09553	12334.55
228.37195	13825.15
232.64527	15460.35
236.91549	17192.35
241.18261	18907.85
245.44663	20496.65
249.70755	21934.35
253.96539	23160.35
258.22014	24255.55
262.4718	25065.05
266.72039	25619.15
270.96589	25959.15
275.20832	25949.75
279.44768	25768.85
283.68397	25527.05
287.91719	25209.55
292.14735	24994.55
296.37445	24976.45
300.59849	25063.45
304.81948	25205.75
309.03742	25250.95
313.25231	25156.65
317.46415	24940.15
321.67296	24540.95
325.87872	24210.45
330.08145	24027.55
334.28114	24002.55
338.47781	24161.75
342.67145	24448.45
346.86207	24926.05
351.04966	25352.85
355.23424	25838.75
359.4158	26173.15
363.59435	26460.75
367.76989	26675.45
371.94243	26744.45
376.11196	26895.55
380.27849	26969.15
384.44203	27096.05
388.60257	27358.25
392.76012	27646.75
396.91468	28067.05
401.06626	28470.55
405.21485	28682.65
409.36047	28558.55
413.50311	28307.35
417.64277	28212.15
421.77947	28434.85
425.9132	28679.35
430.04396	28845.75
434.17176	29002.05
438.2966	29110.65
442.41849	29558.15
446.53742	30431.35
450.6534	31325.75
454.76644	31812.25
458.87653	31829.45
462.98368	31481.25
467.08789	31054.15
471.18916	30464.85
475.2875	29884.25
479.38291	29405.75
483.4754	29125.35
487.56496	28807.25
491.6516	28450.45
495.73531	28183.45
499.81612	28051.35
503.89401	28291.25
507.96899	28478.85
512.04106	28465.95
516.11023	28322.65
520.1765	28074.25
524.23987	27890.15
528.30034	27713.15
532.35792	27492.55
536.41261	27116.65
540.46441	26785.85
544.51333	26728.15
548.55936	26948.65
552.60252	27455.15
556.64279	28179.55
560.6802	28777.15
564.71473	28961.45
568.7464	29330.45
572.7752	30214.85
576.80114	31287.15
580.82422	32493.05
584.84444	34182.85
588.86181	36419.75
592.87633	38424.75
596.888	38251.05
600.89682	35754.75
604.9028	34301.65
608.90594	35382.65
612.90624	36947.25
616.90371	34631.65
620.89834	30071.75
624.89015	28137.25
628.87913	27948.55
632.86528	28044.85
636.84862	27939.45
640.82913	27361.45
644.80683	26760.45
648.78172	26399.55
652.75379	26468.15
656.72306	26798.85
660.68952	27113.95
664.65319	26933.15
668.61405	26560.25
672.57211	26526.95
676.52738	26650.05
680.47986	26682.65
684.42955	26396.65
688.37646	26294.15
692.32058	26546.95
696.26192	27012.05
700.20048	27418.75
704.13626	27666.15
708.06928	27611.05
711.99952	27494.55
715.927	27497.85
719.85171	27619.75
723.77365	27438.35
727.69284	26993.55
731.60928	26600.15
735.52295	26468.65
739.43388	26442.65
743.34206	26533.15
747.24749	26754.25
751.15017	27040.65
755.05012	27499.85
758.94733	28259.35
762.8418	29400.05
766.73354	31098.85
770.62254	32601.85
774.50882	32748.35
778.39237	31473.85
782.27321	29737.25
786.15132	28271.45
790.02671	27375.15
793.89938	26892.65
797.76935	26720.35
801.6366	26669.75
805.50115	26587.75
809.36299	26463.25
813.22213	26232.05
817.07857	26077.85
820.93231	25989.85
824.78336	25843.45
828.63172	25800.15
832.47738	25781.75
836.32036	25756.55
840.16066	25789.85
843.99827	25827.85
847.8332	25822.25
851.66546	25876.35
855.49504	25909.05
859.32195	25918.95
863.1462	25841.55
866.96777	25737.65
870.78668	25738.95
874.60293	25760.65
878.41652	25773.25
882.22745	25868.35
886.03573	25931.25
889.84136	25855.75
893.64433	25787.95
897.44466	25688.55
901.24235	25625.55
905.0374	25560.45
908.8298	25566.45
912.61957	25575.85
916.40671	25763.45
920.19121	26097.55
923.97308	26437.05
927.75233	26531.65
931.52895	26281.95
935.30295	25879.65
939.07433	25465.85
942.84309	25166.25
946.60924	25035.55
950.37278	25008.65
954.13371	25047.75
957.89203	24999.25
961.64774	24992.35
965.40086	25006.75
969.15137	24978.85
972.89929	24947.45
976.64461	24945.85
980.38733	24955.95
984.12747	25019.75
987.86502	25205.55
991.59999	25420.15
995.33237	25654.85
999.06217	26121.75
1002.78939	26755.55
1006.51404	27387.55
1010.23611	27980.75
1013.95561	28330.15
1017.67255	28365.75
1021.38692	28001.05
1025.09872	27447.55
1028.80796	27117.25
1032.51465	27274.65
1036.21877	27533.65
1039.92035	27684.95
1043.61937	27600.55
1047.31584	27412.05
1051.00976	27154.15
1054.70114	27105.05
1058.38998	27180.35
1062.07627	27383.75
1065.76003	27689.05
1069.44126	27993.75
1073.11995	28460.65
1076.79611	28902.65
1080.46974	29152.75
1084.14085	29319.45
1087.80943	29605.15
1091.47549	29868.85
1095.13903	29886.25
1098.80005	29476.55
1102.45857	28873.95
1106.11456	28378.25
1109.76805	28150.75
1113.41903	28145.45
1117.06751	28216.85
1120.71348	28389.15
1124.35696	28672.45
1127.99793	28939.15
1131.63641	29132.55
1135.2724	29058.05
1138.90589	29052.85
1142.5369	29206.85
1146.16542	29407.05
1149.79145	29633.15
1153.415	29850.05
1157.03607	30191.75
1160.65467	31044.25
1164.27079	32420.35
1167.88443	34094.45
1171.49561	35781.85
1175.10432	37961.15
1178.71056	40605.65
1182.31434	43208.35
1185.91565	44402.75
1189.51451	43949.05
1193.11091	42775.15
1196.70485	41357.65
1200.29634	40067.85
1203.88538	39228.05
1207.47197	38871.85
1211.05612	38654.35
1214.63782	38020.45
1218.21708	37035.45
1221.79391	36060.75
1225.36829	35469.25
1228.94024	35064.55
1232.50976	34642.35
1236.07685	33984.45
1239.6415	33532.35
1243.20374	33388.65
1246.76355	33612.75
1250.32093	34201.45
1253.8759	34976.25
1257.42845	35800.05
1260.97859	36840.25
1264.52631	38007.55
1268.07163	39199.35
1271.61453	40366.75
1275.15503	41450.05
1278.69312	42506.85
1282.22882	43693.15
1285.76211	45119.05
1289.29301	46850.65
1292.82151	48961.35
1296.34761	51558.65
1299.87133	54727.25
1303.39266	58072.45
1306.9116	61086.15
1310.42815	63342.95
1313.94233	64351.95
1317.45412	63531.45
1320.96354	61802.15
1324.47058	60297.75
1327.97525	59431.25
1331.47754	58905.95
1334.97747	58603.55
1338.47502	58094.35
1341.97022	57254.75
1345.46305	56212.25
1348.95352	55318.45
1352.44163	55303.25
1355.92738	56707.55
1359.41078	59334.15
1362.89183	61061.15
1366.37053	59876.35
1369.84688	55422.35
1373.32088	49472.05
1376.79254	45489.35
1380.26186	44214.45
1383.72883	44455.45
1387.19347	44502.95
1390.65578	44100.85
1394.11575	44055.15
1397.57339	44660.85
1401.0287	45527.85
1404.48168	46185.05
1407.93234	46216.35
1411.38068	45508.85
1414.82669	44156.45
1418.27039	42512.85
1421.71177	40832.85
1425.15083	39569.95
1428.58758	39070.65
1432.02203	39749.15
1435.45416	41078.15
1438.88399	42392.95
1442.31151	43219.35
1445.73673	43436.65
1449.15965	43410.95
1452.58027	43207.95
1455.9986	42958.75
1459.41463	43256.25
1462.82837	43958.35
1466.23982	44820.45
1469.64898	45606.95
1473.05586	45978.95
1476.46045	46036.05
1479.86276	45608.85
1483.26279	45121.55
1486.66054	44841.35
1490.05602	45002.65
1493.44922	45289.15
1496.84016	45663.45
1500.22882	46138.45
1503.61521	46982.35
1506.99934	47952.35
1510.38121	48630.25
1513.76081	48450.75
1517.13816	47577.55
1520.51324	46367.85
1523.88607	45619.05
1527.25665	45645.95
1530.62498	45987.85
1533.99105	45941.65
1537.35488	45413.15
1540.71647	44507.25
1544.07581	43309.05
1547.4329	42052.75
1550.78776	40979.15
1554.14038	40216.25
1557.49077	39743.65
1560.83892	39381.75
1564.18484	39235.75
1567.52853	39257.65
1570.86999	39585.45
1574.20922	40300.05
1577.54624	40988.15
1580.88103	41321.15
1584.2136	41893.15
1587.54395	43589.35
1590.87208	46230.95
1594.19801	49593.75
1597.52172	52713.65
1600.84321	53527.05
1604.16251	51039.45
1607.47959	46449.45
1610.79447	41811.05
1614.10715	37774.35
1617.41763	34844.85
1620.7259	33022.25
1624.03199	32201.85
1627.33587	32350.75
1630.63757	33475.65
1633.93707	35927.55
1637.23439	39844.85
1640.52951	45541.05
1643.82246	52276.55
1647.11321	57260.45
1650.40179	57309.05
1653.68819	52012.85
1656.97241	44271.65
1660.25446	37439.05
1663.53433	32720.35
1666.81203	29782.75
1670.08756	28016.05
1673.36092	27000.55
1676.63211	26211.35
1679.90115	25702.75
1683.16801	25283.65
1686.43272	24997.95
1689.69527	24831.65
1692.95567	24610.15
1696.2139	24528.15
1699.46999	24458.75
1702.72392	24366.55
1705.97571	24338.15
1709.22535	24275.35
1712.47284	24247.85
1715.71819	24177.75
1718.96139	24134.65
1722.20246	24081.55
1725.44139	23969.85
1728.67818	23839.15
1731.91284	23684.25
1735.14537	23522.65
1738.37576	23421.85
1741.60403	23386.75
1744.83017	23295.05
1748.05418	23220.75
1751.27607	23138.95
1754.49584	23134.65
1757.71349	23149.95
1760.92903	23145.65
1764.14244	23114.15
1767.35375	23119.65
1770.56294	23031.85
1773.77002	23038.75
1776.97499	22957.25
1780.17785	22961.75
1783.37861	22930.75
1786.57727	22839.15
1789.77382	22826.15
1792.96828	22738.85
1796.16064	22688.55
1799.3509	22665.95
1802.53907	22669.35
1805.72514	22573.85
1808.90913	22542.45
1812.09102	22484.05
1815.27083	22453.95
1818.44856	22409.85
1821.6242	22378.45
1824.79776	22359.05
1827.96924	22370.15
1831.13864	22328.75
1834.30597	22369.65
1837.47122	22333.65
1840.6344	22347.15
1843.7955	22361.05
1846.95454	22328.95
1850.11151	22323.05
1853.26642	22318.95
1856.41926	22299.05
1859.57004	22303.65
1862.71876	22233.45
1865.86542	22188.95
1869.01003	22230.85
1872.15258	22151.75
1875.29308	22151.95
1878.43152	22154.05
1881.56792	22126.65
1884.70227	22107.45
1887.83457	22108.45
1890.96482	22063.25
1894.09304	22040.65
1897.21921	21997.35
1900.34335	21994.85
1903.46544	21986.45
1906.58551	21927.65
1909.70353	21917.05
1912.81953	21882.05
1915.93349	21868.05
1919.04543	21816.15
1922.15534	21777.55
1925.26322	21715.45
1928.36908	21702.35
1931.47292	21687.95
1934.57473	21601.45
1937.67453	21549.35
1940.77232	21522.35
1943.86808	21416.95
1946.96184	21379.55
1950.05358	21315.85
1953.14331	21239.05
1956.23103	21225.15
1959.31675	21148.85
1962.40046	21075.75
1965.48217	21031.05
1968.56188	20969.15
1971.63959	20919.75
1974.7153	20903.95
1977.78901	20790.15
1980.86073	20709.55
1983.93046	20673.65
1986.99819	20621.45
1990.06394	20572.25
1993.1277	20556.25
1996.18947	20506.05
1999.24925	20401.45
2002.30706	20371.35
2005.36288	20307.75
2008.41672	20212.85
2011.46859	20197.65
2014.51848	20156.35
2017.56639	20110.15
2020.61233	20077.45
2023.6563	20033.55
2026.6983	20002.95
2029.73833	19969.15
2032.7764	19921.95
2035.8125	19837.15
2038.84664	19825.35
2041.87881	19826.05
2044.90903	19739.95
2047.93729	19728.05
2050.96359	19736.85
2053.98794	19756.45
2057.01034	19718.05
2060.03078	19671.35
2063.04927	19642.95
2066.06582	19646.25
2069.08042	19621.15
2072.09307	19597.45
2075.10378	19622.55
2078.11255	19586.85
2081.11938	19601.85
2084.12426	19569.95
2087.12722	19607.65
2090.12824	19595.65
2093.12732	19515.15
2096.12447	19545.15
2099.11969	19580.65
2102.11299	19582.15
2105.10435	19593.25
2108.09379	19608.45
2111.08131	19607.25
2114.0669	19611.15
2117.05057	19612.25
2120.03233	19645.75
2123.01216	19664.05
2125.99008	19660.35
2128.96609	19714.95
2131.94018	19734.75
2134.91236	19731.75
2137.88263	19741.35
2140.851	19749.85
2143.81746	19780.35
2146.78201	19796.65
2149.74466	19729.95
2152.7054	19708.95
2155.66425	19735.25
2158.6212	19739.45
2161.57625	19734.65
2164.52941	19783.95
2167.48067	19740.55
2170.43004	19739.95
2173.37752	19734.45
2176.32311	19721.45
2179.26681	19721.15
2182.20863	19714.25
2185.14856	19736.15
2188.08661	19743.15
2191.02278	19761.85
2193.95707	19724.25
2196.88948	19720.35
2199.82001	19720.45
2202.74867	19657.65
2205.67545	19668.75
2208.60037	19585.85
2211.52341	19666.05
2214.44458	19587.55
2217.36388	19575.75
2220.28132	19516.65
2223.1969	19470.55
2226.11061	19485.65
2229.02246	19447.35
2231.93245	19408.25
2234.84058	19401.35
2237.74686	19400.75
2240.65128	19409.45
2243.55385	19359.15
2246.45456	19295.15
2249.35343	19261.15
2252.25044	19239.85
2255.14561	19274.05
2258.03893	19257.35
2260.93041	19169.55
2263.82004	19068.35
2266.70783	19047.45
2269.59378	18980.05
2272.4779	18963.05
2275.36017	18901.15
2278.24061	18885.75
2281.11922	18867.85
2283.996	18856.95
2286.87094	18843.85
2289.74405	18832.25
2292.61534	18788.25
2295.4848	18793.25
2298.35243	18804.55
2301.21824	18828.35
2304.08223	18810.45
2306.94439	18810.55
2309.80474	18796.85
2312.66327	18794.85
2315.51999	18768.35
2318.37489	18790.25
2321.22797	18760.25
2324.07925	18732.65
2326.92871	18693.75
2329.77637	18700.75
2332.62222	18679.65
2335.46626	18664.35
2338.3085	18653.35
2341.14893	18680.75
2343.98756	18676.75
2346.8244	18665.05
2349.65943	18588.95
2352.49267	18597.65
2355.32411	18617.65
2358.15376	18629.95
2360.98161	18611.65
2363.80768	18582.15
2366.63195	18584.55
2369.45444	18569.75
2372.27514	18528.65
2375.09405	18523.35
2377.91118	18488.85
2380.72652	18451.85
2383.54009	18421.15
2386.35187	18399.05
2389.16188	18370.95
2391.97011	18316.25
2394.77657	18281.45
2397.58125	18271.55
2400.38416	18257.15
2403.18529	18213.25
2405.98466	18239.55
2408.78226	18173.85
2411.57809	18151.55
2414.37216	18170.55
2417.16446	18173.55
2419.955	18106.35
2422.74378	18093.05
2425.5308	18127.15
2428.31606	18086.85
2431.09956	18078.75
2433.88131	18088.75
2436.6613	18075.45
2439.43954	18056.55
2442.21603	18085.85
2444.99077	18091.85
2447.76377	18029.25
2450.53501	18037.45
2453.30451	18033.45
2456.07226	18011.35
2458.83827	17989.95
2461.60254	18028.35
2464.36507	17997.55
2467.12586	17999.55
2469.88492	17985.15
2472.64224	17993.45
2475.39782	18023.95
2478.15167	18046.15
2480.90379	18039.25
2483.65417	18064.75
2486.40283	18059.45
2489.14976	18068.95
2491.89497	18012.65
2494.63845	18049.15
2497.3802	18056.15
2500.12024	18039.65
2502.85855	17965.55
2505.59514	17969.85
2508.33002	17959.35
2511.06318	17960.25
2513.79462	17948.25
2516.52435	17962.05
2519.25237	17982.15
2521.97867	17901.75
2524.70327	17941.35
2527.42616	17936.05
2530.14734	17918.85
2532.86681	17893.95
2535.58458	17870.25
2538.30065	17907.15
2541.01501	17863.15
2543.72768	17895.25
2546.43864	17876.05
2549.14791	17872.55
2551.85548	17873.05
2554.56136	17845.45
2557.26554	17819.25
2559.96803	17777.25
2562.66883	17759.45
2565.36794	17747.15
2568.06536	17742.65
2570.7611	17725.95
2573.45514	17683.15
2576.14751	17676.85
2578.83819	17699.55
2581.52719	17680.95
2584.21451	17660.35
2586.90015	17645.35
2589.58411	17591.95
2592.2664	17625.45
2594.94701	17617.25
2597.62594	17630.35
2600.30321	17582.95
2602.9788	17583.05
2605.65273	17569.15
2608.32498	17605.95
2610.99557	17588.35
2613.66449	17591.95
2616.33175	17599.45
2618.99734	17599.75
2621.66128	17565.75
2624.32355	17559.25
2626.98416	17518.85
2629.64311	17457.65
2632.30041	17454.25
2634.95605	17468.45
2637.61004	17451.95
2640.26238	17443.45
2642.91306	17415.85
2645.56209	17436.65
2648.20948	17442.15
2650.85521	17470.25
2653.4993	17466.85
2656.14175	17469.05
2658.78255	17508.05
2661.42171	17483.25
2664.05923	17534.25
2666.6951	17546.75
2669.32934	17540.35
2671.96194	17544.75
2674.59291	17551.25
2677.22224	17528.15
2679.84993	17554.95
2682.476	17541.75
2685.10043	17515.65
2687.72324	17519.45
2690.34441	17524.15
2692.96396	17535.15
2695.58188	17511.05
2698.19818	17521.25
2700.81285	17528.85
2703.4259	17562.05
2706.03733	17598.65
2708.64714	17537.85
2711.25533	17556.15
2713.86191	17601.35
2716.46687	17612.35
2719.07021	17588.45
2721.67194	17606.25
2724.27206	17609.45
2726.87057	17666.65
2729.46747	17621.85
2732.06276	17673.65
2734.65644	17645.95
2737.24852	17664.25
2739.83899	17659.25
2742.42786	17680.55
2745.01513	17626.15
2747.60079	17617.55
2750.18486	17581.85
2752.76733	17589.45
2755.3482	17579.65
2757.92747	17565.55
2760.50515	17531.85
2763.08123	17543.85
2765.65573	17538.55
2768.22863	17525.55
2770.79994	17532.45
2773.36967	17528.75
2775.9378	17536.75
2778.50435	17508.45
2781.06932	17521.45
2783.6327	17527.95
2786.1945	17536.65
2788.75471	17526.05
2791.31335	17442.55
2793.87041	17478.25
2796.42589	17437.35
2798.97979	17396.15
2801.53212	17367.55
2804.08288	17387.95
2806.63206	17353.25
2809.17967	17319.55
2811.72571	17283.05
2814.27018	17222.35
2816.81308	17183.35
2819.35442	17163.75
2821.89419	17116.95
2824.43239	17071.25
2826.96904	17062.85
2829.50412	17071.25
2832.03763	17030.65
2834.56959	17047.15
2837.1	17007.75
2839.62884	17042.55
2842.15613	17037.25
2844.68186	17061.95
2847.20604	17036.75
2849.72867	17047.75
2852.24974	17038.95
2854.76927	17018.75
2857.28724	16988.45
2859.80367	16942.05
2862.31855	16930.95
2864.83189	16921.25
2867.34368	16831.95
2869.85393	16872.45
2872.36264	16870.95
2874.8698	16869.55
2877.37543	16843.95
2879.87952	16875.65
2882.38207	16852.05
2884.88308	16838.25
2887.38256	16896.15
2889.88051	16848.35
2892.37692	16848.35
2894.8718	16846.55
2897.36515	16891.95
2899.85698	16942.65
2902.34727	16933.95
2904.83604	16943.65
2907.32328	16991.25
2909.809	16986.35
2912.29319	16988.15
2914.77587	16958.15
2917.25702	16933.55
2919.73665	16916.55
2922.21476	16935.45
2924.69136	16926.45
2927.16644	16903.25
2929.64	16883.05
2932.11205	16878.45
2934.58258	16840.95
2937.05161	16894.85
2939.51912	16869.75
2941.98513	16840.55
2944.44962	16830.25
2946.91261	16766.25
2949.37409	16793.85
2951.83407	16786.05
2954.29254	16772.35
2956.74951	16758.15
2959.20498	16744.45
2961.65895	16772.05
2964.11142	16757.25
2966.56239	16741.55
2969.01186	16726.35
2971.45984	16721.65
2973.90632	16693.05
2976.35131	16653.65
2978.7948	16595.15
2981.23681	16563.15
2983.67732	16524.55
2986.11635	16465.55
2988.55388	16438.05
2990.98993	16419.55
2993.4245	16392.55
2995.85758	16319.45
2998.28917	16311.45
3000.71928	16290.45
3003.14791	16286.75
3005.57506	16247.15
3008.00073	16230.05
3010.42493	16062.15
3012.84764	16148.65
3015.26888	16111.25
3017.68865	16066.85
3020.10694	16063.55
3022.52376	16010.95
3024.9391	15983.25
3027.35298	15951.25
3029.76539	15995.35
3032.17632	15989.35
3034.5858	15962.35
3036.9938	15977.15
3039.40034	15939.75
3041.80542	15973.25
3044.20903	15923.35
3046.61118	15905.45
3049.01187	15869.35
3051.4111	15864.25
3053.80888	15833.25
3056.20519	15796.75
3058.60005	15748.35
3060.99345	15730.25
3063.3854	15657.45
3065.7759	15631.15
3068.16494	15597.55
3070.55254	15568.35
3072.93868	15513.25
3075.32338	15462.35
3077.70662	15425.05
3080.08842	15410.95
3082.46878	15387.65
3084.84769	15390.05
3087.22515	15371.35
3089.60118	15391.05
3091.97576	15339.85
3094.3489	15341.35
3096.72061	15349.35
3099.09087	15336.15
3101.4597	15289.15
3103.82709	15317.85
3106.19305	15272.75
3108.55757	15302.65
3110.92066	15214.45
3113.28232	15208.15
3115.64255	15163.15
3118.00134	15148.55
3120.35871	15117.45
3122.71466	15074.75
3125.06917	15050.35
3127.42226	15048.35
3129.77393	15013.75
3132.12417	14973.35
3134.47299	14958.55
3136.82039	14948.95
3139.16636	14967.45
3141.51092	14957.45
3143.85406	14944.05
3146.19579	14930.75
3148.53609	14925.45
3150.87499	14912.75
3153.21246	14910.35
3155.54853	14936.95
3157.88318	14961.45
3160.21642	14967.35
3162.54826	14931.25
3164.87868	14959.95
3167.2077	14964.05
3169.5353	14941.05
3171.86151	14912.05
3174.18631	14906.55
3176.5097	14880.05
3178.83169	14879.65
3181.15228	14869.95
3183.47147	14834.85
3185.78926	14841.15
3188.10565	14805.25
3190.42065	14766.35
3192.73424	14784.15
3195.04645	14725.15
3197.35725	14764.75
3199.66667	14727.05
3201.97469	14773.65
3204.28132	14737.45
3206.58656	14763.55
3208.8904	14756.55
3211.19287	14731.35
3213.49394	14724.65
3215.79363	14729.05
3218.09193	14740.25
3220.38884	14731.95
3222.68438	14751.05
3224.97853	14732.05
3227.2713	14723.85
3229.56269	14723.75
3231.8527	14682.95
3234.14133	14666.65
3236.42858	14614.75
3238.71446	14608.45
3240.99896	14587.95
3243.28209	14581.95
3245.56384	14564.55
3247.84423	14538.45
3250.12324	14512.95
3252.40088	14486.55
3254.67715	14478.95
3256.95205	14457.15
3259.22558	14431.45
3261.49775	14396.45
3263.76855	14401.45
3266.03799	14387.55
3268.30606	14391.75
3270.57277	14310.05
3272.83812	14315.25
3275.10211	14294.25
3277.36474	14253.45
3279.62601	14275.95
3281.88593	14244.55
3284.14448	14236.95
3286.40168	14252.85
3288.65753	14226.35
3290.91202	14215.95
3293.16516	14185.15
3295.41695	14182.45
3297.66738	14138.55
3299.91647	14031.55
3302.16421	13945.65
3304.4106	13849.55
3306.65564	13773.75
3308.89933	13688.65
3311.14169	13570.85
3313.38269	13459.45
3315.62236	13388.75
3317.86068	13277.25
3320.09766	13168.75
3322.3333	13046.35
3324.5676	12979.95
3326.80056	12803.25
3329.03219	12727.85
3331.26248	5.25
3333.49143	0.45
3335.71905	-0.55
