Data from AgNP_FTO_APTES_UA_10uM_CRN_10uM_R6G_10uM_NaF_0.1M_Addition_RamanShift__1__15-25-30-684.txt Node

Date: Thu Feb 10 15:25:30 GMT 2022
User: TCL
Spectrometer: QEP01345
Trigger mode: 4
Integration Time (sec): 7.000000E0
Scans to average: 10
Electric dark correction enabled: true
Nonlinearity correction enabled: false
Boxcar width: 0
XAxis mode: Raman Shifts
Number of Pixels in Spectrum: 1044
>>>>>Begin Spectral Data<<<<<
46.04893	0.95
50.45542	-0.65
54.85868	-2.55
59.25871	-1.75
63.6555	81.95
68.04907	86.05
72.43941	91.35
76.82654	89.05
81.21044	97.25
85.59113	98.05
89.96862	100.75
94.34289	103.85
98.71396	108.35
103.08183	110.15
107.4465	114.55
111.80798	114.05
116.16626	119.45
120.52136	125.65
124.87327	131.65
129.222	139.05
133.56755	151.05
137.90993	157.65
142.24913	173.05
146.58517	197.15
150.91804	227.35
155.24774	270.25
159.57429	334.55
163.89768	430.15
168.21792	580.85
172.53501	788.95
176.84895	1104.05
181.15975	1545.95
185.46741	2171.55
189.77193	2986.05
194.07331	3983.55
198.37157	5121.75
202.6667	6329.05
206.9587	7512.65
211.24758	8666.55
215.53334	9858.85
219.81599	11115.05
224.09553	12481.25
228.37195	13981.05
232.64527	15660.35
236.91549	17340.05
241.18261	19068.75
245.44663	20717.35
249.70755	22097.25
253.96539	23406.25
258.22014	24502.45
262.4718	25356.25
266.72039	25969.25
270.96589	26276.55
275.20832	26336.55
279.44768	26213.55
283.68397	25934.65
287.91719	25717.45
292.14735	25535.25
296.37445	25506.25
300.59849	25592.45
304.81948	25694.75
309.03742	25708.45
313.25231	25616.55
317.46415	25272.35
321.67296	24812.95
325.87872	24430.95
330.08145	24265.75
334.28114	24236.65
338.47781	24396.15
342.67145	24700.15
346.86207	25136.35
351.04966	25570.25
355.23424	26067.15
359.4158	26455.65
363.59435	26756.65
367.76989	26992.75
371.94243	27184.05
376.11196	27327.35
380.27849	27437.05
384.44203	27612.55
388.60257	27858.35
392.76012	28182.75
396.91468	28546.55
401.06626	28897.75
405.21485	29202.35
409.36047	29128.95
413.50311	28892.55
417.64277	28901.15
421.77947	29067.55
425.9132	29309.75
430.04396	29546.95
434.17176	29633.95
438.2966	29811.55
442.41849	30338.05
446.53742	31216.85
450.6534	32222.85
454.76644	32925.75
458.87653	33023.05
462.98368	32665.85
467.08789	32092.65
471.18916	31434.75
475.2875	30780.45
479.38291	30367.25
483.4754	30118.75
487.56496	29814.15
491.6516	29390.85
495.73531	29042.75
499.81612	28954.75
503.89401	29149.25
507.96899	29277.75
512.04106	29255.55
516.11023	29026.15
520.1765	28687.85
524.23987	28443.85
528.30034	28253.65
532.35792	28039.85
536.41261	27710.25
540.46441	27366.85
544.51333	27324.35
548.55936	27588.65
552.60252	28182.45
556.64279	28898.75
560.6802	29525.15
564.71473	29816.65
568.7464	30265.75
572.7752	31172.65
576.80114	32134.85
580.82422	33307.95
584.84444	34813.95
588.86181	36831.55
592.87633	38402.45
596.888	38023.05
600.89682	35864.45
604.9028	34928.95
608.90594	36358.25
612.90624	38036.45
616.90371	35570.75
620.89834	30784.45
624.89015	28772.85
628.87913	28543.75
632.86528	28566.55
636.84862	28329.65
640.82913	27811.85
644.80683	27171.55
648.78172	26802.25
652.75379	26897.85
656.72306	27226.45
660.68952	27578.75
664.65319	27388.35
668.61405	26969.85
672.57211	26980.35
676.52738	27164.55
680.47986	27081.85
684.42955	26910.25
688.37646	26783.35
692.32058	26999.85
696.26192	27512.95
700.20048	27950.45
704.13626	28162.95
708.06928	28140.15
711.99952	27942.25
715.927	27938.05
719.85171	28129.75
723.77365	28017.35
727.69284	27569.75
731.60928	27180.15
735.52295	27042.95
739.43388	27012.35
743.34206	27132.25
747.24749	27351.55
751.15017	27647.65
755.05012	28134.05
758.94733	28879.05
762.8418	30089.05
766.73354	31739.25
770.62254	33193.15
774.50882	33212.85
778.39237	31896.35
782.27321	30028.35
786.15132	28620.45
790.02671	27735.75
793.89938	27352.85
797.76935	27186.85
801.6366	27129.45
805.50115	27089.05
809.36299	26969.95
813.22213	26744.75
817.07857	26596.15
820.93231	26517.95
824.78336	26350.55
828.63172	26228.35
832.47738	26230.15
836.32036	26274.15
840.16066	26395.75
843.99827	26441.55
847.8332	26423.85
851.66546	26374.85
855.49504	26382.55
859.32195	26401.65
863.1462	26303.45
866.96777	26195.45
870.78668	26144.95
874.60293	26159.75
878.41652	26196.25
882.22745	26282.15
886.03573	26365.75
889.84136	26316.65
893.64433	26159.85
897.44466	26070.65
901.24235	25993.75
905.0374	25939.15
908.8298	25961.75
912.61957	26007.85
916.40671	26217.15
920.19121	26630.85
923.97308	26968.55
927.75233	27037.45
931.52895	26763.15
935.30295	26332.35
939.07433	25913.25
942.84309	25619.95
946.60924	25540.95
950.37278	25596.15
954.13371	25592.35
957.89203	25492.35
961.64774	25458.85
965.40086	25486.95
969.15137	25473.35
972.89929	25382.95
976.64461	25387.45
980.38733	25355.45
984.12747	25455.15
987.86502	25712.35
991.59999	25972.35
995.33237	26375.25
999.06217	26998.45
1002.78939	27853.85
1006.51404	28552.35
1010.23611	29101.05
1013.95561	29365.45
1017.67255	29356.75
1021.38692	28875.85
1025.09872	28396.65
1028.80796	28267.25
1032.51465	28740.35
1036.21877	29321.25
1039.92035	29552.15
1043.61937	29297.85
1047.31584	28849.15
1051.00976	28275.15
1054.70114	28033.65
1058.38998	27959.35
1062.07627	28157.15
1065.76003	28348.45
1069.44126	28596.95
1073.11995	29090.35
1076.79611	29461.15
1080.46974	29693.15
1084.14085	29990.35
1087.80943	30310.55
1091.47549	30538.85
1095.13903	30502.75
1098.80005	30071.25
1102.45857	29449.85
1106.11456	28952.95
1109.76805	28833.55
1113.41903	28806.25
1117.06751	28913.25
1120.71348	29121.85
1124.35696	29297.25
1127.99793	29588.05
1131.63641	29795.45
1135.2724	29803.85
1138.90589	29787.85
1142.5369	29905.65
1146.16542	30143.35
1149.79145	30426.05
1153.415	30706.25
1157.03607	31253.85
1160.65467	32243.25
1164.27079	33903.75
1167.88443	35777.45
1171.49561	37624.35
1175.10432	39863.25
1178.71056	42771.15
1182.31434	45549.85
1185.91565	46829.55
1189.51451	46320.25
1193.11091	44919.75
1196.70485	43375.15
1200.29634	42047.25
1203.88538	41257.85
1207.47197	41036.15
1211.05612	40731.05
1214.63782	39982.45
1218.21708	38953.65
1221.79391	37961.55
1225.36829	37255.05
1228.94024	36696.05
1232.50976	35998.55
1236.07685	35306.15
1239.6415	34937.55
1243.20374	34837.85
1246.76355	35191.95
1250.32093	35861.35
1253.8759	36733.45
1257.42845	37745.75
1260.97859	38854.45
1264.52631	40016.25
1268.07163	41357.45
1271.61453	42699.35
1275.15503	44026.65
1278.69312	45289.15
1282.22882	46544.45
1285.76211	48071.35
1289.29301	49906.85
1292.82151	52178.75
1296.34761	55087.95
1299.87133	58679.25
1303.39266	62574.55
1306.9116	65998.85
1310.42815	68440.35
1313.94233	69388.55
1317.45412	68702.95
1320.96354	67187.45
1324.47058	65722.25
1327.97525	64796.65
1331.47754	64253.95
1334.97747	63914.55
1338.47502	63231.05
1341.97022	61977.05
1345.46305	60229.55
1348.95352	58903.35
1352.44163	58729.85
1355.92738	60280.25
1359.41078	63042.35
1362.89183	64869.55
1366.37053	63556.35
1369.84688	58755.95
1373.32088	52501.65
1376.79254	48338.75
1380.26186	47101.25
1383.72883	47414.65
1387.19347	47705.25
1390.65578	47342.75
1394.11575	47251.85
1397.57339	47996.75
1401.0287	49192.95
1404.48168	50071.65
1407.93234	50356.95
1411.38068	49635.15
1414.82669	48078.85
1418.27039	46068.35
1421.71177	43970.25
1425.15083	42322.05
1428.58758	41595.35
1432.02203	42226.15
1435.45416	43696.45
1438.88399	45430.95
1442.31151	46529.15
1445.73673	47024.45
1449.15965	47162.45
1452.58027	46947.55
1455.9986	46625.55
1459.41463	46658.85
1462.82837	47293.35
1466.23982	48360.45
1469.64898	49319.45
1473.05586	49999.75
1476.46045	50064.75
1479.86276	49585.25
1483.26279	48880.25
1486.66054	48465.25
1490.05602	48427.45
1493.44922	48516.95
1496.84016	48483.95
1500.22882	48592.65
1503.61521	49047.25
1506.99934	49782.25
1510.38121	50429.75
1513.76081	50354.95
1517.13816	49505.95
1520.51324	48431.25
1523.88607	47819.95
1527.25665	47894.25
1530.62498	48334.15
1533.99105	48546.15
1537.35488	48215.95
1540.71647	47349.05
1544.07581	46142.35
1547.4329	44827.55
1550.78776	43614.15
1554.14038	42766.95
1557.49077	42147.85
1560.83892	41688.95
1564.18484	41441.95
1567.52853	41423.05
1570.86999	41686.05
1574.20922	42453.05
1577.54624	43279.25
1580.88103	43999.35
1584.2136	44930.35
1587.54395	47072.65
1590.87208	50465.75
1594.19801	54364.15
1597.52172	57716.05
1600.84321	58419.65
1604.16251	55360.25
1607.47959	50062.95
1610.79447	44570.85
1614.10715	40032.65
1617.41763	36801.75
1620.7259	34803.95
1624.03199	34060.65
1627.33587	34262.75
1630.63757	35647.85
1633.93707	38289.45
1637.23439	42657.25
1640.52951	48860.15
1643.82246	55911.95
1647.11321	60846.05
1650.40179	60601.05
1653.68819	54638.35
1656.97241	46349.45
1660.25446	39101.55
1663.53433	34107.65
1666.81203	31017.35
1670.08756	29040.55
1673.36092	27892.85
1676.63211	27104.85
1679.90115	26535.35
1683.16801	26153.25
1686.43272	25860.15
1689.69527	25672.05
1692.95567	25486.25
1696.2139	25396.35
1699.46999	25311.45
1702.72392	25223.95
1705.97571	25138.35
1709.22535	25037.15
1712.47284	24997.85
1715.71819	24952.45
1718.96139	24837.05
1722.20246	24828.45
1725.44139	24704.95
1728.67818	24572.25
1731.91284	24424.45
1735.14537	24238.75
1738.37576	24196.25
1741.60403	24109.55
1744.83017	23982.85
1748.05418	23954.15
1751.27607	23910.75
1754.49584	23881.95
1757.71349	23859.75
1760.92903	23834.25
1764.14244	23827.85
1767.35375	23819.65
1770.56294	23799.75
1773.77002	23758.05
1776.97499	23704.75
1780.17785	23617.35
1783.37861	23613.75
1786.57727	23550.05
1789.77382	23533.75
1792.96828	23510.15
1796.16064	23416.95
1799.3509	23447.15
1802.53907	23391.15
1805.72514	23357.15
1808.90913	23264.85
1812.09102	23216.45
1815.27083	23146.55
1818.44856	23164.15
1821.6242	23121.15
1824.79776	23072.55
1827.96924	23083.75
1831.13864	23070.85
1834.30597	23068.75
1837.47122	23084.25
1840.6344	23102.95
1843.7955	23140.35
1846.95454	23096.95
1850.11151	23094.25
1853.26642	23063.15
1856.41926	23074.05
1859.57004	23062.25
1862.71876	23009.15
1865.86542	22973.85
1869.01003	23027.75
1872.15258	22934.65
1875.29308	22992.15
1878.43152	22967.15
1881.56792	22933.15
1884.70227	22923.75
1887.83457	22900.85
1890.96482	22910.15
1894.09304	22844.45
1897.21921	22836.15
1900.34335	22827.45
1903.46544	22755.85
1906.58551	22762.25
1909.70353	22727.55
1912.81953	22703.05
1915.93349	22678.05
1919.04543	22621.65
1922.15534	22614.65
1925.26322	22518.35
1928.36908	22465.85
1931.47292	22466.25
1934.57473	22397.95
1937.67453	22352.65
1940.77232	22335.75
1943.86808	22259.75
1946.96184	22187.95
1950.05358	22125.45
1953.14331	22058.55
1956.23103	22030.75
1959.31675	21921.55
1962.40046	21864.75
1965.48217	21826.85
1968.56188	21741.35
1971.63959	21703.45
1974.7153	21611.15
1977.78901	21574.35
1980.86073	21528.55
1983.93046	21436.85
1986.99819	21426.65
1990.06394	21353.05
1993.1277	21325.75
1996.18947	21222.95
1999.24925	21199.35
2002.30706	21124.05
2005.36288	21065.35
2008.41672	21020.75
2011.46859	20948.85
2014.51848	20936.55
2017.56639	20933.75
2020.61233	20866.65
2023.6563	20808.35
2026.6983	20803.85
2029.73833	20758.75
2032.7764	20710.35
2035.8125	20705.25
2038.84664	20644.45
2041.87881	20576.75
2044.90903	20507.75
2047.93729	20500.65
2050.96359	20528.85
2053.98794	20447.25
2057.01034	20491.65
2060.03078	20486.05
2063.04927	20428.95
2066.06582	20450.45
2069.08042	20452.55
2072.09307	20425.15
2075.10378	20426.25
2078.11255	20402.85
2081.11938	20353.95
2084.12426	20408.45
2087.12722	20390.95
2090.12824	20385.35
2093.12732	20362.75
2096.12447	20377.75
2099.11969	20344.45
2102.11299	20336.55
2105.10435	20386.35
2108.09379	20382.25
2111.08131	20376.25
2114.0669	20382.75
2117.05057	20403.25
2120.03233	20419.85
2123.01216	20450.35
2125.99008	20461.85
2128.96609	20531.45
2131.94018	20544.25
2134.91236	20529.85
2137.88263	20557.75
2140.851	20559.85
2143.81746	20570.75
2146.78201	20553.65
2149.74466	20599.95
2152.7054	20552.85
2155.66425	20584.65
2158.6212	20583.25
2161.57625	20576.25
2164.52941	20579.75
2167.48067	20549.35
2170.43004	20555.55
2173.37752	20536.95
2176.32311	20588.35
2179.26681	20588.15
2182.20863	20584.25
2185.14856	20567.25
2188.08661	20576.55
2191.02278	20623.05
2193.95707	20623.15
2196.88948	20584.35
2199.82001	20594.95
2202.74867	20567.15
2205.67545	20567.75
2208.60037	20517.55
2211.52341	20518.85
2214.44458	20473.05
2217.36388	20456.35
2220.28132	20439.45
2223.1969	20392.85
2226.11061	20390.25
2229.02246	20349.65
2231.93245	20321.85
2234.84058	20280.55
2237.74686	20266.55
2240.65128	20262.35
2243.55385	20210.75
2246.45456	20185.05
2249.35343	20141.15
2252.25044	20107.45
2255.14561	20089.05
2258.03893	20082.45
2260.93041	20007.35
2263.82004	19945.95
2266.70783	19911.65
2269.59378	19827.35
2272.4779	19779.75
2275.36017	19734.05
2278.24061	19760.95
2281.11922	19705.65
2283.996	19678.95
2286.87094	19732.65
2289.74405	19670.65
2292.61534	19673.95
2295.4848	19696.55
2298.35243	19697.25
2301.21824	19698.35
2304.08223	19687.95
2306.94439	19689.55
2309.80474	19703.35
2312.66327	19754.85
2315.51999	19711.45
2318.37489	19672.25
2321.22797	19683.75
2324.07925	19674.35
2326.92871	19628.15
2329.77637	19605.35
2332.62222	19592.95
2335.46626	19574.95
2338.3085	19565.95
2341.14893	19602.35
2343.98756	19606.05
2346.8244	19604.75
2349.65943	19617.35
2352.49267	19594.05
2355.32411	19574.45
2358.15376	19568.85
2360.98161	19572.95
2363.80768	19569.05
2366.63195	19529.45
2369.45444	19500.65
2372.27514	19455.45
2375.09405	19416.55
2377.91118	19404.75
2380.72652	19387.95
2383.54009	19344.65
2386.35187	19346.75
2389.16188	19256.45
2391.97011	19197.95
2394.77657	19180.15
2397.58125	19203.45
2400.38416	19186.55
2403.18529	19168.25
2405.98466	19129.75
2408.78226	19108.25
2411.57809	19055.55
2414.37216	19096.05
2417.16446	19054.25
2419.955	19046.25
2422.74378	19007.75
2425.5308	18998.55
2428.31606	19019.35
2431.09956	19027.95
2433.88131	19005.95
2436.6613	18999.15
2439.43954	19043.55
2442.21603	19016.75
2444.99077	18975.15
2447.76377	18975.35
2450.53501	18968.55
2453.30451	18943.55
2456.07226	18973.65
2458.83827	18956.45
2461.60254	18983.35
2464.36507	18968.15
2467.12586	18935.15
2469.88492	18906.55
2472.64224	18957.35
2475.39782	18960.35
2478.15167	18979.55
2480.90379	18998.05
2483.65417	18997.05
2486.40283	19027.45
2489.14976	19046.25
2491.89497	19042.35
2494.63845	19047.35
2497.3802	19047.85
2500.12024	19036.75
2502.85855	19020.15
2505.59514	19003.75
2508.33002	18981.45
2511.06318	18992.05
2513.79462	18985.85
2516.52435	18971.65
2519.25237	18956.95
2521.97867	18934.15
2524.70327	18943.05
2527.42616	18910.75
2530.14734	18899.35
2532.86681	18907.95
2535.58458	18912.85
2538.30065	18921.55
2541.01501	18925.95
2543.72768	18949.95
2546.43864	18915.85
2549.14791	18886.75
2551.85548	18924.75
2554.56136	18888.65
2557.26554	18878.05
2559.96803	18832.85
2562.66883	18832.65
2565.36794	18819.55
2568.06536	18790.95
2570.7611	18802.75
2573.45514	18775.95
2576.14751	18791.85
2578.83819	18782.15
2581.52719	18756.55
2584.21451	18759.95
2586.90015	18743.35
2589.58411	18728.85
2592.2664	18748.25
2594.94701	18725.55
2597.62594	18765.35
2600.30321	18696.55
2602.9788	18710.45
2605.65273	18668.75
2608.32498	18734.95
2610.99557	18721.15
2613.66449	18718.95
2616.33175	18685.65
2618.99734	18733.85
2621.66128	18700.85
2624.32355	18674.35
2626.98416	18653.05
2629.64311	18689.15
2632.30041	18635.65
2634.95605	18610.35
2637.61004	18597.45
2640.26238	18588.45
2642.91306	18572.35
2645.56209	18576.35
2648.20948	18584.35
2650.85521	18563.75
2653.4993	18629.55
2656.14175	18609.25
2658.78255	18654.15
2661.42171	18627.85
2664.05923	18696.75
2666.6951	18687.15
2669.32934	18732.25
2671.96194	18731.75
2674.59291	18717.25
2677.22224	18708.95
2679.84993	18736.25
2682.476	18717.15
2685.10043	18706.45
2687.72324	18680.15
2690.34441	18685.65
2692.96396	18657.55
2695.58188	18690.25
2698.19818	18638.35
2700.81285	18734.95
2703.4259	18711.85
2706.03733	18733.75
2708.64714	18711.15
2711.25533	18723.75
2713.86191	18735.85
2716.46687	18763.35
2719.07021	18763.35
2721.67194	18812.25
2724.27206	18765.95
2726.87057	18810.75
2729.46747	18878.25
2732.06276	18871.05
2734.65644	18878.95
2737.24852	18840.65
2739.83899	18836.55
2742.42786	18876.35
2745.01513	18847.95
2747.60079	18838.25
2750.18486	18841.35
2752.76733	18807.85
2755.3482	18805.85
2757.92747	18776.45
2760.50515	18770.55
2763.08123	18794.55
2765.65573	18763.25
2768.22863	18772.75
2770.79994	18762.75
2773.36967	18767.25
2775.9378	18812.65
2778.50435	18781.75
2781.06932	18797.95
2783.6327	18791.45
2786.1945	18774.75
2788.75471	18756.55
2791.31335	18713.25
2793.87041	18728.75
2796.42589	18665.95
2798.97979	18681.45
2801.53212	18660.45
2804.08288	18659.05
2806.63206	18611.75
2809.17967	18566.35
2811.72571	18513.35
2814.27018	18496.65
2816.81308	18439.25
2819.35442	18410.25
2821.89419	18377.25
2824.43239	18417.15
2826.96904	18363.15
2829.50412	18348.65
2832.03763	18300.75
2834.56959	18324.05
2837.1	18287.65
2839.62884	18315.65
2842.15613	18276.85
2844.68186	18325.15
2847.20604	18257.05
2849.72867	18317.25
2852.24974	18276.65
2854.76927	18244.05
2857.28724	18215.05
2859.80367	18186.05
2862.31855	18191.25
2864.83189	18187.25
2867.34368	18117.85
2869.85393	18161.95
2872.36264	18137.45
2874.8698	18122.85
2877.37543	18129.55
2879.87952	18133.75
2882.38207	18160.55
2884.88308	18147.35
2887.38256	18131.65
2889.88051	18164.25
2892.37692	18166.75
2894.8718	18191.45
2897.36515	18256.95
2899.85698	18264.75
2902.34727	18300.05
2904.83604	18248.75
2907.32328	18306.15
2909.809	18293.75
2912.29319	18315.85
2914.77587	18285.25
2917.25702	18268.75
2919.73665	18280.05
2922.21476	18280.75
2924.69136	18293.85
2927.16644	18270.35
2929.64	18245.25
2932.11205	18233.85
2934.58258	18177.85
2937.05161	18157.75
2939.51912	18174.85
2941.98513	18174.05
2944.44962	18107.85
2946.91261	18083.65
2949.37409	18120.75
2951.83407	18100.85
2954.29254	18107.35
2956.74951	18105.65
2959.20498	18098.55
2961.65895	18072.75
2964.11142	18073.25
2966.56239	18036.45
2969.01186	18055.85
2971.45984	18036.15
2973.90632	17979.95
2976.35131	17978.75
2978.7948	17951.45
2981.23681	17901.45
2983.67732	17879.75
2986.11635	17818.05
2988.55388	17781.25
2990.98993	17739.25
2993.4245	17720.65
2995.85758	17666.95
2998.28917	17623.75
3000.71928	17606.65
3003.14791	17582.55
3005.57506	17548.45
3008.00073	17484.15
3010.42493	17337.35
3012.84764	17391.35
3015.26888	17371.75
3017.68865	17358.75
3020.10694	17356.35
3022.52376	17301.75
3024.9391	17313.85
3027.35298	17315.45
3029.76539	17306.35
3032.17632	17298.65
3034.5858	17265.15
3036.9938	17263.85
3039.40034	17273.55
3041.80542	17313.55
3044.20903	17226.35
3046.61118	17220.25
3049.01187	17175.35
3051.4111	17173.65
3053.80888	17081.15
3056.20519	17049.05
3058.60005	17031.35
3060.99345	17012.95
3063.3854	16979.35
3065.7759	16930.15
3068.16494	16898.35
3070.55254	16843.35
3072.93868	16806.05
3075.32338	16746.15
3077.70662	16725.35
3080.08842	16666.25
3082.46878	16683.55
3084.84769	16672.15
3087.22515	16663.85
3089.60118	16684.25
3091.97576	16613.25
3094.3489	16638.65
3096.72061	16646.15
3099.09087	16638.55
3101.4597	16636.75
3103.82709	16587.65
3106.19305	16580.35
3108.55757	16562.25
3110.92066	16521.15
3113.28232	16526.15
3115.64255	16466.55
3118.00134	16432.45
3120.35871	16404.25
3122.71466	16380.25
3125.06917	16356.85
3127.42226	16302.55
3129.77393	16316.05
3132.12417	16248.35
3134.47299	16255.85
3136.82039	16258.05
3139.16636	16275.85
3141.51092	16251.55
3143.85406	16234.05
3146.19579	16222.75
3148.53609	16195.25
3150.87499	16203.85
3153.21246	16189.55
3155.54853	16232.95
3157.88318	16241.55
3160.21642	16258.65
3162.54826	16212.15
3164.87868	16218.25
3167.2077	16275.65
3169.5353	16243.85
3171.86151	16268.65
3174.18631	16220.45
3176.5097	16223.75
3178.83169	16209.25
3181.15228	16179.45
3183.47147	16117.45
3185.78926	16145.95
3188.10565	16122.95
3190.42065	16086.85
3192.73424	16066.75
3195.04645	16071.65
3197.35725	16047.75
3199.66667	16046.35
3201.97469	16039.75
3204.28132	16020.05
3206.58656	16074.05
3208.8904	16047.05
3211.19287	16017.35
3213.49394	16028.95
3215.79363	16048.75
3218.09193	16046.35
3220.38884	16055.75
3222.68438	16052.05
3224.97853	16030.45
3227.2713	15997.75
3229.56269	15987.25
3231.8527	15983.85
3234.14133	15955.35
3236.42858	15954.55
3238.71446	15935.15
3240.99896	15891.55
3243.28209	15871.75
3245.56384	15879.65
3247.84423	15879.45
3250.12324	15862.55
3252.40088	15808.65
3254.67715	15785.85
3256.95205	15775.55
3259.22558	15797.05
3261.49775	15760.65
3263.76855	15752.55
3266.03799	15689.05
3268.30606	15679.35
3270.57277	15641.55
3272.83812	15618.85
3275.10211	15578.05
3277.36474	15570.25
3279.62601	15571.55
3281.88593	15521.55
3284.14448	15518.65
3286.40168	15538.95
3288.65753	15571.05
3290.91202	15554.95
3293.16516	15500.95
3295.41695	15482.35
3297.66738	15397.25
3299.91647	15338.85
3302.16421	15234.85
3304.4106	15145.15
3306.65564	15036.05
3308.89933	14933.75
3311.14169	14802.65
3313.38269	14676.55
3315.62236	14584.55
3317.86068	14490.95
3320.09766	14336.75
3322.3333	14274.55
3324.5676	14211.45
3326.80056	13978.45
3329.03219	13892.45
3331.26248	5.05
3333.49143	0.55
3335.71905	-0.75
