Data from AgNP_FTO_APTES_UA_10uM_CRN_1uM_R6G_10uM_NaF_0.1M_Addition_RamanShift__13__13-07-50-510.txt Node

Date: Thu Feb 10 13:07:50 GMT 2022
User: TCL
Spectrometer: QEP01345
Trigger mode: 4
Integration Time (sec): 7.000000E0
Scans to average: 10
Electric dark correction enabled: true
Nonlinearity correction enabled: false
Boxcar width: 0
XAxis mode: Raman Shifts
Number of Pixels in Spectrum: 1044
>>>>>Begin Spectral Data<<<<<
46.04893	0.95
50.45542	-0.85
54.85868	-1.85
59.25871	-1.15
63.6555	76.55
68.04907	79.05
72.43941	85.25
76.82654	83.15
81.21044	89.45
85.59113	89.75
89.96862	96.55
94.34289	101.35
98.71396	97.75
103.08183	105.55
107.4465	110.95
111.80798	109.45
116.16626	116.05
120.52136	121.55
124.87327	127.35
129.222	128.35
133.56755	142.65
137.90993	150.65
142.24913	161.65
146.58517	185.05
150.91804	221.65
155.24774	261.45
159.57429	328.35
163.89768	421.65
168.21792	559.05
172.53501	769.75
176.84895	1075.15
181.15975	1523.55
185.46741	2125.95
189.77193	2963.05
194.07331	3949.35
198.37157	5122.75
202.6667	6347.15
206.9587	7538.55
211.24758	8745.65
215.53334	9935.95
219.81599	11171.85
224.09553	12546.85
228.37195	14023.15
232.64527	15686.85
236.91549	17473.85
241.18261	19259.05
245.44663	20949.45
249.70755	22470.35
253.96539	23785.95
258.22014	24875.25
262.4718	25770.55
266.72039	26314.35
270.96589	26626.95
275.20832	26639.05
279.44768	26420.45
283.68397	26108.65
287.91719	25863.65
292.14735	25664.15
296.37445	25550.95
300.59849	25563.65
304.81948	25625.85
309.03742	25654.45
313.25231	25508.35
317.46415	25166.45
321.67296	24651.55
325.87872	24260.05
330.08145	24103.45
334.28114	24098.25
338.47781	24255.35
342.67145	24515.25
346.86207	24868.25
351.04966	25293.95
355.23424	25689.35
359.4158	26044.35
363.59435	26354.35
367.76989	26587.85
371.94243	26708.35
376.11196	26777.25
380.27849	26819.95
384.44203	26859.75
388.60257	27070.55
392.76012	27321.45
396.91468	27723.75
401.06626	28186.45
405.21485	28473.35
409.36047	28371.45
413.50311	28051.35
417.64277	27878.65
421.77947	27920.55
425.9132	28091.65
430.04396	28281.95
434.17176	28353.75
438.2966	28508.35
442.41849	28728.35
446.53742	29160.05
450.6534	29702.45
454.76644	30060.75
458.87653	30167.25
462.98368	30157.35
467.08789	30015.35
471.18916	29748.65
475.2875	29373.45
479.38291	29199.15
483.4754	29046.65
487.56496	28898.45
491.6516	28694.45
495.73531	28437.15
499.81612	28251.05
503.89401	28326.15
507.96899	28505.65
512.04106	28564.45
516.11023	28518.55
520.1765	28357.95
524.23987	28066.35
528.30034	27842.85
532.35792	27602.25
536.41261	27273.25
540.46441	27097.45
544.51333	27103.45
548.55936	27351.85
552.60252	27760.15
556.64279	28196.35
560.6802	28548.95
564.71473	28811.55
568.7464	29244.05
572.7752	30059.85
576.80114	30958.85
580.82422	31984.25
584.84444	32933.85
588.86181	34017.85
592.87633	35000.95
596.888	34877.95
600.89682	33627.45
604.9028	33062.05
608.90594	34574.95
612.90624	36352.75
616.90371	34494.95
620.89834	30216.35
624.89015	28343.45
628.87913	28194.75
632.86528	28448.25
636.84862	28529.55
640.82913	28088.25
644.80683	27440.65
648.78172	26986.35
652.75379	26900.45
656.72306	27169.85
660.68952	27570.05
664.65319	27522.45
668.61405	27148.35
672.57211	27081.85
676.52738	27181.25
680.47986	27135.95
684.42955	26976.95
688.37646	26903.85
692.32058	27056.55
696.26192	27304.85
700.20048	27617.25
704.13626	27849.35
708.06928	27915.55
711.99952	27873.55
715.927	27718.35
719.85171	27673.75
723.77365	27556.65
727.69284	27225.35
731.60928	26879.45
735.52295	26711.95
739.43388	26694.05
743.34206	26764.65
747.24749	26909.25
751.15017	27136.85
755.05012	27540.65
758.94733	28185.55
762.8418	29249.15
766.73354	30904.05
770.62254	32446.85
774.50882	32690.95
778.39237	31646.95
782.27321	30034.55
786.15132	28624.25
790.02671	27709.85
793.89938	27152.65
797.76935	26901.15
801.6366	26727.25
805.50115	26647.95
809.36299	26557.25
813.22213	26368.85
817.07857	26355.35
820.93231	26309.65
824.78336	26219.85
828.63172	26114.85
832.47738	26081.45
836.32036	26040.75
840.16066	26037.65
843.99827	26021.35
847.8332	25994.65
851.66546	26065.35
855.49504	26141.15
859.32195	26117.65
863.1462	26089.85
866.96777	26040.35
870.78668	25995.15
874.60293	26038.35
878.41652	26068.45
882.22745	26128.95
886.03573	26181.65
889.84136	26216.65
893.64433	26178.15
897.44466	26157.55
901.24235	26119.25
905.0374	26093.75
908.8298	26073.25
912.61957	26060.95
916.40671	26265.75
920.19121	26498.45
923.97308	26707.45
927.75233	26742.75
931.52895	26581.95
935.30295	26160.15
939.07433	25789.55
942.84309	25438.65
946.60924	25311.15
950.37278	25225.75
954.13371	25232.05
957.89203	25183.75
961.64774	25172.85
965.40086	25176.65
969.15137	25081.45
972.89929	25062.25
976.64461	24943.95
980.38733	24875.95
984.12747	24927.85
987.86502	25014.85
991.59999	25061.15
995.33237	25253.35
999.06217	25532.85
1002.78939	25884.95
1006.51404	26353.25
1010.23611	26785.85
1013.95561	27108.65
1017.67255	27159.95
1021.38692	26921.35
1025.09872	26551.35
1028.80796	26174.15
1032.51465	26046.75
1036.21877	26012.45
1039.92035	26085.85
1043.61937	26223.05
1047.31584	26318.65
1051.00976	26412.95
1054.70114	26507.95
1058.38998	26705.15
1062.07627	26861.05
1065.76003	27207.05
1069.44126	27496.85
1073.11995	28014.25
1076.79611	28405.05
1080.46974	28620.75
1084.14085	28793.75
1087.80943	29030.75
1091.47549	29304.15
1095.13903	29377.95
1098.80005	29075.65
1102.45857	28517.45
1106.11456	28019.35
1109.76805	27695.65
1113.41903	27520.45
1117.06751	27564.25
1120.71348	27764.35
1124.35696	27988.95
1127.99793	28261.65
1131.63641	28465.65
1135.2724	28424.35
1138.90589	28317.25
1142.5369	28358.85
1146.16542	28439.65
1149.79145	28698.85
1153.415	28833.65
1157.03607	29038.45
1160.65467	29604.75
1164.27079	30517.45
1167.88443	31723.55
1171.49561	33182.95
1175.10432	34877.65
1178.71056	36944.75
1182.31434	38943.85
1185.91565	40092.05
1189.51451	40469.15
1193.11091	40043.55
1196.70485	39026.55
1200.29634	37669.55
1203.88538	36588.75
1207.47197	35966.95
1211.05612	35563.65
1214.63782	35011.05
1218.21708	34138.55
1221.79391	33215.55
1225.36829	32615.85
1228.94024	32329.15
1232.50976	32121.35
1236.07685	31961.55
1239.6415	31823.75
1243.20374	31736.35
1246.76355	31812.85
1250.32093	32120.65
1253.8759	32647.25
1257.42845	33444.55
1260.97859	34316.15
1264.52631	35257.55
1268.07163	36123.55
1271.61453	36971.05
1275.15503	37817.35
1278.69312	38631.45
1282.22882	39508.65
1285.76211	40521.75
1289.29301	41665.75
1292.82151	43009.25
1296.34761	44566.65
1299.87133	46418.45
1303.39266	48372.15
1306.9116	50200.05
1310.42815	51598.75
1313.94233	52355.35
1317.45412	52029.35
1320.96354	51420.95
1324.47058	51132.25
1327.97525	51057.55
1331.47754	51103.55
1334.97747	51134.75
1338.47502	51166.85
1341.97022	51236.75
1345.46305	51259.45
1348.95352	51162.25
1352.44163	50861.25
1355.92738	50911.65
1359.41078	51463.05
1362.89183	52221.75
1366.37053	51394.85
1369.84688	48296.85
1373.32088	44262.55
1376.79254	41336.75
1380.26186	40016.55
1383.72883	39661.45
1387.19347	39452.05
1390.65578	38949.55
1394.11575	38738.95
1397.57339	38841.75
1401.0287	39142.35
1404.48168	39438.65
1407.93234	39315.45
1411.38068	38772.25
1414.82669	37807.75
1418.27039	36560.35
1421.71177	35500.15
1425.15083	34710.15
1428.58758	34385.65
1432.02203	34637.25
1435.45416	35332.85
1438.88399	36108.25
1442.31151	36664.25
1445.73673	36914.05
1449.15965	37094.45
1452.58027	37295.35
1455.9986	37444.45
1459.41463	37804.65
1462.82837	38370.15
1466.23982	38959.25
1469.64898	39433.25
1473.05586	39629.45
1476.46045	39637.15
1479.86276	39460.65
1483.26279	39279.55
1486.66054	39310.75
1490.05602	39605.05
1493.44922	40208.85
1496.84016	40979.35
1500.22882	42075.15
1503.61521	43349.55
1506.99934	44646.25
1510.38121	45519.75
1513.76081	45488.55
1517.13816	44590.05
1520.51324	43460.35
1523.88607	42574.65
1527.25665	42157.85
1530.62498	41811.45
1533.99105	41311.85
1537.35488	40673.45
1540.71647	39674.45
1544.07581	38650.15
1547.4329	37700.75
1550.78776	36975.35
1554.14038	36483.55
1557.49077	36272.75
1560.83892	36238.45
1564.18484	36372.85
1567.52853	36525.05
1570.86999	36691.95
1574.20922	37244.05
1577.54624	37648.95
1580.88103	37672.25
1584.2136	37773.45
1587.54395	38418.05
1590.87208	39785.75
1594.19801	41476.95
1597.52172	43075.35
1600.84321	43290.15
1604.16251	41708.95
1607.47959	39211.05
1610.79447	36579.85
1614.10715	34015.65
1617.41763	31906.05
1620.7259	30427.65
1624.03199	29668.75
1627.33587	29593.65
1630.63757	30305.65
1633.93707	31961.35
1637.23439	34746.55
1640.52951	38795.65
1643.82246	43504.25
1647.11321	47208.15
1650.40179	47756.15
1653.68819	44704.95
1656.97241	39402.65
1660.25446	34266.25
1663.53433	30396.45
1666.81203	27931.25
1670.08756	26389.95
1673.36092	25420.45
1676.63211	24782.85
1679.90115	24356.15
1683.16801	24001.35
1686.43272	23738.25
1689.69527	23532.55
1692.95567	23366.15
1696.2139	23280.35
1699.46999	23161.45
1702.72392	23110.15
1705.97571	23026.35
1709.22535	23012.25
1712.47284	22979.25
1715.71819	22949.15
1718.96139	22869.85
1722.20246	22786.55
1725.44139	22705.35
1728.67818	22538.35
1731.91284	22394.05
1735.14537	22285.65
1738.37576	22245.55
1741.60403	22206.95
1744.83017	22073.95
1748.05418	21999.65
1751.27607	21961.15
1754.49584	21907.35
1757.71349	21892.65
1760.92903	21854.95
1764.14244	21858.65
1767.35375	21844.55
1770.56294	21759.75
1773.77002	21727.45
1776.97499	21675.35
1780.17785	21649.95
1783.37861	21570.25
1786.57727	21562.25
1789.77382	21539.45
1792.96828	21496.25
1796.16064	21431.55
1799.3509	21389.85
1802.53907	21373.75
1805.72514	21305.15
1808.90913	21254.75
1812.09102	21162.55
1815.27083	21139.15
1818.44856	21166.45
1821.6242	21118.95
1824.79776	21067.85
1827.96924	21052.55
1831.13864	21049.35
1834.30597	21072.35
1837.47122	21062.65
1840.6344	21089.45
1843.7955	21103.45
1846.95454	21094.25
1850.11151	21108.15
1853.26642	21071.25
1856.41926	21126.85
1859.57004	21091.45
1862.71876	21111.75
1865.86542	21035.35
1869.01003	21005.25
1872.15258	20950.05
1875.29308	20951.25
1878.43152	20871.05
1881.56792	20835.05
1884.70227	20791.75
1887.83457	20738.15
1890.96482	20726.25
1894.09304	20658.95
1897.21921	20579.25
1900.34335	20594.95
1903.46544	20545.65
1906.58551	20528.25
1909.70353	20466.55
1912.81953	20441.55
1915.93349	20399.95
1919.04543	20359.35
1922.15534	20299.45
1925.26322	20234.35
1928.36908	20190.35
1931.47292	20150.15
1934.57473	20100.75
1937.67453	20052.75
1940.77232	19961.85
1943.86808	19922.95
1946.96184	19870.75
1950.05358	19772.85
1953.14331	19721.35
1956.23103	19707.55
1959.31675	19566.55
1962.40046	19561.55
1965.48217	19478.65
1968.56188	19433.35
1971.63959	19332.95
1974.7153	19282.95
1977.78901	19203.55
1980.86073	19141.75
1983.93046	19083.45
1986.99819	19030.65
1990.06394	18954.85
1993.1277	18897.35
1996.18947	18855.75
1999.24925	18812.15
2002.30706	18742.45
2005.36288	18692.45
2008.41672	18627.05
2011.46859	18547.05
2014.51848	18526.65
2017.56639	18465.15
2020.61233	18432.55
2023.6563	18370.35
2026.6983	18344.45
2029.73833	18323.55
2032.7764	18225.55
2035.8125	18195.65
2038.84664	18128.35
2041.87881	18100.15
2044.90903	18071.15
2047.93729	18035.85
2050.96359	18012.05
2053.98794	17976.95
2057.01034	17950.75
2060.03078	17924.95
2063.04927	17929.55
2066.06582	17928.25
2069.08042	17885.65
2072.09307	17839.75
2075.10378	17847.95
2078.11255	17848.35
2081.11938	17860.85
2084.12426	17849.85
2087.12722	17824.75
2090.12824	17797.85
2093.12732	17793.35
2096.12447	17781.25
2099.11969	17778.05
2102.11299	17779.15
2105.10435	17808.95
2108.09379	17840.95
2111.08131	17805.95
2114.0669	17787.25
2117.05057	17828.75
2120.03233	17828.65
2123.01216	17857.75
2125.99008	17862.45
2128.96609	17865.25
2131.94018	17887.65
2134.91236	17906.05
2137.88263	17915.25
2140.851	17875.15
2143.81746	17895.25
2146.78201	17893.25
2149.74466	17886.25
2152.7054	17860.35
2155.66425	17837.35
2158.6212	17833.55
2161.57625	17813.95
2164.52941	17784.55
2167.48067	17790.65
2170.43004	17772.75
2173.37752	17775.85
2176.32311	17805.25
2179.26681	17746.65
2182.20863	17764.95
2185.14856	17761.05
2188.08661	17733.25
2191.02278	17743.35
2193.95707	17750.65
2196.88948	17698.45
2199.82001	17682.75
2202.74867	17680.25
2205.67545	17666.25
2208.60037	17609.15
2211.52341	17610.75
2214.44458	17592.15
2217.36388	17531.25
2220.28132	17511.55
2223.1969	17435.35
2226.11061	17403.25
2229.02246	17433.35
2231.93245	17377.25
2234.84058	17323.25
2237.74686	17317.75
2240.65128	17263.15
2243.55385	17227.85
2246.45456	17209.35
2249.35343	17199.85
2252.25044	17163.95
2255.14561	17138.15
2258.03893	17140.15
2260.93041	17068.95
2263.82004	17015.05
2266.70783	16968.25
2269.59378	16924.85
2272.4779	16900.15
2275.36017	16864.85
2278.24061	16840.85
2281.11922	16798.75
2283.996	16767.25
2286.87094	16720.45
2289.74405	16709.25
2292.61534	16672.95
2295.4848	16642.15
2298.35243	16657.55
2301.21824	16648.75
2304.08223	16646.85
2306.94439	16617.15
2309.80474	16590.75
2312.66327	16583.85
2315.51999	16564.15
2318.37489	16543.35
2321.22797	16509.05
2324.07925	16485.55
2326.92871	16472.65
2329.77637	16445.05
2332.62222	16419.65
2335.46626	16409.55
2338.3085	16346.65
2341.14893	16372.65
2343.98756	16341.25
2346.8244	16341.85
2349.65943	16337.45
2352.49267	16318.35
2355.32411	16324.85
2358.15376	16337.05
2360.98161	16369.05
2363.80768	16332.75
2366.63195	16307.85
2369.45444	16261.45
2372.27514	16248.75
2375.09405	16239.15
2377.91118	16235.75
2380.72652	16221.65
2383.54009	16144.65
2386.35187	16129.65
2389.16188	16043.05
2391.97011	16024.05
2394.77657	15953.95
2397.58125	15925.75
2400.38416	15915.75
2403.18529	15898.05
2405.98466	15869.95
2408.78226	15853.15
2411.57809	15859.55
2414.37216	15791.65
2417.16446	15816.75
2419.955	15774.85
2422.74378	15767.95
2425.5308	15755.55
2428.31606	15746.35
2431.09956	15752.75
2433.88131	15725.15
2436.6613	15757.05
2439.43954	15764.45
2442.21603	15703.25
2444.99077	15678.65
2447.76377	15670.95
2450.53501	15672.05
2453.30451	15634.95
2456.07226	15635.65
2458.83827	15613.45
2461.60254	15663.05
2464.36507	15609.65
2467.12586	15585.35
2469.88492	15577.45
2472.64224	15597.95
2475.39782	15560.35
2478.15167	15564.85
2480.90379	15560.35
2483.65417	15538.65
2486.40283	15550.55
2489.14976	15539.25
2491.89497	15505.75
2494.63845	15569.85
2497.3802	15501.05
2500.12024	15506.75
2502.85855	15498.75
2505.59514	15426.05
2508.33002	15425.55
2511.06318	15426.55
2513.79462	15415.55
2516.52435	15395.05
2519.25237	15369.75
2521.97867	15361.45
2524.70327	15338.35
2527.42616	15339.15
2530.14734	15313.85
2532.86681	15300.75
2535.58458	15305.95
2538.30065	15277.95
2541.01501	15302.85
2543.72768	15289.65
2546.43864	15249.45
2549.14791	15219.35
2551.85548	15213.35
2554.56136	15214.25
2557.26554	15160.05
2559.96803	15133.35
2562.66883	15101.65
2565.36794	15087.55
2568.06536	15054.05
2570.7611	15000.15
2573.45514	14989.95
2576.14751	15019.75
2578.83819	14957.65
2581.52719	14965.65
2584.21451	14918.55
2586.90015	14898.45
2589.58411	14903.35
2592.2664	14887.75
2594.94701	14855.95
2597.62594	14815.95
2600.30321	14813.25
2602.9788	14763.25
2605.65273	14784.45
2608.32498	14773.55
2610.99557	14777.55
2613.66449	14770.55
2616.33175	14751.05
2618.99734	14706.15
2621.66128	14679.75
2624.32355	14664.35
2626.98416	14636.45
2629.64311	14644.15
2632.30041	14591.05
2634.95605	14590.25
2637.61004	14573.15
2640.26238	14586.45
2642.91306	14584.45
2645.56209	14569.05
2648.20948	14528.95
2650.85521	14554.85
2653.4993	14561.55
2656.14175	14529.35
2658.78255	14581.85
2661.42171	14568.75
2664.05923	14597.25
2666.6951	14580.85
2669.32934	14571.05
2671.96194	14579.65
2674.59291	14612.15
2677.22224	14590.15
2679.84993	14596.65
2682.476	14596.15
2685.10043	14585.85
2687.72324	14559.15
2690.34441	14557.35
2692.96396	14558.85
2695.58188	14556.25
2698.19818	14526.55
2700.81285	14539.55
2703.4259	14537.85
2706.03733	14522.15
2708.64714	14521.45
2711.25533	14554.95
2713.86191	14520.05
2716.46687	14564.75
2719.07021	14592.65
2721.67194	14576.75
2724.27206	14555.45
2726.87057	14572.65
2729.46747	14594.15
2732.06276	14608.85
2734.65644	14579.45
2737.24852	14593.55
2739.83899	14551.25
2742.42786	14534.75
2745.01513	14537.85
2747.60079	14511.75
2750.18486	14492.65
2752.76733	14496.05
2755.3482	14474.45
2757.92747	14475.55
2760.50515	14448.85
2763.08123	14410.15
2765.65573	14384.35
2768.22863	14376.45
2770.79994	14373.15
2773.36967	14373.55
2775.9378	14319.75
2778.50435	14316.65
2781.06932	14339.25
2783.6327	14313.45
2786.1945	14302.95
2788.75471	14259.35
2791.31335	14264.95
2793.87041	14234.75
2796.42589	14180.85
2798.97979	14201.35
2801.53212	14164.15
2804.08288	14149.65
2806.63206	14083.85
2809.17967	14072.75
2811.72571	14048.25
2814.27018	14022.15
2816.81308	13969.95
2819.35442	13973.25
2821.89419	13939.45
2824.43239	13918.85
2826.96904	13895.95
2829.50412	13888.45
2832.03763	13811.65
2834.56959	13853.85
2837.1	13820.75
2839.62884	13828.85
2842.15613	13825.95
2844.68186	13859.85
2847.20604	13810.35
2849.72867	13839.85
2852.24974	13831.35
2854.76927	13797.55
2857.28724	13768.55
2859.80367	13763.25
2862.31855	13712.65
2864.83189	13699.25
2867.34368	13677.25
2869.85393	13668.75
2872.36264	13641.45
2874.8698	13640.05
2877.37543	13648.15
2879.87952	13626.95
2882.38207	13630.55
2884.88308	13608.35
2887.38256	13619.65
2889.88051	13602.45
2892.37692	13616.65
2894.8718	13587.55
2897.36515	13625.55
2899.85698	13600.95
2902.34727	13632.45
2904.83604	13619.05
2907.32328	13659.65
2909.809	13637.35
2912.29319	13633.75
2914.77587	13600.05
2917.25702	13608.95
2919.73665	13578.35
2922.21476	13572.45
2924.69136	13553.65
2927.16644	13561.75
2929.64	13578.35
2932.11205	13551.85
2934.58258	13507.35
2937.05161	13520.95
2939.51912	13498.45
2941.98513	13489.45
2944.44962	13461.95
2946.91261	13419.05
2949.37409	13438.05
2951.83407	13430.85
2954.29254	13430.15
2956.74951	13406.45
2959.20498	13391.65
2961.65895	13359.35
2964.11142	13377.15
2966.56239	13352.45
2969.01186	13346.95
2971.45984	13331.55
2973.90632	13281.45
2976.35131	13267.75
2978.7948	13247.75
2981.23681	13233.35
2983.67732	13180.55
2986.11635	13152.85
2988.55388	13129.55
2990.98993	13079.45
2993.4245	13062.35
2995.85758	13038.75
2998.28917	12975.45
3000.71928	12962.15
3003.14791	12943.05
3005.57506	12923.25
3008.00073	12872.75
3010.42493	12737.15
3012.84764	12846.95
3015.26888	12792.05
3017.68865	12733.25
3020.10694	12726.65
3022.52376	12706.25
3024.9391	12679.45
3027.35298	12695.35
3029.76539	12687.45
3032.17632	12644.55
3034.5858	12624.95
3036.9938	12640.85
3039.40034	12624.25
3041.80542	12611.95
3044.20903	12565.35
3046.61118	12568.25
3049.01187	12544.25
3051.4111	12508.95
3053.80888	12488.95
3056.20519	12462.45
3058.60005	12429.55
3060.99345	12392.65
3063.3854	12388.15
3065.7759	12325.25
3068.16494	12292.55
3070.55254	12242.45
3072.93868	12234.35
3075.32338	12202.85
3077.70662	12197.25
3080.08842	12159.55
3082.46878	12109.45
3084.84769	12115.15
3087.22515	12101.15
3089.60118	12094.95
3091.97576	12079.65
3094.3489	12060.65
3096.72061	12062.65
3099.09087	12048.15
3101.4597	12026.35
3103.82709	12028.95
3106.19305	12015.95
3108.55757	12026.85
3110.92066	11969.55
3113.28232	11969.75
3115.64255	11914.05
3118.00134	11922.05
3120.35871	11864.65
3122.71466	11846.75
3125.06917	11823.75
3127.42226	11771.75
3129.77393	11769.55
3132.12417	11739.25
3134.47299	11723.55
3136.82039	11715.35
3139.16636	11741.55
3141.51092	11729.95
3143.85406	11724.25
3146.19579	11702.25
3148.53609	11701.75
3150.87499	11692.55
3153.21246	11703.65
3155.54853	11740.25
3157.88318	11712.05
3160.21642	11678.15
3162.54826	11715.55
3164.87868	11729.65
3167.2077	11709.45
3169.5353	11722.85
3171.86151	11684.35
3174.18631	11679.15
3176.5097	11648.55
3178.83169	11630.25
3181.15228	11629.25
3183.47147	11630.75
3185.78926	11595.15
3188.10565	11550.65
3190.42065	11565.85
3192.73424	11562.45
3195.04645	11508.35
3197.35725	11498.15
3199.66667	11476.65
3201.97469	11489.65
3204.28132	11508.45
3206.58656	11497.35
3208.8904	11469.65
3211.19287	11498.25
3213.49394	11509.65
3215.79363	11476.25
3218.09193	11479.95
3220.38884	11476.85
3222.68438	11480.55
3224.97853	11486.15
3227.2713	11487.25
3229.56269	11468.55
3231.8527	11438.85
3234.14133	11405.75
3236.42858	11383.85
3238.71446	11371.05
3240.99896	11314.55
3243.28209	11301.05
3245.56384	11295.95
3247.84423	11290.15
3250.12324	11267.35
3252.40088	11240.25
3254.67715	11230.75
3256.95205	11233.95
3259.22558	11224.15
3261.49775	11183.15
3263.76855	11189.35
3266.03799	11151.65
3268.30606	11123.55
3270.57277	11088.95
3272.83812	11086.95
3275.10211	11057.75
3277.36474	11034.95
3279.62601	11028.45
3281.88593	11012.35
3284.14448	11025.35
3286.40168	11027.15
3288.65753	11021.35
3290.91202	11007.45
3293.16516	10955.85
3295.41695	10951.65
3297.66738	10889.55
3299.91647	10810.75
3302.16421	10743.45
3304.4106	10690.45
3306.65564	10612.05
3308.89933	10547.05
3311.14169	10475.45
3313.38269	10354.35
3315.62236	10302.15
3317.86068	10217.05
3320.09766	10131.35
3322.3333	10047.75
3324.5676	9998.05
3326.80056	9819.35
3329.03219	9764.25
3331.26248	4.05
3333.49143	-0.25
3335.71905	0.35
