Data from AgNP_FTO_APTES_UA_10uM_CRN_1000uM_R6G_10uM_NaF_0.1M_Addition_RamanShift__23__19-48-01-006.txt Node

Date: Thu Feb 10 19:48:01 GMT 2022
User: TCL
Spectrometer: QEP01345
Trigger mode: 4
Integration Time (sec): 7.000000E0
Scans to average: 10
Electric dark correction enabled: true
Nonlinearity correction enabled: false
Boxcar width: 0
XAxis mode: Raman Shifts
Number of Pixels in Spectrum: 1044
>>>>>Begin Spectral Data<<<<<
46.04893	0.05
50.45542	-0.55
54.85868	-1.85
59.25871	-1.55
63.6555	65.35
68.04907	66.75
72.43941	73.05
76.82654	69.95
81.21044	76.75
85.59113	77.25
89.96862	81.15
94.34289	80.75
98.71396	85.55
103.08183	88.35
107.4465	91.95
111.80798	87.65
116.16626	94.65
120.52136	100.15
124.87327	104.45
129.222	107.85
133.56755	118.85
137.90993	126.55
142.24913	132.95
146.58517	154.05
150.91804	179.55
155.24774	213.25
159.57429	266.95
163.89768	342.25
168.21792	459.65
172.53501	622.85
176.84895	871.05
181.15975	1228.95
185.46741	1730.65
189.77193	2401.15
194.07331	3201.55
198.37157	4160.65
202.6667	5134.75
206.9587	6111.15
211.24758	7074.75
215.53334	8026.85
219.81599	9042.25
224.09553	10149.35
228.37195	11345.15
232.64527	12674.75
236.91549	14066.85
241.18261	15554.05
245.44663	16879.05
249.70755	18080.55
253.96539	19180.35
258.22014	20099.25
262.4718	20871.25
266.72039	21460.95
270.96589	21781.65
275.20832	21849.45
279.44768	21784.25
283.68397	21579.05
287.91719	21375.35
292.14735	21218.35
296.37445	21207.35
300.59849	21256.45
304.81948	21256.15
309.03742	21185.15
313.25231	20918.85
317.46415	20486.95
321.67296	19942.35
325.87872	19551.55
330.08145	19391.65
334.28114	19415.15
338.47781	19579.45
342.67145	19799.95
346.86207	20118.35
351.04966	20536.05
355.23424	20990.55
359.4158	21353.85
363.59435	21632.95
367.76989	21834.95
371.94243	21991.85
376.11196	22150.35
380.27849	22337.95
384.44203	22472.65
388.60257	22572.65
392.76012	22682.05
396.91468	22873.75
401.06626	23194.65
405.21485	23389.85
409.36047	23301.55
413.50311	23057.05
417.64277	22847.65
421.77947	22789.95
425.9132	22882.05
430.04396	23079.35
434.17176	23322.45
438.2966	23642.65
442.41849	24088.75
446.53742	24727.75
450.6534	25381.05
454.76644	25897.55
458.87653	26028.55
462.98368	25855.75
467.08789	25582.95
471.18916	25313.55
475.2875	25128.55
479.38291	25111.75
483.4754	25070.25
487.56496	24818.25
491.6516	24403.95
495.73531	23976.85
499.81612	23700.75
503.89401	23631.25
507.96899	23643.05
512.04106	23609.05
516.11023	23557.45
520.1765	23436.55
524.23987	23327.25
528.30034	23169.05
532.35792	23053.85
536.41261	22853.25
540.46441	22690.15
544.51333	22721.55
548.55936	22881.15
552.60252	23259.95
556.64279	23787.75
560.6802	24179.05
564.71473	24488.65
568.7464	24889.75
572.7752	25418.15
576.80114	25586.95
580.82422	25502.55
584.84444	25440.25
588.86181	25641.55
592.87633	26125.95
596.888	26323.05
600.89682	26143.95
604.9028	26399.55
608.90594	28119.15
612.90624	30220.85
616.90371	29011.95
620.89834	25132.35
624.89015	23289.35
628.87913	23023.75
632.86528	23057.85
636.84862	23149.45
640.82913	23009.75
644.80683	22615.05
648.78172	22259.75
652.75379	22154.05
656.72306	22315.45
660.68952	22671.05
664.65319	22575.35
668.61405	22280.95
672.57211	22233.35
676.52738	22293.75
680.47986	22308.05
684.42955	22243.15
688.37646	22229.45
692.32058	22253.25
696.26192	22413.15
700.20048	22601.05
704.13626	22696.45
708.06928	22667.45
711.99952	22583.75
715.927	22472.45
719.85171	22472.05
723.77365	22477.35
727.69284	22375.85
731.60928	22285.15
735.52295	22199.85
739.43388	22200.85
743.34206	22271.15
747.24749	22322.55
751.15017	22451.15
755.05012	22667.05
758.94733	23156.55
762.8418	23996.85
766.73354	25346.55
770.62254	26670.15
774.50882	27136.15
778.39237	26262.15
782.27321	24651.25
786.15132	23255.85
790.02671	22447.95
793.89938	22081.95
797.76935	21900.25
801.6366	21905.65
805.50115	21882.75
809.36299	21831.95
813.22213	21730.35
817.07857	21714.85
820.93231	21708.15
824.78336	21624.85
828.63172	21571.95
832.47738	21521.95
836.32036	21505.55
840.16066	21480.55
843.99827	21499.85
847.8332	21490.75
851.66546	21478.05
855.49504	21455.65
859.32195	21457.35
863.1462	21475.35
866.96777	21470.15
870.78668	21373.95
874.60293	21427.55
878.41652	21388.95
882.22745	21421.15
886.03573	21470.25
889.84136	21471.15
893.64433	21413.05
897.44466	21337.35
901.24235	21269.25
905.0374	21213.75
908.8298	21128.65
912.61957	21096.55
916.40671	21164.45
920.19121	21332.95
923.97308	21419.15
927.75233	21491.15
931.52895	21403.15
935.30295	21267.85
939.07433	20990.35
942.84309	20760.95
946.60924	20610.25
950.37278	20535.35
954.13371	20479.75
957.89203	20431.65
961.64774	20414.75
965.40086	20366.75
969.15137	20277.25
972.89929	20192.85
976.64461	20111.35
980.38733	20068.55
984.12747	20107.15
987.86502	20204.75
991.59999	20339.35
995.33237	20636.55
999.06217	20932.05
1002.78939	21344.65
1006.51404	21654.25
1010.23611	21784.35
1013.95561	21965.25
1017.67255	21967.55
1021.38692	21780.75
1025.09872	21554.85
1028.80796	21472.35
1032.51465	21628.85
1036.21877	21774.55
1039.92035	21781.05
1043.61937	21691.95
1047.31584	21507.35
1051.00976	21292.35
1054.70114	21228.55
1058.38998	21301.45
1062.07627	21355.05
1065.76003	21443.15
1069.44126	21499.35
1073.11995	21594.05
1076.79611	21700.45
1080.46974	21831.55
1084.14085	21925.55
1087.80943	22161.95
1091.47549	22263.05
1095.13903	22292.25
1098.80005	22109.75
1102.45857	21847.15
1106.11456	21669.65
1109.76805	21671.25
1113.41903	21771.55
1117.06751	21957.05
1120.71348	22185.65
1124.35696	22430.65
1127.99793	22622.45
1131.63641	22769.45
1135.2724	22634.55
1138.90589	22334.55
1142.5369	22245.45
1146.16542	22228.75
1149.79145	22330.75
1153.415	22485.55
1157.03607	22708.65
1160.65467	23139.45
1164.27079	23898.35
1167.88443	24850.75
1171.49561	26023.85
1175.10432	27632.15
1178.71056	29561.45
1182.31434	31432.75
1185.91565	32369.15
1189.51451	32307.65
1193.11091	31608.95
1196.70485	30672.55
1200.29634	29752.75
1203.88538	29014.95
1207.47197	28412.05
1211.05612	27839.55
1214.63782	27341.65
1218.21708	27026.75
1221.79391	26804.25
1225.36829	26532.15
1228.94024	26112.65
1232.50976	25613.95
1236.07685	25215.05
1239.6415	25116.75
1243.20374	25120.25
1246.76355	25282.45
1250.32093	25546.05
1253.8759	25893.15
1257.42845	26440.25
1260.97859	26988.05
1264.52631	27504.55
1268.07163	28063.85
1271.61453	28609.05
1275.15503	29187.25
1278.69312	29770.75
1282.22882	30224.15
1285.76211	30803.35
1289.29301	31569.25
1292.82151	32678.65
1296.34761	34140.05
1299.87133	35914.75
1303.39266	37797.35
1306.9116	39839.15
1310.42815	41966.55
1313.94233	43381.05
1317.45412	43628.85
1320.96354	43026.25
1324.47058	42244.25
1327.97525	41449.65
1331.47754	41054.65
1334.97747	40979.95
1338.47502	41199.65
1341.97022	41316.75
1345.46305	40909.55
1348.95352	40166.95
1352.44163	39564.95
1355.92738	39640.55
1359.41078	40570.55
1362.89183	41697.75
1366.37053	41091.95
1369.84688	37981.75
1373.32088	34387.35
1376.79254	32025.45
1380.26186	31122.25
1383.72883	31083.15
1387.19347	31270.25
1390.65578	31391.95
1394.11575	31663.25
1397.57339	32223.25
1401.0287	33132.05
1404.48168	34006.35
1407.93234	34409.95
1411.38068	34238.95
1414.82669	33411.65
1418.27039	32068.75
1421.71177	30575.35
1425.15083	29216.95
1428.58758	28403.15
1432.02203	28288.65
1435.45416	28664.85
1438.88399	29285.65
1442.31151	29927.95
1445.73673	30468.95
1449.15965	31036.65
1452.58027	31484.15
1455.9986	31679.45
1459.41463	31955.95
1462.82837	32259.15
1466.23982	32731.95
1469.64898	33111.55
1473.05586	33293.85
1476.46045	33188.55
1479.86276	32926.25
1483.26279	32460.35
1486.66054	32135.05
1490.05602	31967.15
1493.44922	31894.25
1496.84016	31765.65
1500.22882	31818.85
1503.61521	32238.25
1506.99934	33158.65
1510.38121	34195.65
1513.76081	34654.25
1517.13816	34064.15
1520.51324	32773.25
1523.88607	31541.25
1527.25665	30869.75
1530.62498	30710.25
1533.99105	30741.55
1537.35488	30834.65
1540.71647	30748.75
1544.07581	30474.85
1547.4329	30116.05
1550.78776	29656.25
1554.14038	29331.85
1557.49077	29182.25
1560.83892	29070.05
1564.18484	29047.45
1567.52853	29040.75
1570.86999	29185.55
1574.20922	29529.15
1577.54624	29853.05
1580.88103	30008.45
1584.2136	30176.95
1587.54395	30836.35
1590.87208	32021.65
1594.19801	33737.35
1597.52172	35465.85
1600.84321	36260.35
1604.16251	35284.35
1607.47959	33100.95
1610.79447	30438.65
1614.10715	27961.05
1617.41763	25916.25
1620.7259	24557.65
1624.03199	23710.45
1627.33587	23610.55
1630.63757	24065.55
1633.93707	25157.85
1637.23439	27040.75
1640.52951	29696.35
1643.82246	32706.35
1647.11321	35211.55
1650.40179	35912.05
1653.68819	34033.85
1656.97241	30364.85
1660.25446	26573.75
1663.53433	23708.55
1666.81203	21839.95
1670.08756	20612.45
1673.36092	19885.15
1676.63211	19391.25
1679.90115	19050.05
1683.16801	18768.45
1686.43272	18560.25
1689.69527	18443.85
1692.95567	18326.95
1696.2139	18266.05
1699.46999	18224.45
1702.72392	18123.05
1705.97571	18059.45
1709.22535	18040.85
1712.47284	17970.05
1715.71819	17927.25
1718.96139	17893.75
1722.20246	17852.95
1725.44139	17773.95
1728.67818	17686.95
1731.91284	17588.45
1735.14537	17512.55
1738.37576	17475.05
1741.60403	17432.25
1744.83017	17351.55
1748.05418	17334.05
1751.27607	17339.25
1754.49584	17266.45
1757.71349	17291.95
1760.92903	17257.95
1764.14244	17210.75
1767.35375	17232.25
1770.56294	17190.05
1773.77002	17141.95
1776.97499	17131.95
1780.17785	17085.25
1783.37861	17047.55
1786.57727	17024.85
1789.77382	16966.85
1792.96828	16942.75
1796.16064	16923.55
1799.3509	16896.75
1802.53907	16846.75
1805.72514	16805.35
1808.90913	16726.35
1812.09102	16702.45
1815.27083	16693.25
1818.44856	16657.95
1821.6242	16637.25
1824.79776	16584.25
1827.96924	16575.95
1831.13864	16535.65
1834.30597	16539.75
1837.47122	16509.05
1840.6344	16513.15
1843.7955	16463.45
1846.95454	16469.65
1850.11151	16479.75
1853.26642	16472.95
1856.41926	16457.35
1859.57004	16459.05
1862.71876	16438.95
1865.86542	16433.25
1869.01003	16387.35
1872.15258	16376.25
1875.29308	16390.85
1878.43152	16373.05
1881.56792	16367.75
1884.70227	16339.65
1887.83457	16318.45
1890.96482	16316.65
1894.09304	16263.85
1897.21921	16264.65
1900.34335	16262.55
1903.46544	16257.85
1906.58551	16241.95
1909.70353	16200.05
1912.81953	16230.45
1915.93349	16169.35
1919.04543	16149.15
1922.15534	16104.75
1925.26322	16061.65
1928.36908	16035.45
1931.47292	16011.75
1934.57473	16003.75
1937.67453	15958.25
1940.77232	15918.55
1943.86808	15861.65
1946.96184	15782.05
1950.05358	15756.85
1953.14331	15706.85
1956.23103	15649.25
1959.31675	15592.35
1962.40046	15568.25
1965.48217	15523.85
1968.56188	15469.75
1971.63959	15378.15
1974.7153	15389.65
1977.78901	15337.75
1980.86073	15266.65
1983.93046	15224.75
1986.99819	15189.55
1990.06394	15154.05
1993.1277	15076.65
1996.18947	15039.05
1999.24925	15023.55
2002.30706	14921.75
2005.36288	14901.15
2008.41672	14909.65
2011.46859	14814.95
2014.51848	14818.15
2017.56639	14764.45
2020.61233	14728.85
2023.6563	14669.45
2026.6983	14651.75
2029.73833	14644.05
2032.7764	14579.75
2035.8125	14559.95
2038.84664	14510.55
2041.87881	14474.25
2044.90903	14426.35
2047.93729	14435.55
2050.96359	14414.05
2053.98794	14420.85
2057.01034	14355.55
2060.03078	14348.85
2063.04927	14327.55
2066.06582	14335.15
2069.08042	14354.25
2072.09307	14333.15
2075.10378	14307.75
2078.11255	14295.75
2081.11938	14307.95
2084.12426	14280.05
2087.12722	14282.25
2090.12824	14243.45
2093.12732	14229.15
2096.12447	14237.05
2099.11969	14205.95
2102.11299	14220.55
2105.10435	14228.55
2108.09379	14243.75
2111.08131	14244.55
2114.0669	14238.85
2117.05057	14234.05
2120.03233	14241.15
2123.01216	14266.05
2125.99008	14274.35
2128.96609	14282.25
2131.94018	14329.55
2134.91236	14327.65
2137.88263	14343.55
2140.851	14304.55
2143.81746	14338.15
2146.78201	14297.05
2149.74466	14316.15
2152.7054	14315.45
2155.66425	14313.15
2158.6212	14295.45
2161.57625	14282.65
2164.52941	14273.25
2167.48067	14260.05
2170.43004	14286.95
2173.37752	14268.85
2176.32311	14247.65
2179.26681	14263.55
2182.20863	14253.95
2185.14856	14248.35
2188.08661	14224.85
2191.02278	14246.25
2193.95707	14262.15
2196.88948	14240.55
2199.82001	14236.25
2202.74867	14189.85
2205.67545	14164.15
2208.60037	14154.65
2211.52341	14178.15
2214.44458	14145.35
2217.36388	14117.55
2220.28132	14058.65
2223.1969	14031.95
2226.11061	14020.75
2229.02246	13974.15
2231.93245	13936.25
2234.84058	13899.95
2237.74686	13896.65
2240.65128	13895.45
2243.55385	13825.45
2246.45456	13820.95
2249.35343	13807.95
2252.25044	13770.65
2255.14561	13774.55
2258.03893	13779.55
2260.93041	13714.95
2263.82004	13684.65
2266.70783	13632.75
2269.59378	13597.95
2272.4779	13558.65
2275.36017	13522.15
2278.24061	13508.65
2281.11922	13500.05
2283.996	13501.65
2286.87094	13474.65
2289.74405	13437.65
2292.61534	13414.45
2295.4848	13434.65
2298.35243	13398.75
2301.21824	13383.75
2304.08223	13379.85
2306.94439	13392.85
2309.80474	13372.55
2312.66327	13361.35
2315.51999	13359.85
2318.37489	13333.85
2321.22797	13322.05
2324.07925	13296.65
2326.92871	13307.15
2329.77637	13267.85
2332.62222	13220.95
2335.46626	13224.85
2338.3085	13218.05
2341.14893	13199.25
2343.98756	13227.35
2346.8244	13188.35
2349.65943	13183.35
2352.49267	13192.75
2355.32411	13166.05
2358.15376	13170.35
2360.98161	13169.35
2363.80768	13151.95
2366.63195	13147.45
2369.45444	13113.15
2372.27514	13095.85
2375.09405	13078.95
2377.91118	13052.85
2380.72652	13012.55
2383.54009	12954.85
2386.35187	12960.65
2389.16188	12940.95
2391.97011	12904.65
2394.77657	12861.25
2397.58125	12861.15
2400.38416	12848.45
2403.18529	12825.45
2405.98466	12823.15
2408.78226	12775.05
2411.57809	12728.85
2414.37216	12723.05
2417.16446	12709.95
2419.955	12698.45
2422.74378	12677.35
2425.5308	12658.45
2428.31606	12653.55
2431.09956	12653.15
2433.88131	12594.75
2436.6613	12634.05
2439.43954	12618.95
2442.21603	12596.95
2444.99077	12584.65
2447.76377	12586.35
2450.53501	12576.05
2453.30451	12561.05
2456.07226	12554.55
2458.83827	12519.65
2461.60254	12550.15
2464.36507	12511.25
2467.12586	12518.15
2469.88492	12481.45
2472.64224	12497.15
2475.39782	12490.35
2478.15167	12524.25
2480.90379	12518.05
2483.65417	12512.85
2486.40283	12540.85
2489.14976	12503.75
2491.89497	12493.65
2494.63845	12517.45
2497.3802	12498.55
2500.12024	12478.65
2502.85855	12467.15
2505.59514	12439.15
2508.33002	12457.25
2511.06318	12430.85
2513.79462	12448.65
2516.52435	12388.05
2519.25237	12388.35
2521.97867	12368.35
2524.70327	12346.25
2527.42616	12370.55
2530.14734	12347.05
2532.86681	12317.05
2535.58458	12323.05
2538.30065	12354.55
2541.01501	12322.35
2543.72768	12332.35
2546.43864	12297.55
2549.14791	12265.45
2551.85548	12251.45
2554.56136	12220.45
2557.26554	12202.05
2559.96803	12182.25
2562.66883	12147.95
2565.36794	12134.55
2568.06536	12112.25
2570.7611	12081.55
2573.45514	12101.25
2576.14751	12057.95
2578.83819	12039.75
2581.52719	12043.35
2584.21451	12062.65
2586.90015	12032.85
2589.58411	11981.15
2592.2664	11994.25
2594.94701	11972.05
2597.62594	11990.15
2600.30321	11961.55
2602.9788	11965.55
2605.65273	11928.15
2608.32498	11935.45
2610.99557	11928.15
2613.66449	11938.55
2616.33175	11934.55
2618.99734	11926.55
2621.66128	11899.45
2624.32355	11888.95
2626.98416	11905.95
2629.64311	11875.25
2632.30041	11891.85
2634.95605	11853.55
2637.61004	11839.55
2640.26238	11802.35
2642.91306	11813.95
2645.56209	11829.15
2648.20948	11832.85
2650.85521	11792.45
2653.4993	11791.95
2656.14175	11819.05
2658.78255	11795.45
2661.42171	11801.35
2664.05923	11807.95
2666.6951	11818.25
2669.32934	11834.85
2671.96194	11810.55
2674.59291	11802.45
2677.22224	11806.55
2679.84993	11822.05
2682.476	11779.55
2685.10043	11771.55
2687.72324	11760.15
2690.34441	11763.85
2692.96396	11765.75
2695.58188	11787.95
2698.19818	11746.25
2700.81285	11763.05
2703.4259	11776.35
2706.03733	11780.85
2708.64714	11787.05
2711.25533	11783.35
2713.86191	11748.45
2716.46687	11795.05
2719.07021	11779.05
2721.67194	11808.55
2724.27206	11777.55
2726.87057	11792.45
2729.46747	11810.55
2732.06276	11799.85
2734.65644	11799.15
2737.24852	11822.85
2739.83899	11800.55
2742.42786	11794.75
2745.01513	11762.05
2747.60079	11743.15
2750.18486	11737.65
2752.76733	11723.65
2755.3482	11727.35
2757.92747	11723.65
2760.50515	11712.15
2763.08123	11682.55
2765.65573	11674.35
2768.22863	11657.75
2770.79994	11671.15
2773.36967	11654.15
2775.9378	11640.25
2778.50435	11678.35
2781.06932	11679.75
2783.6327	11646.05
2786.1945	11644.75
2788.75471	11634.25
2791.31335	11622.95
2793.87041	11629.65
2796.42589	11583.25
2798.97979	11572.35
2801.53212	11536.05
2804.08288	11529.95
2806.63206	11505.75
2809.17967	11468.85
2811.72571	11466.85
2814.27018	11434.95
2816.81308	11391.65
2819.35442	11392.45
2821.89419	11358.15
2824.43239	11365.45
2826.96904	11332.05
2829.50412	11320.15
2832.03763	11292.15
2834.56959	11291.25
2837.1	11315.15
2839.62884	11298.45
2842.15613	11309.85
2844.68186	11304.55
2847.20604	11345.75
2849.72867	11359.15
2852.24974	11346.65
2854.76927	11296.95
2857.28724	11283.25
2859.80367	11281.05
2862.31855	11233.95
2864.83189	11250.05
2867.34368	11185.05
2869.85393	11198.35
2872.36264	11194.95
2874.8698	11212.45
2877.37543	11204.25
2879.87952	11188.45
2882.38207	11203.35
2884.88308	11211.65
2887.38256	11197.95
2889.88051	11188.45
2892.37692	11197.85
2894.8718	11217.15
2897.36515	11229.55
2899.85698	11214.95
2902.34727	11249.45
2904.83604	11235.45
2907.32328	11261.35
2909.809	11239.05
2912.29319	11260.85
2914.77587	11259.95
2917.25702	11252.15
2919.73665	11228.25
2922.21476	11245.15
2924.69136	11221.15
2927.16644	11226.75
2929.64	11213.55
2932.11205	11200.25
2934.58258	11191.35
2937.05161	11186.45
2939.51912	11202.35
2941.98513	11161.65
2944.44962	11161.85
2946.91261	11105.55
2949.37409	11106.45
2951.83407	11099.55
2954.29254	11090.65
2956.74951	11083.05
2959.20498	11061.15
2961.65895	11047.95
2964.11142	11037.65
2966.56239	11041.55
2969.01186	11021.25
2971.45984	11004.65
2973.90632	10956.45
2976.35131	10932.85
2978.7948	10901.15
2981.23681	10857.95
2983.67732	10803.45
2986.11635	10811.65
2988.55388	10799.65
2990.98993	10775.95
2993.4245	10707.55
2995.85758	10714.75
2998.28917	10662.25
3000.71928	10664.65
3003.14791	10615.65
3005.57506	10651.15
3008.00073	10576.55
3010.42493	10566.45
3012.84764	10552.05
3015.26888	10527.95
3017.68865	10491.85
3020.10694	10491.25
3022.52376	10495.95
3024.9391	10466.45
3027.35298	10456.55
3029.76539	10430.05
3032.17632	10435.85
3034.5858	10457.65
3036.9938	10429.55
3039.40034	10445.45
3041.80542	10435.05
3044.20903	10401.65
3046.61118	10401.65
3049.01187	10388.85
3051.4111	10393.05
3053.80888	10319.55
3056.20519	10283.25
3058.60005	10287.05
3060.99345	10256.45
3063.3854	10229.35
3065.7759	10176.65
3068.16494	10181.55
3070.55254	10177.65
3072.93868	10142.55
3075.32338	10104.65
3077.70662	10083.85
3080.08842	10042.05
3082.46878	10043.45
3084.84769	10043.25
3087.22515	10018.45
3089.60118	10017.15
3091.97576	10018.95
3094.3489	9998.95
3096.72061	9995.15
3099.09087	10004.75
3101.4597	9970.85
3103.82709	9992.45
3106.19305	9947.65
3108.55757	9966.35
3110.92066	9947.05
3113.28232	9924.05
3115.64255	9882.25
3118.00134	9885.05
3120.35871	9854.95
3122.71466	9864.75
3125.06917	9851.95
3127.42226	9796.25
3129.77393	9804.25
3132.12417	9773.35
3134.47299	9796.35
3136.82039	9782.65
3139.16636	9780.85
3141.51092	9766.75
3143.85406	9761.45
3146.19579	9763.55
3148.53609	9747.15
3150.87499	9743.75
3153.21246	9756.25
3155.54853	9781.65
3157.88318	9770.15
3160.21642	9755.95
3162.54826	9740.45
3164.87868	9763.25
3167.2077	9750.75
3169.5353	9757.35
3171.86151	9726.35
3174.18631	9756.45
3176.5097	9745.65
3178.83169	9752.85
3181.15228	9751.35
3183.47147	9706.75
3185.78926	9730.75
3188.10565	9718.95
3190.42065	9699.25
3192.73424	9677.25
3195.04645	9679.15
3197.35725	9665.05
3199.66667	9678.85
3201.97469	9692.55
3204.28132	9666.35
3206.58656	9691.65
3208.8904	9686.75
3211.19287	9687.95
3213.49394	9668.65
3215.79363	9679.25
3218.09193	9682.25
3220.38884	9691.45
3222.68438	9673.35
3224.97853	9651.65
3227.2713	9637.45
3229.56269	9646.55
3231.8527	9635.45
3234.14133	9607.55
3236.42858	9622.85
3238.71446	9603.25
3240.99896	9559.05
3243.28209	9543.05
3245.56384	9558.65
3247.84423	9538.75
3250.12324	9542.95
3252.40088	9525.65
3254.67715	9494.55
3256.95205	9492.25
3259.22558	9480.35
3261.49775	9483.55
3263.76855	9466.65
3266.03799	9419.15
3268.30606	9416.25
3270.57277	9406.95
3272.83812	9397.25
3275.10211	9367.95
3277.36474	9346.15
3279.62601	9347.05
3281.88593	9302.75
3284.14448	9335.05
3286.40168	9323.25
3288.65753	9330.45
3290.91202	9307.75
3293.16516	9274.85
3295.41695	9297.75
3297.66738	9239.25
3299.91647	9174.95
3302.16421	9135.15
3304.4106	9049.35
3306.65564	9002.45
3308.89933	8921.65
3311.14169	8854.75
3313.38269	8807.95
3315.62236	8737.15
3317.86068	8653.55
3320.09766	8602.65
3322.3333	8516.45
3324.5676	8490.45
3326.80056	8365.55
3329.03219	8328.75
3331.26248	3.35
3333.49143	1.15
3335.71905	-1.45
