Data from AgNP_FTO_APTES_UA_10uM_CRN_10uM_R6G_10uM_NaF_0.1M_Addition_RamanShift__20__15-47-40-711.txt Node

Date: Thu Feb 10 15:47:40 GMT 2022
User: TCL
Spectrometer: QEP01345
Trigger mode: 4
Integration Time (sec): 7.000000E0
Scans to average: 10
Electric dark correction enabled: true
Nonlinearity correction enabled: false
Boxcar width: 0
XAxis mode: Raman Shifts
Number of Pixels in Spectrum: 1044
>>>>>Begin Spectral Data<<<<<
46.04893	-0.05
50.45542	-0.25
54.85868	-2.35
59.25871	-0.05
63.6555	72.55
68.04907	79.55
72.43941	84.05
76.82654	81.25
81.21044	88.05
85.59113	89.75
89.96862	90.95
94.34289	96.95
98.71396	97.85
103.08183	99.95
107.4465	105.05
111.80798	106.45
116.16626	111.85
120.52136	112.15
124.87327	123.75
129.222	127.35
133.56755	136.65
137.90993	147.25
142.24913	162.25
146.58517	182.45
150.91804	210.95
155.24774	248.75
159.57429	310.65
163.89768	404.35
168.21792	524.45
172.53501	723.95
176.84895	1011.25
181.15975	1419.15
185.46741	1989.05
189.77193	2742.95
194.07331	3658.55
198.37157	4732.55
202.6667	5820.65
206.9587	6914.55
211.24758	7997.95
215.53334	9069.25
219.81599	10206.65
224.09553	11468.75
228.37195	12848.95
232.64527	14392.05
236.91549	16016.15
241.18261	17642.55
245.44663	19163.65
249.70755	20537.35
253.96539	21750.75
258.22014	22830.35
262.4718	23687.55
266.72039	24357.05
270.96589	24759.55
275.20832	24926.35
279.44768	24891.25
283.68397	24793.35
287.91719	24666.25
292.14735	24590.95
296.37445	24635.95
300.59849	24705.25
304.81948	24669.95
309.03742	24494.45
313.25231	24138.35
317.46415	23457.85
321.67296	22762.65
325.87872	22221.95
330.08145	21967.65
334.28114	21965.55
338.47781	22148.35
342.67145	22442.45
346.86207	22840.65
351.04966	23324.65
355.23424	23846.45
359.4158	24244.75
363.59435	24526.05
367.76989	24736.85
371.94243	24888.55
376.11196	25020.15
380.27849	25137.15
384.44203	25285.05
388.60257	25402.75
392.76012	25632.75
396.91468	25924.45
401.06626	26331.95
405.21485	26645.85
409.36047	26511.95
413.50311	26124.65
417.64277	25841.75
421.77947	25762.65
425.9132	25919.75
430.04396	26103.75
434.17176	26323.45
438.2966	26548.85
442.41849	26999.85
446.53742	27643.95
450.6534	28396.65
454.76644	29052.15
458.87653	29335.75
462.98368	29266.05
467.08789	29008.85
471.18916	28626.35
475.2875	28266.05
479.38291	28067.65
483.4754	27851.15
487.56496	27499.85
491.6516	26939.95
495.73531	26528.95
499.81612	26398.95
503.89401	26484.55
507.96899	26592.55
512.04106	26461.05
516.11023	26330.95
520.1765	26114.35
524.23987	25918.85
528.30034	25652.05
532.35792	25419.35
536.41261	25110.65
540.46441	24898.15
544.51333	24968.45
548.55936	25394.45
552.60252	25911.15
556.64279	26516.15
560.6802	26903.95
564.71473	27120.65
568.7464	27465.85
572.7752	28044.85
576.80114	28458.65
580.82422	28699.65
584.84444	28868.85
588.86181	29071.85
592.87633	29272.35
596.888	29545.95
600.89682	29720.75
604.9028	30776.45
608.90594	33417.55
612.90624	36022.75
616.90371	33676.25
620.89834	28464.25
624.89015	26355.45
628.87913	26161.45
632.86528	26141.65
636.84862	25945.35
640.82913	25494.35
644.80683	24819.45
648.78172	24344.15
652.75379	24260.05
656.72306	24561.35
660.68952	24944.65
664.65319	24891.45
668.61405	24523.05
672.57211	24385.15
676.52738	24413.65
680.47986	24419.65
684.42955	24316.05
688.37646	24322.95
692.32058	24415.05
696.26192	24660.75
700.20048	24963.35
704.13626	25116.15
708.06928	25046.45
711.99952	24841.45
715.927	24782.25
719.85171	24776.25
723.77365	24689.35
727.69284	24452.65
731.60928	24221.65
735.52295	24145.45
739.43388	24141.65
743.34206	24226.95
747.24749	24392.35
751.15017	24630.35
755.05012	25090.15
758.94733	25874.35
762.8418	27206.95
766.73354	29228.55
770.62254	31005.55
774.50882	31291.15
778.39237	29774.65
782.27321	27527.65
786.15132	25817.15
790.02671	24808.15
793.89938	24322.95
797.76935	24145.95
801.6366	24086.65
805.50115	24074.45
809.36299	23896.85
813.22213	23738.15
817.07857	23645.75
820.93231	23621.85
824.78336	23489.65
828.63172	23440.15
832.47738	23449.25
836.32036	23486.35
840.16066	23638.05
843.99827	23694.25
847.8332	23649.35
851.66546	23537.15
855.49504	23475.65
859.32195	23446.25
863.1462	23348.55
866.96777	23279.15
870.78668	23156.85
874.60293	23183.65
878.41652	23162.65
882.22745	23207.35
886.03573	23275.05
889.84136	23252.35
893.64433	23136.55
897.44466	23072.55
901.24235	22981.95
905.0374	22910.45
908.8298	22938.45
912.61957	22983.75
916.40671	23196.85
920.19121	23550.45
923.97308	23794.05
927.75233	23867.75
931.52895	23722.45
935.30295	23461.95
939.07433	23019.85
942.84309	22705.95
946.60924	22545.75
950.37278	22508.75
954.13371	22423.75
957.89203	22286.95
961.64774	22243.45
965.40086	22150.65
969.15137	22097.35
972.89929	21995.45
976.64461	21978.85
980.38733	21965.05
984.12747	22066.25
987.86502	22262.85
991.59999	22627.15
995.33237	23110.45
999.06217	23844.55
1002.78939	24771.45
1006.51404	25233.25
1010.23611	25496.85
1013.95561	25705.85
1017.67255	25665.15
1021.38692	25364.75
1025.09872	25187.05
1028.80796	25433.45
1032.51465	26242.65
1036.21877	26977.85
1039.92035	27083.05
1043.61937	26633.15
1047.31584	25863.65
1051.00976	25078.85
1054.70114	24724.75
1058.38998	24727.35
1062.07627	24858.25
1065.76003	24948.15
1069.44126	25086.75
1073.11995	25286.55
1076.79611	25555.75
1080.46974	25671.65
1084.14085	25934.75
1087.80943	26196.65
1091.47549	26351.55
1095.13903	26244.45
1098.80005	25978.05
1102.45857	25458.25
1106.11456	25132.85
1109.76805	25084.45
1113.41903	25223.35
1117.06751	25417.65
1120.71348	25726.25
1124.35696	25966.25
1127.99793	26185.55
1131.63641	26315.45
1135.2724	26205.55
1138.90589	25965.25
1142.5369	25883.75
1146.16542	25871.75
1149.79145	26003.45
1153.415	26198.35
1157.03607	26634.05
1160.65467	27348.05
1164.27079	28442.65
1167.88443	29894.35
1171.49561	31786.25
1175.10432	34209.55
1178.71056	37270.75
1182.31434	40092.25
1185.91565	41831.15
1189.51451	42033.65
1193.11091	40873.25
1196.70485	39074.35
1200.29634	37257.45
1203.88538	35838.35
1207.47197	34689.15
1211.05612	33825.35
1214.63782	33171.15
1218.21708	32763.65
1221.79391	32562.15
1225.36829	32475.75
1228.94024	32136.45
1232.50976	31634.55
1236.07685	31199.45
1239.6415	31003.85
1243.20374	30902.85
1246.76355	31080.15
1250.32093	31535.25
1253.8759	32327.35
1257.42845	33310.15
1260.97859	34204.55
1264.52631	35041.75
1268.07163	35942.15
1271.61453	37072.95
1275.15503	38206.85
1278.69312	39398.35
1282.22882	40350.35
1285.76211	41170.45
1289.29301	41960.35
1292.82151	43232.25
1296.34761	44865.55
1299.87133	47168.25
1303.39266	50032.45
1306.9116	53301.55
1310.42815	56430.15
1313.94233	58553.45
1317.45412	58788.55
1320.96354	57899.65
1324.47058	56920.45
1327.97525	55873.65
1331.47754	55227.85
1334.97747	55200.05
1338.47502	55546.85
1341.97022	55854.85
1345.46305	55418.95
1348.95352	54254.95
1352.44163	53076.45
1355.92738	52922.05
1359.41078	54378.55
1362.89183	55760.25
1366.37053	54257.55
1369.84688	49850.45
1373.32088	45112.65
1376.79254	41981.55
1380.26186	40663.35
1383.72883	40498.75
1387.19347	40430.45
1390.65578	40185.15
1394.11575	40368.85
1397.57339	40981.75
1401.0287	41944.25
1404.48168	42892.55
1407.93234	43478.85
1411.38068	43426.65
1414.82669	42404.25
1418.27039	40701.75
1421.71177	38783.15
1425.15083	37177.25
1428.58758	36280.15
1432.02203	36181.35
1435.45416	36725.65
1438.88399	37586.05
1442.31151	38387.15
1445.73673	39034.95
1449.15965	39678.55
1452.58027	40109.45
1455.9986	40425.15
1459.41463	40835.65
1462.82837	41452.15
1466.23982	42295.55
1469.64898	43058.55
1473.05586	43408.25
1476.46045	43321.15
1479.86276	43004.25
1483.26279	42635.25
1486.66054	42399.85
1490.05602	42382.95
1493.44922	42552.05
1496.84016	42613.95
1500.22882	42972.15
1503.61521	43808.35
1506.99934	45069.45
1510.38121	46330.45
1513.76081	46873.35
1517.13816	46115.35
1520.51324	44552.75
1523.88607	43080.35
1527.25665	42076.55
1530.62498	41617.35
1533.99105	41493.15
1537.35488	41401.75
1540.71647	41141.65
1544.07581	40620.75
1547.4329	39955.85
1550.78776	39277.35
1554.14038	38812.95
1557.49077	38565.45
1560.83892	38444.05
1564.18484	38328.25
1567.52853	38174.65
1570.86999	38114.25
1574.20922	38406.35
1577.54624	38795.05
1580.88103	38947.55
1584.2136	39226.85
1587.54395	40406.15
1590.87208	42405.55
1594.19801	45077.15
1597.52172	47754.45
1600.84321	48578.25
1604.16251	46680.95
1607.47959	43238.05
1610.79447	39490.55
1614.10715	36089.15
1617.41763	33261.05
1620.7259	31251.95
1624.03199	30237.25
1627.33587	30133.65
1630.63757	31024.85
1633.93707	32952.95
1637.23439	35907.55
1640.52951	39681.25
1643.82246	43587.75
1647.11321	46179.65
1650.40179	46155.15
1653.68819	43029.35
1656.97241	37861.45
1660.25446	32792.05
1663.53433	28999.45
1666.81203	26457.85
1670.08756	24844.25
1673.36092	23827.65
1676.63211	23124.15
1679.90115	22672.35
1683.16801	22277.95
1686.43272	22025.55
1689.69527	21809.25
1692.95567	21635.75
1696.2139	21563.05
1699.46999	21495.65
1702.72392	21387.65
1705.97571	21336.75
1709.22535	21237.55
1712.47284	21191.35
1715.71819	21156.15
1718.96139	21076.05
1722.20246	21016.75
1725.44139	20932.35
1728.67818	20822.35
1731.91284	20658.75
1735.14537	20537.65
1738.37576	20482.95
1741.60403	20372.05
1744.83017	20329.95
1748.05418	20274.15
1751.27607	20270.15
1754.49584	20227.25
1757.71349	20216.25
1760.92903	20190.75
1764.14244	20140.95
1767.35375	20147.05
1770.56294	20140.95
1773.77002	20083.35
1776.97499	20061.65
1780.17785	19996.55
1783.37861	19968.65
1786.57727	19947.05
1789.77382	19882.15
1792.96828	19862.25
1796.16064	19860.85
1799.3509	19824.45
1802.53907	19778.95
1805.72514	19749.85
1808.90913	19662.25
1812.09102	19641.85
1815.27083	19645.65
1818.44856	19554.65
1821.6242	19549.55
1824.79776	19559.95
1827.96924	19512.05
1831.13864	19512.95
1834.30597	19557.15
1837.47122	19529.45
1840.6344	19554.65
1843.7955	19553.25
1846.95454	19519.85
1850.11151	19573.85
1853.26642	19554.55
1856.41926	19547.95
1859.57004	19548.05
1862.71876	19557.55
1865.86542	19563.75
1869.01003	19538.05
1872.15258	19534.75
1875.29308	19540.45
1878.43152	19553.85
1881.56792	19524.55
1884.70227	19551.65
1887.83457	19504.65
1890.96482	19518.85
1894.09304	19514.75
1897.21921	19513.05
1900.34335	19474.95
1903.46544	19490.35
1906.58551	19513.15
1909.70353	19479.65
1912.81953	19430.95
1915.93349	19449.15
1919.04543	19390.05
1922.15534	19341.95
1925.26322	19267.05
1928.36908	19211.95
1931.47292	19169.35
1934.57473	19121.85
1937.67453	19046.55
1940.77232	19038.15
1943.86808	18913.95
1946.96184	18796.15
1950.05358	18731.35
1953.14331	18685.55
1956.23103	18610.15
1959.31675	18541.85
1962.40046	18489.95
1965.48217	18446.95
1968.56188	18399.75
1971.63959	18351.65
1974.7153	18270.85
1977.78901	18218.15
1980.86073	18191.45
1983.93046	18137.65
1986.99819	18075.05
1990.06394	17996.45
1993.1277	18004.65
1996.18947	17894.75
1999.24925	17828.85
2002.30706	17810.35
2005.36288	17774.85
2008.41672	17706.35
2011.46859	17652.75
2014.51848	17620.05
2017.56639	17616.95
2020.61233	17535.35
2023.6563	17478.15
2026.6983	17444.05
2029.73833	17428.05
2032.7764	17396.15
2035.8125	17363.45
2038.84664	17341.75
2041.87881	17301.45
2044.90903	17247.55
2047.93729	17218.15
2050.96359	17248.65
2053.98794	17196.65
2057.01034	17193.45
2060.03078	17215.15
2063.04927	17174.85
2066.06582	17159.35
2069.08042	17170.15
2072.09307	17140.15
2075.10378	17087.35
2078.11255	17111.75
2081.11938	17088.95
2084.12426	17072.05
2087.12722	17083.55
2090.12824	17026.75
2093.12732	17040.95
2096.12447	17038.55
2099.11969	17024.85
2102.11299	17010.65
2105.10435	17033.25
2108.09379	17030.45
2111.08131	17051.05
2114.0669	17002.05
2117.05057	17031.85
2120.03233	17047.15
2123.01216	17097.75
2125.99008	17121.65
2128.96609	17115.65
2131.94018	17138.45
2134.91236	17150.65
2137.88263	17134.05
2140.851	17149.35
2143.81746	17172.15
2146.78201	17158.95
2149.74466	17174.25
2152.7054	17149.55
2155.66425	17163.65
2158.6212	17155.75
2161.57625	17137.15
2164.52941	17192.65
2167.48067	17135.05
2170.43004	17126.55
2173.37752	17097.05
2176.32311	17122.95
2179.26681	17138.65
2182.20863	17121.45
2185.14856	17118.65
2188.08661	17125.85
2191.02278	17154.95
2193.95707	17148.35
2196.88948	17136.55
2199.82001	17121.85
2202.74867	17128.15
2205.67545	17109.15
2208.60037	17107.15
2211.52341	17116.15
2214.44458	17067.45
2217.36388	17041.95
2220.28132	17037.85
2223.1969	16988.45
2226.11061	17001.15
2229.02246	16941.25
2231.93245	16886.45
2234.84058	16851.85
2237.74686	16834.25
2240.65128	16812.35
2243.55385	16761.65
2246.45456	16743.95
2249.35343	16715.75
2252.25044	16733.75
2255.14561	16674.05
2258.03893	16694.25
2260.93041	16635.85
2263.82004	16570.95
2266.70783	16556.05
2269.59378	16457.35
2272.4779	16450.15
2275.36017	16421.25
2278.24061	16357.65
2281.11922	16352.05
2283.996	16356.05
2286.87094	16338.55
2289.74405	16346.45
2292.61534	16321.75
2295.4848	16292.05
2298.35243	16327.75
2301.21824	16305.45
2304.08223	16324.15
2306.94439	16337.35
2309.80474	16354.05
2312.66327	16362.35
2315.51999	16359.25
2318.37489	16359.05
2321.22797	16344.65
2324.07925	16345.15
2326.92871	16299.35
2329.77637	16292.85
2332.62222	16312.75
2335.46626	16262.55
2338.3085	16283.35
2341.14893	16282.95
2343.98756	16315.85
2346.8244	16308.15
2349.65943	16318.65
2352.49267	16306.15
2355.32411	16316.95
2358.15376	16316.75
2360.98161	16293.75
2363.80768	16307.35
2366.63195	16278.15
2369.45444	16204.25
2372.27514	16166.75
2375.09405	16169.35
2377.91118	16088.25
2380.72652	16086.75
2383.54009	16040.95
2386.35187	16029.45
2389.16188	15948.45
2391.97011	15942.55
2394.77657	15921.85
2397.58125	15920.45
2400.38416	15897.25
2403.18529	15839.95
2405.98466	15816.35
2408.78226	15788.35
2411.57809	15769.15
2414.37216	15755.95
2417.16446	15707.85
2419.955	15693.55
2422.74378	15682.95
2425.5308	15652.85
2428.31606	15664.75
2431.09956	15687.35
2433.88131	15668.75
2436.6613	15663.45
2439.43954	15668.75
2442.21603	15639.45
2444.99077	15618.95
2447.76377	15636.55
2450.53501	15636.75
2453.30451	15623.45
2456.07226	15611.55
2458.83827	15620.25
2461.60254	15636.85
2464.36507	15597.35
2467.12586	15568.35
2469.88492	15573.55
2472.64224	15602.65
2475.39782	15587.05
2478.15167	15635.15
2480.90379	15658.15
2483.65417	15654.45
2486.40283	15674.55
2489.14976	15690.15
2491.89497	15724.05
2494.63845	15719.15
2497.3802	15721.55
2500.12024	15714.25
2502.85855	15719.85
2505.59514	15698.95
2508.33002	15650.95
2511.06318	15650.85
2513.79462	15651.75
2516.52435	15616.75
2519.25237	15608.55
2521.97867	15585.55
2524.70327	15598.65
2527.42616	15595.05
2530.14734	15599.65
2532.86681	15584.95
2535.58458	15564.75
2538.30065	15559.95
2541.01501	15576.55
2543.72768	15569.95
2546.43864	15574.85
2549.14791	15538.65
2551.85548	15532.65
2554.56136	15516.75
2557.26554	15513.15
2559.96803	15502.85
2562.66883	15453.95
2565.36794	15463.65
2568.06536	15412.05
2570.7611	15425.55
2573.45514	15439.25
2576.14751	15425.85
2578.83819	15414.35
2581.52719	15414.65
2584.21451	15433.25
2586.90015	15411.45
2589.58411	15392.55
2592.2664	15384.55
2594.94701	15393.35
2597.62594	15437.65
2600.30321	15379.35
2602.9788	15400.05
2605.65273	15381.75
2608.32498	15385.45
2610.99557	15379.25
2613.66449	15412.15
2616.33175	15382.75
2618.99734	15425.35
2621.66128	15388.45
2624.32355	15417.15
2626.98416	15436.05
2629.64311	15418.95
2632.30041	15388.75
2634.95605	15396.15
2637.61004	15386.35
2640.26238	15360.65
2642.91306	15345.55
2645.56209	15319.65
2648.20948	15323.15
2650.85521	15305.85
2653.4993	15311.65
2656.14175	15296.55
2658.78255	15337.35
2661.42171	15311.85
2664.05923	15353.55
2666.6951	15369.65
2669.32934	15402.65
2671.96194	15382.35
2674.59291	15405.05
2677.22224	15388.35
2679.84993	15394.35
2682.476	15371.85
2685.10043	15397.25
2687.72324	15344.25
2690.34441	15364.15
2692.96396	15342.55
2695.58188	15325.85
2698.19818	15327.85
2700.81285	15354.25
2703.4259	15346.05
2706.03733	15353.05
2708.64714	15311.65
2711.25533	15327.75
2713.86191	15322.35
2716.46687	15373.15
2719.07021	15327.65
2721.67194	15382.85
2724.27206	15366.85
2726.87057	15393.85
2729.46747	15413.85
2732.06276	15416.85
2734.65644	15397.95
2737.24852	15393.75
2739.83899	15400.65
2742.42786	15438.85
2745.01513	15377.85
2747.60079	15390.95
2750.18486	15364.45
2752.76733	15368.35
2755.3482	15378.35
2757.92747	15371.55
2760.50515	15340.75
2763.08123	15348.45
2765.65573	15329.95
2768.22863	15339.65
2770.79994	15341.85
2773.36967	15358.15
2775.9378	15360.45
2778.50435	15366.15
2781.06932	15358.15
2783.6327	15335.75
2786.1945	15369.35
2788.75471	15360.35
2791.31335	15306.45
2793.87041	15301.65
2796.42589	15297.35
2798.97979	15266.25
2801.53212	15226.65
2804.08288	15226.35
2806.63206	15176.05
2809.17967	15160.35
2811.72571	15145.45
2814.27018	15119.35
2816.81308	15077.65
2819.35442	15091.15
2821.89419	15042.05
2824.43239	15021.05
2826.96904	15010.05
2829.50412	15022.45
2832.03763	15017.35
2834.56959	15013.75
2837.1	14974.25
2839.62884	14961.65
2842.15613	14954.35
2844.68186	14956.15
2847.20604	14957.75
2849.72867	14943.85
2852.24974	14940.65
2854.76927	14921.65
2857.28724	14906.85
2859.80367	14898.05
2862.31855	14886.85
2864.83189	14855.75
2867.34368	14825.35
2869.85393	14858.25
2872.36264	14851.75
2874.8698	14814.35
2877.37543	14840.15
2879.87952	14840.75
2882.38207	14861.65
2884.88308	14842.25
2887.38256	14849.25
2889.88051	14881.05
2892.37692	14878.15
2894.8718	14874.15
2897.36515	14906.35
2899.85698	14903.85
2902.34727	14944.85
2904.83604	14939.95
2907.32328	14997.65
2909.809	15006.65
2912.29319	14985.15
2914.77587	14953.65
2917.25702	14969.55
2919.73665	14932.15
2922.21476	14958.85
2924.69136	14935.65
2927.16644	14947.45
2929.64	14897.95
2932.11205	14889.35
2934.58258	14820.45
2937.05161	14827.15
2939.51912	14816.45
2941.98513	14779.25
2944.44962	14778.15
2946.91261	14788.35
2949.37409	14778.15
2951.83407	14772.45
2954.29254	14766.35
2956.74951	14762.15
2959.20498	14727.05
2961.65895	14730.55
2964.11142	14744.25
2966.56239	14686.55
2969.01186	14690.35
2971.45984	14685.85
2973.90632	14620.35
2976.35131	14615.65
2978.7948	14566.55
2981.23681	14519.95
2983.67732	14572.45
2986.11635	14482.05
2988.55388	14450.85
2990.98993	14400.05
2993.4245	14380.35
2995.85758	14355.45
2998.28917	14297.85
3000.71928	14273.05
3003.14791	14258.65
3005.57506	14252.95
3008.00073	14192.45
3010.42493	14061.85
3012.84764	14115.55
3015.26888	14116.65
3017.68865	14095.45
3020.10694	14065.65
3022.52376	14053.95
3024.9391	14042.95
3027.35298	14043.35
3029.76539	14037.15
3032.17632	14022.85
3034.5858	14003.65
3036.9938	13993.25
3039.40034	13991.75
3041.80542	14013.75
3044.20903	13982.95
3046.61118	13946.85
3049.01187	13930.55
3051.4111	13898.45
3053.80888	13874.05
3056.20519	13831.75
3058.60005	13795.25
3060.99345	13785.35
3063.3854	13753.85
3065.7759	13702.85
3068.16494	13674.05
3070.55254	13597.65
3072.93868	13607.35
3075.32338	13560.75
3077.70662	13534.25
3080.08842	13517.65
3082.46878	13471.95
3084.84769	13443.45
3087.22515	13470.55
3089.60118	13472.85
3091.97576	13459.05
3094.3489	13459.85
3096.72061	13450.75
3099.09087	13427.45
3101.4597	13440.35
3103.82709	13451.25
3106.19305	13398.45
3108.55757	13377.45
3110.92066	13343.85
3113.28232	13356.35
3115.64255	13294.65
3118.00134	13292.45
3120.35871	13257.95
3122.71466	13241.45
3125.06917	13197.25
3127.42226	13186.75
3129.77393	13174.05
3132.12417	13152.65
3134.47299	13123.95
3136.82039	13147.45
3139.16636	13149.45
3141.51092	13146.95
3143.85406	13108.65
3146.19579	13075.65
3148.53609	13102.85
3150.87499	13109.95
3153.21246	13107.15
3155.54853	13158.85
3157.88318	13127.55
3160.21642	13154.95
3162.54826	13125.65
3164.87868	13134.95
3167.2077	13144.55
3169.5353	13141.25
3171.86151	13162.65
3174.18631	13133.25
3176.5097	13140.35
3178.83169	13111.25
3181.15228	13091.95
3183.47147	13073.55
3185.78926	13074.85
3188.10565	13057.65
3190.42065	13049.05
3192.73424	13040.05
3195.04645	13023.45
3197.35725	13022.85
3199.66667	13029.25
3201.97469	13053.05
3204.28132	13022.85
3206.58656	13065.35
3208.8904	13033.95
3211.19287	13052.75
3213.49394	13046.85
3215.79363	13026.15
3218.09193	13054.95
3220.38884	13033.45
3222.68438	13077.65
3224.97853	13038.75
3227.2713	13002.65
3229.56269	12996.45
3231.8527	13032.45
3234.14133	12997.05
3236.42858	12966.35
3238.71446	12956.35
3240.99896	12899.75
3243.28209	12895.35
3245.56384	12913.15
3247.84423	12902.95
3250.12324	12881.05
3252.40088	12878.75
3254.67715	12845.45
3256.95205	12855.25
3259.22558	12840.65
3261.49775	12825.35
3263.76855	12835.15
3266.03799	12794.65
3268.30606	12785.75
3270.57277	12771.75
3272.83812	12719.35
3275.10211	12691.05
3277.36474	12690.15
3279.62601	12667.95
3281.88593	12632.75
3284.14448	12639.05
3286.40168	12645.75
3288.65753	12653.55
3290.91202	12649.85
3293.16516	12574.95
3295.41695	12572.85
3297.66738	12531.05
3299.91647	12481.95
3302.16421	12395.35
3304.4106	12338.35
3306.65564	12226.35
3308.89933	12151.75
3311.14169	12066.35
3313.38269	11960.95
3315.62236	11904.35
3317.86068	11797.45
3320.09766	11680.05
3322.3333	11637.65
3324.5676	11555.75
3326.80056	11385.95
3329.03219	11306.75
3331.26248	5.35
3333.49143	0.25
3335.71905	-2.45
