Data from AgNP_FTO_APTES_UA_10uM_CRN_200uM_R6G_10uM_NaF_0.1M_Addition_RamanShift__28__18-33-20-916.txt Node

Date: Thu Feb 10 18:33:20 GMT 2022
User: TCL
Spectrometer: QEP01345
Trigger mode: 4
Integration Time (sec): 7.000000E0
Scans to average: 10
Electric dark correction enabled: true
Nonlinearity correction enabled: false
Boxcar width: 0
XAxis mode: Raman Shifts
Number of Pixels in Spectrum: 1044
>>>>>Begin Spectral Data<<<<<
46.04893	-0.65
50.45542	-0.25
54.85868	-1.35
59.25871	-0.85
63.6555	68.15
68.04907	71.95
72.43941	74.75
76.82654	72.05
81.21044	84.25
85.59113	80.55
89.96862	83.75
94.34289	91.45
98.71396	89.35
103.08183	95.35
107.4465	101.05
111.80798	95.85
116.16626	99.85
120.52136	100.35
124.87327	108.75
129.222	114.55
133.56755	122.85
137.90993	128.65
142.24913	138.85
146.58517	154.35
150.91804	184.25
155.24774	214.45
159.57429	268.35
163.89768	342.95
168.21792	454.15
172.53501	613.35
176.84895	857.85
181.15975	1205.35
185.46741	1690.35
189.77193	2351.25
194.07331	3148.15
198.37157	4069.15
202.6667	5050.95
206.9587	6000.15
211.24758	6952.55
215.53334	7932.25
219.81599	8975.85
224.09553	10109.65
228.37195	11398.25
232.64527	12773.45
236.91549	14260.45
241.18261	15704.25
245.44663	16974.85
249.70755	18092.15
253.96539	19086.25
258.22014	19966.35
262.4718	20657.95
266.72039	21240.15
270.96589	21574.75
275.20832	21641.85
279.44768	21491.95
283.68397	21227.55
287.91719	21034.85
292.14735	20909.55
296.37445	21079.45
300.59849	21410.65
304.81948	21827.15
309.03742	22070.15
313.25231	21903.85
317.46415	21228.15
321.67296	20226.35
325.87872	19368.05
330.08145	18994.55
334.28114	19016.55
338.47781	19213.95
342.67145	19622.65
346.86207	20155.75
351.04966	20874.35
355.23424	21674.25
359.4158	22365.45
363.59435	22774.65
367.76989	22982.65
371.94243	23090.95
376.11196	23170.25
380.27849	23203.35
384.44203	23202.65
388.60257	23124.45
392.76012	23119.35
396.91468	23244.65
401.06626	23660.25
405.21485	23982.85
409.36047	23786.15
413.50311	23130.65
417.64277	22463.05
421.77947	22117.95
425.9132	22093.55
430.04396	22150.15
434.17176	22308.95
438.2966	22586.85
442.41849	23091.05
446.53742	23675.05
450.6534	24303.05
454.76644	24772.25
458.87653	24870.95
462.98368	24772.75
467.08789	24428.05
471.18916	24081.85
475.2875	23724.65
479.38291	23487.65
483.4754	23221.65
487.56496	22917.45
491.6516	22641.05
495.73531	22331.35
499.81612	22246.75
503.89401	22389.35
507.96899	22520.45
512.04106	22692.95
516.11023	22848.25
520.1765	22959.65
524.23987	22881.65
528.30034	22660.65
532.35792	22430.45
536.41261	22198.15
540.46441	21959.05
544.51333	21825.45
548.55936	21973.95
552.60252	22306.75
556.64279	22735.65
560.6802	22999.55
564.71473	23200.75
568.7464	23758.35
572.7752	24261.75
576.80114	23986.45
580.82422	23496.75
584.84444	23250.85
588.86181	23364.05
592.87633	23670.25
596.888	23958.05
600.89682	24222.85
604.9028	25555.65
608.90594	29504.15
612.90624	34951.35
616.90371	33915.15
620.89834	26635.05
624.89015	23208.45
628.87913	22622.55
632.86528	22576.15
636.84862	22648.65
640.82913	22415.65
644.80683	21807.65
648.78172	21399.95
652.75379	21375.95
656.72306	21831.35
660.68952	22481.55
664.65319	22399.95
668.61405	21803.15
672.57211	21530.35
676.52738	21561.05
680.47986	21587.55
684.42955	21482.85
688.37646	21452.05
692.32058	21485.45
696.26192	21618.65
700.20048	21803.15
704.13626	21920.95
708.06928	21849.15
711.99952	21720.35
715.927	21664.55
719.85171	21710.55
723.77365	21714.35
727.69284	21620.65
731.60928	21537.45
735.52295	21501.95
739.43388	21526.15
743.34206	21563.85
747.24749	21639.65
751.15017	21742.35
755.05012	22010.15
758.94733	22654.45
762.8418	23987.55
766.73354	26270.95
770.62254	28742.55
774.50882	30030.55
778.39237	29045.55
782.27321	26328.25
786.15132	23865.85
790.02671	22437.45
793.89938	21802.25
797.76935	21492.85
801.6366	21408.75
805.50115	21341.75
809.36299	21269.15
813.22213	21205.95
817.07857	21196.45
820.93231	21193.85
824.78336	21265.05
828.63172	21269.15
832.47738	21304.25
836.32036	21255.25
840.16066	21267.05
843.99827	21218.55
847.8332	21209.25
851.66546	21165.45
855.49504	21130.35
859.32195	21148.75
863.1462	21080.25
866.96777	20984.45
870.78668	20990.35
874.60293	20994.85
878.41652	21017.05
882.22745	21110.55
886.03573	21170.65
889.84136	21136.25
893.64433	21043.85
897.44466	20990.75
901.24235	20929.45
905.0374	20919.35
908.8298	20860.85
912.61957	20819.25
916.40671	20906.65
920.19121	21040.25
923.97308	21157.75
927.75233	21307.85
931.52895	21443.65
935.30295	21290.65
939.07433	20945.85
942.84309	20597.55
946.60924	20410.45
950.37278	20298.95
954.13371	20177.55
957.89203	20106.85
961.64774	20049.75
965.40086	19991.75
969.15137	19924.15
972.89929	19844.45
976.64461	19828.75
980.38733	19839.15
984.12747	19930.05
987.86502	20017.65
991.59999	20195.25
995.33237	20452.85
999.06217	20910.15
1002.78939	21412.25
1006.51404	21802.85
1010.23611	21956.85
1013.95561	22142.25
1017.67255	22156.85
1021.38692	21931.05
1025.09872	21769.65
1028.80796	21843.95
1032.51465	22163.65
1036.21877	22513.65
1039.92035	22579.05
1043.61937	22369.15
1047.31584	22022.45
1051.00976	21648.85
1054.70114	21460.05
1058.38998	21418.75
1062.07627	21463.65
1065.76003	21523.75
1069.44126	21522.75
1073.11995	21598.95
1076.79611	21732.45
1080.46974	21927.65
1084.14085	22179.05
1087.80943	22564.55
1091.47549	22732.25
1095.13903	22569.25
1098.80005	22147.75
1102.45857	21789.05
1106.11456	21660.85
1109.76805	21735.25
1113.41903	22014.75
1117.06751	22408.05
1120.71348	22896.95
1124.35696	23323.75
1127.99793	23784.15
1131.63641	23822.45
1135.2724	23279.35
1138.90589	22656.05
1142.5369	22297.95
1146.16542	22051.85
1149.79145	21973.75
1153.415	22003.65
1157.03607	22137.85
1160.65467	22496.35
1164.27079	23092.55
1167.88443	23982.55
1171.49561	25279.15
1175.10432	27352.75
1178.71056	30024.15
1182.31434	32300.05
1185.91565	33233.55
1189.51451	32876.55
1193.11091	31526.45
1196.70485	29842.35
1200.29634	28497.45
1203.88538	27477.95
1207.47197	26455.75
1211.05612	25588.55
1214.63782	25024.85
1218.21708	24878.05
1221.79391	24864.25
1225.36829	24885.65
1228.94024	24726.05
1232.50976	24452.75
1236.07685	24317.75
1239.6415	24312.75
1243.20374	24437.15
1246.76355	24630.35
1250.32093	24950.05
1253.8759	25497.25
1257.42845	26088.25
1260.97859	26659.65
1264.52631	27162.05
1268.07163	27676.05
1271.61453	28195.85
1275.15503	28707.05
1278.69312	29074.05
1282.22882	29324.95
1285.76211	29735.55
1289.29301	30381.85
1292.82151	31188.95
1296.34761	32125.15
1299.87133	33492.55
1303.39266	35509.15
1306.9116	38252.95
1310.42815	41477.95
1313.94233	43527.25
1317.45412	43418.15
1320.96354	41660.55
1324.47058	39567.65
1327.97525	37735.85
1331.47754	36473.35
1334.97747	36093.15
1338.47502	36446.95
1341.97022	37045.15
1345.46305	37511.05
1348.95352	37965.35
1352.44163	38732.25
1355.92738	40511.05
1359.41078	43851.85
1362.89183	47393.85
1366.37053	46453.25
1369.84688	41055.65
1373.32088	35474.55
1376.79254	31951.95
1380.26186	30366.55
1383.72883	29744.65
1387.19347	29423.75
1390.65578	29068.75
1394.11575	28834.95
1397.57339	28948.95
1401.0287	29316.65
1404.48168	29882.75
1407.93234	30316.75
1411.38068	30539.25
1414.82669	30323.75
1418.27039	29595.55
1421.71177	28689.15
1425.15083	27833.45
1428.58758	27345.35
1432.02203	27291.35
1435.45416	27502.55
1438.88399	27733.95
1442.31151	27973.45
1445.73673	28236.25
1449.15965	28584.55
1452.58027	28686.25
1455.9986	28689.05
1459.41463	28752.95
1462.82837	29035.75
1466.23982	29486.75
1469.64898	29948.65
1473.05586	30315.95
1476.46045	30336.95
1479.86276	30506.25
1483.26279	30682.85
1486.66054	30959.35
1490.05602	31360.45
1493.44922	31896.65
1496.84016	32596.45
1500.22882	33760.05
1503.61521	35565.15
1506.99934	38097.55
1510.38121	40766.05
1513.76081	42263.35
1517.13816	41241.75
1520.51324	38109.35
1523.88607	34665.05
1527.25665	32322.05
1530.62498	30977.75
1533.99105	30216.35
1537.35488	29891.75
1540.71647	29694.75
1544.07581	29545.85
1547.4329	29400.75
1550.78776	29252.75
1554.14038	29074.05
1557.49077	29127.65
1560.83892	29380.15
1564.18484	29619.15
1567.52853	29891.75
1570.86999	30079.65
1574.20922	30248.95
1577.54624	30248.85
1580.88103	29760.35
1584.2136	29081.85
1587.54395	29012.15
1590.87208	29828.95
1594.19801	31393.35
1597.52172	33305.75
1600.84321	34295.45
1604.16251	33387.85
1607.47959	31396.15
1610.79447	29082.45
1614.10715	26916.75
1617.41763	25155.35
1620.7259	24034.15
1624.03199	23494.65
1627.33587	23425.05
1630.63757	23896.95
1633.93707	24915.95
1637.23439	26379.75
1640.52951	28446.75
1643.82246	30975.65
1647.11321	33545.85
1650.40179	35037.05
1653.68819	34011.35
1656.97241	30401.85
1660.25446	26448.65
1663.53433	23634.95
1666.81203	21884.75
1670.08756	20806.45
1673.36092	20124.15
1676.63211	19724.55
1679.90115	19403.35
1683.16801	19179.05
1686.43272	19022.15
1689.69527	18935.35
1692.95567	18845.35
1696.2139	18789.85
1699.46999	18773.75
1702.72392	18728.95
1705.97571	18689.45
1709.22535	18638.45
1712.47284	18643.45
1715.71819	18649.15
1718.96139	18651.15
1722.20246	18606.45
1725.44139	18553.95
1728.67818	18435.95
1731.91284	18346.15
1735.14537	18267.75
1738.37576	18174.55
1741.60403	18161.85
1744.83017	18135.55
1748.05418	18067.55
1751.27607	18063.05
1754.49584	18063.85
1757.71349	18052.85
1760.92903	18037.15
1764.14244	17992.85
1767.35375	17965.25
1770.56294	17937.15
1773.77002	17933.55
1776.97499	17875.65
1780.17785	17879.45
1783.37861	17842.05
1786.57727	17785.65
1789.77382	17781.65
1792.96828	17729.45
1796.16064	17769.25
1799.3509	17704.35
1802.53907	17690.15
1805.72514	17647.95
1808.90913	17590.85
1812.09102	17591.75
1815.27083	17514.55
1818.44856	17517.05
1821.6242	17456.95
1824.79776	17451.35
1827.96924	17435.95
1831.13864	17392.95
1834.30597	17412.65
1837.47122	17375.25
1840.6344	17366.65
1843.7955	17391.75
1846.95454	17349.55
1850.11151	17337.15
1853.26642	17343.65
1856.41926	17356.45
1859.57004	17352.45
1862.71876	17359.65
1865.86542	17334.25
1869.01003	17340.75
1872.15258	17346.35
1875.29308	17327.45
1878.43152	17320.35
1881.56792	17341.25
1884.70227	17319.75
1887.83457	17292.85
1890.96482	17267.75
1894.09304	17214.25
1897.21921	17235.15
1900.34335	17235.95
1903.46544	17219.45
1906.58551	17235.35
1909.70353	17217.35
1912.81953	17203.95
1915.93349	17209.05
1919.04543	17164.65
1922.15534	17146.55
1925.26322	17083.95
1928.36908	17038.05
1931.47292	17051.65
1934.57473	17039.65
1937.67453	16972.75
1940.77232	16940.35
1943.86808	16862.65
1946.96184	16810.55
1950.05358	16761.55
1953.14331	16687.05
1956.23103	16659.15
1959.31675	16590.65
1962.40046	16538.35
1965.48217	16520.95
1968.56188	16468.85
1971.63959	16402.15
1974.7153	16368.85
1977.78901	16331.15
1980.86073	16272.35
1983.93046	16247.55
1986.99819	16204.25
1990.06394	16140.85
1993.1277	16120.45
1996.18947	16056.35
1999.24925	16017.45
2002.30706	15960.45
2005.36288	15892.65
2008.41672	15875.05
2011.46859	15812.85
2014.51848	15798.65
2017.56639	15763.65
2020.61233	15702.75
2023.6563	15681.95
2026.6983	15665.55
2029.73833	15589.95
2032.7764	15565.25
2035.8125	15546.85
2038.84664	15508.85
2041.87881	15473.75
2044.90903	15414.85
2047.93729	15417.95
2050.96359	15398.15
2053.98794	15390.65
2057.01034	15357.75
2060.03078	15357.15
2063.04927	15333.95
2066.06582	15350.05
2069.08042	15332.15
2072.09307	15329.65
2075.10378	15286.25
2078.11255	15312.25
2081.11938	15313.55
2084.12426	15254.85
2087.12722	15271.85
2090.12824	15249.55
2093.12732	15237.45
2096.12447	15244.65
2099.11969	15256.95
2102.11299	15250.25
2105.10435	15250.75
2108.09379	15225.15
2111.08131	15254.15
2114.0669	15271.25
2117.05057	15281.55
2120.03233	15290.65
2123.01216	15305.25
2125.99008	15313.35
2128.96609	15334.75
2131.94018	15335.95
2134.91236	15319.75
2137.88263	15361.85
2140.851	15364.65
2143.81746	15351.45
2146.78201	15360.25
2149.74466	15338.65
2152.7054	15358.35
2155.66425	15370.15
2158.6212	15373.85
2161.57625	15339.25
2164.52941	15349.75
2167.48067	15330.85
2170.43004	15287.55
2173.37752	15308.35
2176.32311	15349.95
2179.26681	15330.05
2182.20863	15339.95
2185.14856	15356.25
2188.08661	15309.85
2191.02278	15332.15
2193.95707	15335.95
2196.88948	15314.55
2199.82001	15318.65
2202.74867	15294.95
2205.67545	15275.25
2208.60037	15262.85
2211.52341	15259.65
2214.44458	15263.35
2217.36388	15198.15
2220.28132	15204.85
2223.1969	15160.85
2226.11061	15163.05
2229.02246	15116.85
2231.93245	15061.45
2234.84058	15024.55
2237.74686	15042.95
2240.65128	15031.25
2243.55385	14957.35
2246.45456	14938.55
2249.35343	14951.35
2252.25044	14931.15
2255.14561	14912.25
2258.03893	14911.55
2260.93041	14874.35
2263.82004	14789.55
2266.70783	14809.05
2269.59378	14758.05
2272.4779	14727.35
2275.36017	14699.35
2278.24061	14659.45
2281.11922	14635.25
2283.996	14610.55
2286.87094	14616.05
2289.74405	14601.75
2292.61534	14594.55
2295.4848	14574.95
2298.35243	14580.95
2301.21824	14562.25
2304.08223	14540.05
2306.94439	14581.25
2309.80474	14595.85
2312.66327	14576.85
2315.51999	14561.95
2318.37489	14552.25
2321.22797	14507.35
2324.07925	14504.85
2326.92871	14491.85
2329.77637	14489.05
2332.62222	14470.55
2335.46626	14443.15
2338.3085	14455.55
2341.14893	14435.75
2343.98756	14459.85
2346.8244	14442.85
2349.65943	14459.55
2352.49267	14422.75
2355.32411	14462.35
2358.15376	14441.65
2360.98161	14451.05
2363.80768	14446.95
2366.63195	14427.55
2369.45444	14399.95
2372.27514	14353.25
2375.09405	14348.25
2377.91118	14336.55
2380.72652	14285.05
2383.54009	14242.95
2386.35187	14217.45
2389.16188	14160.45
2391.97011	14164.25
2394.77657	14082.65
2397.58125	14094.05
2400.38416	14043.15
2403.18529	14006.45
2405.98466	14004.25
2408.78226	13939.85
2411.57809	13936.15
2414.37216	13885.25
2417.16446	13870.25
2419.955	13867.45
2422.74378	13860.35
2425.5308	13860.85
2428.31606	13882.95
2431.09956	13862.55
2433.88131	13853.15
2436.6613	13831.45
2439.43954	13831.55
2442.21603	13823.45
2444.99077	13826.65
2447.76377	13830.05
2450.53501	13795.85
2453.30451	13819.65
2456.07226	13792.95
2458.83827	13790.65
2461.60254	13757.35
2464.36507	13793.85
2467.12586	13745.25
2469.88492	13731.15
2472.64224	13741.05
2475.39782	13746.05
2478.15167	13746.25
2480.90379	13749.25
2483.65417	13748.55
2486.40283	13792.35
2489.14976	13785.15
2491.89497	13757.15
2494.63845	13818.95
2497.3802	13781.35
2500.12024	13791.05
2502.85855	13751.15
2505.59514	13763.65
2508.33002	13702.65
2511.06318	13687.65
2513.79462	13678.55
2516.52435	13648.45
2519.25237	13620.45
2521.97867	13594.75
2524.70327	13589.55
2527.42616	13589.45
2530.14734	13587.15
2532.86681	13595.25
2535.58458	13591.45
2538.30065	13556.75
2541.01501	13555.95
2543.72768	13551.85
2546.43864	13547.55
2549.14791	13500.85
2551.85548	13509.65
2554.56136	13497.95
2557.26554	13474.25
2559.96803	13431.85
2562.66883	13422.55
2565.36794	13343.05
2568.06536	13351.75
2570.7611	13324.95
2573.45514	13311.15
2576.14751	13347.55
2578.83819	13300.55
2581.52719	13277.05
2584.21451	13289.35
2586.90015	13254.15
2589.58411	13262.05
2592.2664	13243.55
2594.94701	13223.35
2597.62594	13216.45
2600.30321	13197.15
2602.9788	13180.55
2605.65273	13154.95
2608.32498	13144.55
2610.99557	13160.85
2613.66449	13139.55
2616.33175	13168.45
2618.99734	13131.45
2621.66128	13149.35
2624.32355	13150.65
2626.98416	13154.95
2629.64311	13132.25
2632.30041	13098.05
2634.95605	13090.75
2637.61004	13047.65
2640.26238	13064.25
2642.91306	13015.75
2645.56209	13028.25
2648.20948	12990.05
2650.85521	12998.95
2653.4993	13012.65
2656.14175	12986.05
2658.78255	12986.15
2661.42171	13013.85
2664.05923	13019.95
2666.6951	13019.25
2669.32934	13060.55
2671.96194	13019.45
2674.59291	13016.05
2677.22224	13047.25
2679.84993	13030.05
2682.476	13020.25
2685.10043	13010.65
2687.72324	13006.15
2690.34441	12998.55
2692.96396	13009.35
2695.58188	13010.45
2698.19818	12956.55
2700.81285	12973.15
2703.4259	12988.55
2706.03733	13010.95
2708.64714	12986.45
2711.25533	13001.05
2713.86191	12985.05
2716.46687	12979.25
2719.07021	12977.25
2721.67194	12986.85
2724.27206	13003.05
2726.87057	13013.05
2729.46747	13029.15
2732.06276	13030.05
2734.65644	12999.45
2737.24852	13023.55
2739.83899	12999.35
2742.42786	12975.75
2745.01513	12943.15
2747.60079	12939.85
2750.18486	12920.35
2752.76733	12907.65
2755.3482	12916.15
2757.92747	12909.95
2760.50515	12860.25
2763.08123	12875.65
2765.65573	12847.05
2768.22863	12838.85
2770.79994	12831.95
2773.36967	12837.95
2775.9378	12824.85
2778.50435	12822.75
2781.06932	12844.75
2783.6327	12802.05
2786.1945	12796.35
2788.75471	12799.15
2791.31335	12780.95
2793.87041	12796.55
2796.42589	12732.45
2798.97979	12747.45
2801.53212	12730.75
2804.08288	12695.75
2806.63206	12675.55
2809.17967	12645.65
2811.72571	12597.35
2814.27018	12582.35
2816.81308	12581.65
2819.35442	12568.95
2821.89419	12533.75
2824.43239	12564.25
2826.96904	12509.55
2829.50412	12531.15
2832.03763	12524.95
2834.56959	12544.55
2837.1	12502.65
2839.62884	12499.35
2842.15613	12522.25
2844.68186	12522.95
2847.20604	12566.75
2849.72867	12586.15
2852.24974	12567.75
2854.76927	12561.75
2857.28724	12535.85
2859.80367	12525.15
2862.31855	12509.15
2864.83189	12498.15
2867.34368	12451.65
2869.85393	12438.95
2872.36264	12464.65
2874.8698	12465.55
2877.37543	12456.35
2879.87952	12440.05
2882.38207	12447.65
2884.88308	12421.65
2887.38256	12444.35
2889.88051	12425.55
2892.37692	12405.05
2894.8718	12405.25
2897.36515	12447.25
2899.85698	12434.55
2902.34727	12470.85
2904.83604	12469.85
2907.32328	12483.85
2909.809	12453.35
2912.29319	12466.45
2914.77587	12471.35
2917.25702	12492.25
2919.73665	12427.45
2922.21476	12462.35
2924.69136	12442.85
2927.16644	12431.95
2929.64	12409.35
2932.11205	12419.15
2934.58258	12361.05
2937.05161	12405.55
2939.51912	12368.85
2941.98513	12350.25
2944.44962	12337.85
2946.91261	12265.05
2949.37409	12280.05
2951.83407	12256.15
2954.29254	12233.05
2956.74951	12215.95
2959.20498	12276.15
2961.65895	12232.25
2964.11142	12211.55
2966.56239	12185.65
2969.01186	12181.75
2971.45984	12143.45
2973.90632	12176.65
2976.35131	12101.25
2978.7948	12087.55
2981.23681	12065.25
2983.67732	12036.15
2986.11635	12025.05
2988.55388	11995.05
2990.98993	11957.95
2993.4245	11927.65
2995.85758	11904.45
2998.28917	11896.55
3000.71928	11864.35
3003.14791	11854.75
3005.57506	11834.45
3008.00073	11830.15
3010.42493	11822.85
3012.84764	11760.95
3015.26888	11769.95
3017.68865	11722.95
3020.10694	11721.25
3022.52376	11715.85
3024.9391	11704.15
3027.35298	11681.65
3029.76539	11638.65
3032.17632	11658.45
3034.5858	11651.65
3036.9938	11645.65
3039.40034	11647.45
3041.80542	11621.95
3044.20903	11616.05
3046.61118	11594.25
3049.01187	11553.05
3051.4111	11554.25
3053.80888	11538.85
3056.20519	11500.15
3058.60005	11479.55
3060.99345	11454.85
3063.3854	11427.25
3065.7759	11408.45
3068.16494	11377.85
3070.55254	11361.75
3072.93868	11312.95
3075.32338	11284.15
3077.70662	11276.45
3080.08842	11252.15
3082.46878	11245.45
3084.84769	11224.35
3087.22515	11203.55
3089.60118	11229.85
3091.97576	11202.25
3094.3489	11193.05
3096.72061	11213.65
3099.09087	11205.55
3101.4597	11188.45
3103.82709	11175.85
3106.19305	11181.45
3108.55757	11155.05
3110.92066	11121.05
3113.28232	11121.45
3115.64255	11107.55
3118.00134	11058.55
3120.35871	11069.85
3122.71466	11026.85
3125.06917	10993.95
3127.42226	10961.45
3129.77393	10964.95
3132.12417	10955.05
3134.47299	10936.75
3136.82039	10949.65
3139.16636	10960.85
3141.51092	10989.15
3143.85406	10982.45
3146.19579	10948.55
3148.53609	10943.35
3150.87499	10936.95
3153.21246	10958.25
3155.54853	10954.45
3157.88318	10946.15
3160.21642	10965.65
3162.54826	10958.85
3164.87868	10956.95
3167.2077	10968.25
3169.5353	10948.05
3171.86151	10954.15
3174.18631	10949.55
3176.5097	10957.15
3178.83169	10931.05
3181.15228	10910.75
3183.47147	10905.75
3185.78926	10897.15
3188.10565	10880.45
3190.42065	10883.35
3192.73424	10874.25
3195.04645	10869.65
3197.35725	10825.55
3199.66667	10851.35
3201.97469	10883.45
3204.28132	10880.15
3206.58656	10936.65
3208.8904	10903.05
3211.19287	10904.55
3213.49394	10903.95
3215.79363	10905.85
3218.09193	10908.15
3220.38884	10898.35
3222.68438	10897.85
3224.97853	10854.75
3227.2713	10877.85
3229.56269	10857.55
3231.8527	10872.15
3234.14133	10836.45
3236.42858	10803.95
3238.71446	10803.15
3240.99896	10786.95
3243.28209	10764.25
3245.56384	10752.05
3247.84423	10767.05
3250.12324	10754.75
3252.40088	10712.75
3254.67715	10721.75
3256.95205	10682.55
3259.22558	10719.95
3261.49775	10695.55
3263.76855	10669.75
3266.03799	10656.85
3268.30606	10621.55
3270.57277	10630.35
3272.83812	10622.35
3275.10211	10591.55
3277.36474	10583.95
3279.62601	10595.55
3281.88593	10539.55
3284.14448	10543.65
3286.40168	10555.65
3288.65753	10547.35
3290.91202	10546.05
3293.16516	10516.55
3295.41695	10498.85
3297.66738	10454.35
3299.91647	10374.75
3302.16421	10325.65
3304.4106	10279.55
3306.65564	10214.45
3308.89933	10163.85
3311.14169	10078.65
3313.38269	9985.65
3315.62236	9914.35
3317.86068	9840.65
3320.09766	9794.15
3322.3333	9703.05
3324.5676	9657.55
3326.80056	9488.65
3329.03219	9448.05
3331.26248	4.25
3333.49143	-0.05
3335.71905	-0.85
