Data from AgNP_FTO_APTES_UA_10uM_CRN_2uM_R6G_10uM_NaF_0.1M_Addition_RamanShift__2__13-59-10-577.txt Node

Date: Thu Feb 10 13:59:10 GMT 2022
User: TCL
Spectrometer: QEP01345
Trigger mode: 4
Integration Time (sec): 7.000000E0
Scans to average: 10
Electric dark correction enabled: true
Nonlinearity correction enabled: false
Boxcar width: 0
XAxis mode: Raman Shifts
Number of Pixels in Spectrum: 1044
>>>>>Begin Spectral Data<<<<<
46.04893	0.25
50.45542	-1.25
54.85868	-1.05
59.25871	-1.65
63.6555	64.45
68.04907	66.65
72.43941	72.15
76.82654	69.75
81.21044	74.85
85.59113	74.65
89.96862	80.25
94.34289	83.05
98.71396	83.55
103.08183	89.55
107.4465	91.85
111.80798	92.75
116.16626	95.55
120.52136	101.05
124.87327	107.85
129.222	108.35
133.56755	116.15
137.90993	125.55
142.24913	131.05
146.58517	150.45
150.91804	177.65
155.24774	208.65
159.57429	258.75
163.89768	330.05
168.21792	441.65
172.53501	606.05
176.84895	846.25
181.15975	1185.95
185.46741	1670.25
189.77193	2317.55
194.07331	3105.05
198.37157	4025.35
202.6667	4959.15
206.9587	5939.25
211.24758	6873.25
215.53334	7837.85
219.81599	8847.95
224.09553	9977.85
228.37195	11224.05
232.64527	12542.05
236.91549	13954.85
241.18261	15267.15
245.44663	16534.05
249.70755	17585.65
253.96539	18527.85
258.22014	19259.85
262.4718	19914.65
266.72039	20335.25
270.96589	20580.65
275.20832	20584.45
279.44768	20426.85
283.68397	20197.35
287.91719	20013.35
292.14735	19988.75
296.37445	20068.35
300.59849	20379.25
304.81948	20683.15
309.03742	20879.95
313.25231	20754.65
317.46415	20270.35
321.67296	19451.35
325.87872	18777.85
330.08145	18443.95
334.28114	18431.65
338.47781	18570.55
342.67145	18897.15
346.86207	19267.65
351.04966	19774.15
355.23424	20343.75
359.4158	20730.65
363.59435	21008.75
367.76989	21135.55
371.94243	21166.05
376.11196	21134.15
380.27849	21158.75
384.44203	21113.45
388.60257	21175.25
392.76012	21345.85
396.91468	21590.85
401.06626	21995.15
405.21485	22227.85
409.36047	22022.15
413.50311	21442.45
417.64277	20899.45
421.77947	20701.05
425.9132	20643.25
430.04396	20662.55
434.17176	20714.05
438.2966	20839.15
442.41849	21125.05
446.53742	21500.45
450.6534	21902.05
454.76644	22184.05
458.87653	22290.65
462.98368	22270.95
467.08789	22174.05
471.18916	21973.65
475.2875	21713.85
479.38291	21484.45
483.4754	21253.75
487.56496	21032.15
491.6516	20824.45
495.73531	20690.45
499.81612	20614.85
503.89401	20709.45
507.96899	20810.05
512.04106	20909.55
516.11023	20966.85
520.1765	20888.45
524.23987	20802.45
528.30034	20645.35
532.35792	20426.15
536.41261	20166.55
540.46441	19925.05
544.51333	19847.25
548.55936	20091.35
552.60252	20465.65
556.64279	20875.75
560.6802	21118.65
564.71473	21321.25
568.7464	21648.25
572.7752	22196.25
576.80114	22578.25
580.82422	22853.85
584.84444	23176.25
588.86181	23389.75
592.87633	23478.75
596.888	23397.65
600.89682	23324.85
604.9028	24214.75
608.90594	27184.15
612.90624	30830.85
616.90371	29302.85
620.89834	23533.05
624.89015	20815.05
628.87913	20374.85
632.86528	20576.85
636.84862	20810.15
640.82913	20574.95
644.80683	19998.25
648.78172	19549.15
652.75379	19500.05
656.72306	19850.85
660.68952	20333.55
664.65319	20216.95
668.61405	19702.85
672.57211	19535.55
676.52738	19567.45
680.47986	19577.55
684.42955	19398.55
688.37646	19319.95
692.32058	19423.65
696.26192	19648.45
700.20048	19868.05
704.13626	20062.55
708.06928	20059.25
711.99952	19965.65
715.927	19863.15
719.85171	19871.25
723.77365	19824.35
727.69284	19574.35
731.60928	19328.75
735.52295	19199.25
739.43388	19194.75
743.34206	19227.45
747.24749	19309.35
751.15017	19443.75
755.05012	19732.85
758.94733	20343.15
762.8418	21687.85
766.73354	23829.65
770.62254	25911.35
774.50882	26557.25
778.39237	25409.85
782.27321	23324.05
786.15132	21446.75
790.02671	20229.65
793.89938	19586.35
797.76935	19321.95
801.6366	19223.05
805.50115	19084.95
809.36299	19000.35
813.22213	18883.95
817.07857	18839.85
820.93231	18836.45
824.78336	18780.45
828.63172	18780.05
832.47738	18726.65
836.32036	18673.65
840.16066	18668.85
843.99827	18603.25
847.8332	18589.25
851.66546	18611.75
855.49504	18637.45
859.32195	18641.35
863.1462	18625.65
866.96777	18541.55
870.78668	18528.75
874.60293	18552.35
878.41652	18587.25
882.22745	18675.15
886.03573	18731.15
889.84136	18708.45
893.64433	18702.25
897.44466	18652.55
901.24235	18637.35
905.0374	18591.55
908.8298	18582.75
912.61957	18536.95
916.40671	18634.05
920.19121	18800.65
923.97308	18949.45
927.75233	19007.55
931.52895	18991.25
935.30295	18743.95
939.07433	18392.35
942.84309	18148.05
946.60924	17906.95
950.37278	17861.55
954.13371	17817.25
957.89203	17784.05
961.64774	17760.45
965.40086	17743.45
969.15137	17720.55
972.89929	17681.55
976.64461	17655.05
980.38733	17638.25
984.12747	17673.85
987.86502	17729.85
991.59999	17830.85
995.33237	17968.45
999.06217	18136.35
1002.78939	18415.35
1006.51404	18738.15
1010.23611	19025.95
1013.95561	19210.65
1017.67255	19232.65
1021.38692	19121.65
1025.09872	18907.45
1028.80796	18679.65
1032.51465	18607.35
1036.21877	18674.05
1039.92035	18747.75
1043.61937	18820.45
1047.31584	18874.05
1051.00976	18928.65
1054.70114	18960.65
1058.38998	19020.65
1062.07627	19180.05
1065.76003	19384.95
1069.44126	19602.85
1073.11995	19931.85
1076.79611	20277.45
1080.46974	20504.45
1084.14085	20741.25
1087.80943	21006.45
1091.47549	21212.05
1095.13903	21161.15
1098.80005	20837.95
1102.45857	20333.95
1106.11456	19965.15
1109.76805	19814.25
1113.41903	19797.25
1117.06751	19998.95
1120.71348	20338.45
1124.35696	20720.65
1127.99793	21127.55
1131.63641	21260.55
1135.2724	20895.95
1138.90589	20556.25
1142.5369	20358.65
1146.16542	20271.05
1149.79145	20236.55
1153.415	20284.35
1157.03607	20497.05
1160.65467	20922.55
1164.27079	21633.05
1167.88443	22620.55
1171.49561	23896.65
1175.10432	25642.05
1178.71056	27888.15
1182.31434	29948.05
1185.91565	31079.65
1189.51451	31185.05
1193.11091	30537.65
1196.70485	29284.95
1200.29634	27908.05
1203.88538	26712.95
1207.47197	25661.05
1211.05612	24848.05
1214.63782	24180.05
1218.21708	23586.35
1221.79391	23071.75
1225.36829	22805.75
1228.94024	22646.75
1232.50976	22567.85
1236.07685	22459.45
1239.6415	22417.95
1243.20374	22454.75
1246.76355	22540.25
1250.32093	22776.05
1253.8759	23136.85
1257.42845	23701.55
1260.97859	24340.35
1264.52631	25073.85
1268.07163	25732.15
1271.61453	26325.35
1275.15503	26848.55
1278.69312	27317.15
1282.22882	27709.25
1285.76211	28276.15
1289.29301	29119.85
1292.82151	30032.65
1296.34761	31150.95
1299.87133	32500.95
1303.39266	34235.55
1306.9116	36315.75
1310.42815	38372.45
1313.94233	39437.15
1317.45412	38977.25
1320.96354	37830.45
1324.47058	36832.75
1327.97525	35975.45
1331.47754	35468.65
1334.97747	35248.35
1338.47502	35446.75
1341.97022	35862.25
1345.46305	36520.25
1348.95352	37287.05
1352.44163	38127.75
1355.92738	39154.05
1359.41078	40937.35
1362.89183	42868.75
1366.37053	41986.85
1369.84688	37690.95
1373.32088	33003.95
1376.79254	29993.85
1380.26186	28542.95
1383.72883	27934.35
1387.19347	27466.05
1390.65578	26950.65
1394.11575	26541.45
1397.57339	26269.45
1401.0287	26198.25
1404.48168	26147.95
1407.93234	26095.15
1411.38068	25864.65
1414.82669	25480.45
1418.27039	24957.05
1421.71177	24431.65
1425.15083	23883.35
1428.58758	23640.75
1432.02203	23739.35
1435.45416	24157.65
1438.88399	24543.55
1442.31151	24799.45
1445.73673	25026.55
1449.15965	25252.45
1452.58027	25383.45
1455.9986	25456.55
1459.41463	25629.45
1462.82837	25962.25
1466.23982	26385.75
1469.64898	26796.35
1473.05586	27062.85
1476.46045	27250.05
1479.86276	27308.45
1483.26279	27453.55
1486.66054	27769.25
1490.05602	28229.05
1493.44922	29143.75
1496.84016	30467.75
1500.22882	32500.05
1503.61521	35268.45
1506.99934	38134.35
1510.38121	40161.45
1513.76081	40258.15
1517.13816	38090.55
1520.51324	35006.35
1523.88607	32300.85
1527.25665	30712.45
1530.62498	29823.35
1533.99105	29211.35
1537.35488	28672.85
1540.71647	28002.25
1544.07581	27402.95
1547.4329	26797.75
1550.78776	26360.85
1554.14038	26144.75
1557.49077	26060.45
1560.83892	26226.05
1564.18484	26516.45
1567.52853	26934.75
1570.86999	27352.35
1574.20922	27742.65
1577.54624	27818.75
1580.88103	27323.15
1584.2136	26530.35
1587.54395	26253.35
1590.87208	26636.45
1594.19801	27638.95
1597.52172	28873.75
1600.84321	29294.75
1604.16251	28522.15
1607.47959	27190.05
1610.79447	25783.05
1614.10715	24032.85
1617.41763	22472.55
1620.7259	21335.25
1624.03199	20654.85
1627.33587	20566.55
1630.63757	20936.25
1633.93707	21901.55
1637.23439	23581.95
1640.52951	26188.25
1643.82246	29483.25
1647.11321	32671.35
1650.40179	34186.95
1653.68819	32834.15
1656.97241	29036.75
1660.25446	24878.05
1663.53433	21764.05
1666.81203	19732.45
1670.08756	18501.25
1673.36092	17729.05
1676.63211	17230.55
1679.90115	16882.25
1683.16801	16643.05
1686.43272	16480.95
1689.69527	16311.95
1692.95567	16193.65
1696.2139	16120.75
1699.46999	16055.65
1702.72392	16016.55
1705.97571	15995.65
1709.22535	15915.45
1712.47284	15905.55
1715.71819	15886.05
1718.96139	15837.75
1722.20246	15773.25
1725.44139	15687.15
1728.67818	15601.55
1731.91284	15531.95
1735.14537	15435.35
1738.37576	15352.95
1741.60403	15305.65
1744.83017	15238.75
1748.05418	15180.15
1751.27607	15148.35
1754.49584	15142.95
1757.71349	15114.45
1760.92903	15105.85
1764.14244	15094.85
1767.35375	15062.85
1770.56294	15003.75
1773.77002	15002.15
1776.97499	14941.55
1780.17785	14883.25
1783.37861	14870.65
1786.57727	14805.85
1789.77382	14789.85
1792.96828	14788.45
1796.16064	14737.95
1799.3509	14741.85
1802.53907	14704.65
1805.72514	14639.55
1808.90913	14604.85
1812.09102	14581.35
1815.27083	14548.45
1818.44856	14512.55
1821.6242	14505.45
1824.79776	14478.75
1827.96924	14442.85
1831.13864	14442.15
1834.30597	14457.65
1837.47122	14438.65
1840.6344	14446.45
1843.7955	14433.35
1846.95454	14451.65
1850.11151	14422.55
1853.26642	14394.65
1856.41926	14369.15
1859.57004	14393.45
1862.71876	14312.95
1865.86542	14309.65
1869.01003	14324.05
1872.15258	14275.35
1875.29308	14244.05
1878.43152	14231.05
1881.56792	14197.15
1884.70227	14194.95
1887.83457	14177.55
1890.96482	14152.15
1894.09304	14134.45
1897.21921	14061.65
1900.34335	14077.75
1903.46544	14069.75
1906.58551	14047.75
1909.70353	13997.85
1912.81953	13983.05
1915.93349	13950.65
1919.04543	13939.35
1922.15534	13905.75
1925.26322	13886.25
1928.36908	13846.35
1931.47292	13809.25
1934.57473	13777.75
1937.67453	13742.75
1940.77232	13723.05
1943.86808	13679.95
1946.96184	13620.75
1950.05358	13584.35
1953.14331	13598.85
1956.23103	13528.85
1959.31675	13474.95
1962.40046	13446.15
1965.48217	13428.65
1968.56188	13375.35
1971.63959	13331.75
1974.7153	13274.05
1977.78901	13260.05
1980.86073	13211.45
1983.93046	13173.75
1986.99819	13118.85
1990.06394	13081.45
1993.1277	13056.35
1996.18947	12978.15
1999.24925	12971.05
2002.30706	12914.85
2005.36288	12866.25
2008.41672	12838.05
2011.46859	12793.95
2014.51848	12792.15
2017.56639	12730.05
2020.61233	12696.45
2023.6563	12671.45
2026.6983	12605.05
2029.73833	12563.45
2032.7764	12538.45
2035.8125	12520.05
2038.84664	12522.35
2041.87881	12483.75
2044.90903	12441.25
2047.93729	12410.75
2050.96359	12426.25
2053.98794	12380.15
2057.01034	12371.95
2060.03078	12359.65
2063.04927	12337.85
2066.06582	12352.55
2069.08042	12322.35
2072.09307	12327.65
2075.10378	12320.65
2078.11255	12291.85
2081.11938	12295.15
2084.12426	12290.25
2087.12722	12298.85
2090.12824	12294.25
2093.12732	12290.65
2096.12447	12287.35
2099.11969	12274.45
2102.11299	12310.25
2105.10435	12291.45
2108.09379	12314.85
2111.08131	12314.15
2114.0669	12311.25
2117.05057	12337.65
2120.03233	12333.05
2123.01216	12319.65
2125.99008	12335.85
2128.96609	12356.85
2131.94018	12385.95
2134.91236	12384.15
2137.88263	12386.05
2140.851	12390.55
2143.81746	12359.95
2146.78201	12371.75
2149.74466	12356.25
2152.7054	12388.25
2155.66425	12343.75
2158.6212	12336.55
2161.57625	12318.15
2164.52941	12339.95
2167.48067	12324.55
2170.43004	12332.85
2173.37752	12324.05
2176.32311	12340.55
2179.26681	12341.05
2182.20863	12331.95
2185.14856	12315.55
2188.08661	12303.15
2191.02278	12309.75
2193.95707	12286.75
2196.88948	12287.55
2199.82001	12278.85
2202.74867	12235.15
2205.67545	12223.85
2208.60037	12253.55
2211.52341	12226.95
2214.44458	12189.95
2217.36388	12168.65
2220.28132	12110.95
2223.1969	12084.45
2226.11061	12101.55
2229.02246	12080.65
2231.93245	12024.95
2234.84058	12027.35
2237.74686	12019.75
2240.65128	11998.95
2243.55385	11951.05
2246.45456	11934.85
2249.35343	11934.65
2252.25044	11935.75
2255.14561	11925.65
2258.03893	11899.05
2260.93041	11877.95
2263.82004	11865.95
2266.70783	11822.15
2269.59378	11786.55
2272.4779	11767.25
2275.36017	11740.05
2278.24061	11708.35
2281.11922	11694.65
2283.996	11683.25
2286.87094	11650.35
2289.74405	11651.95
2292.61534	11627.45
2295.4848	11617.55
2298.35243	11591.65
2301.21824	11588.05
2304.08223	11570.95
2306.94439	11579.85
2309.80474	11544.05
2312.66327	11572.65
2315.51999	11570.55
2318.37489	11572.75
2321.22797	11519.95
2324.07925	11494.05
2326.92871	11490.15
2329.77637	11482.35
2332.62222	11459.85
2335.46626	11466.45
2338.3085	11429.15
2341.14893	11430.35
2343.98756	11434.35
2346.8244	11424.25
2349.65943	11425.95
2352.49267	11412.05
2355.32411	11388.05
2358.15376	11438.95
2360.98161	11446.65
2363.80768	11430.25
2366.63195	11439.05
2369.45444	11410.75
2372.27514	11396.75
2375.09405	11376.25
2377.91118	11355.55
2380.72652	11327.85
2383.54009	11285.35
2386.35187	11268.95
2389.16188	11230.45
2391.97011	11200.25
2394.77657	11171.55
2397.58125	11131.25
2400.38416	11146.05
2403.18529	11101.95
2405.98466	11078.55
2408.78226	11075.45
2411.57809	11039.15
2414.37216	11054.25
2417.16446	11054.95
2419.955	11024.35
2422.74378	11010.85
2425.5308	11023.75
2428.31606	11016.55
2431.09956	11021.95
2433.88131	11012.45
2436.6613	11013.35
2439.43954	11005.15
2442.21603	10992.85
2444.99077	10981.25
2447.76377	10982.35
2450.53501	10965.25
2453.30451	10996.55
2456.07226	10968.45
2458.83827	10959.05
2461.60254	10962.65
2464.36507	10951.15
2467.12586	10922.35
2469.88492	10906.25
2472.64224	10913.05
2475.39782	10934.05
2478.15167	10926.05
2480.90379	10937.25
2483.65417	10925.15
2486.40283	10947.35
2489.14976	10962.35
2491.89497	10933.75
2494.63845	10905.85
2497.3802	10930.55
2500.12024	10894.95
2502.85855	10880.65
2505.59514	10858.95
2508.33002	10832.55
2511.06318	10827.85
2513.79462	10821.25
2516.52435	10797.15
2519.25237	10762.35
2521.97867	10787.25
2524.70327	10775.45
2527.42616	10759.85
2530.14734	10765.25
2532.86681	10746.05
2535.58458	10748.45
2538.30065	10715.55
2541.01501	10742.55
2543.72768	10691.55
2546.43864	10698.95
2549.14791	10668.05
2551.85548	10655.85
2554.56136	10639.55
2557.26554	10635.55
2559.96803	10607.45
2562.66883	10596.05
2565.36794	10553.35
2568.06536	10554.05
2570.7611	10530.95
2573.45514	10503.85
2576.14751	10528.05
2578.83819	10495.75
2581.52719	10493.15
2584.21451	10465.35
2586.90015	10444.75
2589.58411	10435.55
2592.2664	10434.15
2594.94701	10426.95
2597.62594	10399.05
2600.30321	10395.95
2602.9788	10388.65
2605.65273	10365.55
2608.32498	10384.95
2610.99557	10385.95
2613.66449	10363.85
2616.33175	10378.85
2618.99734	10337.95
2621.66128	10324.05
2624.32355	10290.05
2626.98416	10311.85
2629.64311	10272.65
2632.30041	10237.75
2634.95605	10249.45
2637.61004	10253.15
2640.26238	10229.75
2642.91306	10209.15
2645.56209	10220.35
2648.20948	10219.05
2650.85521	10211.65
2653.4993	10205.35
2656.14175	10210.25
2658.78255	10230.45
2661.42171	10191.45
2664.05923	10241.35
2666.6951	10230.05
2669.32934	10240.95
2671.96194	10241.95
2674.59291	10238.25
2677.22224	10199.85
2679.84993	10207.45
2682.476	10207.55
2685.10043	10191.95
2687.72324	10194.15
2690.34441	10202.85
2692.96396	10207.25
2695.58188	10193.15
2698.19818	10171.75
2700.81285	10197.75
2703.4259	10190.15
2706.03733	10225.35
2708.64714	10199.55
2711.25533	10204.95
2713.86191	10213.05
2716.46687	10256.85
2719.07021	10247.85
2721.67194	10254.25
2724.27206	10217.95
2726.87057	10227.25
2729.46747	10226.35
2732.06276	10252.45
2734.65644	10211.95
2737.24852	10226.15
2739.83899	10233.95
2742.42786	10207.25
2745.01513	10170.95
2747.60079	10171.25
2750.18486	10153.65
2752.76733	10142.85
2755.3482	10150.45
2757.92747	10142.75
2760.50515	10120.95
2763.08123	10090.85
2765.65573	10070.75
2768.22863	10093.85
2770.79994	10065.35
2773.36967	10060.25
2775.9378	10036.65
2778.50435	10061.65
2781.06932	10027.15
2783.6327	10058.55
2786.1945	10049.05
2788.75471	10021.45
2791.31335	10022.95
2793.87041	10001.55
2796.42589	10006.05
2798.97979	9978.75
2801.53212	9960.35
2804.08288	9967.35
2806.63206	9906.65
2809.17967	9886.95
2811.72571	9893.85
2814.27018	9857.35
2816.81308	9830.85
2819.35442	9838.55
2821.89419	9807.25
2824.43239	9822.75
2826.96904	9797.25
2829.50412	9791.15
2832.03763	9774.05
2834.56959	9774.35
2837.1	9782.35
2839.62884	9783.45
2842.15613	9792.95
2844.68186	9799.35
2847.20604	9780.75
2849.72867	9818.05
2852.24974	9808.25
2854.76927	9799.55
2857.28724	9783.45
2859.80367	9772.65
2862.31855	9738.85
2864.83189	9733.85
2867.34368	9731.55
2869.85393	9754.45
2872.36264	9705.75
2874.8698	9702.75
2877.37543	9702.15
2879.87952	9676.85
2882.38207	9696.45
2884.88308	9690.55
2887.38256	9678.25
2889.88051	9664.15
2892.37692	9667.95
2894.8718	9643.45
2897.36515	9675.65
2899.85698	9670.45
2902.34727	9682.05
2904.83604	9688.05
2907.32328	9722.65
2909.809	9695.45
2912.29319	9711.25
2914.77587	9724.35
2917.25702	9718.75
2919.73665	9706.75
2922.21476	9686.75
2924.69136	9682.95
2927.16644	9665.55
2929.64	9634.05
2932.11205	9644.85
2934.58258	9611.05
2937.05161	9616.65
2939.51912	9603.45
2941.98513	9597.95
2944.44962	9573.65
2946.91261	9515.05
2949.37409	9530.45
2951.83407	9508.65
2954.29254	9529.65
2956.74951	9499.15
2959.20498	9530.45
2961.65895	9512.15
2964.11142	9527.65
2966.56239	9492.15
2969.01186	9517.15
2971.45984	9464.35
2973.90632	9467.15
2976.35131	9426.75
2978.7948	9433.75
2981.23681	9443.65
2983.67732	9387.95
2986.11635	9394.85
2988.55388	9372.55
2990.98993	9343.65
2993.4245	9338.45
2995.85758	9317.85
2998.28917	9266.35
3000.71928	9266.45
3003.14791	9270.35
3005.57506	9220.65
3008.00073	9201.15
3010.42493	9101.25
3012.84764	9157.25
3015.26888	9177.55
3017.68865	9118.95
3020.10694	9117.85
3022.52376	9080.35
3024.9391	9119.75
3027.35298	9088.95
3029.76539	9067.55
3032.17632	9057.85
3034.5858	9048.95
3036.9938	9034.45
3039.40034	9049.05
3041.80542	9012.55
3044.20903	9008.15
3046.61118	9001.05
3049.01187	8974.35
3051.4111	8974.65
3053.80888	8948.05
3056.20519	8937.65
3058.60005	8882.25
3060.99345	8897.95
3063.3854	8885.95
3065.7759	8881.65
3068.16494	8854.55
3070.55254	8792.65
3072.93868	8804.65
3075.32338	8814.35
3077.70662	8766.45
3080.08842	8741.85
3082.46878	8724.45
3084.84769	8739.65
3087.22515	8725.05
3089.60118	8718.15
3091.97576	8699.25
3094.3489	8702.85
3096.72061	8703.45
3099.09087	8691.85
3101.4597	8695.25
3103.82709	8702.05
3106.19305	8690.75
3108.55757	8701.05
3110.92066	8669.75
3113.28232	8671.95
3115.64255	8653.95
3118.00134	8590.55
3120.35871	8578.55
3122.71466	8590.25
3125.06917	8567.15
3127.42226	8551.45
3129.77393	8544.75
3132.12417	8523.45
3134.47299	8551.65
3136.82039	8550.15
3139.16636	8533.45
3141.51092	8529.65
3143.85406	8525.55
3146.19579	8517.45
3148.53609	8524.85
3150.87499	8522.25
3153.21246	8516.45
3155.54853	8540.55
3157.88318	8535.65
3160.21642	8534.85
3162.54826	8537.25
3164.87868	8540.65
3167.2077	8555.55
3169.5353	8546.05
3171.86151	8542.55
3174.18631	8528.15
3176.5097	8523.85
3178.83169	8509.85
3181.15228	8527.85
3183.47147	8496.35
3185.78926	8504.45
3188.10565	8488.45
3190.42065	8465.85
3192.73424	8466.85
3195.04645	8443.85
3197.35725	8424.25
3199.66667	8443.35
3201.97469	8429.65
3204.28132	8418.35
3206.58656	8450.45
3208.8904	8452.95
3211.19287	8463.35
3213.49394	8455.25
3215.79363	8470.45
3218.09193	8460.35
3220.38884	8460.35
3222.68438	8466.45
3224.97853	8458.95
3227.2713	8457.85
3229.56269	8462.75
3231.8527	8442.75
3234.14133	8405.55
3236.42858	8398.35
3238.71446	8402.15
3240.99896	8344.55
3243.28209	8314.55
3245.56384	8322.05
3247.84423	8317.55
3250.12324	8319.15
3252.40088	8313.25
3254.67715	8302.65
3256.95205	8298.35
3259.22558	8286.85
3261.49775	8297.55
3263.76855	8292.35
3266.03799	8267.75
3268.30606	8259.25
3270.57277	8249.35
3272.83812	8211.15
3275.10211	8196.05
3277.36474	8205.75
3279.62601	8179.95
3281.88593	8160.25
3284.14448	8174.55
3286.40168	8184.45
3288.65753	8177.75
3290.91202	8169.15
3293.16516	8153.25
3295.41695	8134.15
3297.66738	8080.75
3299.91647	8042.15
3302.16421	7987.55
3304.4106	7968.25
3306.65564	7929.25
3308.89933	7843.85
3311.14169	7779.55
3313.38269	7713.15
3315.62236	7674.65
3317.86068	7597.55
3320.09766	7529.85
3322.3333	7501.35
3324.5676	7462.95
3326.80056	7317.65
3329.03219	7303.25
3331.26248	4.05
3333.49143	-0.25
3335.71905	-0.25
