Data from AgNP_FTO_APTES_UA_10uM_CRN_50uM_R6G_10uM_NaF_0.1M_Addition_RamanShift__8__16-51-50-790.txt Node

Date: Thu Feb 10 16:51:50 GMT 2022
User: TCL
Spectrometer: QEP01345
Trigger mode: 4
Integration Time (sec): 7.000000E0
Scans to average: 10
Electric dark correction enabled: true
Nonlinearity correction enabled: false
Boxcar width: 0
XAxis mode: Raman Shifts
Number of Pixels in Spectrum: 1044
>>>>>Begin Spectral Data<<<<<
46.04893	0.35
50.45542	-0.15
54.85868	-1.95
59.25871	-1.45
63.6555	61.75
68.04907	67.75
72.43941	70.85
76.82654	70.15
81.21044	76.25
85.59113	76.05
89.96862	80.85
94.34289	83.45
98.71396	85.35
103.08183	88.75
107.4465	95.45
111.80798	92.55
116.16626	94.35
120.52136	103.15
124.87327	106.65
129.222	108.95
133.56755	119.75
137.90993	122.95
142.24913	133.25
146.58517	150.05
150.91804	171.15
155.24774	207.35
159.57429	255.25
163.89768	325.85
168.21792	435.65
172.53501	589.05
176.84895	815.15
181.15975	1145.55
185.46741	1605.65
189.77193	2227.35
194.07331	2967.65
198.37157	3821.15
202.6667	4720.45
206.9587	5593.25
211.24758	6474.15
215.53334	7328.25
219.81599	8248.55
224.09553	9218.55
228.37195	10331.45
232.64527	11526.05
236.91549	12809.75
241.18261	14081.55
245.44663	15323.55
249.70755	16386.05
253.96539	17358.55
258.22014	18178.35
262.4718	18874.75
266.72039	19347.25
270.96589	19636.45
275.20832	19723.65
279.44768	19686.95
283.68397	19583.95
287.91719	19474.95
292.14735	19427.75
296.37445	19445.65
300.59849	19524.45
304.81948	19600.75
309.03742	19529.05
313.25231	19324.85
317.46415	18970.55
321.67296	18460.85
325.87872	18121.65
330.08145	17956.15
334.28114	17903.25
338.47781	18029.55
342.67145	18188.85
346.86207	18390.35
351.04966	18627.85
355.23424	18898.95
359.4158	19149.05
363.59435	19321.55
367.76989	19450.45
371.94243	19533.15
376.11196	19617.75
380.27849	19680.15
384.44203	19769.95
388.60257	19905.95
392.76012	20104.25
396.91468	20470.55
401.06626	20751.55
405.21485	20909.35
409.36047	20823.85
413.50311	20613.85
417.64277	20552.25
421.77947	20577.35
425.9132	20723.65
430.04396	20873.15
434.17176	20941.35
438.2966	21051.25
442.41849	21235.35
446.53742	21706.65
450.6534	22170.65
454.76644	22602.95
458.87653	22793.85
462.98368	22759.55
467.08789	22640.05
471.18916	22500.95
475.2875	22345.15
479.38291	22335.85
483.4754	22295.15
487.56496	22046.75
491.6516	21649.65
495.73531	21238.85
499.81612	20953.15
503.89401	20973.05
507.96899	21106.95
512.04106	21088.65
516.11023	20997.15
520.1765	20786.35
524.23987	20516.15
528.30034	20297.45
532.35792	20100.45
536.41261	19937.95
540.46441	19819.15
544.51333	19930.65
548.55936	20185.75
552.60252	20596.75
556.64279	21062.35
560.6802	21381.65
564.71473	21650.35
568.7464	22129.75
572.7752	22926.35
576.80114	23700.05
580.82422	24405.05
584.84444	24894.25
588.86181	25478.95
592.87633	25913.95
596.888	25493.95
600.89682	24614.65
604.9028	24372.95
608.90594	25254.15
612.90624	26021.65
616.90371	24374.55
620.89834	21484.95
624.89015	20345.15
628.87913	20275.25
632.86528	20493.45
636.84862	20469.95
640.82913	20218.45
644.80683	19815.75
648.78172	19512.55
652.75379	19468.05
656.72306	19591.45
660.68952	19807.75
664.65319	19690.15
668.61405	19486.05
672.57211	19466.45
676.52738	19546.25
680.47986	19581.75
684.42955	19494.35
688.37646	19429.05
692.32058	19533.45
696.26192	19706.45
700.20048	19946.25
704.13626	20132.25
708.06928	20199.45
711.99952	20169.35
715.927	20104.55
719.85171	20084.25
723.77365	19962.95
727.69284	19742.95
731.60928	19487.85
735.52295	19330.15
739.43388	19310.05
743.34206	19355.25
747.24749	19505.55
751.15017	19699.85
755.05012	20044.45
758.94733	20599.75
762.8418	21472.55
766.73354	22630.95
770.62254	23630.75
774.50882	23610.45
778.39237	22576.25
782.27321	21261.75
786.15132	20337.85
790.02671	19735.75
793.89938	19389.85
797.76935	19265.45
801.6366	19183.65
805.50115	19156.75
809.36299	19041.65
813.22213	18934.35
817.07857	18932.55
820.93231	18895.65
824.78336	18786.15
828.63172	18693.55
832.47738	18620.25
836.32036	18609.85
840.16066	18577.15
843.99827	18600.75
847.8332	18589.05
851.66546	18592.85
855.49504	18613.45
859.32195	18635.25
863.1462	18585.15
866.96777	18542.15
870.78668	18479.55
874.60293	18519.55
878.41652	18538.25
882.22745	18563.95
886.03573	18566.85
889.84136	18521.35
893.64433	18529.15
897.44466	18492.85
901.24235	18426.15
905.0374	18415.25
908.8298	18434.15
912.61957	18530.35
916.40671	18701.65
920.19121	19001.05
923.97308	19122.05
927.75233	19004.25
931.52895	18725.85
935.30295	18466.85
939.07433	18152.15
942.84309	17935.95
946.60924	17873.05
950.37278	17812.35
954.13371	17832.15
957.89203	17809.55
961.64774	17826.75
965.40086	17824.65
969.15137	17759.95
972.89929	17645.85
976.64461	17586.85
980.38733	17527.95
984.12747	17575.15
987.86502	17643.85
991.59999	17672.55
995.33237	17799.45
999.06217	17983.25
1002.78939	18243.75
1006.51404	18505.25
1010.23611	18853.75
1013.95561	18983.55
1017.67255	19014.35
1021.38692	18866.65
1025.09872	18693.15
1028.80796	18474.25
1032.51465	18459.15
1036.21877	18576.95
1039.92035	18643.85
1043.61937	18662.55
1047.31584	18699.45
1051.00976	18744.25
1054.70114	18821.85
1058.38998	18995.85
1062.07627	19222.05
1065.76003	19463.05
1069.44126	19653.05
1073.11995	19959.15
1076.79611	20133.55
1080.46974	20211.85
1084.14085	20286.05
1087.80943	20451.55
1091.47549	20633.45
1095.13903	20709.05
1098.80005	20518.45
1102.45857	20065.95
1106.11456	19657.55
1109.76805	19442.75
1113.41903	19387.05
1117.06751	19435.95
1120.71348	19616.75
1124.35696	19807.75
1127.99793	19984.65
1131.63641	20128.35
1135.2724	20160.45
1138.90589	20152.85
1142.5369	20265.15
1146.16542	20463.75
1149.79145	20747.25
1153.415	20950.15
1157.03607	21328.95
1160.65467	21953.65
1164.27079	22895.45
1167.88443	24034.55
1171.49561	25178.45
1175.10432	26451.35
1178.71056	27965.85
1182.31434	29463.35
1185.91565	30212.85
1189.51451	30305.55
1193.11091	29884.75
1196.70485	29118.15
1200.29634	28204.65
1203.88538	27631.35
1207.47197	27460.55
1211.05612	27363.75
1214.63782	26871.55
1218.21708	26043.35
1221.79391	25054.55
1225.36829	24266.65
1228.94024	23825.55
1232.50976	23539.55
1236.07685	23366.85
1239.6415	23347.15
1243.20374	23396.45
1246.76355	23585.25
1250.32093	23925.05
1253.8759	24402.35
1257.42845	25010.45
1260.97859	25600.35
1264.52631	26277.85
1268.07163	26910.35
1271.61453	27563.75
1275.15503	28230.45
1278.69312	29023.65
1282.22882	29905.05
1285.76211	30935.85
1289.29301	32239.45
1292.82151	33832.75
1296.34761	35651.85
1299.87133	37680.15
1303.39266	39370.75
1306.9116	40609.15
1310.42815	41463.15
1313.94233	41693.85
1317.45412	41583.45
1320.96354	41372.35
1324.47058	41426.95
1327.97525	41562.75
1331.47754	41631.35
1334.97747	41606.05
1338.47502	41444.85
1341.97022	41112.55
1345.46305	40524.55
1348.95352	39846.35
1352.44163	39189.45
1355.92738	39050.95
1359.41078	39375.35
1362.89183	39644.25
1366.37053	38859.85
1369.84688	36414.65
1373.32088	33457.45
1376.79254	31462.45
1380.26186	30896.85
1383.72883	31222.45
1387.19347	31535.45
1390.65578	31472.85
1394.11575	31392.35
1397.57339	31546.75
1401.0287	31851.55
1404.48168	32029.05
1407.93234	31693.15
1411.38068	30782.65
1414.82669	29538.05
1418.27039	28145.45
1421.71177	26916.25
1425.15083	25977.05
1428.58758	25588.05
1432.02203	25812.15
1435.45416	26549.25
1438.88399	27397.85
1442.31151	28070.45
1445.73673	28618.45
1449.15965	28962.55
1452.58027	29151.85
1455.9986	29313.25
1459.41463	29470.05
1462.82837	29756.45
1466.23982	30173.75
1469.64898	30462.05
1473.05586	30608.55
1476.46045	30516.05
1479.86276	30213.15
1483.26279	29851.25
1486.66054	29633.35
1490.05602	29676.15
1493.44922	29962.65
1496.84016	30327.15
1500.22882	30805.55
1503.61521	31662.85
1506.99934	32510.65
1510.38121	33216.55
1513.76081	33425.75
1517.13816	33143.85
1520.51324	32776.65
1523.88607	32606.65
1527.25665	32737.55
1530.62498	32882.95
1533.99105	32777.15
1537.35488	32211.05
1540.71647	31419.35
1544.07581	30377.45
1547.4329	29334.45
1550.78776	28532.65
1554.14038	28011.65
1557.49077	27664.55
1560.83892	27510.35
1564.18484	27424.75
1567.52853	27486.25
1570.86999	27791.25
1574.20922	28441.05
1577.54624	29143.75
1580.88103	29570.75
1584.2136	30039.35
1587.54395	30849.75
1590.87208	32028.85
1594.19801	33347.25
1597.52172	34405.75
1600.84321	34189.65
1604.16251	32520.25
1607.47959	30211.25
1610.79447	27917.75
1614.10715	25781.75
1617.41763	24081.75
1620.7259	22887.85
1624.03199	22242.25
1627.33587	22250.25
1630.63757	22883.95
1633.93707	24362.15
1637.23439	26741.35
1640.52951	30121.85
1643.82246	33934.85
1647.11321	36827.25
1650.40179	37173.65
1653.68819	34540.75
1656.97241	30207.05
1660.25446	25942.35
1663.53433	22759.25
1666.81203	20602.95
1670.08756	19226.75
1673.36092	18374.35
1676.63211	17780.45
1679.90115	17399.95
1683.16801	17106.75
1686.43272	16913.15
1689.69527	16748.05
1692.95567	16615.15
1696.2139	16555.05
1699.46999	16487.75
1702.72392	16395.05
1705.97571	16336.85
1709.22535	16227.35
1712.47284	16216.85
1715.71819	16178.15
1718.96139	16145.65
1722.20246	16082.75
1725.44139	15995.25
1728.67818	15915.25
1731.91284	15791.85
1735.14537	15701.65
1738.37576	15619.05
1741.60403	15577.95
1744.83017	15523.95
1748.05418	15514.05
1751.27607	15456.45
1754.49584	15447.25
1757.71349	15447.95
1760.92903	15430.25
1764.14244	15403.15
1767.35375	15370.05
1770.56294	15357.75
1773.77002	15323.95
1776.97499	15279.85
1780.17785	15226.75
1783.37861	15196.05
1786.57727	15165.25
1789.77382	15136.85
1792.96828	15121.25
1796.16064	15047.95
1799.3509	15018.05
1802.53907	15017.25
1805.72514	14931.85
1808.90913	14930.35
1812.09102	14902.85
1815.27083	14827.75
1818.44856	14817.95
1821.6242	14783.75
1824.79776	14801.55
1827.96924	14755.05
1831.13864	14786.95
1834.30597	14763.55
1837.47122	14786.15
1840.6344	14759.25
1843.7955	14761.85
1846.95454	14712.55
1850.11151	14695.95
1853.26642	14678.45
1856.41926	14721.35
1859.57004	14676.95
1862.71876	14632.95
1865.86542	14624.65
1869.01003	14579.65
1872.15258	14589.65
1875.29308	14572.05
1878.43152	14535.75
1881.56792	14540.45
1884.70227	14508.45
1887.83457	14476.25
1890.96482	14453.25
1894.09304	14388.25
1897.21921	14377.55
1900.34335	14370.75
1903.46544	14367.85
1906.58551	14332.35
1909.70353	14306.15
1912.81953	14283.25
1915.93349	14283.35
1919.04543	14234.15
1922.15534	14200.65
1925.26322	14150.55
1928.36908	14125.95
1931.47292	14124.95
1934.57473	14087.35
1937.67453	14058.45
1940.77232	14037.15
1943.86808	13949.45
1946.96184	13880.45
1950.05358	13881.65
1953.14331	13852.35
1956.23103	13806.15
1959.31675	13797.25
1962.40046	13718.85
1965.48217	13678.05
1968.56188	13634.55
1971.63959	13595.75
1974.7153	13540.95
1977.78901	13502.15
1980.86073	13441.35
1983.93046	13425.35
1986.99819	13398.15
1990.06394	13348.15
1993.1277	13325.15
1996.18947	13295.75
1999.24925	13225.35
2002.30706	13185.15
2005.36288	13162.95
2008.41672	13122.35
2011.46859	13074.35
2014.51848	13061.85
2017.56639	13010.25
2020.61233	12962.45
2023.6563	12909.85
2026.6983	12892.45
2029.73833	12885.55
2032.7764	12862.15
2035.8125	12809.85
2038.84664	12764.35
2041.87881	12727.45
2044.90903	12709.05
2047.93729	12707.25
2050.96359	12664.65
2053.98794	12633.85
2057.01034	12659.95
2060.03078	12627.55
2063.04927	12630.75
2066.06582	12625.25
2069.08042	12600.85
2072.09307	12603.35
2075.10378	12575.05
2078.11255	12567.85
2081.11938	12561.35
2084.12426	12545.35
2087.12722	12576.05
2090.12824	12525.85
2093.12732	12530.55
2096.12447	12520.55
2099.11969	12529.45
2102.11299	12533.65
2105.10435	12535.95
2108.09379	12534.75
2111.08131	12553.75
2114.0669	12544.75
2117.05057	12553.45
2120.03233	12551.25
2123.01216	12561.15
2125.99008	12570.95
2128.96609	12583.85
2131.94018	12591.35
2134.91236	12575.95
2137.88263	12599.75
2140.851	12595.75
2143.81746	12592.35
2146.78201	12588.45
2149.74466	12589.95
2152.7054	12569.25
2155.66425	12593.55
2158.6212	12586.75
2161.57625	12575.75
2164.52941	12554.15
2167.48067	12553.85
2170.43004	12574.65
2173.37752	12537.05
2176.32311	12541.65
2179.26681	12506.45
2182.20863	12525.15
2185.14856	12519.25
2188.08661	12521.85
2191.02278	12509.55
2193.95707	12522.85
2196.88948	12512.15
2199.82001	12510.65
2202.74867	12479.45
2205.67545	12471.05
2208.60037	12432.95
2211.52341	12401.75
2214.44458	12400.75
2217.36388	12371.15
2220.28132	12356.05
2223.1969	12334.45
2226.11061	12300.15
2229.02246	12288.15
2231.93245	12266.85
2234.84058	12251.55
2237.74686	12236.55
2240.65128	12214.65
2243.55385	12214.05
2246.45456	12213.25
2249.35343	12150.45
2252.25044	12122.85
2255.14561	12114.45
2258.03893	12084.75
2260.93041	12026.55
2263.82004	12024.05
2266.70783	11953.35
2269.59378	11928.35
2272.4779	11908.75
2275.36017	11881.55
2278.24061	11842.05
2281.11922	11823.65
2283.996	11809.25
2286.87094	11811.15
2289.74405	11749.05
2292.61534	11768.35
2295.4848	11764.85
2298.35243	11739.95
2301.21824	11699.75
2304.08223	11732.05
2306.94439	11721.25
2309.80474	11721.95
2312.66327	11707.95
2315.51999	11695.45
2318.37489	11703.15
2321.22797	11664.25
2324.07925	11630.95
2326.92871	11631.75
2329.77637	11601.15
2332.62222	11594.95
2335.46626	11597.75
2338.3085	11595.05
2341.14893	11572.45
2343.98756	11555.15
2346.8244	11544.25
2349.65943	11565.55
2352.49267	11548.45
2355.32411	11590.55
2358.15376	11514.95
2360.98161	11561.55
2363.80768	11549.35
2366.63195	11530.35
2369.45444	11521.05
2372.27514	11499.25
2375.09405	11458.35
2377.91118	11450.45
2380.72652	11401.35
2383.54009	11383.75
2386.35187	11372.45
2389.16188	11324.25
2391.97011	11312.25
2394.77657	11274.65
2397.58125	11240.15
2400.38416	11282.25
2403.18529	11250.55
2405.98466	11218.15
2408.78226	11214.95
2411.57809	11216.05
2414.37216	11227.95
2417.16446	11199.35
2419.955	11156.45
2422.74378	11173.55
2425.5308	11155.05
2428.31606	11150.35
2431.09956	11185.95
2433.88131	11134.75
2436.6613	11118.05
2439.43954	11115.75
2442.21603	11112.65
2444.99077	11080.75
2447.76377	11091.55
2450.53501	11075.85
2453.30451	11080.55
2456.07226	11064.95
2458.83827	11077.25
2461.60254	11060.95
2464.36507	11036.05
2467.12586	11048.15
2469.88492	11051.35
2472.64224	11051.45
2475.39782	11023.65
2478.15167	11045.05
2480.90379	11064.75
2483.65417	11038.95
2486.40283	11026.65
2489.14976	11043.95
2491.89497	11012.65
2494.63845	11038.65
2497.3802	11036.65
2500.12024	11039.05
2502.85855	11003.75
2505.59514	10982.95
2508.33002	10988.25
2511.06318	10993.15
2513.79462	10982.75
2516.52435	10962.45
2519.25237	10940.55
2521.97867	10936.25
2524.70327	10952.35
2527.42616	10931.55
2530.14734	10929.35
2532.86681	10896.25
2535.58458	10923.85
2538.30065	10910.85
2541.01501	10910.45
2543.72768	10907.95
2546.43864	10886.85
2549.14791	10875.75
2551.85548	10872.85
2554.56136	10846.25
2557.26554	10836.55
2559.96803	10805.65
2562.66883	10793.15
2565.36794	10757.55
2568.06536	10767.15
2570.7611	10752.45
2573.45514	10748.25
2576.14751	10715.85
2578.83819	10694.45
2581.52719	10675.15
2584.21451	10681.05
2586.90015	10671.65
2589.58411	10648.75
2592.2664	10647.45
2594.94701	10632.65
2597.62594	10650.95
2600.30321	10600.95
2602.9788	10610.25
2605.65273	10594.35
2608.32498	10615.95
2610.99557	10587.25
2613.66449	10570.35
2616.33175	10587.75
2618.99734	10568.55
2621.66128	10570.85
2624.32355	10574.55
2626.98416	10567.25
2629.64311	10540.45
2632.30041	10538.25
2634.95605	10519.25
2637.61004	10494.15
2640.26238	10505.05
2642.91306	10503.35
2645.56209	10483.25
2648.20948	10472.05
2650.85521	10490.65
2653.4993	10511.85
2656.14175	10488.35
2658.78255	10501.55
2661.42171	10518.45
2664.05923	10526.95
2666.6951	10544.15
2669.32934	10528.05
2671.96194	10522.95
2674.59291	10549.65
2677.22224	10532.05
2679.84993	10506.45
2682.476	10531.05
2685.10043	10497.35
2687.72324	10491.35
2690.34441	10510.85
2692.96396	10495.15
2695.58188	10495.35
2698.19818	10483.45
2700.81285	10523.55
2703.4259	10508.55
2706.03733	10538.05
2708.64714	10502.65
2711.25533	10516.35
2713.86191	10505.75
2716.46687	10522.15
2719.07021	10498.75
2721.67194	10557.15
2724.27206	10530.35
2726.87057	10546.75
2729.46747	10572.85
2732.06276	10571.05
2734.65644	10554.55
2737.24852	10533.35
2739.83899	10531.25
2742.42786	10530.05
2745.01513	10511.85
2747.60079	10483.35
2750.18486	10507.35
2752.76733	10468.25
2755.3482	10490.85
2757.92747	10454.85
2760.50515	10455.75
2763.08123	10434.85
2765.65573	10452.65
2768.22863	10439.55
2770.79994	10430.15
2773.36967	10444.95
2775.9378	10422.45
2778.50435	10424.75
2781.06932	10432.15
2783.6327	10429.05
2786.1945	10407.15
2788.75471	10403.35
2791.31335	10384.65
2793.87041	10365.55
2796.42589	10361.85
2798.97979	10359.75
2801.53212	10322.05
2804.08288	10320.05
2806.63206	10287.15
2809.17967	10252.15
2811.72571	10216.85
2814.27018	10238.75
2816.81308	10214.75
2819.35442	10205.05
2821.89419	10163.85
2824.43239	10148.25
2826.96904	10131.35
2829.50412	10114.25
2832.03763	10127.45
2834.56959	10110.05
2837.1	10082.05
2839.62884	10102.65
2842.15613	10092.95
2844.68186	10102.55
2847.20604	10098.25
2849.72867	10134.25
2852.24974	10106.75
2854.76927	10079.85
2857.28724	10063.15
2859.80367	10063.85
2862.31855	10060.95
2864.83189	10024.25
2867.34368	10006.05
2869.85393	9985.55
2872.36264	9983.85
2874.8698	9970.85
2877.37543	9964.45
2879.87952	9939.15
2882.38207	9962.75
2884.88308	9970.75
2887.38256	9972.95
2889.88051	9946.05
2892.37692	9971.05
2894.8718	9981.65
2897.36515	9979.85
2899.85698	9980.15
2902.34727	10001.25
2904.83604	9963.45
2907.32328	10012.75
2909.809	10012.65
2912.29319	9994.25
2914.77587	9991.45
2917.25702	10010.05
2919.73665	9986.85
2922.21476	9990.25
2924.69136	9989.85
2927.16644	9985.75
2929.64	9957.65
2932.11205	9961.75
2934.58258	9948.85
2937.05161	9943.95
2939.51912	9972.35
2941.98513	9958.55
2944.44962	9902.15
2946.91261	9870.75
2949.37409	9879.25
2951.83407	9852.85
2954.29254	9864.45
2956.74951	9817.05
2959.20498	9851.05
2961.65895	9831.05
2964.11142	9821.75
2966.56239	9823.25
2969.01186	9807.65
2971.45984	9803.85
2973.90632	9794.25
2976.35131	9778.85
2978.7948	9754.45
2981.23681	9715.05
2983.67732	9695.15
2986.11635	9704.75
2988.55388	9672.95
2990.98993	9652.15
2993.4245	9627.45
2995.85758	9584.35
2998.28917	9586.45
3000.71928	9549.35
3003.14791	9523.45
3005.57506	9541.05
3008.00073	9483.95
3010.42493	9473.95
3012.84764	9430.75
3015.26888	9411.25
3017.68865	9384.25
3020.10694	9360.55
3022.52376	9389.85
3024.9391	9364.95
3027.35298	9363.55
3029.76539	9341.95
3032.17632	9341.35
3034.5858	9347.35
3036.9938	9312.15
3039.40034	9324.25
3041.80542	9314.25
3044.20903	9289.85
3046.61118	9287.45
3049.01187	9280.05
3051.4111	9258.55
3053.80888	9222.45
3056.20519	9218.55
3058.60005	9188.35
3060.99345	9146.75
3063.3854	9123.15
3065.7759	9132.25
3068.16494	9117.45
3070.55254	9066.05
3072.93868	9070.55
3075.32338	9041.85
3077.70662	8997.05
3080.08842	8986.95
3082.46878	8983.85
3084.84769	8947.85
3087.22515	8958.95
3089.60118	8961.75
3091.97576	8959.65
3094.3489	8936.45
3096.72061	8933.95
3099.09087	8927.35
3101.4597	8919.35
3103.82709	8922.65
3106.19305	8884.95
3108.55757	8908.45
3110.92066	8900.75
3113.28232	8865.45
3115.64255	8861.05
3118.00134	8844.25
3120.35871	8821.05
3122.71466	8804.25
3125.06917	8770.55
3127.42226	8748.65
3129.77393	8767.45
3132.12417	8719.75
3134.47299	8713.05
3136.82039	8732.75
3139.16636	8722.05
3141.51092	8735.25
3143.85406	8727.55
3146.19579	8700.65
3148.53609	8717.55
3150.87499	8714.85
3153.21246	8716.55
3155.54853	8750.85
3157.88318	8701.85
3160.21642	8709.85
3162.54826	8729.85
3164.87868	8716.45
3167.2077	8750.15
3169.5353	8743.45
3171.86151	8744.25
3174.18631	8749.35
3176.5097	8726.95
3178.83169	8720.25
3181.15228	8713.05
3183.47147	8688.45
3185.78926	8677.15
3188.10565	8648.85
3190.42065	8646.35
3192.73424	8622.55
3195.04645	8628.55
3197.35725	8613.15
3199.66667	8608.35
3201.97469	8621.55
3204.28132	8596.65
3206.58656	8618.15
3208.8904	8598.05
3211.19287	8602.45
3213.49394	8606.55
3215.79363	8623.95
3218.09193	8626.75
3220.38884	8618.95
3222.68438	8628.15
3224.97853	8607.75
3227.2713	8606.45
3229.56269	8602.95
3231.8527	8582.15
3234.14133	8582.75
3236.42858	8555.35
3238.71446	8570.35
3240.99896	8536.85
3243.28209	8492.75
3245.56384	8495.05
3247.84423	8491.25
3250.12324	8499.65
3252.40088	8474.55
3254.67715	8458.65
3256.95205	8434.95
3259.22558	8431.05
3261.49775	8431.45
3263.76855	8434.05
3266.03799	8406.25
3268.30606	8408.85
3270.57277	8389.05
3272.83812	8362.65
3275.10211	8328.75
3277.36474	8317.75
3279.62601	8314.25
3281.88593	8299.45
3284.14448	8284.25
3286.40168	8316.25
3288.65753	8309.95
3290.91202	8276.95
3293.16516	8261.85
3295.41695	8273.75
3297.66738	8231.95
3299.91647	8151.15
3302.16421	8124.25
3304.4106	8081.25
3306.65564	8048.15
3308.89933	7956.05
3311.14169	7910.75
3313.38269	7833.95
3315.62236	7765.75
3317.86068	7683.95
3320.09766	7640.45
3322.3333	7569.85
3324.5676	7551.15
3326.80056	7403.65
3329.03219	7354.15
3331.26248	4.25
3333.49143	-0.75
3335.71905	-1.05
