Data from AgNP_FTO_APTES_UA_10uM_CRN_5uM_R6G_10uM_NaF_0.1M_Addition_RamanShift__26__15-12-40-668.txt Node

Date: Thu Feb 10 15:12:40 GMT 2022
User: TCL
Spectrometer: QEP01345
Trigger mode: 4
Integration Time (sec): 7.000000E0
Scans to average: 10
Electric dark correction enabled: true
Nonlinearity correction enabled: false
Boxcar width: 0
XAxis mode: Raman Shifts
Number of Pixels in Spectrum: 1044
>>>>>Begin Spectral Data<<<<<
46.04893	-1.25
50.45542	0.45
54.85868	-2.05
59.25871	-1.25
63.6555	67.65
68.04907	69.05
72.43941	69.85
76.82654	72.45
81.21044	82.05
85.59113	80.35
89.96862	85.15
94.34289	87.25
98.71396	87.15
103.08183	93.55
107.4465	94.95
111.80798	96.55
116.16626	103.55
120.52136	102.95
124.87327	108.95
129.222	111.95
133.56755	122.85
137.90993	129.85
142.24913	139.25
146.58517	157.05
150.91804	183.75
155.24774	215.45
159.57429	265.25
163.89768	342.15
168.21792	448.45
172.53501	615.15
176.84895	852.75
181.15975	1192.65
185.46741	1660.55
189.77193	2293.65
194.07331	3076.95
198.37157	3959.85
202.6667	4873.05
206.9587	5786.45
211.24758	6689.15
215.53334	7609.95
219.81599	8619.35
224.09553	9752.45
228.37195	11020.05
232.64527	12411.65
236.91549	13841.75
241.18261	15191.95
245.44663	16365.95
249.70755	17431.85
253.96539	18356.35
258.22014	19179.05
262.4718	19880.15
266.72039	20410.95
270.96589	20814.95
275.20832	20988.35
279.44768	20885.45
283.68397	20783.45
287.91719	20737.25
292.14735	20740.75
296.37445	20919.95
300.59849	21202.65
304.81948	21542.15
309.03742	21650.45
313.25231	21423.55
317.46415	20595.65
321.67296	19505.45
325.87872	18645.95
330.08145	18228.35
334.28114	18247.15
338.47781	18430.15
342.67145	18839.75
346.86207	19426.75
351.04966	20176.65
355.23424	20962.75
359.4158	21616.55
363.59435	21943.95
367.76989	22083.35
371.94243	22140.35
376.11196	22088.75
380.27849	22098.25
384.44203	21997.15
388.60257	21948.25
392.76012	22005.45
396.91468	22302.55
401.06626	22805.55
405.21485	23135.35
409.36047	22922.55
413.50311	22214.25
417.64277	21610.15
421.77947	21346.35
425.9132	21331.55
430.04396	21439.95
434.17176	21571.55
438.2966	21773.75
442.41849	22205.45
446.53742	22817.65
450.6534	23485.05
454.76644	24014.65
458.87653	24220.35
462.98368	24070.55
467.08789	23843.85
471.18916	23380.15
475.2875	22917.65
479.38291	22596.15
483.4754	22356.05
487.56496	22002.05
491.6516	21694.45
495.73531	21436.95
499.81612	21405.45
503.89401	21482.45
507.96899	21664.85
512.04106	21705.65
516.11023	21770.85
520.1765	21778.35
524.23987	21635.85
528.30034	21340.85
532.35792	20985.05
536.41261	20666.15
540.46441	20410.15
544.51333	20348.95
548.55936	20658.25
552.60252	21205.85
556.64279	21759.95
560.6802	22030.25
564.71473	22249.15
568.7464	22812.95
572.7752	23381.55
576.80114	23312.75
580.82422	23121.85
584.84444	23083.25
588.86181	23061.05
592.87633	23217.45
596.888	23418.65
600.89682	23944.75
604.9028	25708.15
608.90594	30285.65
612.90624	35481.35
616.90371	33245.95
620.89834	25554.85
624.89015	22349.85
628.87913	21912.15
632.86528	21900.65
636.84862	21768.05
640.82913	21283.75
644.80683	20517.55
648.78172	20034.55
652.75379	20063.05
656.72306	20564.35
660.68952	21287.15
664.65319	21192.45
668.61405	20573.45
672.57211	20266.85
676.52738	20228.75
680.47986	20215.25
684.42955	20138.65
688.37646	20096.85
692.32058	20246.25
696.26192	20452.25
700.20048	20720.35
704.13626	20933.55
708.06928	20900.05
711.99952	20670.25
715.927	20556.75
719.85171	20565.65
723.77365	20461.75
727.69284	20247.75
731.60928	19997.65
735.52295	19989.35
739.43388	20011.05
743.34206	20147.05
747.24749	20288.95
751.15017	20518.55
755.05012	20951.15
758.94733	21845.85
762.8418	23591.05
766.73354	26367.85
770.62254	29072.55
774.50882	29894.55
778.39237	28171.45
782.27321	25180.25
786.15132	22635.15
790.02671	21189.35
793.89938	20521.55
797.76935	20254.15
801.6366	20191.75
805.50115	20033.85
809.36299	19896.25
813.22213	19804.05
817.07857	19759.45
820.93231	19775.55
824.78336	19778.35
828.63172	19847.15
832.47738	19876.65
836.32036	19911.95
840.16066	19953.85
843.99827	19979.15
847.8332	19925.85
851.66546	19804.15
855.49504	19754.05
859.32195	19746.35
863.1462	19581.15
866.96777	19458.65
870.78668	19420.45
874.60293	19439.35
878.41652	19472.15
882.22745	19566.55
886.03573	19588.95
889.84136	19552.85
893.64433	19465.15
897.44466	19392.95
901.24235	19358.85
905.0374	19359.55
908.8298	19361.45
912.61957	19399.15
916.40671	19602.45
920.19121	19914.15
923.97308	20176.45
927.75233	20340.65
931.52895	20354.65
935.30295	20078.75
939.07433	19594.85
942.84309	19183.55
946.60924	19033.65
950.37278	18937.45
954.13371	18790.65
957.89203	18662.35
961.64774	18602.05
965.40086	18541.65
969.15137	18450.75
972.89929	18394.35
976.64461	18357.15
980.38733	18410.85
984.12747	18487.45
987.86502	18688.15
991.59999	18958.55
995.33237	19393.15
999.06217	20146.75
1002.78939	21001.45
1006.51404	21560.85
1010.23611	21871.85
1013.95561	22083.85
1017.67255	22081.45
1021.38692	21787.75
1025.09872	21636.25
1028.80796	21964.35
1032.51465	22834.45
1036.21877	23563.75
1039.92035	23573.25
1043.61937	23062.35
1047.31584	22275.55
1051.00976	21504.55
1054.70114	21117.65
1058.38998	21053.45
1062.07627	21182.25
1065.76003	21258.75
1069.44126	21326.25
1073.11995	21496.05
1076.79611	21689.25
1080.46974	21842.95
1084.14085	22116.55
1087.80943	22517.15
1091.47549	22687.55
1095.13903	22445.45
1098.80005	21905.25
1102.45857	21415.05
1106.11456	21134.25
1109.76805	21169.85
1113.41903	21420.15
1117.06751	21790.45
1120.71348	22265.95
1124.35696	22714.85
1127.99793	23186.75
1131.63641	23252.05
1135.2724	22774.25
1138.90589	22265.95
1142.5369	21922.85
1146.16542	21713.85
1149.79145	21646.65
1153.415	21790.85
1157.03607	22088.05
1160.65467	22617.35
1164.27079	23427.65
1167.88443	24633.85
1171.49561	26366.85
1175.10432	29016.35
1178.71056	32377.25
1182.31434	35230.65
1185.91565	36624.75
1189.51451	36439.05
1193.11091	34877.85
1196.70485	32656.85
1200.29634	30713.45
1203.88538	29233.75
1207.47197	27864.05
1211.05612	26776.25
1214.63782	26202.35
1218.21708	26065.95
1221.79391	26250.75
1225.36829	26436.15
1228.94024	26367.85
1232.50976	26193.25
1236.07685	25923.35
1239.6415	25821.25
1243.20374	25757.85
1246.76355	25862.95
1250.32093	26311.15
1253.8759	26986.25
1257.42845	27913.35
1260.97859	28756.65
1264.52631	29450.05
1268.07163	30210.15
1271.61453	31093.05
1275.15503	32002.25
1278.69312	32889.75
1282.22882	33570.75
1285.76211	34249.15
1289.29301	34872.95
1292.82151	35712.95
1296.34761	36775.85
1299.87133	38549.95
1303.39266	41140.15
1306.9116	44670.65
1310.42815	48719.45
1313.94233	51400.65
1317.45412	51322.95
1320.96354	49508.15
1324.47058	47242.65
1327.97525	45235.45
1331.47754	43939.85
1334.97747	43587.75
1338.47502	43848.45
1341.97022	44362.05
1345.46305	44601.75
1348.95352	44572.95
1352.44163	44855.95
1355.92738	46395.85
1359.41078	49989.35
1362.89183	53461.05
1366.37053	51985.55
1369.84688	46045.05
1373.32088	40022.55
1376.79254	36248.95
1380.26186	34526.85
1383.72883	33805.65
1387.19347	33221.65
1390.65578	32675.05
1394.11575	32390.35
1397.57339	32616.85
1401.0287	33260.85
1404.48168	34002.85
1407.93234	34687.25
1411.38068	35004.75
1414.82669	34617.85
1418.27039	33520.15
1421.71177	32176.35
1425.15083	31003.25
1428.58758	30266.55
1432.02203	30187.95
1435.45416	30375.35
1438.88399	30681.05
1442.31151	31032.15
1445.73673	31332.75
1449.15965	31726.45
1452.58027	31944.85
1455.9986	31941.55
1459.41463	32075.05
1462.82837	32511.95
1466.23982	33139.65
1469.64898	33841.75
1473.05586	34235.85
1476.46045	34410.15
1479.86276	34718.95
1483.26279	34904.35
1486.66054	35257.35
1490.05602	35842.05
1493.44922	36552.25
1496.84016	37424.85
1500.22882	38784.65
1503.61521	40743.75
1506.99934	43320.05
1510.38121	45881.25
1513.76081	47447.85
1517.13816	46446.25
1520.51324	43307.65
1523.88607	40007.55
1527.25665	37583.75
1530.62498	36076.55
1533.99105	35159.05
1537.35488	34521.85
1540.71647	34123.65
1544.07581	33811.95
1547.4329	33441.15
1550.78776	33073.25
1554.14038	32882.65
1557.49077	32951.75
1560.83892	33173.35
1564.18484	33424.75
1567.52853	33536.05
1570.86999	33488.55
1574.20922	33621.95
1577.54624	33600.95
1580.88103	33010.15
1584.2136	32397.45
1587.54395	32753.75
1590.87208	34222.45
1594.19801	36591.95
1597.52172	39206.55
1600.84321	40107.55
1604.16251	38588.65
1607.47959	35623.85
1610.79447	32523.75
1614.10715	29757.55
1617.41763	27536.35
1620.7259	26099.35
1624.03199	25418.95
1627.33587	25464.55
1630.63757	26229.55
1633.93707	27752.85
1637.23439	30001.35
1640.52951	32678.15
1643.82246	35600.85
1647.11321	38149.55
1650.40179	39279.75
1653.68819	37541.05
1656.97241	33152.25
1660.25446	28437.05
1663.53433	25016.15
1666.81203	22783.25
1670.08756	21465.95
1673.36092	20620.65
1676.63211	20055.45
1679.90115	19662.35
1683.16801	19372.65
1686.43272	19175.15
1689.69527	19007.05
1692.95567	18899.65
1696.2139	18838.35
1699.46999	18839.25
1702.72392	18764.45
1705.97571	18648.65
1709.22535	18611.25
1712.47284	18629.35
1715.71819	18608.95
1718.96139	18567.25
1722.20246	18536.95
1725.44139	18463.45
1728.67818	18384.45
1731.91284	18235.05
1735.14537	18158.75
1738.37576	18061.95
1741.60403	18027.65
1744.83017	17972.55
1748.05418	17919.85
1751.27607	17889.05
1754.49584	17860.35
1757.71349	17905.65
1760.92903	17874.25
1764.14244	17860.35
1767.35375	17860.35
1770.56294	17826.25
1773.77002	17751.55
1776.97499	17748.65
1780.17785	17665.65
1783.37861	17679.35
1786.57727	17639.35
1789.77382	17626.35
1792.96828	17581.85
1796.16064	17588.15
1799.3509	17553.25
1802.53907	17551.55
1805.72514	17513.35
1808.90913	17450.45
1812.09102	17429.65
1815.27083	17396.75
1818.44856	17396.65
1821.6242	17376.15
1824.79776	17339.15
1827.96924	17337.05
1831.13864	17308.25
1834.30597	17297.45
1837.47122	17294.75
1840.6344	17305.45
1843.7955	17306.15
1846.95454	17299.75
1850.11151	17325.35
1853.26642	17326.75
1856.41926	17327.45
1859.57004	17355.45
1862.71876	17385.15
1865.86542	17356.25
1869.01003	17363.95
1872.15258	17388.45
1875.29308	17392.45
1878.43152	17392.65
1881.56792	17372.35
1884.70227	17397.05
1887.83457	17447.85
1890.96482	17477.55
1894.09304	17422.65
1897.21921	17446.45
1900.34335	17456.65
1903.46544	17443.85
1906.58551	17476.35
1909.70353	17479.75
1912.81953	17488.85
1915.93349	17475.15
1919.04543	17447.85
1922.15534	17437.25
1925.26322	17394.45
1928.36908	17351.95
1931.47292	17302.55
1934.57473	17218.35
1937.67453	17145.05
1940.77232	17043.25
1943.86808	16957.95
1946.96184	16872.15
1950.05358	16825.05
1953.14331	16752.45
1956.23103	16695.45
1959.31675	16662.25
1962.40046	16599.15
1965.48217	16540.15
1968.56188	16480.55
1971.63959	16445.45
1974.7153	16375.95
1977.78901	16329.65
1980.86073	16260.25
1983.93046	16231.65
1986.99819	16203.55
1990.06394	16180.95
1993.1277	16098.75
1996.18947	16053.85
1999.24925	16005.55
2002.30706	15960.45
2005.36288	15927.45
2008.41672	15901.85
2011.46859	15831.55
2014.51848	15804.55
2017.56639	15760.25
2020.61233	15724.95
2023.6563	15723.15
2026.6983	15658.15
2029.73833	15634.25
2032.7764	15607.75
2035.8125	15582.25
2038.84664	15536.65
2041.87881	15532.95
2044.90903	15522.85
2047.93729	15479.85
2050.96359	15492.65
2053.98794	15498.55
2057.01034	15464.45
2060.03078	15434.85
2063.04927	15426.35
2066.06582	15421.15
2069.08042	15368.15
2072.09307	15394.45
2075.10378	15353.35
2078.11255	15345.85
2081.11938	15322.75
2084.12426	15304.55
2087.12722	15302.55
2090.12824	15276.75
2093.12732	15258.75
2096.12447	15275.55
2099.11969	15283.35
2102.11299	15239.95
2105.10435	15273.85
2108.09379	15264.15
2111.08131	15251.75
2114.0669	15316.45
2117.05057	15300.85
2120.03233	15337.25
2123.01216	15336.35
2125.99008	15326.05
2128.96609	15354.85
2131.94018	15354.15
2134.91236	15386.25
2137.88263	15376.05
2140.851	15387.95
2143.81746	15404.05
2146.78201	15412.35
2149.74466	15413.95
2152.7054	15397.35
2155.66425	15391.55
2158.6212	15397.55
2161.57625	15396.95
2164.52941	15406.15
2167.48067	15364.85
2170.43004	15380.15
2173.37752	15401.65
2176.32311	15390.25
2179.26681	15373.95
2182.20863	15397.45
2185.14856	15399.65
2188.08661	15392.85
2191.02278	15392.15
2193.95707	15417.75
2196.88948	15390.75
2199.82001	15367.95
2202.74867	15368.65
2205.67545	15362.45
2208.60037	15342.55
2211.52341	15344.45
2214.44458	15337.75
2217.36388	15313.55
2220.28132	15327.05
2223.1969	15279.25
2226.11061	15289.85
2229.02246	15221.35
2231.93245	15215.75
2234.84058	15150.45
2237.74686	15103.75
2240.65128	15129.15
2243.55385	15115.05
2246.45456	15095.55
2249.35343	15066.35
2252.25044	15047.55
2255.14561	15063.85
2258.03893	15044.75
2260.93041	15033.65
2263.82004	14953.35
2266.70783	14916.85
2269.59378	14881.65
2272.4779	14825.95
2275.36017	14790.15
2278.24061	14772.85
2281.11922	14766.15
2283.996	14747.85
2286.87094	14730.45
2289.74405	14720.15
2292.61534	14719.25
2295.4848	14686.55
2298.35243	14727.25
2301.21824	14746.35
2304.08223	14749.75
2306.94439	14746.75
2309.80474	14747.65
2312.66327	14782.95
2315.51999	14801.65
2318.37489	14795.15
2321.22797	14784.95
2324.07925	14752.25
2326.92871	14754.45
2329.77637	14740.05
2332.62222	14719.35
2335.46626	14731.75
2338.3085	14772.85
2341.14893	14776.35
2343.98756	14788.25
2346.8244	14829.35
2349.65943	14828.45
2352.49267	14819.35
2355.32411	14804.95
2358.15376	14772.55
2360.98161	14800.35
2363.80768	14774.75
2366.63195	14751.55
2369.45444	14730.85
2372.27514	14681.75
2375.09405	14667.15
2377.91118	14611.65
2380.72652	14535.45
2383.54009	14528.75
2386.35187	14506.35
2389.16188	14464.15
2391.97011	14442.05
2394.77657	14406.95
2397.58125	14429.95
2400.38416	14401.15
2403.18529	14348.35
2405.98466	14352.65
2408.78226	14278.15
2411.57809	14263.05
2414.37216	14212.35
2417.16446	14207.45
2419.955	14161.85
2422.74378	14168.05
2425.5308	14165.75
2428.31606	14158.75
2431.09956	14120.85
2433.88131	14143.85
2436.6613	14159.85
2439.43954	14172.45
2442.21603	14143.75
2444.99077	14145.45
2447.76377	14124.25
2450.53501	14086.75
2453.30451	14106.25
2456.07226	14111.05
2458.83827	14100.35
2461.60254	14108.15
2464.36507	14122.95
2467.12586	14099.95
2469.88492	14066.45
2472.64224	14093.95
2475.39782	14148.75
2478.15167	14151.95
2480.90379	14174.65
2483.65417	14175.05
2486.40283	14213.25
2489.14976	14239.95
2491.89497	14224.25
2494.63845	14263.55
2497.3802	14287.15
2500.12024	14258.75
2502.85855	14225.95
2505.59514	14214.75
2508.33002	14173.25
2511.06318	14159.55
2513.79462	14155.05
2516.52435	14133.95
2519.25237	14096.35
2521.97867	14068.35
2524.70327	14099.95
2527.42616	14097.65
2530.14734	14088.45
2532.86681	14040.05
2535.58458	14080.35
2538.30065	14061.05
2541.01501	14063.05
2543.72768	14048.95
2546.43864	14049.65
2549.14791	14061.55
2551.85548	14040.65
2554.56136	14030.75
2557.26554	14009.45
2559.96803	13977.75
2562.66883	13988.25
2565.36794	13953.65
2568.06536	13955.35
2570.7611	13908.05
2573.45514	13925.25
2576.14751	13890.55
2578.83819	13882.45
2581.52719	13912.15
2584.21451	13919.75
2586.90015	13910.15
2589.58411	13897.35
2592.2664	13876.55
2594.94701	13904.75
2597.62594	13898.35
2600.30321	13872.95
2602.9788	13872.35
2605.65273	13898.35
2608.32498	13893.15
2610.99557	13889.95
2613.66449	13913.75
2616.33175	13917.95
2618.99734	13929.05
2621.66128	13929.85
2624.32355	13921.45
2626.98416	13926.75
2629.64311	13941.15
2632.30041	13926.85
2634.95605	13880.65
2637.61004	13854.65
2640.26238	13869.85
2642.91306	13830.05
2645.56209	13839.75
2648.20948	13841.55
2650.85521	13809.45
2653.4993	13797.75
2656.14175	13800.45
2658.78255	13807.05
2661.42171	13800.75
2664.05923	13838.55
2666.6951	13853.75
2669.32934	13868.25
2671.96194	13860.45
2674.59291	13905.25
2677.22224	13881.45
2679.84993	13917.15
2682.476	13860.35
2685.10043	13824.55
2687.72324	13832.55
2690.34441	13832.25
2692.96396	13841.35
2695.58188	13808.05
2698.19818	13770.15
2700.81285	13809.65
2703.4259	13837.85
2706.03733	13845.95
2708.64714	13822.55
2711.25533	13823.95
2713.86191	13812.85
2716.46687	13857.95
2719.07021	13839.95
2721.67194	13854.25
2724.27206	13859.85
2726.87057	13874.75
2729.46747	13855.65
2732.06276	13861.35
2734.65644	13863.25
2737.24852	13851.75
2739.83899	13845.05
2742.42786	13844.55
2745.01513	13849.85
2747.60079	13829.45
2750.18486	13787.85
2752.76733	13794.35
2755.3482	13803.95
2757.92747	13808.65
2760.50515	13767.75
2763.08123	13761.65
2765.65573	13768.15
2768.22863	13729.05
2770.79994	13741.75
2773.36967	13748.55
2775.9378	13777.45
2778.50435	13745.75
2781.06932	13756.65
2783.6327	13727.25
2786.1945	13749.55
2788.75471	13761.75
2791.31335	13712.85
2793.87041	13721.15
2796.42589	13695.05
2798.97979	13691.65
2801.53212	13639.65
2804.08288	13671.05
2806.63206	13623.35
2809.17967	13604.85
2811.72571	13582.25
2814.27018	13576.55
2816.81308	13560.05
2819.35442	13520.15
2821.89419	13524.55
2824.43239	13543.95
2826.96904	13508.25
2829.50412	13548.05
2832.03763	13521.45
2834.56959	13511.55
2837.1	13505.55
2839.62884	13488.45
2842.15613	13488.85
2844.68186	13510.45
2847.20604	13551.25
2849.72867	13555.95
2852.24974	13547.25
2854.76927	13501.15
2857.28724	13507.75
2859.80367	13468.85
2862.31855	13463.45
2864.83189	13433.85
2867.34368	13444.15
2869.85393	13403.95
2872.36264	13424.85
2874.8698	13423.05
2877.37543	13396.45
2879.87952	13421.35
2882.38207	13402.55
2884.88308	13412.15
2887.38256	13414.65
2889.88051	13411.35
2892.37692	13425.95
2894.8718	13424.85
2897.36515	13438.05
2899.85698	13450.85
2902.34727	13498.05
2904.83604	13503.65
2907.32328	13529.15
2909.809	13551.25
2912.29319	13516.05
2914.77587	13501.75
2917.25702	13488.35
2919.73665	13472.45
2922.21476	13493.75
2924.69136	13459.45
2927.16644	13452.65
2929.64	13432.45
2932.11205	13400.65
2934.58258	13344.85
2937.05161	13377.95
2939.51912	13368.85
2941.98513	13330.75
2944.44962	13300.45
2946.91261	13299.25
2949.37409	13309.35
2951.83407	13280.95
2954.29254	13262.75
2956.74951	13257.05
2959.20498	13243.15
2961.65895	13220.45
2964.11142	13248.45
2966.56239	13198.45
2969.01186	13177.55
2971.45984	13150.85
2973.90632	13161.95
2976.35131	13112.15
2978.7948	13099.65
2981.23681	13055.95
2983.67732	13028.15
2986.11635	12992.35
2988.55388	12958.55
2990.98993	12956.75
2993.4245	12925.55
2995.85758	12883.85
2998.28917	12864.55
3000.71928	12861.65
3003.14791	12826.35
3005.57506	12814.25
3008.00073	12776.45
3010.42493	12650.75
3012.84764	12738.35
3015.26888	12714.45
3017.68865	12660.45
3020.10694	12643.75
3022.52376	12613.05
3024.9391	12604.05
3027.35298	12584.45
3029.76539	12598.05
3032.17632	12591.65
3034.5858	12566.25
3036.9938	12575.35
3039.40034	12556.45
3041.80542	12538.65
3044.20903	12515.15
3046.61118	12530.15
3049.01187	12483.45
3051.4111	12458.55
3053.80888	12434.95
3056.20519	12440.95
3058.60005	12383.25
3060.99345	12373.35
3063.3854	12339.45
3065.7759	12277.35
3068.16494	12268.35
3070.55254	12223.55
3072.93868	12199.85
3075.32338	12142.25
3077.70662	12119.15
3080.08842	12094.05
3082.46878	12083.05
3084.84769	12080.85
3087.22515	12070.55
3089.60118	12079.15
3091.97576	12033.95
3094.3489	12031.35
3096.72061	12051.85
3099.09087	12069.05
3101.4597	12036.65
3103.82709	12014.55
3106.19305	12020.05
3108.55757	11984.25
3110.92066	11970.45
3113.28232	11965.95
3115.64255	11902.15
3118.00134	11884.25
3120.35871	11867.55
3122.71466	11852.55
3125.06917	11844.45
3127.42226	11826.15
3129.77393	11829.65
3132.12417	11776.05
3134.47299	11787.65
3136.82039	11762.85
3139.16636	11789.95
3141.51092	11773.95
3143.85406	11752.25
3146.19579	11754.05
3148.53609	11766.95
3150.87499	11767.35
3153.21246	11765.95
3155.54853	11789.65
3157.88318	11783.95
3160.21642	11817.15
3162.54826	11799.35
3164.87868	11801.75
3167.2077	11800.25
3169.5353	11797.15
3171.86151	11806.45
3174.18631	11796.65
3176.5097	11768.15
3178.83169	11760.05
3181.15228	11737.95
3183.47147	11701.95
3185.78926	11732.85
3188.10565	11709.25
3190.42065	11704.85
3192.73424	11696.95
3195.04645	11690.15
3197.35725	11699.85
3199.66667	11697.65
3201.97469	11702.45
3204.28132	11737.85
3206.58656	11746.85
3208.8904	11704.25
3211.19287	11723.75
3213.49394	11713.35
3215.79363	11724.85
3218.09193	11735.05
3220.38884	11742.95
3222.68438	11749.15
3224.97853	11724.65
3227.2713	11743.15
3229.56269	11726.95
3231.8527	11728.45
3234.14133	11699.35
3236.42858	11676.15
3238.71446	11640.55
3240.99896	11614.15
3243.28209	11632.05
3245.56384	11613.65
3247.84423	11603.65
3250.12324	11590.65
3252.40088	11589.25
3254.67715	11568.05
3256.95205	11582.85
3259.22558	11573.75
3261.49775	11529.05
3263.76855	11540.85
3266.03799	11527.05
3268.30606	11508.05
3270.57277	11466.85
3272.83812	11434.35
3275.10211	11449.25
3277.36474	11428.15
3279.62601	11422.75
3281.88593	11386.85
3284.14448	11373.35
3286.40168	11363.35
3288.65753	11403.35
3290.91202	11361.15
3293.16516	11378.25
3295.41695	11346.65
3297.66738	11298.75
3299.91647	11235.05
3302.16421	11187.55
3304.4106	11124.55
3306.65564	11019.75
3308.89933	10979.55
3311.14169	10882.35
3313.38269	10785.75
3315.62236	10706.35
3317.86068	10664.95
3320.09766	10592.55
3322.3333	10500.05
3324.5676	10463.75
3326.80056	10297.05
3329.03219	10246.05
3331.26248	4.55
3333.49143	0.55
3335.71905	-1.05
