Data from AgNP_FTO_APTES_UA_10uM_CRN_1000uM_R6G_10uM_NaF_0.1M_Addition_RamanShift__14__19-37-30-994.txt Node

Date: Thu Feb 10 19:37:30 GMT 2022
User: TCL
Spectrometer: QEP01345
Trigger mode: 4
Integration Time (sec): 7.000000E0
Scans to average: 10
Electric dark correction enabled: true
Nonlinearity correction enabled: false
Boxcar width: 0
XAxis mode: Raman Shifts
Number of Pixels in Spectrum: 1044
>>>>>Begin Spectral Data<<<<<
46.04893	0.05
50.45542	-0.95
54.85868	-1.25
59.25871	-1.45
63.6555	52.85
68.04907	55.25
72.43941	61.65
76.82654	59.55
81.21044	66.95
85.59113	65.35
89.96862	67.95
94.34289	70.65
98.71396	73.95
103.08183	76.55
107.4465	78.05
111.80798	78.35
116.16626	81.45
120.52136	84.25
124.87327	89.45
129.222	90.95
133.56755	98.95
137.90993	104.05
142.24913	111.35
146.58517	122.55
150.91804	147.85
155.24774	173.75
159.57429	214.15
163.89768	269.55
168.21792	360.15
172.53501	491.65
176.84895	687.55
181.15975	966.65
185.46741	1361.35
189.77193	1898.95
194.07331	2553.85
198.37157	3289.75
202.6667	4092.65
206.9587	4866.75
211.24758	5642.25
215.53334	6401.55
219.81599	7195.75
224.09553	8065.15
228.37195	9003.35
232.64527	10043.35
236.91549	11167.55
241.18261	12286.25
245.44663	13378.45
249.70755	14358.65
253.96539	15234.95
258.22014	15949.55
262.4718	16569.65
266.72039	16991.95
270.96589	17240.05
275.20832	17305.55
279.44768	17238.75
283.68397	17101.55
287.91719	16954.75
292.14735	16840.65
296.37445	16797.85
300.59849	16840.65
304.81948	16862.35
309.03742	16798.95
313.25231	16635.35
317.46415	16316.05
321.67296	15959.75
325.87872	15649.75
330.08145	15500.55
334.28114	15499.95
338.47781	15629.75
342.67145	15769.35
346.86207	16029.45
351.04966	16249.75
355.23424	16533.55
359.4158	16763.55
363.59435	16941.75
367.76989	17106.15
371.94243	17200.15
376.11196	17322.15
380.27849	17416.55
384.44203	17491.95
388.60257	17560.05
392.76012	17676.95
396.91468	17855.65
401.06626	18043.05
405.21485	18226.25
409.36047	18194.25
413.50311	17997.15
417.64277	17811.25
421.77947	17745.55
425.9132	17816.55
430.04396	17921.85
434.17176	17986.15
438.2966	18082.75
442.41849	18316.65
446.53742	18570.55
450.6534	18840.45
454.76644	19068.85
458.87653	19196.15
462.98368	19215.65
467.08789	19236.55
471.18916	19211.15
475.2875	19153.95
479.38291	19122.45
483.4754	19070.95
487.56496	18964.45
491.6516	18787.75
495.73531	18613.35
499.81612	18492.35
503.89401	18503.55
507.96899	18527.45
512.04106	18564.55
516.11023	18546.65
520.1765	18585.95
524.23987	18418.05
528.30034	18310.55
532.35792	18208.15
536.41261	18127.75
540.46441	18020.85
544.51333	18070.25
548.55936	18206.25
552.60252	18443.55
556.64279	18733.85
560.6802	18934.35
564.71473	19069.95
568.7464	19342.15
572.7752	19657.95
576.80114	19960.35
580.82422	20086.35
584.84444	20086.05
588.86181	20068.55
592.87633	20064.05
596.888	19978.45
600.89682	19874.05
604.9028	20234.05
608.90594	21371.85
612.90624	22809.85
616.90371	22075.35
620.89834	19620.95
624.89015	18471.75
628.87913	18302.35
632.86528	18395.25
636.84862	18559.75
640.82913	18509.85
644.80683	18228.25
648.78172	18053.65
652.75379	17997.05
656.72306	18127.25
660.68952	18309.55
664.65319	18263.35
668.61405	18134.05
672.57211	18093.85
676.52738	18206.95
680.47986	18229.15
684.42955	18207.95
688.37646	18130.55
692.32058	18148.45
696.26192	18251.25
700.20048	18346.55
704.13626	18423.55
708.06928	18464.05
711.99952	18446.15
715.927	18403.95
719.85171	18363.85
723.77365	18312.05
727.69284	18196.25
731.60928	18062.35
735.52295	18000.65
739.43388	17962.15
743.34206	17974.15
747.24749	18034.75
751.15017	18092.65
755.05012	18236.25
758.94733	18503.65
762.8418	19107.75
766.73354	20018.65
770.62254	20982.75
774.50882	21259.65
778.39237	20759.05
782.27321	19761.35
786.15132	18901.25
790.02671	18327.25
793.89938	18040.55
797.76935	17897.85
801.6366	17836.55
805.50115	17788.45
809.36299	17745.25
813.22213	17673.85
817.07857	17681.35
820.93231	17676.15
824.78336	17658.25
828.63172	17608.95
832.47738	17556.25
836.32036	17520.45
840.16066	17537.35
843.99827	17533.55
847.8332	17506.55
851.66546	17519.35
855.49504	17538.15
859.32195	17566.25
863.1462	17523.15
866.96777	17552.55
870.78668	17517.25
874.60293	17552.25
878.41652	17544.75
882.22745	17559.25
886.03573	17588.45
889.84136	17602.85
893.64433	17573.75
897.44466	17562.95
901.24235	17538.35
905.0374	17475.15
908.8298	17442.35
912.61957	17448.05
916.40671	17485.95
920.19121	17574.25
923.97308	17637.35
927.75233	17625.45
931.52895	17494.75
935.30295	17400.15
939.07433	17235.05
942.84309	17061.85
946.60924	16949.25
950.37278	16874.65
954.13371	16826.05
957.89203	16831.35
961.64774	16834.95
965.40086	16809.05
969.15137	16757.45
972.89929	16662.75
976.64461	16656.85
980.38733	16583.25
984.12747	16605.65
987.86502	16647.15
991.59999	16687.05
995.33237	16714.15
999.06217	16844.25
1002.78939	16972.45
1006.51404	17053.85
1010.23611	17177.15
1013.95561	17310.45
1017.67255	17327.85
1021.38692	17305.75
1025.09872	17200.95
1028.80796	17147.65
1032.51465	17071.95
1036.21877	17086.85
1039.92035	17138.15
1043.61937	17160.05
1047.31584	17176.65
1051.00976	17248.55
1054.70114	17302.25
1058.38998	17382.85
1062.07627	17475.45
1065.76003	17583.15
1069.44126	17651.75
1073.11995	17764.35
1076.79611	17880.65
1080.46974	17949.25
1084.14085	18029.35
1087.80943	18093.15
1091.47549	18235.15
1095.13903	18238.05
1098.80005	18154.15
1102.45857	17953.15
1106.11456	17739.55
1109.76805	17654.55
1113.41903	17629.45
1117.06751	17668.55
1120.71348	17805.35
1124.35696	17965.45
1127.99793	18155.55
1131.63641	18287.35
1135.2724	18209.65
1138.90589	17985.05
1142.5369	17917.65
1146.16542	17903.65
1149.79145	17957.85
1153.415	18030.05
1157.03607	18143.25
1160.65467	18397.35
1164.27079	18827.65
1167.88443	19341.75
1171.49561	19996.65
1175.10432	20827.65
1178.71056	21875.35
1182.31434	22892.85
1185.91565	23536.85
1189.51451	23736.05
1193.11091	23645.15
1196.70485	23167.45
1200.29634	22501.75
1203.88538	21937.05
1207.47197	21468.85
1211.05612	21020.05
1214.63782	20599.05
1218.21708	20246.75
1221.79391	19923.75
1225.36829	19632.75
1228.94024	19486.55
1232.50976	19340.15
1236.07685	19275.95
1239.6415	19248.05
1243.20374	19322.85
1246.76355	19362.85
1250.32093	19461.55
1253.8759	19663.65
1257.42845	19935.25
1260.97859	20273.75
1264.52631	20650.35
1268.07163	20949.75
1271.61453	21254.15
1275.15503	21525.55
1278.69312	21840.15
1282.22882	22063.35
1285.76211	22443.55
1289.29301	22911.15
1292.82151	23495.45
1296.34761	24268.55
1299.87133	25088.65
1303.39266	25931.25
1306.9116	26817.75
1310.42815	27507.35
1313.94233	27931.15
1317.45412	27848.45
1320.96354	27554.85
1324.47058	27291.95
1327.97525	27077.35
1331.47754	26955.95
1334.97747	26926.45
1338.47502	27057.95
1341.97022	27313.55
1345.46305	27532.55
1348.95352	27658.15
1352.44163	27725.25
1355.92738	27792.45
1359.41078	28119.85
1362.89183	28545.95
1366.37053	28081.45
1369.84688	26321.05
1373.32088	24321.65
1376.79254	22966.15
1380.26186	22353.65
1383.72883	22175.15
1387.19347	22113.85
1390.65578	22031.45
1394.11575	21934.95
1397.57339	21825.05
1401.0287	21782.35
1404.48168	21747.65
1407.93234	21525.35
1411.38068	21198.15
1414.82669	20776.65
1418.27039	20261.55
1421.71177	19784.45
1425.15083	19337.75
1428.58758	19110.35
1432.02203	19080.85
1435.45416	19283.65
1438.88399	19549.05
1442.31151	19756.65
1445.73673	19936.05
1449.15965	20072.25
1452.58027	20277.35
1455.9986	20428.05
1459.41463	20599.45
1462.82837	20754.65
1466.23982	20889.05
1469.64898	21044.05
1473.05586	21115.35
1476.46045	21060.25
1479.86276	21026.75
1483.26279	20973.05
1486.66054	20986.15
1490.05602	21142.45
1493.44922	21431.15
1496.84016	21921.05
1500.22882	22633.45
1503.61521	23647.55
1506.99934	24710.05
1510.38121	25540.95
1513.76081	25725.45
1517.13816	25161.95
1520.51324	24288.05
1523.88607	23460.75
1527.25665	22993.15
1530.62498	22733.65
1533.99105	22587.35
1537.35488	22398.05
1540.71647	22061.05
1544.07581	21709.95
1547.4329	21350.75
1550.78776	21043.25
1554.14038	20844.15
1557.49077	20760.05
1560.83892	20765.95
1564.18484	20803.85
1567.52853	20861.75
1570.86999	21082.75
1574.20922	21327.55
1577.54624	21488.35
1580.88103	21434.95
1584.2136	21211.65
1587.54395	21217.25
1590.87208	21375.25
1594.19801	21812.55
1597.52172	22307.95
1600.84321	22493.85
1604.16251	22032.75
1607.47959	21283.75
1610.79447	20454.75
1614.10715	19485.35
1617.41763	18664.75
1620.7259	17943.95
1624.03199	17476.45
1627.33587	17308.75
1630.63757	17420.15
1633.93707	17903.55
1637.23439	18712.65
1640.52951	19904.65
1643.82246	21382.55
1647.11321	22741.85
1650.40179	23434.55
1653.68819	22890.95
1656.97241	21318.75
1660.25446	19357.45
1663.53433	17776.35
1666.81203	16693.15
1670.08756	15911.55
1673.36092	15442.25
1676.63211	15137.05
1679.90115	14925.55
1683.16801	14758.55
1686.43272	14611.15
1689.69527	14531.25
1692.95567	14478.65
1696.2139	14410.05
1699.46999	14385.35
1702.72392	14352.25
1705.97571	14264.95
1709.22535	14220.35
1712.47284	14207.25
1715.71819	14165.35
1718.96139	14129.65
1722.20246	14090.15
1725.44139	14043.85
1728.67818	13983.35
1731.91284	13930.15
1735.14537	13859.05
1738.37576	13800.85
1741.60403	13767.45
1744.83017	13746.45
1748.05418	13693.95
1751.27607	13709.55
1754.49584	13683.45
1757.71349	13676.85
1760.92903	13676.95
1764.14244	13657.15
1767.35375	13639.85
1770.56294	13619.55
1773.77002	13590.05
1776.97499	13531.35
1780.17785	13487.25
1783.37861	13465.85
1786.57727	13421.05
1789.77382	13364.35
1792.96828	13364.05
1796.16064	13334.95
1799.3509	13289.45
1802.53907	13249.95
1805.72514	13228.15
1808.90913	13166.15
1812.09102	13137.35
1815.27083	13101.25
1818.44856	13087.75
1821.6242	13041.95
1824.79776	13043.95
1827.96924	12999.45
1831.13864	13005.65
1834.30597	12939.05
1837.47122	12963.85
1840.6344	12935.65
1843.7955	12923.45
1846.95454	12869.85
1850.11151	12878.45
1853.26642	12885.55
1856.41926	12848.95
1859.57004	12868.65
1862.71876	12835.95
1865.86542	12821.05
1869.01003	12814.85
1872.15258	12785.05
1875.29308	12777.25
1878.43152	12742.05
1881.56792	12722.25
1884.70227	12713.85
1887.83457	12683.45
1890.96482	12661.25
1894.09304	12611.15
1897.21921	12592.65
1900.34335	12589.25
1903.46544	12570.75
1906.58551	12573.45
1909.70353	12565.65
1912.81953	12510.55
1915.93349	12498.45
1919.04543	12470.05
1922.15534	12421.95
1925.26322	12380.95
1928.36908	12370.75
1931.47292	12358.45
1934.57473	12349.45
1937.67453	12299.95
1940.77232	12266.05
1943.86808	12231.05
1946.96184	12175.55
1950.05358	12158.15
1953.14331	12105.95
1956.23103	12072.95
1959.31675	12039.45
1962.40046	11988.45
1965.48217	11968.95
1968.56188	11939.05
1971.63959	11861.95
1974.7153	11870.85
1977.78901	11808.25
1980.86073	11749.35
1983.93046	11730.35
1986.99819	11710.25
1990.06394	11665.65
1993.1277	11611.75
1996.18947	11553.85
1999.24925	11541.45
2002.30706	11478.75
2005.36288	11461.25
2008.41672	11436.55
2011.46859	11361.55
2014.51848	11377.65
2017.56639	11330.15
2020.61233	11320.75
2023.6563	11272.25
2026.6983	11265.35
2029.73833	11188.75
2032.7764	11155.05
2035.8125	11097.05
2038.84664	11073.65
2041.87881	11043.55
2044.90903	11011.15
2047.93729	11000.05
2050.96359	10998.55
2053.98794	10968.85
2057.01034	10946.65
2060.03078	10944.75
2063.04927	10933.15
2066.06582	10920.25
2069.08042	10934.35
2072.09307	10935.85
2075.10378	10926.35
2078.11255	10894.75
2081.11938	10884.05
2084.12426	10856.25
2087.12722	10852.25
2090.12824	10851.15
2093.12732	10832.55
2096.12447	10823.85
2099.11969	10832.35
2102.11299	10808.65
2105.10435	10819.65
2108.09379	10827.65
2111.08131	10830.05
2114.0669	10815.95
2117.05057	10837.35
2120.03233	10850.25
2123.01216	10841.05
2125.99008	10846.05
2128.96609	10862.55
2131.94018	10873.15
2134.91236	10891.65
2137.88263	10878.85
2140.851	10882.55
2143.81746	10882.85
2146.78201	10866.95
2149.74466	10860.05
2152.7054	10873.85
2155.66425	10868.15
2158.6212	10819.25
2161.57625	10813.75
2164.52941	10837.05
2167.48067	10790.65
2170.43004	10818.05
2173.37752	10815.65
2176.32311	10801.65
2179.26681	10794.05
2182.20863	10782.15
2185.14856	10793.65
2188.08661	10770.85
2191.02278	10763.05
2193.95707	10756.65
2196.88948	10759.75
2199.82001	10718.75
2202.74867	10715.55
2205.67545	10696.15
2208.60037	10675.35
2211.52341	10643.75
2214.44458	10661.65
2217.36388	10622.25
2220.28132	10604.55
2223.1969	10548.95
2226.11061	10542.75
2229.02246	10494.85
2231.93245	10487.35
2234.84058	10470.05
2237.74686	10412.95
2240.65128	10412.35
2243.55385	10377.55
2246.45456	10366.55
2249.35343	10353.95
2252.25044	10365.65
2255.14561	10337.55
2258.03893	10311.75
2260.93041	10280.45
2263.82004	10241.95
2266.70783	10217.45
2269.59378	10211.45
2272.4779	10171.35
2275.36017	10142.35
2278.24061	10134.15
2281.11922	10087.45
2283.996	10090.45
2286.87094	10086.25
2289.74405	10051.65
2292.61534	10026.15
2295.4848	10028.15
2298.35243	10006.85
2301.21824	9994.35
2304.08223	10001.55
2306.94439	9986.95
2309.80474	9958.55
2312.66327	9976.45
2315.51999	9945.25
2318.37489	9915.75
2321.22797	9912.85
2324.07925	9891.65
2326.92871	9875.25
2329.77637	9841.95
2332.62222	9833.65
2335.46626	9829.25
2338.3085	9776.15
2341.14893	9762.25
2343.98756	9765.95
2346.8244	9736.75
2349.65943	9740.35
2352.49267	9718.45
2355.32411	9722.35
2358.15376	9717.85
2360.98161	9705.85
2363.80768	9709.05
2366.63195	9702.05
2369.45444	9685.55
2372.27514	9684.75
2375.09405	9644.55
2377.91118	9657.05
2380.72652	9601.15
2383.54009	9596.55
2386.35187	9553.75
2389.16188	9550.55
2391.97011	9493.75
2394.77657	9480.25
2397.58125	9449.95
2400.38416	9442.25
2403.18529	9434.25
2405.98466	9403.65
2408.78226	9381.95
2411.57809	9385.45
2414.37216	9377.25
2417.16446	9360.85
2419.955	9327.35
2422.74378	9333.25
2425.5308	9294.85
2428.31606	9304.25
2431.09956	9297.75
2433.88131	9265.05
2436.6613	9265.05
2439.43954	9239.55
2442.21603	9254.85
2444.99077	9224.45
2447.76377	9214.95
2450.53501	9193.45
2453.30451	9193.25
2456.07226	9166.45
2458.83827	9178.35
2461.60254	9175.75
2464.36507	9157.95
2467.12586	9127.95
2469.88492	9095.45
2472.64224	9095.85
2475.39782	9098.55
2478.15167	9102.35
2480.90379	9099.85
2483.65417	9107.15
2486.40283	9093.35
2489.14976	9097.05
2491.89497	9077.65
2494.63845	9072.35
2497.3802	9051.05
2500.12024	9025.35
2502.85855	9029.25
2505.59514	9042.65
2508.33002	9012.65
2511.06318	8998.65
2513.79462	8975.75
2516.52435	8960.35
2519.25237	8937.75
2521.97867	8933.25
2524.70327	8928.45
2527.42616	8905.35
2530.14734	8901.85
2532.86681	8878.55
2535.58458	8893.35
2538.30065	8875.25
2541.01501	8861.35
2543.72768	8844.35
2546.43864	8834.25
2549.14791	8822.75
2551.85548	8796.25
2554.56136	8774.95
2557.26554	8724.65
2559.96803	8700.05
2562.66883	8713.65
2565.36794	8683.15
2568.06536	8663.75
2570.7611	8641.15
2573.45514	8609.15
2576.14751	8619.85
2578.83819	8592.95
2581.52719	8550.25
2584.21451	8555.55
2586.90015	8549.75
2589.58411	8528.45
2592.2664	8510.85
2594.94701	8492.05
2597.62594	8484.45
2600.30321	8473.25
2602.9788	8445.75
2605.65273	8415.15
2608.32498	8429.05
2610.99557	8408.05
2613.66449	8410.55
2616.33175	8401.45
2618.99734	8404.75
2621.66128	8363.25
2624.32355	8361.65
2626.98416	8341.55
2629.64311	8323.25
2632.30041	8329.85
2634.95605	8291.55
2637.61004	8277.65
2640.26238	8241.15
2642.91306	8274.75
2645.56209	8255.55
2648.20948	8266.65
2650.85521	8248.15
2653.4993	8242.35
2656.14175	8243.65
2658.78255	8243.25
2661.42171	8221.85
2664.05923	8223.85
2666.6951	8249.35
2669.32934	8224.25
2671.96194	8211.55
2674.59291	8219.75
2677.22224	8218.85
2679.84993	8216.35
2682.476	8185.05
2685.10043	8215.25
2687.72324	8196.65
2690.34441	8181.75
2692.96396	8186.55
2695.58188	8170.45
2698.19818	8162.05
2700.81285	8169.75
2703.4259	8180.15
2706.03733	8177.75
2708.64714	8177.95
2711.25533	8167.85
2713.86191	8159.25
2716.46687	8168.75
2719.07021	8152.65
2721.67194	8157.55
2724.27206	8160.75
2726.87057	8135.35
2729.46747	8137.75
2732.06276	8153.35
2734.65644	8139.35
2737.24852	8117.95
2739.83899	8124.25
2742.42786	8117.65
2745.01513	8091.15
2747.60079	8079.05
2750.18486	8048.45
2752.76733	8060.65
2755.3482	8039.65
2757.92747	8033.65
2760.50515	8038.85
2763.08123	8016.45
2765.65573	7986.35
2768.22863	7990.05
2770.79994	7986.85
2773.36967	7975.85
2775.9378	7939.65
2778.50435	7953.95
2781.06932	7924.15
2783.6327	7926.45
2786.1945	7921.05
2788.75471	7919.05
2791.31335	7885.95
2793.87041	7857.65
2796.42589	7841.55
2798.97979	7851.45
2801.53212	7836.65
2804.08288	7796.05
2806.63206	7772.25
2809.17967	7746.15
2811.72571	7718.15
2814.27018	7704.65
2816.81308	7709.95
2819.35442	7715.65
2821.89419	7684.45
2824.43239	7665.05
2826.96904	7641.75
2829.50412	7658.75
2832.03763	7614.25
2834.56959	7634.65
2837.1	7629.35
2839.62884	7628.55
2842.15613	7631.75
2844.68186	7656.75
2847.20604	7675.55
2849.72867	7675.45
2852.24974	7660.25
2854.76927	7658.35
2857.28724	7637.75
2859.80367	7626.65
2862.31855	7613.95
2864.83189	7597.95
2867.34368	7547.95
2869.85393	7563.25
2872.36264	7555.45
2874.8698	7548.65
2877.37543	7558.35
2879.87952	7545.55
2882.38207	7545.05
2884.88308	7516.15
2887.38256	7523.05
2889.88051	7540.95
2892.37692	7514.55
2894.8718	7531.05
2897.36515	7536.35
2899.85698	7537.55
2902.34727	7532.25
2904.83604	7543.15
2907.32328	7549.15
2909.809	7528.75
2912.29319	7528.15
2914.77587	7522.35
2917.25702	7515.45
2919.73665	7517.55
2922.21476	7528.85
2924.69136	7489.25
2927.16644	7507.75
2929.64	7497.35
2932.11205	7499.35
2934.58258	7465.25
2937.05161	7483.55
2939.51912	7495.95
2941.98513	7481.35
2944.44962	7461.75
2946.91261	7422.95
2949.37409	7410.25
2951.83407	7415.95
2954.29254	7391.05
2956.74951	7391.45
2959.20498	7385.25
2961.65895	7376.85
2964.11142	7364.05
2966.56239	7349.15
2969.01186	7355.75
2971.45984	7316.15
2973.90632	7309.75
2976.35131	7267.85
2978.7948	7277.05
2981.23681	7246.95
2983.67732	7223.05
2986.11635	7198.35
2988.55388	7186.15
2990.98993	7168.05
2993.4245	7158.65
2995.85758	7130.05
2998.28917	7121.15
3000.71928	7105.65
3003.14791	7077.95
3005.57506	7092.15
3008.00073	7057.95
3010.42493	7029.15
3012.84764	7016.95
3015.26888	7009.15
3017.68865	6986.55
3020.10694	6992.15
3022.52376	6982.25
3024.9391	6985.85
3027.35298	6952.05
3029.76539	6940.85
3032.17632	6941.75
3034.5858	6945.85
3036.9938	6944.05
3039.40034	6935.45
3041.80542	6921.15
3044.20903	6904.75
3046.61118	6909.65
3049.01187	6879.75
3051.4111	6863.05
3053.80888	6850.25
3056.20519	6846.35
3058.60005	6807.75
3060.99345	6795.35
3063.3854	6787.05
3065.7759	6765.65
3068.16494	6771.25
3070.55254	6762.25
3072.93868	6745.65
3075.32338	6737.25
3077.70662	6703.35
3080.08842	6696.05
3082.46878	6688.15
3084.84769	6671.75
3087.22515	6685.45
3089.60118	6681.75
3091.97576	6653.35
3094.3489	6653.65
3096.72061	6688.05
3099.09087	6667.25
3101.4597	6656.65
3103.82709	6643.35
3106.19305	6649.85
3108.55757	6623.75
3110.92066	6626.05
3113.28232	6612.75
3115.64255	6610.95
3118.00134	6607.85
3120.35871	6599.45
3122.71466	6574.75
3125.06917	6569.95
3127.42226	6558.45
3129.77393	6553.45
3132.12417	6550.45
3134.47299	6539.55
3136.82039	6531.25
3139.16636	6543.95
3141.51092	6529.95
3143.85406	6542.05
3146.19579	6530.85
3148.53609	6530.15
3150.87499	6551.85
3153.21246	6558.65
3155.54853	6551.75
3157.88318	6555.25
3160.21642	6568.65
3162.54826	6564.85
3164.87868	6563.95
3167.2077	6558.35
3169.5353	6561.95
3171.86151	6551.45
3174.18631	6561.55
3176.5097	6554.95
3178.83169	6522.25
3181.15228	6544.85
3183.47147	6544.15
3185.78926	6523.85
3188.10565	6519.95
3190.42065	6516.65
3192.73424	6493.15
3195.04645	6521.45
3197.35725	6476.25
3199.66667	6501.45
3201.97469	6475.15
3204.28132	6490.45
3206.58656	6510.25
3208.8904	6495.85
3211.19287	6504.45
3213.49394	6518.05
3215.79363	6498.25
3218.09193	6499.65
3220.38884	6497.45
3222.68438	6492.65
3224.97853	6480.15
3227.2713	6492.15
3229.56269	6466.55
3231.8527	6446.95
3234.14133	6443.65
3236.42858	6457.95
3238.71446	6426.35
3240.99896	6400.05
3243.28209	6403.85
3245.56384	6395.05
3247.84423	6401.55
3250.12324	6390.55
3252.40088	6399.65
3254.67715	6361.35
3256.95205	6363.85
3259.22558	6358.75
3261.49775	6357.25
3263.76855	6333.85
3266.03799	6316.15
3268.30606	6323.55
3270.57277	6302.05
3272.83812	6291.85
3275.10211	6275.25
3277.36474	6263.25
3279.62601	6263.85
3281.88593	6253.15
3284.14448	6237.25
3286.40168	6256.95
3288.65753	6244.75
3290.91202	6244.35
3293.16516	6223.65
3295.41695	6215.65
3297.66738	6168.65
3299.91647	6133.45
3302.16421	6103.35
3304.4106	6051.25
3306.65564	6017.45
3308.89933	5982.55
3311.14169	5940.05
3313.38269	5884.85
3315.62236	5836.15
3317.86068	5787.75
3320.09766	5745.75
3322.3333	5714.85
3324.5676	5690.35
3326.80056	5594.55
3329.03219	5564.75
3331.26248	3.05
3333.49143	1.35
3335.71905	-0.95
