Data from AgNP_FTO_APTES_UA_10uM_CRN_10uM_R6G_10uM_NaF_0.1M_Addition_RamanShift__10__15-36-00-696.txt Node

Date: Thu Feb 10 15:36:00 GMT 2022
User: TCL
Spectrometer: QEP01345
Trigger mode: 4
Integration Time (sec): 7.000000E0
Scans to average: 10
Electric dark correction enabled: true
Nonlinearity correction enabled: false
Boxcar width: 0
XAxis mode: Raman Shifts
Number of Pixels in Spectrum: 1044
>>>>>Begin Spectral Data<<<<<
46.04893	-1.35
50.45542	-1.25
54.85868	-1.15
59.25871	-0.75
63.6555	72.15
68.04907	75.95
72.43941	81.95
76.82654	80.65
81.21044	89.95
85.59113	85.65
89.96862	92.15
94.34289	95.45
98.71396	95.85
103.08183	104.05
107.4465	107.15
111.80798	106.75
116.16626	112.45
120.52136	117.85
124.87327	116.75
129.222	127.65
133.56755	138.25
137.90993	147.65
142.24913	156.45
146.58517	179.35
150.91804	210.85
155.24774	250.75
159.57429	314.35
163.89768	403.25
168.21792	533.25
172.53501	732.15
176.84895	1015.65
181.15975	1437.55
185.46741	2008.55
189.77193	2775.05
194.07331	3716.45
198.37157	4802.65
202.6667	5917.75
206.9587	7026.45
211.24758	8126.35
215.53334	9207.25
219.81599	10337.05
224.09553	11597.95
228.37195	12949.65
232.64527	14514.25
236.91549	16064.35
241.18261	17714.85
245.44663	19236.05
249.70755	20608.35
253.96539	21839.75
258.22014	22847.35
262.4718	23691.55
266.72039	24222.15
270.96589	24493.15
275.20832	24583.75
279.44768	24541.65
283.68397	24343.05
287.91719	24174.05
292.14735	24054.45
296.37445	24007.55
300.59849	24103.55
304.81948	24139.05
309.03742	24133.45
313.25231	24010.15
317.46415	23690.95
321.67296	23193.65
325.87872	22816.25
330.08145	22649.15
334.28114	22651.65
338.47781	22777.05
342.67145	23029.85
346.86207	23316.25
351.04966	23696.45
355.23424	23982.65
359.4158	24267.55
363.59435	24498.15
367.76989	24702.55
371.94243	24765.05
376.11196	24845.15
380.27849	24904.55
384.44203	24964.75
388.60257	25137.25
392.76012	25413.55
396.91468	25849.45
401.06626	26290.95
405.21485	26564.65
409.36047	26481.15
413.50311	26238.25
417.64277	26184.95
421.77947	26331.45
425.9132	26560.85
430.04396	26742.05
434.17176	26846.65
438.2966	26916.45
442.41849	27132.65
446.53742	27659.65
450.6534	28329.45
454.76644	28754.05
458.87653	28982.45
462.98368	28977.35
467.08789	28703.25
471.18916	28400.85
475.2875	28045.05
479.38291	27866.45
483.4754	27706.75
487.56496	27454.65
491.6516	27100.65
495.73531	26730.35
499.81612	26487.15
503.89401	26556.25
507.96899	26755.25
512.04106	26819.95
516.11023	26694.45
520.1765	26414.75
524.23987	26101.55
528.30034	25862.55
532.35792	25572.45
536.41261	25327.05
540.46441	25144.35
544.51333	25178.65
548.55936	25443.65
552.60252	25912.55
556.64279	26407.45
560.6802	26870.65
564.71473	27220.95
568.7464	27794.65
572.7752	28832.05
576.80114	30077.25
580.82422	31285.75
584.84444	32357.15
588.86181	33607.95
592.87633	34677.45
596.888	34351.35
600.89682	32668.75
604.9028	31777.15
608.90594	32484.35
612.90624	33256.35
616.90371	31074.55
620.89834	27529.15
624.89015	26203.45
628.87913	26245.25
632.86528	26526.45
636.84862	26492.15
640.82913	26018.15
644.80683	25386.95
648.78172	24963.75
652.75379	24901.95
656.72306	25158.55
660.68952	25374.45
664.65319	25320.35
668.61405	25051.85
672.57211	25033.85
676.52738	25109.65
680.47986	25075.05
684.42955	24947.25
688.37646	24902.35
692.32058	25041.55
696.26192	25300.65
700.20048	25692.75
704.13626	25883.65
708.06928	26034.25
711.99952	25949.15
715.927	25857.95
719.85171	25841.65
723.77365	25600.05
727.69284	25261.45
731.60928	24915.85
735.52295	24721.25
739.43388	24659.25
743.34206	24705.25
747.24749	24889.05
751.15017	25202.15
755.05012	25672.35
758.94733	26345.85
762.8418	27430.25
766.73354	28916.25
770.62254	30144.85
774.50882	30088.55
778.39237	28809.65
782.27321	27314.55
786.15132	26162.05
790.02671	25388.85
793.89938	24983.45
797.76935	24737.65
801.6366	24627.75
805.50115	24555.65
809.36299	24439.95
813.22213	24336.45
817.07857	24234.95
820.93231	24190.65
824.78336	24093.55
828.63172	23971.05
832.47738	23875.15
836.32036	23821.05
840.16066	23803.35
843.99827	23827.65
847.8332	23847.15
851.66546	23947.15
855.49504	24002.05
859.32195	23976.15
863.1462	23942.85
866.96777	23868.25
870.78668	23806.85
874.60293	23813.25
878.41652	23821.95
882.22745	23867.35
886.03573	23916.45
889.84136	23920.05
893.64433	23814.85
897.44466	23759.75
901.24235	23714.05
905.0374	23739.75
908.8298	23738.65
912.61957	23809.95
916.40671	24055.85
920.19121	24424.55
923.97308	24658.85
927.75233	24584.35
931.52895	24220.45
935.30295	23825.65
939.07433	23402.35
942.84309	23140.15
946.60924	22978.85
950.37278	22973.65
954.13371	22962.55
957.89203	22954.15
961.64774	22969.15
965.40086	22977.65
969.15137	22926.45
972.89929	22853.75
976.64461	22771.55
980.38733	22679.15
984.12747	22686.45
987.86502	22757.95
991.59999	22889.85
995.33237	23022.05
999.06217	23317.95
1002.78939	23705.75
1006.51404	24147.85
1010.23611	24647.05
1013.95561	24874.85
1017.67255	24900.95
1021.38692	24682.95
1025.09872	24309.85
1028.80796	23980.55
1032.51465	23868.35
1036.21877	23951.05
1039.92035	24047.35
1043.61937	24121.95
1047.31584	24175.85
1051.00976	24206.25
1054.70114	24349.15
1058.38998	24577.15
1062.07627	24862.95
1065.76003	25230.65
1069.44126	25567.35
1073.11995	25930.55
1076.79611	26312.75
1080.46974	26404.85
1084.14085	26574.65
1087.80943	26871.65
1091.47549	27120.45
1095.13903	27208.45
1098.80005	26858.95
1102.45857	26246.85
1106.11456	25736.55
1109.76805	25399.85
1113.41903	25324.35
1117.06751	25363.65
1120.71348	25544.35
1124.35696	25789.35
1127.99793	26040.05
1131.63641	26245.05
1135.2724	26250.25
1138.90589	26303.85
1142.5369	26440.05
1146.16542	26650.75
1149.79145	26958.85
1153.415	27263.05
1157.03607	27689.85
1160.65467	28417.15
1164.27079	29617.55
1167.88443	30983.15
1171.49561	32414.85
1175.10432	33941.75
1178.71056	35880.05
1182.31434	37685.75
1185.91565	38778.25
1189.51451	39016.15
1193.11091	38642.55
1196.70485	37784.05
1200.29634	36588.05
1203.88538	35847.05
1207.47197	35631.85
1211.05612	35586.65
1214.63782	35076.25
1218.21708	34075.05
1221.79391	32859.55
1225.36829	31887.75
1228.94024	31350.45
1232.50976	30997.95
1236.07685	30742.75
1239.6415	30550.75
1243.20374	30502.05
1246.76355	30664.25
1250.32093	31090.05
1253.8759	31700.65
1257.42845	32500.95
1260.97859	33459.85
1264.52631	34405.55
1268.07163	35319.75
1271.61453	36253.55
1275.15503	37183.75
1278.69312	38199.95
1282.22882	39245.35
1285.76211	40551.55
1289.29301	42036.95
1292.82151	43850.95
1296.34761	46017.15
1299.87133	48384.65
1303.39266	50799.35
1306.9116	52589.65
1310.42815	53755.35
1313.94233	54095.15
1317.45412	53763.55
1320.96354	53201.25
1324.47058	53131.55
1327.97525	53266.05
1331.47754	53501.55
1334.97747	53696.45
1338.47502	53720.85
1341.97022	53698.95
1345.46305	53266.45
1348.95352	52546.35
1352.44163	51749.95
1355.92738	51274.75
1359.41078	51538.95
1362.89183	51836.15
1366.37053	50758.25
1369.84688	47784.05
1373.32088	43922.35
1376.79254	41118.25
1380.26186	40173.25
1383.72883	40322.65
1387.19347	40650.55
1390.65578	40549.45
1394.11575	40476.95
1397.57339	40799.55
1401.0287	41374.35
1404.48168	41736.75
1407.93234	41541.25
1411.38068	40603.75
1414.82669	39151.15
1418.27039	37479.05
1421.71177	35985.45
1425.15083	34833.65
1428.58758	34419.95
1432.02203	34867.15
1435.45416	35767.15
1438.88399	36941.25
1442.31151	37780.45
1445.73673	38195.05
1449.15965	38486.25
1452.58027	38614.45
1455.9986	38796.55
1459.41463	39152.85
1462.82837	39706.05
1466.23982	40292.25
1469.64898	40802.15
1473.05586	40982.25
1476.46045	40768.95
1479.86276	40455.25
1483.26279	40082.05
1486.66054	39842.65
1490.05602	39933.35
1493.44922	40277.75
1496.84016	40711.35
1500.22882	41325.35
1503.61521	42115.85
1506.99934	43026.25
1510.38121	43523.35
1513.76081	43587.45
1517.13816	43263.55
1520.51324	42881.35
1523.88607	42835.75
1527.25665	43084.65
1530.62498	43285.65
1533.99105	43148.65
1537.35488	42485.05
1540.71647	41409.15
1544.07581	40092.65
1547.4329	38793.05
1550.78776	37797.95
1554.14038	37114.55
1557.49077	36670.15
1560.83892	36346.15
1564.18484	36143.65
1567.52853	36164.95
1570.86999	36403.55
1574.20922	37115.45
1577.54624	37823.35
1580.88103	38268.25
1584.2136	38875.85
1587.54395	40084.35
1590.87208	41953.65
1594.19801	43995.25
1597.52172	45782.95
1600.84321	45815.05
1604.16251	43708.85
1607.47959	40561.35
1610.79447	37403.15
1614.10715	34479.85
1617.41763	32029.05
1620.7259	30317.15
1624.03199	29432.85
1627.33587	29438.75
1630.63757	30298.05
1633.93707	32311.95
1637.23439	35615.85
1640.52951	40434.35
1643.82246	45852.25
1647.11321	49843.95
1650.40179	50100.85
1653.68819	46115.85
1656.97241	40043.95
1660.25446	34326.35
1663.53433	30039.45
1666.81203	27254.95
1670.08756	25440.35
1673.36092	24305.95
1676.63211	23606.35
1679.90115	23090.85
1683.16801	22672.55
1686.43272	22377.45
1689.69527	22217.75
1692.95567	22007.15
1696.2139	21896.85
1699.46999	21882.05
1702.72392	21757.65
1705.97571	21652.05
1709.22535	21546.95
1712.47284	21518.95
1715.71819	21434.95
1718.96139	21347.25
1722.20246	21285.05
1725.44139	21180.15
1728.67818	21064.65
1731.91284	20941.25
1735.14537	20792.05
1738.37576	20679.95
1741.60403	20637.05
1744.83017	20541.25
1748.05418	20507.15
1751.27607	20446.45
1754.49584	20402.55
1757.71349	20401.05
1760.92903	20388.15
1764.14244	20395.75
1767.35375	20318.15
1770.56294	20314.45
1773.77002	20245.05
1776.97499	20197.15
1780.17785	20137.85
1783.37861	20064.75
1786.57727	20043.45
1789.77382	20002.75
1792.96828	19982.05
1796.16064	19912.45
1799.3509	19912.85
1802.53907	19852.05
1805.72514	19791.55
1808.90913	19737.95
1812.09102	19715.95
1815.27083	19677.95
1818.44856	19617.05
1821.6242	19613.05
1824.79776	19549.65
1827.96924	19519.95
1831.13864	19551.45
1834.30597	19541.55
1837.47122	19549.15
1840.6344	19553.15
1843.7955	19565.65
1846.95454	19541.05
1850.11151	19511.05
1853.26642	19500.15
1856.41926	19487.15
1859.57004	19480.35
1862.71876	19449.75
1865.86542	19373.05
1869.01003	19323.85
1872.15258	19330.25
1875.29308	19313.35
1878.43152	19264.35
1881.56792	19230.05
1884.70227	19231.45
1887.83457	19184.35
1890.96482	19150.85
1894.09304	19113.15
1897.21921	19085.25
1900.34335	19084.65
1903.46544	19029.55
1906.58551	18983.65
1909.70353	18989.15
1912.81953	18954.65
1915.93349	18952.75
1919.04543	18874.65
1922.15534	18825.65
1925.26322	18791.05
1928.36908	18723.85
1931.47292	18705.85
1934.57473	18677.65
1937.67453	18621.35
1940.77232	18605.35
1943.86808	18536.45
1946.96184	18438.35
1950.05358	18377.85
1953.14331	18328.15
1956.23103	18306.55
1959.31675	18228.65
1962.40046	18187.55
1965.48217	18124.65
1968.56188	18057.25
1971.63959	18013.15
1974.7153	17949.35
1977.78901	17888.75
1980.86073	17807.25
1983.93046	17765.65
1986.99819	17749.85
1990.06394	17688.85
1993.1277	17639.05
1996.18947	17581.05
1999.24925	17543.05
2002.30706	17453.95
2005.36288	17398.95
2008.41672	17355.95
2011.46859	17338.55
2014.51848	17265.15
2017.56639	17266.75
2020.61233	17192.85
2023.6563	17126.15
2026.6983	17101.35
2029.73833	17076.45
2032.7764	17014.05
2035.8125	16995.35
2038.84664	16926.15
2041.87881	16892.15
2044.90903	16836.75
2047.93729	16820.45
2050.96359	16796.65
2053.98794	16776.75
2057.01034	16766.35
2060.03078	16730.05
2063.04927	16713.45
2066.06582	16718.25
2069.08042	16705.55
2072.09307	16697.15
2075.10378	16684.25
2078.11255	16673.15
2081.11938	16665.45
2084.12426	16663.35
2087.12722	16675.15
2090.12824	16637.65
2093.12732	16625.15
2096.12447	16615.15
2099.11969	16620.05
2102.11299	16597.15
2105.10435	16628.55
2108.09379	16631.45
2111.08131	16626.45
2114.0669	16601.65
2117.05057	16617.75
2120.03233	16645.25
2123.01216	16657.85
2125.99008	16679.95
2128.96609	16706.75
2131.94018	16709.35
2134.91236	16684.35
2137.88263	16697.35
2140.851	16690.75
2143.81746	16704.75
2146.78201	16661.45
2149.74466	16674.45
2152.7054	16672.85
2155.66425	16644.65
2158.6212	16671.75
2161.57625	16675.65
2164.52941	16631.35
2167.48067	16638.95
2170.43004	16641.15
2173.37752	16620.25
2176.32311	16637.85
2179.26681	16637.95
2182.20863	16614.45
2185.14856	16633.95
2188.08661	16605.55
2191.02278	16604.55
2193.95707	16619.95
2196.88948	16566.45
2199.82001	16540.05
2202.74867	16487.95
2205.67545	16502.75
2208.60037	16459.45
2211.52341	16455.85
2214.44458	16419.05
2217.36388	16379.05
2220.28132	16389.85
2223.1969	16320.75
2226.11061	16337.35
2229.02246	16283.45
2231.93245	16259.85
2234.84058	16186.95
2237.74686	16188.25
2240.65128	16211.15
2243.55385	16149.65
2246.45456	16102.65
2249.35343	16078.55
2252.25044	16097.45
2255.14561	16017.35
2258.03893	16014.55
2260.93041	15973.45
2263.82004	15893.05
2266.70783	15872.75
2269.59378	15799.65
2272.4779	15749.45
2275.36017	15744.05
2278.24061	15703.15
2281.11922	15663.75
2283.996	15652.95
2286.87094	15640.35
2289.74405	15637.35
2292.61534	15581.65
2295.4848	15567.25
2298.35243	15551.85
2301.21824	15543.85
2304.08223	15542.25
2306.94439	15559.35
2309.80474	15536.75
2312.66327	15533.85
2315.51999	15488.05
2318.37489	15496.15
2321.22797	15476.35
2324.07925	15450.25
2326.92871	15414.65
2329.77637	15405.95
2332.62222	15355.15
2335.46626	15342.35
2338.3085	15313.75
2341.14893	15315.75
2343.98756	15342.45
2346.8244	15326.95
2349.65943	15299.75
2352.49267	15296.65
2355.32411	15292.25
2358.15376	15303.95
2360.98161	15294.65
2363.80768	15310.65
2366.63195	15271.35
2369.45444	15220.15
2372.27514	15232.55
2375.09405	15222.55
2377.91118	15189.55
2380.72652	15156.65
2383.54009	15127.45
2386.35187	15088.45
2389.16188	15039.45
2391.97011	15013.05
2394.77657	14954.35
2397.58125	14957.15
2400.38416	14983.15
2403.18529	14926.25
2405.98466	14911.65
2408.78226	14871.95
2411.57809	14858.65
2414.37216	14864.55
2417.16446	14856.85
2419.955	14808.75
2422.74378	14832.25
2425.5308	14801.85
2428.31606	14778.65
2431.09956	14821.85
2433.88131	14761.95
2436.6613	14756.15
2439.43954	14765.85
2442.21603	14782.15
2444.99077	14712.05
2447.76377	14720.25
2450.53501	14719.05
2453.30451	14709.95
2456.07226	14694.35
2458.83827	14706.05
2461.60254	14683.15
2464.36507	14650.55
2467.12586	14619.65
2469.88492	14615.45
2472.64224	14626.75
2475.39782	14632.85
2478.15167	14640.15
2480.90379	14648.55
2483.65417	14662.25
2486.40283	14657.55
2489.14976	14640.75
2491.89497	14641.85
2494.63845	14660.05
2497.3802	14630.75
2500.12024	14648.45
2502.85855	14623.55
2505.59514	14586.05
2508.33002	14560.55
2511.06318	14583.45
2513.79462	14582.95
2516.52435	14547.95
2519.25237	14539.55
2521.97867	14524.55
2524.70327	14538.35
2527.42616	14484.35
2530.14734	14501.65
2532.86681	14480.75
2535.58458	14470.95
2538.30065	14460.35
2541.01501	14489.85
2543.72768	14480.45
2546.43864	14460.85
2549.14791	14428.65
2551.85548	14437.85
2554.56136	14399.15
2557.26554	14374.15
2559.96803	14334.45
2562.66883	14332.55
2565.36794	14316.55
2568.06536	14273.25
2570.7611	14267.55
2573.45514	14273.95
2576.14751	14259.15
2578.83819	14194.85
2581.52719	14244.75
2584.21451	14186.75
2586.90015	14196.95
2589.58411	14161.25
2592.2664	14186.35
2594.94701	14150.65
2597.62594	14120.65
2600.30321	14124.55
2602.9788	14104.25
2605.65273	14112.85
2608.32498	14136.35
2610.99557	14120.15
2613.66449	14124.65
2616.33175	14105.15
2618.99734	14104.65
2621.66128	14086.75
2624.32355	14032.05
2626.98416	14044.85
2629.64311	14031.25
2632.30041	14013.45
2634.95605	13982.95
2637.61004	13958.85
2640.26238	13964.45
2642.91306	13943.15
2645.56209	13950.15
2648.20948	13980.65
2650.85521	13972.05
2653.4993	13973.45
2656.14175	13968.85
2658.78255	13992.25
2661.42171	13993.45
2664.05923	14002.45
2666.6951	14027.15
2669.32934	14053.65
2671.96194	14022.25
2674.59291	14037.55
2677.22224	14028.55
2679.84993	14047.05
2682.476	13999.45
2685.10043	14022.45
2687.72324	13993.95
2690.34441	14022.25
2692.96396	13985.45
2695.58188	14011.35
2698.19818	13984.75
2700.81285	14038.55
2703.4259	14014.55
2706.03733	14060.15
2708.64714	14009.35
2711.25533	14036.45
2713.86191	14018.95
2716.46687	14031.95
2719.07021	14031.25
2721.67194	14043.95
2724.27206	14062.75
2726.87057	14062.85
2729.46747	14066.25
2732.06276	14105.75
2734.65644	14095.35
2737.24852	14061.45
2739.83899	14049.55
2742.42786	14078.45
2745.01513	14032.85
2747.60079	14047.25
2750.18486	14002.45
2752.76733	13988.25
2755.3482	13985.75
2757.92747	13992.55
2760.50515	13942.05
2763.08123	13963.65
2765.65573	13925.85
2768.22863	13936.65
2770.79994	13935.95
2773.36967	13921.75
2775.9378	13952.85
2778.50435	13909.95
2781.06932	13894.85
2783.6327	13910.85
2786.1945	13907.15
2788.75471	13876.35
2791.31335	13847.65
2793.87041	13831.65
2796.42589	13824.65
2798.97979	13838.25
2801.53212	13781.15
2804.08288	13792.85
2806.63206	13755.15
2809.17967	13695.15
2811.72571	13693.35
2814.27018	13646.65
2816.81308	13634.05
2819.35442	13591.05
2821.89419	13561.45
2824.43239	13510.25
2826.96904	13494.45
2829.50412	13522.15
2832.03763	13484.95
2834.56959	13459.55
2837.1	13434.25
2839.62884	13463.85
2842.15613	13462.05
2844.68186	13457.65
2847.20604	13450.25
2849.72867	13436.55
2852.24974	13399.15
2854.76927	13407.75
2857.28724	13389.35
2859.80367	13381.05
2862.31855	13349.95
2864.83189	13330.85
2867.34368	13284.55
2869.85393	13290.85
2872.36264	13276.25
2874.8698	13270.75
2877.37543	13267.75
2879.87952	13247.85
2882.38207	13244.65
2884.88308	13230.25
2887.38256	13241.55
2889.88051	13243.25
2892.37692	13264.45
2894.8718	13232.45
2897.36515	13287.65
2899.85698	13242.75
2902.34727	13284.35
2904.83604	13248.25
2907.32328	13284.05
2909.809	13288.55
2912.29319	13287.15
2914.77587	13263.15
2917.25702	13258.75
2919.73665	13240.55
2922.21476	13289.95
2924.69136	13257.85
2927.16644	13253.85
2929.64	13229.45
2932.11205	13192.35
2934.58258	13140.15
2937.05161	13168.85
2939.51912	13178.15
2941.98513	13167.05
2944.44962	13129.85
2946.91261	13081.65
2949.37409	13140.75
2951.83407	13098.25
2954.29254	13107.95
2956.74951	13070.65
2959.20498	13075.35
2961.65895	13059.95
2964.11142	13063.65
2966.56239	13059.35
2969.01186	13043.45
2971.45984	12978.45
2973.90632	12985.55
2976.35131	12953.55
2978.7948	12952.55
2981.23681	12923.05
2983.67732	12905.85
2986.11635	12864.35
2988.55388	12821.25
2990.98993	12786.75
2993.4245	12755.15
2995.85758	12722.75
2998.28917	12662.05
3000.71928	12640.65
3003.14791	12628.95
3005.57506	12600.65
3008.00073	12547.65
3010.42493	12414.25
3012.84764	12459.85
3015.26888	12472.55
3017.68865	12396.75
3020.10694	12434.15
3022.52376	12390.95
3024.9391	12368.95
3027.35298	12371.95
3029.76539	12388.95
3032.17632	12365.05
3034.5858	12345.65
3036.9938	12365.25
3039.40034	12355.95
3041.80542	12344.45
3044.20903	12315.75
3046.61118	12298.55
3049.01187	12249.25
3051.4111	12257.95
3053.80888	12191.85
3056.20519	12169.05
3058.60005	12116.55
3060.99345	12101.95
3063.3854	12075.35
3065.7759	12012.35
3068.16494	11989.75
3070.55254	11958.55
3072.93868	11939.65
3075.32338	11913.85
3077.70662	11861.05
3080.08842	11845.45
3082.46878	11834.25
3084.84769	11820.85
3087.22515	11792.55
3089.60118	11804.25
3091.97576	11794.95
3094.3489	11781.45
3096.72061	11768.95
3099.09087	11751.75
3101.4597	11754.75
3103.82709	11732.35
3106.19305	11706.75
3108.55757	11684.35
3110.92066	11659.85
3113.28232	11652.85
3115.64255	11608.45
3118.00134	11564.55
3120.35871	11554.85
3122.71466	11533.15
3125.06917	11501.95
3127.42226	11465.15
3129.77393	11470.55
3132.12417	11464.45
3134.47299	11439.75
3136.82039	11431.85
3139.16636	11410.35
3141.51092	11428.45
3143.85406	11393.75
3146.19579	11381.55
3148.53609	11379.85
3150.87499	11389.75
3153.21246	11391.55
3155.54853	11430.45
3157.88318	11379.55
3160.21642	11409.55
3162.54826	11388.55
3164.87868	11389.45
3167.2077	11373.25
3169.5353	11396.75
3171.86151	11394.65
3174.18631	11391.55
3176.5097	11352.85
3178.83169	11344.45
3181.15228	11324.55
3183.47147	11278.85
3185.78926	11300.05
3188.10565	11266.35
3190.42065	11244.45
3192.73424	11238.35
3195.04645	11194.65
3197.35725	11205.65
3199.66667	11179.95
3201.97469	11190.55
3204.28132	11180.05
3206.58656	11211.25
3208.8904	11186.95
3211.19287	11177.15
3213.49394	11171.25
3215.79363	11165.75
3218.09193	11173.35
3220.38884	11167.15
3222.68438	11178.85
3224.97853	11152.35
3227.2713	11140.15
3229.56269	11123.55
3231.8527	11107.15
3234.14133	11085.85
3236.42858	11045.15
3238.71446	11059.85
3240.99896	11033.65
3243.28209	11032.65
3245.56384	11004.55
3247.84423	11003.45
3250.12324	10981.15
3252.40088	10925.45
3254.67715	10939.75
3256.95205	10896.15
3259.22558	10897.95
3261.49775	10893.85
3263.76855	10861.95
3266.03799	10839.45
3268.30606	10817.05
3270.57277	10801.95
3272.83812	10765.15
3275.10211	10768.25
3277.36474	10764.95
3279.62601	10738.65
3281.88593	10700.05
3284.14448	10669.25
3286.40168	10722.25
3288.65753	10690.25
3290.91202	10687.85
3293.16516	10664.35
3295.41695	10648.95
3297.66738	10586.95
3299.91647	10530.35
3302.16421	10455.35
3304.4106	10396.75
3306.65564	10330.35
3308.89933	10234.85
3311.14169	10131.45
3313.38269	10042.35
3315.62236	9979.85
3317.86068	9897.35
3320.09766	9810.15
3322.3333	9753.85
3324.5676	9695.75
3326.80056	9529.05
3329.03219	9470.65
3331.26248	5.05
3333.49143	0.95
3335.71905	-0.75
