Data from AgNP_FTO_APTES_UA_10uM_CRN_0uM_R6G_10uM_NaF_0.1M_Addition_RamanShift__29__12-42-10-476.txt Node

Date: Thu Feb 10 12:42:10 GMT 2022
User: TCL
Spectrometer: QEP01345
Trigger mode: 4
Integration Time (sec): 7.000000E0
Scans to average: 10
Electric dark correction enabled: true
Nonlinearity correction enabled: false
Boxcar width: 0
XAxis mode: Raman Shifts
Number of Pixels in Spectrum: 1044
>>>>>Begin Spectral Data<<<<<
46.04893	0.95
50.45542	-0.05
54.85868	-0.35
59.25871	-0.45
63.6555	33.65
68.04907	38.25
72.43941	40.15
76.82654	40.15
81.21044	46.15
85.59113	46.05
89.96862	48.55
94.34289	51.55
98.71396	50.15
103.08183	51.75
107.4465	56.85
111.80798	52.55
116.16626	55.85
120.52136	57.65
124.87327	62.35
129.222	59.75
133.56755	64.25
137.90993	63.35
142.24913	65.45
146.58517	73.05
150.91804	82.35
155.24774	98.75
159.57429	115.85
163.89768	144.75
168.21792	185.25
172.53501	246.05
176.84895	342.35
181.15975	474.15
185.46741	655.45
189.77193	910.25
194.07331	1212.15
198.37157	1542.85
202.6667	1911.85
206.9587	2262.15
211.24758	2628.45
215.53334	3016.45
219.81599	3454.05
224.09553	3935.45
228.37195	4488.75
232.64527	5066.15
236.91549	5647.65
241.18261	6156.35
245.44663	6552.65
249.70755	6858.55
253.96539	7115.75
258.22014	7315.75
262.4718	7532.05
266.72039	7698.45
270.96589	7789.35
275.20832	7787.15
279.44768	7712.35
283.68397	7590.65
287.91719	7527.45
292.14735	7557.15
296.37445	7738.75
300.59849	8063.05
304.81948	8474.95
309.03742	8725.15
313.25231	8729.45
317.46415	8248.25
321.67296	7500.25
325.87872	6873.95
330.08145	6595.35
334.28114	6590.45
338.47781	6706.55
342.67145	6952.15
346.86207	7304.25
351.04966	7823.05
355.23424	8457.95
359.4158	8956.95
363.59435	9172.25
367.76989	9229.85
371.94243	9158.95
376.11196	9071.05
380.27849	8980.95
384.44203	8864.25
388.60257	8674.45
392.76012	8582.05
396.91468	8664.05
401.06626	8942.65
405.21485	9164.85
409.36047	8943.85
413.50311	8359.85
417.64277	7823.55
421.77947	7523.75
425.9132	7389.25
430.04396	7363.15
434.17176	7388.05
438.2966	7527.85
442.41849	7758.65
446.53742	8096.05
450.6534	8342.15
454.76644	8463.35
458.87653	8455.95
462.98368	8338.35
467.08789	8140.15
471.18916	7908.45
475.2875	7640.55
479.38291	7482.65
483.4754	7364.25
487.56496	7241.75
491.6516	7173.85
495.73531	7133.65
499.81612	7160.45
503.89401	7240.95
507.96899	7355.15
512.04106	7498.35
516.11023	7691.05
520.1765	7758.75
524.23987	7750.25
528.30034	7585.15
532.35792	7367.15
536.41261	7118.95
540.46441	6849.85
544.51333	6734.75
548.55936	6769.05
552.60252	6947.35
556.64279	7192.25
560.6802	7310.45
564.71473	7465.15
568.7464	7892.95
572.7752	8191.85
576.80114	7998.25
580.82422	7716.85
584.84444	7632.65
588.86181	7616.35
592.87633	7576.65
596.888	7725.05
600.89682	8065.75
604.9028	9113.15
608.90594	12000.35
612.90624	15994.25
616.90371	15443.05
620.89834	10216.95
624.89015	7737.05
628.87913	7283.15
632.86528	7316.65
636.84862	7443.55
640.82913	7314.85
644.80683	6896.95
648.78172	6611.05
652.75379	6642.65
656.72306	7022.45
660.68952	7521.75
664.65319	7404.45
668.61405	6904.75
672.57211	6634.75
676.52738	6597.35
680.47986	6559.05
684.42955	6497.35
688.37646	6445.45
692.32058	6494.55
696.26192	6566.25
700.20048	6714.75
704.13626	6829.65
708.06928	6834.55
711.99952	6731.25
715.927	6684.75
719.85171	6657.15
723.77365	6636.35
727.69284	6549.65
731.60928	6449.25
735.52295	6480.55
739.43388	6513.35
743.34206	6553.45
747.24749	6623.45
751.15017	6699.25
755.05012	6869.45
758.94733	7263.05
762.8418	8225.25
766.73354	9884.65
770.62254	11693.25
774.50882	12672.95
778.39237	12219.15
782.27321	10399.85
786.15132	8500.55
790.02671	7384.05
793.89938	6918.25
797.76935	6710.35
801.6366	6625.35
805.50115	6569.25
809.36299	6541.25
813.22213	6477.95
817.07857	6444.25
820.93231	6428.25
824.78336	6447.75
828.63172	6490.15
832.47738	6496.55
836.32036	6480.65
840.16066	6417.75
843.99827	6374.55
847.8332	6349.55
851.66546	6349.85
855.49504	6358.55
859.32195	6345.35
863.1462	6291.25
866.96777	6238.45
870.78668	6239.75
874.60293	6282.55
878.41652	6303.15
882.22745	6390.05
886.03573	6426.05
889.84136	6393.55
893.64433	6366.35
897.44466	6332.85
901.24235	6319.25
905.0374	6281.75
908.8298	6236.15
912.61957	6235.25
916.40671	6255.65
920.19121	6301.65
923.97308	6403.35
927.75233	6518.75
931.52895	6597.75
935.30295	6504.55
939.07433	6249.85
942.84309	6046.55
946.60924	5893.15
950.37278	5864.75
954.13371	5822.85
957.89203	5789.35
961.64774	5780.85
965.40086	5755.45
969.15137	5733.85
972.89929	5729.85
976.64461	5707.65
980.38733	5713.85
984.12747	5722.05
987.86502	5753.35
991.59999	5793.45
995.33237	5894.45
999.06217	6039.75
1002.78939	6261.05
1006.51404	6502.35
1010.23611	6680.25
1013.95561	6817.75
1017.67255	6770.35
1021.38692	6625.45
1025.09872	6436.75
1028.80796	6334.85
1032.51465	6308.95
1036.21877	6397.65
1039.92035	6522.55
1043.61937	6567.95
1047.31584	6530.05
1051.00976	6481.05
1054.70114	6445.35
1058.38998	6433.35
1062.07627	6451.95
1065.76003	6503.95
1069.44126	6596.55
1073.11995	6724.95
1076.79611	6846.15
1080.46974	6984.75
1084.14085	7180.25
1087.80943	7450.65
1091.47549	7533.95
1095.13903	7352.15
1098.80005	6999.75
1102.45857	6694.55
1106.11456	6579.55
1109.76805	6618.55
1113.41903	6790.95
1117.06751	7113.35
1120.71348	7487.35
1124.35696	7937.65
1127.99793	8306.05
1131.63641	8264.05
1135.2724	7820.95
1138.90589	7348.75
1142.5369	7077.65
1146.16542	6896.45
1149.79145	6765.55
1153.415	6791.45
1157.03607	6840.15
1160.65467	7040.15
1164.27079	7370.85
1167.88443	7835.85
1171.49561	8664.45
1175.10432	10072.75
1178.71056	11906.35
1182.31434	13295.35
1185.91565	13712.85
1189.51451	13355.55
1193.11091	12386.45
1196.70485	11195.25
1200.29634	10209.75
1203.88538	9474.35
1207.47197	8722.05
1211.05612	8129.75
1214.63782	7799.25
1218.21708	7702.45
1221.79391	7756.05
1225.36829	7844.65
1228.94024	8003.25
1232.50976	8073.75
1236.07685	8101.25
1239.6415	8057.35
1243.20374	7989.05
1246.76355	7950.15
1250.32093	8012.05
1253.8759	8174.55
1257.42845	8495.95
1260.97859	8841.25
1264.52631	9237.15
1268.07163	9618.65
1271.61453	9929.35
1275.15503	10203.45
1278.69312	10333.95
1282.22882	10458.65
1285.76211	10699.25
1289.29301	11129.15
1292.82151	11591.95
1296.34761	12014.35
1299.87133	12647.35
1303.39266	13751.35
1306.9116	15462.25
1310.42815	17523.65
1313.94233	18790.55
1317.45412	18595.95
1320.96354	17375.95
1324.47058	15891.15
1327.97525	14565.65
1331.47754	13691.95
1334.97747	13245.55
1338.47502	13176.05
1341.97022	13342.45
1345.46305	13787.95
1348.95352	14617.55
1352.44163	15896.05
1355.92738	17736.85
1359.41078	20413.15
1362.89183	22817.15
1366.37053	22114.05
1369.84688	18890.35
1373.32088	15518.45
1376.79254	13219.75
1380.26186	11983.85
1383.72883	11314.45
1387.19347	10761.05
1390.65578	10234.85
1394.11575	9855.35
1397.57339	9701.85
1401.0287	9763.05
1404.48168	9950.65
1407.93234	10114.25
1411.38068	10181.55
1414.82669	10088.85
1418.27039	9859.15
1421.71177	9558.15
1425.15083	9324.75
1428.58758	9194.65
1432.02203	9222.95
1435.45416	9313.75
1438.88399	9356.55
1442.31151	9352.65
1445.73673	9406.95
1449.15965	9467.95
1452.58027	9456.85
1455.9986	9360.25
1459.41463	9358.95
1462.82837	9514.25
1466.23982	9725.85
1469.64898	9944.55
1473.05586	10062.15
1476.46045	10140.85
1479.86276	10271.65
1483.26279	10501.65
1486.66054	10801.45
1490.05602	11247.95
1493.44922	11876.75
1496.84016	12850.55
1500.22882	14286.75
1503.61521	16209.45
1506.99934	18344.05
1510.38121	20207.05
1513.76081	20932.35
1517.13816	19740.85
1520.51324	17113.25
1523.88607	14494.15
1527.25665	12730.45
1530.62498	11761.75
1533.99105	11214.65
1537.35488	10871.75
1540.71647	10633.05
1544.07581	10499.25
1547.4329	10453.15
1550.78776	10353.75
1554.14038	10249.75
1557.49077	10259.95
1560.83892	10434.15
1564.18484	10726.15
1567.52853	11109.35
1570.86999	11462.25
1574.20922	11703.65
1577.54624	11669.75
1580.88103	11067.45
1584.2136	10222.55
1587.54395	9805.85
1590.87208	10046.25
1594.19801	10766.05
1597.52172	11687.45
1600.84321	12104.05
1604.16251	11644.65
1607.47959	10768.25
1610.79447	9743.35
1614.10715	8757.05
1617.41763	8008.45
1620.7259	7587.85
1624.03199	7420.25
1627.33587	7431.65
1630.63757	7692.45
1633.93707	8209.65
1637.23439	8999.25
1640.52951	10155.45
1643.82246	11539.25
1647.11321	13117.75
1650.40179	14176.85
1653.68819	13724.75
1656.97241	11755.95
1660.25446	9526.05
1663.53433	7922.75
1666.81203	6993.65
1670.08756	6438.75
1673.36092	6141.35
1676.63211	5929.65
1679.90115	5777.15
1683.16801	5678.85
1686.43272	5620.75
1689.69527	5549.85
1692.95567	5501.75
1696.2139	5497.55
1699.46999	5471.45
1702.72392	5457.15
1705.97571	5452.55
1709.22535	5436.35
1712.47284	5420.85
1715.71819	5418.35
1718.96139	5420.95
1722.20246	5413.85
1725.44139	5369.45
1728.67818	5309.25
1731.91284	5247.15
1735.14537	5216.95
1738.37576	5171.65
1741.60403	5145.95
1744.83017	5119.15
1748.05418	5104.95
1751.27607	5063.55
1754.49584	5058.85
1757.71349	5065.35
1760.92903	5051.85
1764.14244	5035.15
1767.35375	5025.55
1770.56294	5016.45
1773.77002	4998.55
1776.97499	4975.45
1780.17785	4957.15
1783.37861	4960.35
1786.57727	4929.95
1789.77382	4911.95
1792.96828	4906.45
1796.16064	4913.55
1799.3509	4897.85
1802.53907	4882.25
1805.72514	4860.55
1808.90913	4842.95
1812.09102	4828.25
1815.27083	4840.05
1818.44856	4812.75
1821.6242	4775.85
1824.79776	4772.85
1827.96924	4767.85
1831.13864	4763.55
1834.30597	4753.35
1837.47122	4759.25
1840.6344	4749.05
1843.7955	4748.05
1846.95454	4764.95
1850.11151	4737.65
1853.26642	4751.95
1856.41926	4766.85
1859.57004	4773.15
1862.71876	4791.05
1865.86542	4790.05
1869.01003	4780.65
1872.15258	4795.05
1875.29308	4795.95
1878.43152	4805.45
1881.56792	4815.65
1884.70227	4821.05
1887.83457	4826.55
1890.96482	4841.65
1894.09304	4856.25
1897.21921	4840.15
1900.34335	4855.95
1903.46544	4855.65
1906.58551	4856.05
1909.70353	4853.55
1912.81953	4872.65
1915.93349	4884.85
1919.04543	4873.85
1922.15534	4838.95
1925.26322	4821.55
1928.36908	4822.55
1931.47292	4785.15
1934.57473	4757.25
1937.67453	4705.95
1940.77232	4679.85
1943.86808	4614.05
1946.96184	4610.75
1950.05358	4575.65
1953.14331	4530.65
1956.23103	4538.35
1959.31675	4491.55
1962.40046	4481.15
1965.48217	4466.25
1968.56188	4447.75
1971.63959	4440.45
1974.7153	4420.95
1977.78901	4417.55
1980.86073	4390.85
1983.93046	4367.45
1986.99819	4356.15
1990.06394	4340.65
1993.1277	4340.25
1996.18947	4311.45
1999.24925	4291.05
2002.30706	4279.35
2005.36288	4275.25
2008.41672	4246.65
2011.46859	4235.35
2014.51848	4227.35
2017.56639	4217.25
2020.61233	4201.85
2023.6563	4196.05
2026.6983	4170.15
2029.73833	4156.65
2032.7764	4165.75
2035.8125	4138.75
2038.84664	4127.35
2041.87881	4120.25
2044.90903	4125.15
2047.93729	4109.35
2050.96359	4108.25
2053.98794	4086.25
2057.01034	4094.85
2060.03078	4080.25
2063.04927	4091.35
2066.06582	4079.55
2069.08042	4075.95
2072.09307	4080.15
2075.10378	4076.75
2078.11255	4059.95
2081.11938	4052.85
2084.12426	4060.35
2087.12722	4051.65
2090.12824	4052.55
2093.12732	4038.75
2096.12447	4034.65
2099.11969	4048.25
2102.11299	4039.85
2105.10435	4037.45
2108.09379	4038.85
2111.08131	4040.05
2114.0669	4022.05
2117.05057	4040.45
2120.03233	4047.75
2123.01216	4038.95
2125.99008	4056.25
2128.96609	4059.05
2131.94018	4059.35
2134.91236	4050.85
2137.88263	4046.35
2140.851	4061.85
2143.81746	4052.05
2146.78201	4043.55
2149.74466	4047.05
2152.7054	4044.95
2155.66425	4032.65
2158.6212	4044.25
2161.57625	4035.85
2164.52941	4022.25
2167.48067	4015.45
2170.43004	4017.75
2173.37752	4004.65
2176.32311	4007.05
2179.26681	4015.35
2182.20863	4018.25
2185.14856	4028.65
2188.08661	3997.95
2191.02278	4002.85
2193.95707	4011.75
2196.88948	4001.75
2199.82001	3994.85
2202.74867	3982.15
2205.67545	3986.45
2208.60037	3974.05
2211.52341	3974.25
2214.44458	3961.75
2217.36388	3947.55
2220.28132	3957.25
2223.1969	3929.25
2226.11061	3922.15
2229.02246	3913.05
2231.93245	3916.65
2234.84058	3901.95
2237.74686	3883.15
2240.65128	3890.45
2243.55385	3897.55
2246.45456	3883.55
2249.35343	3859.05
2252.25044	3876.85
2255.14561	3876.35
2258.03893	3875.65
2260.93041	3858.65
2263.82004	3851.15
2266.70783	3825.35
2269.59378	3838.75
2272.4779	3823.45
2275.36017	3815.75
2278.24061	3824.25
2281.11922	3799.45
2283.996	3796.15
2286.87094	3788.35
2289.74405	3784.05
2292.61534	3759.35
2295.4848	3746.65
2298.35243	3759.25
2301.21824	3733.95
2304.08223	3757.95
2306.94439	3733.55
2309.80474	3738.95
2312.66327	3743.95
2315.51999	3733.25
2318.37489	3748.05
2321.22797	3716.35
2324.07925	3711.85
2326.92871	3719.95
2329.77637	3713.75
2332.62222	3709.55
2335.46626	3698.95
2338.3085	3711.25
2341.14893	3709.65
2343.98756	3704.45
2346.8244	3709.05
2349.65943	3709.05
2352.49267	3705.95
2355.32411	3734.65
2358.15376	3714.85
2360.98161	3728.55
2363.80768	3744.15
2366.63195	3734.95
2369.45444	3737.75
2372.27514	3742.95
2375.09405	3749.65
2377.91118	3721.75
2380.72652	3703.95
2383.54009	3717.55
2386.35187	3668.45
2389.16188	3661.65
2391.97011	3625.35
2394.77657	3613.75
2397.58125	3615.35
2400.38416	3597.55
2403.18529	3593.35
2405.98466	3587.85
2408.78226	3575.55
2411.57809	3553.05
2414.37216	3563.35
2417.16446	3563.35
2419.955	3557.45
2422.74378	3553.65
2425.5308	3549.25
2428.31606	3547.85
2431.09956	3557.15
2433.88131	3543.45
2436.6613	3558.85
2439.43954	3549.55
2442.21603	3542.45
2444.99077	3546.85
2447.76377	3548.65
2450.53501	3551.05
2453.30451	3546.25
2456.07226	3552.45
2458.83827	3571.85
2461.60254	3561.05
2464.36507	3540.05
2467.12586	3544.35
2469.88492	3537.15
2472.64224	3549.15
2475.39782	3552.75
2478.15167	3558.15
2480.90379	3561.55
2483.65417	3574.75
2486.40283	3608.05
2489.14976	3581.75
2491.89497	3595.25
2494.63845	3594.25
2497.3802	3595.55
2500.12024	3584.75
2502.85855	3573.35
2505.59514	3571.15
2508.33002	3559.15
2511.06318	3531.95
2513.79462	3521.85
2516.52435	3502.55
2519.25237	3508.55
2521.97867	3479.65
2524.70327	3490.45
2527.42616	3492.65
2530.14734	3477.95
2532.86681	3460.75
2535.58458	3472.45
2538.30065	3470.15
2541.01501	3470.85
2543.72768	3476.15
2546.43864	3470.65
2549.14791	3472.85
2551.85548	3470.95
2554.56136	3475.55
2557.26554	3471.85
2559.96803	3460.05
2562.66883	3436.75
2565.36794	3440.45
2568.06536	3444.45
2570.7611	3440.05
2573.45514	3420.95
2576.14751	3414.45
2578.83819	3409.85
2581.52719	3402.25
2584.21451	3410.05
2586.90015	3403.85
2589.58411	3407.25
2592.2664	3405.95
2594.94701	3395.35
2597.62594	3411.45
2600.30321	3386.95
2602.9788	3404.05
2605.65273	3383.15
2608.32498	3397.95
2610.99557	3384.75
2613.66449	3388.25
2616.33175	3392.55
2618.99734	3404.55
2621.66128	3380.45
2624.32355	3378.85
2626.98416	3372.55
2629.64311	3367.45
2632.30041	3361.95
2634.95605	3358.45
2637.61004	3347.55
2640.26238	3362.75
2642.91306	3344.95
2645.56209	3342.55
2648.20948	3320.85
2650.85521	3331.55
2653.4993	3340.05
2656.14175	3324.45
2658.78255	3339.35
2661.42171	3349.35
2664.05923	3344.95
2666.6951	3360.15
2669.32934	3358.95
2671.96194	3370.45
2674.59291	3367.45
2677.22224	3377.45
2679.84993	3373.05
2682.476	3369.35
2685.10043	3375.95
2687.72324	3377.85
2690.34441	3361.55
2692.96396	3374.45
2695.58188	3372.55
2698.19818	3358.25
2700.81285	3360.75
2703.4259	3353.05
2706.03733	3348.65
2708.64714	3353.65
2711.25533	3374.55
2713.86191	3387.55
2716.46687	3372.65
2719.07021	3394.95
2721.67194	3399.95
2724.27206	3414.15
2726.87057	3394.45
2729.46747	3401.75
2732.06276	3405.25
2734.65644	3397.35
2737.24852	3397.25
2739.83899	3377.05
2742.42786	3385.25
2745.01513	3365.65
2747.60079	3376.25
2750.18486	3356.25
2752.76733	3349.35
2755.3482	3346.15
2757.92747	3350.65
2760.50515	3349.35
2763.08123	3339.35
2765.65573	3324.15
2768.22863	3331.05
2770.79994	3331.85
2773.36967	3340.75
2775.9378	3323.45
2778.50435	3332.55
2781.06932	3342.15
2783.6327	3323.45
2786.1945	3345.15
2788.75471	3341.35
2791.31335	3342.45
2793.87041	3345.15
2796.42589	3342.55
2798.97979	3362.85
2801.53212	3342.45
2804.08288	3339.65
2806.63206	3347.05
2809.17967	3344.55
2811.72571	3345.95
2814.27018	3351.35
2816.81308	3352.05
2819.35442	3359.75
2821.89419	3363.45
2824.43239	3386.95
2826.96904	3387.85
2829.50412	3382.45
2832.03763	3399.45
2834.56959	3389.65
2837.1	3406.55
2839.62884	3425.15
2842.15613	3456.55
2844.68186	3498.55
2847.20604	3539.55
2849.72867	3580.15
2852.24974	3596.95
2854.76927	3583.05
2857.28724	3564.95
2859.80367	3562.25
2862.31855	3550.45
2864.83189	3542.15
2867.34368	3544.35
2869.85393	3531.15
2872.36264	3547.15
2874.8698	3531.05
2877.37543	3519.95
2879.87952	3514.65
2882.38207	3512.85
2884.88308	3514.95
2887.38256	3502.85
2889.88051	3509.85
2892.37692	3506.95
2894.8718	3501.45
2897.36515	3521.25
2899.85698	3525.75
2902.34727	3521.75
2904.83604	3510.45
2907.32328	3523.55
2909.809	3516.55
2912.29319	3509.45
2914.77587	3510.45
2917.25702	3496.65
2919.73665	3488.55
2922.21476	3489.65
2924.69136	3484.75
2927.16644	3473.35
2929.64	3468.25
2932.11205	3460.95
2934.58258	3438.25
2937.05161	3436.05
2939.51912	3436.05
2941.98513	3399.55
2944.44962	3367.85
2946.91261	3335.55
2949.37409	3314.95
2951.83407	3297.05
2954.29254	3276.45
2956.74951	3265.75
2959.20498	3258.15
2961.65895	3264.05
2964.11142	3239.45
2966.56239	3214.25
2969.01186	3216.85
2971.45984	3203.65
2973.90632	3204.45
2976.35131	3196.05
2978.7948	3167.45
2981.23681	3149.15
2983.67732	3145.85
2986.11635	3137.05
2988.55388	3124.85
2990.98993	3114.15
2993.4245	3100.15
2995.85758	3092.65
2998.28917	3089.15
3000.71928	3077.65
3003.14791	3065.45
3005.57506	3057.15
3008.00073	3061.75
3010.42493	3050.65
3012.84764	3036.85
3015.26888	3013.85
3017.68865	3025.45
3020.10694	3020.35
3022.52376	3015.85
3024.9391	3019.15
3027.35298	3015.55
3029.76539	3016.75
3032.17632	3011.45
3034.5858	3008.65
3036.9938	3010.05
3039.40034	3006.85
3041.80542	3014.95
3044.20903	2995.35
3046.61118	2996.55
3049.01187	2979.95
3051.4111	2978.25
3053.80888	2959.55
3056.20519	2973.65
3058.60005	2967.25
3060.99345	2953.75
3063.3854	2948.05
3065.7759	2947.45
3068.16494	2940.25
3070.55254	2925.65
3072.93868	2922.65
3075.32338	2917.35
3077.70662	2909.05
3080.08842	2896.35
3082.46878	2889.85
3084.84769	2895.45
3087.22515	2873.55
3089.60118	2892.15
3091.97576	2875.25
3094.3489	2883.45
3096.72061	2891.75
3099.09087	2889.65
3101.4597	2891.95
3103.82709	2881.35
3106.19305	2869.75
3108.55757	2879.15
3110.92066	2876.15
3113.28232	2880.15
3115.64255	2863.85
3118.00134	2881.05
3120.35871	2868.35
3122.71466	2867.85
3125.06917	2867.55
3127.42226	2856.85
3129.77393	2867.05
3132.12417	2871.85
3134.47299	2865.05
3136.82039	2873.65
3139.16636	2872.05
3141.51092	2883.35
3143.85406	2890.35
3146.19579	2880.85
3148.53609	2889.05
3150.87499	2897.15
3153.21246	2915.35
3155.54853	2909.75
3157.88318	2908.55
3160.21642	2909.95
3162.54826	2918.95
3164.87868	2924.45
3167.2077	2922.05
3169.5353	2931.35
3171.86151	2940.25
3174.18631	2941.15
3176.5097	2928.95
3178.83169	2936.45
3181.15228	2934.85
3183.47147	2939.75
3185.78926	2936.75
3188.10565	2949.75
3190.42065	2939.95
3192.73424	2958.45
3195.04645	2945.95
3197.35725	2955.35
3199.66667	2957.15
3201.97469	2961.85
3204.28132	2971.85
3206.58656	2976.85
3208.8904	2976.85
3211.19287	2974.25
3213.49394	2987.95
3215.79363	2991.15
3218.09193	2995.45
3220.38884	2991.65
3222.68438	2988.35
3224.97853	2998.75
3227.2713	3002.45
3229.56269	2995.65
3231.8527	3005.95
3234.14133	2981.05
3236.42858	2969.95
3238.71446	2980.35
3240.99896	2976.05
3243.28209	2967.45
3245.56384	2958.35
3247.84423	2968.05
3250.12324	2968.45
3252.40088	2964.85
3254.67715	2952.85
3256.95205	2945.05
3259.22558	2969.95
3261.49775	2960.85
3263.76855	2959.05
3266.03799	2954.95
3268.30606	2944.95
3270.57277	2935.65
3272.83812	2923.45
3275.10211	2909.45
3277.36474	2919.55
3279.62601	2926.35
3281.88593	2909.55
3284.14448	2920.25
3286.40168	2906.15
3288.65753	2913.15
3290.91202	2904.35
3293.16516	2910.55
3295.41695	2910.95
3297.66738	2892.25
3299.91647	2880.15
3302.16421	2862.45
3304.4106	2827.85
3306.65564	2824.05
3308.89933	2811.65
3311.14169	2786.85
3313.38269	2754.35
3315.62236	2753.35
3317.86068	2722.65
3320.09766	2695.35
3322.3333	2674.45
3324.5676	2663.75
3326.80056	2603.15
3329.03219	2593.45
3331.26248	1.45
3333.49143	-0.25
3335.71905	-2.05
