Data from AgNP_FTO_APTES_UA_10uM_CRN_0uM_R6G_10uM_NaF_0.1M_Addition_RamanShift__0__11-08-50-363.txt Node

Date: Thu Feb 10 11:08:50 GMT 2022
User: TCL
Spectrometer: QEP01345
Trigger mode: 4
Integration Time (sec): 7.000000E0
Scans to average: 10
Electric dark correction enabled: true
Nonlinearity correction enabled: false
Boxcar width: 0
XAxis mode: Raman Shifts
Number of Pixels in Spectrum: 1044
>>>>>Begin Spectral Data<<<<<
46.04893	0.15
50.45542	-0.45
54.85868	0.05
59.25871	-1.55
63.6555	65.25
68.04907	67.05
72.43941	70.75
76.82654	70.95
81.21044	75.35
85.59113	74.95
89.96862	79.35
94.34289	80.85
98.71396	84.65
103.08183	89.45
107.4465	92.05
111.80798	92.25
116.16626	97.85
120.52136	104.35
124.87327	111.45
129.222	118.55
133.56755	129.05
137.90993	138.65
142.24913	152.25
146.58517	176.45
150.91804	212.95
155.24774	256.35
159.57429	333.45
163.89768	433.65
168.21792	586.35
172.53501	809.45
176.84895	1120.15
181.15975	1580.85
185.46741	2213.55
189.77193	3083.35
194.07331	4109.85
198.37157	5296.95
202.6667	6595.75
206.9587	7851.75
211.24758	9081.45
215.53334	10336.55
219.81599	11739.45
224.09553	13249.25
228.37195	14890.85
232.64527	16716.55
236.91549	18589.55
241.18261	20416.75
245.44663	22055.65
249.70755	23370.55
253.96539	24494.15
258.22014	25385.65
262.4718	26074.45
266.72039	26535.45
270.96589	26630.35
275.20832	26501.05
279.44768	26028.05
283.68397	25499.55
287.91719	25095.55
292.14735	24852.05
296.37445	24772.55
300.59849	24960.05
304.81948	25129.55
309.03742	25160.85
313.25231	24958.25
317.46415	24343.25
321.67296	23491.35
325.87872	22771.75
330.08145	22379.45
334.28114	22242.35
338.47781	22352.75
342.67145	22557.05
346.86207	22977.65
351.04966	23508.65
355.23424	24163.05
359.4158	24676.85
363.59435	25023.55
367.76989	25079.95
371.94243	25107.35
376.11196	25072.15
380.27849	25048.25
384.44203	25013.45
388.60257	25080.25
392.76012	25138.75
396.91468	25394.65
401.06626	25713.25
405.21485	25863.65
409.36047	25492.65
413.50311	24806.85
417.64277	24310.25
421.77947	24117.25
425.9132	24190.75
430.04396	24275.35
434.17176	24295.35
438.2966	24423.55
442.41849	24797.95
446.53742	25329.55
450.6534	25822.25
454.76644	26115.85
458.87653	26136.45
462.98368	26043.75
467.08789	25831.85
471.18916	25416.95
475.2875	25007.95
479.38291	24863.55
483.4754	24771.45
487.56496	24722.95
491.6516	24605.85
495.73531	24323.15
499.81612	24101.95
503.89401	24178.75
507.96899	24485.75
512.04106	24697.45
516.11023	24817.85
520.1765	24763.85
524.23987	24602.45
528.30034	24256.85
532.35792	23954.55
536.41261	23536.55
540.46441	23154.15
544.51333	23004.35
548.55936	23131.75
552.60252	23609.35
556.64279	24175.75
560.6802	24659.55
564.71473	25047.65
568.7464	25669.55
572.7752	26415.15
576.80114	26740.05
580.82422	26896.85
584.84444	27374.85
588.86181	28141.45
592.87633	28814.45
596.888	28610.75
600.89682	27884.85
604.9028	28554.35
608.90594	32422.85
612.90624	37359.85
616.90371	35832.25
620.89834	28286.85
624.89015	24183.85
628.87913	23235.15
632.86528	23246.55
636.84862	23367.35
640.82913	23145.95
644.80683	22649.15
648.78172	22255.45
652.75379	22255.85
656.72306	22662.45
660.68952	23141.75
664.65319	22913.85
668.61405	22162.95
672.57211	21904.45
676.52738	22012.25
680.47986	22229.45
684.42955	22219.45
688.37646	22135.95
692.32058	22129.45
696.26192	22327.55
700.20048	22567.45
704.13626	22700.65
708.06928	22783.05
711.99952	22767.45
715.927	22727.95
719.85171	22799.55
723.77365	22792.85
727.69284	22521.85
731.60928	22232.65
735.52295	22106.75
739.43388	22079.15
743.34206	22165.35
747.24749	22267.85
751.15017	22432.25
755.05012	22796.05
758.94733	23479.25
762.8418	24927.35
766.73354	27386.85
770.62254	30062.35
774.50882	31213.05
778.39237	29860.75
782.27321	27135.35
786.15132	24780.95
790.02671	23305.15
793.89938	22594.15
797.76935	22244.45
801.6366	22088.75
805.50115	22022.55
809.36299	21947.35
813.22213	21805.55
817.07857	21649.95
820.93231	21560.55
824.78336	21398.45
828.63172	21251.05
832.47738	21114.05
836.32036	21091.55
840.16066	21042.85
843.99827	21038.05
847.8332	21064.85
851.66546	21065.15
855.49504	21070.25
859.32195	21049.05
863.1462	21042.95
866.96777	21037.65
870.78668	20992.75
874.60293	21114.65
878.41652	21146.25
882.22745	21262.65
886.03573	21421.25
889.84136	21565.05
893.64433	21659.95
897.44466	21741.75
901.24235	21827.85
905.0374	21779.45
908.8298	21800.15
912.61957	21964.85
916.40671	22281.65
920.19121	22723.15
923.97308	23138.15
927.75233	23435.35
931.52895	23302.75
935.30295	22834.95
939.07433	22159.25
942.84309	21562.55
946.60924	21105.45
950.37278	20813.75
954.13371	20607.95
957.89203	20461.55
961.64774	20286.85
965.40086	20082.05
969.15137	19971.75
972.89929	19743.35
976.64461	19546.75
980.38733	19466.85
984.12747	19421.95
987.86502	19418.05
991.59999	19534.65
995.33237	19859.65
999.06217	20272.05
1002.78939	20681.55
1006.51404	21041.95
1010.23611	21448.55
1013.95561	21742.85
1017.67255	21806.95
1021.38692	21614.55
1025.09872	21220.45
1028.80796	20873.15
1032.51465	20717.45
1036.21877	20750.05
1039.92035	20811.35
1043.61937	20884.85
1047.31584	21014.65
1051.00976	21095.95
1054.70114	21180.75
1058.38998	21320.85
1062.07627	21489.55
1065.76003	21609.45
1069.44126	21697.25
1073.11995	21842.25
1076.79611	22064.05
1080.46974	22264.25
1084.14085	22654.15
1087.80943	23092.45
1091.47549	23345.45
1095.13903	23257.05
1098.80005	22713.35
1102.45857	22123.85
1106.11456	21702.95
1109.76805	21537.55
1113.41903	21631.15
1117.06751	21969.55
1120.71348	22349.85
1124.35696	22857.45
1127.99793	23392.75
1131.63641	23716.35
1135.2724	23326.85
1138.90589	22809.85
1142.5369	22561.65
1146.16542	22532.95
1149.79145	22598.15
1153.415	22823.25
1157.03607	23302.05
1160.65467	24154.25
1164.27079	25616.35
1167.88443	27293.85
1171.49561	29265.85
1175.10432	31990.65
1178.71056	35564.65
1182.31434	38972.95
1185.91565	40421.75
1189.51451	39802.15
1193.11091	38000.15
1196.70485	35678.35
1200.29634	33465.15
1203.88538	31996.25
1207.47197	31075.85
1211.05612	30405.85
1214.63782	29700.35
1218.21708	28831.85
1221.79391	28200.55
1225.36829	27959.35
1228.94024	27863.05
1232.50976	27665.35
1236.07685	27328.95
1239.6415	27062.15
1243.20374	26903.15
1246.76355	26816.05
1250.32093	26936.75
1253.8759	27485.15
1257.42845	28372.35
1260.97859	29506.85
1264.52631	30791.45
1268.07163	32044.75
1271.61453	33100.85
1275.15503	34086.05
1278.69312	34827.65
1282.22882	35653.25
1285.76211	36794.95
1289.29301	38543.45
1292.82151	40662.85
1296.34761	43093.55
1299.87133	45943.35
1303.39266	48951.35
1306.9116	52040.65
1310.42815	54749.95
1313.94233	56136.35
1317.45412	55403.75
1320.96354	53484.95
1324.47058	51757.55
1327.97525	50312.55
1331.47754	49233.55
1334.97747	48406.65
1338.47502	47629.15
1341.97022	46809.65
1345.46305	46505.15
1348.95352	46764.25
1352.44163	47751.95
1355.92738	49926.95
1359.41078	53668.45
1362.89183	57760.65
1366.37053	58317.15
1369.84688	52824.65
1373.32088	45315.15
1376.79254	40143.05
1380.26186	38022.55
1383.72883	37662.05
1387.19347	37661.35
1390.65578	37249.75
1394.11575	37168.45
1397.57339	37633.65
1401.0287	38350.65
1404.48168	38817.75
1407.93234	38426.95
1411.38068	37312.65
1414.82669	35847.75
1418.27039	34289.75
1421.71177	32899.65
1425.15083	31814.45
1428.58758	31097.15
1432.02203	31258.35
1435.45416	32029.05
1438.88399	33025.85
1442.31151	33622.05
1445.73673	34004.35
1449.15965	34278.25
1452.58027	34318.55
1455.9986	34098.25
1459.41463	34055.25
1462.82837	34129.65
1466.23982	34406.85
1469.64898	34609.65
1473.05586	34607.85
1476.46045	34409.75
1479.86276	34065.05
1483.26279	33877.55
1486.66054	33951.55
1490.05602	34400.95
1493.44922	35288.65
1496.84016	36537.35
1500.22882	38396.15
1503.61521	40846.35
1506.99934	43607.85
1510.38121	46330.25
1513.76081	47367.55
1517.13816	45882.15
1520.51324	42583.15
1523.88607	39481.75
1527.25665	37615.75
1530.62498	36706.55
1533.99105	36152.35
1537.35488	35372.95
1540.71647	34397.15
1544.07581	33306.95
1547.4329	32432.75
1550.78776	31790.95
1554.14038	31473.95
1557.49077	31456.25
1560.83892	31627.35
1564.18484	31932.85
1567.52853	32306.55
1570.86999	32945.25
1574.20922	33891.35
1577.54624	34658.15
1580.88103	34789.05
1584.2136	34666.65
1587.54395	35286.95
1590.87208	36822.65
1594.19801	38609.15
1597.52172	39913.15
1600.84321	39533.05
1604.16251	36820.25
1607.47959	33407.05
1610.79447	30283.85
1614.10715	27680.65
1617.41763	25499.85
1620.7259	24085.55
1624.03199	23477.65
1627.33587	23705.05
1630.63757	24739.95
1633.93707	26812.25
1637.23439	30118.35
1640.52951	34765.85
1643.82246	40023.25
1647.11321	44081.95
1650.40179	44845.55
1653.68819	41147.65
1656.97241	34583.25
1660.25446	28068.75
1663.53433	23442.55
1666.81203	20592.45
1670.08756	18938.45
1673.36092	17882.35
1676.63211	17225.55
1679.90115	16722.55
1683.16801	16332.55
1686.43272	16050.15
1689.69527	15861.55
1692.95567	15688.55
1696.2139	15540.85
1699.46999	15428.15
1702.72392	15336.45
1705.97571	15231.05
1709.22535	15144.35
1712.47284	15116.25
1715.71819	15025.45
1718.96139	14937.55
1722.20246	14890.55
1725.44139	14822.35
1728.67818	14638.15
1731.91284	14520.25
1735.14537	14414.05
1738.37576	14325.75
1741.60403	14248.05
1744.83017	14135.75
1748.05418	14061.85
1751.27607	14027.55
1754.49584	13982.95
1757.71349	13972.65
1760.92903	13945.35
1764.14244	13933.95
1767.35375	13917.55
1770.56294	13884.35
1773.77002	13833.45
1776.97499	13805.95
1780.17785	13781.55
1783.37861	13762.35
1786.57727	13758.15
1789.77382	13723.75
1792.96828	13675.35
1796.16064	13669.15
1799.3509	13599.95
1802.53907	13604.45
1805.72514	13550.75
1808.90913	13484.25
1812.09102	13462.05
1815.27083	13446.55
1818.44856	13449.65
1821.6242	13386.95
1824.79776	13387.45
1827.96924	13373.65
1831.13864	13416.65
1834.30597	13446.05
1837.47122	13467.75
1840.6344	13496.85
1843.7955	13471.65
1846.95454	13456.35
1850.11151	13417.55
1853.26642	13360.85
1856.41926	13332.45
1859.57004	13271.35
1862.71876	13199.75
1865.86542	13152.55
1869.01003	13097.55
1872.15258	13072.25
1875.29308	13050.75
1878.43152	12995.75
1881.56792	12961.35
1884.70227	12912.05
1887.83457	12899.85
1890.96482	12860.65
1894.09304	12820.55
1897.21921	12794.45
1900.34335	12743.05
1903.46544	12724.55
1906.58551	12695.45
1909.70353	12669.45
1912.81953	12592.35
1915.93349	12575.95
1919.04543	12551.25
1922.15534	12475.25
1925.26322	12438.75
1928.36908	12388.75
1931.47292	12364.35
1934.57473	12312.55
1937.67453	12275.45
1940.77232	12215.65
1943.86808	12210.65
1946.96184	12205.95
1950.05358	12178.15
1953.14331	12132.45
1956.23103	12110.85
1959.31675	12084.65
1962.40046	12049.75
1965.48217	12053.25
1968.56188	12037.45
1971.63959	11985.25
1974.7153	11993.85
1977.78901	11963.85
1980.86073	11921.75
1983.93046	11899.85
1986.99819	11850.05
1990.06394	11775.15
1993.1277	11779.25
1996.18947	11703.55
1999.24925	11697.65
2002.30706	11631.55
2005.36288	11597.65
2008.41672	11524.05
2011.46859	11496.25
2014.51848	11453.45
2017.56639	11383.15
2020.61233	11365.75
2023.6563	11295.85
2026.6983	11225.35
2029.73833	11146.15
2032.7764	11091.05
2035.8125	11020.05
2038.84664	10952.75
2041.87881	10920.85
2044.90903	10872.75
2047.93729	10845.25
2050.96359	10840.05
2053.98794	10834.25
2057.01034	10818.15
2060.03078	10810.75
2063.04927	10775.85
2066.06582	10823.15
2069.08042	10803.35
2072.09307	10776.85
2075.10378	10778.95
2078.11255	10779.75
2081.11938	10807.35
2084.12426	10795.95
2087.12722	10810.45
2090.12824	10834.15
2093.12732	10826.15
2096.12447	10812.35
2099.11969	10807.15
2102.11299	10840.75
2105.10435	10861.15
2108.09379	10838.05
2111.08131	10832.85
2114.0669	10799.95
2117.05057	10794.65
2120.03233	10819.55
2123.01216	10806.55
2125.99008	10803.95
2128.96609	10779.05
2131.94018	10722.65
2134.91236	10732.25
2137.88263	10725.95
2140.851	10685.55
2143.81746	10662.85
2146.78201	10636.85
2149.74466	10625.05
2152.7054	10569.85
2155.66425	10572.85
2158.6212	10561.25
2161.57625	10531.65
2164.52941	10510.15
2167.48067	10496.55
2170.43004	10486.35
2173.37752	10460.35
2176.32311	10409.45
2179.26681	10420.45
2182.20863	10417.25
2185.14856	10418.75
2188.08661	10390.25
2191.02278	10405.85
2193.95707	10392.25
2196.88948	10370.45
2199.82001	10360.25
2202.74867	10336.75
2205.67545	10352.25
2208.60037	10280.25
2211.52341	10272.05
2214.44458	10235.45
2217.36388	10212.95
2220.28132	10165.75
2223.1969	10144.95
2226.11061	10144.45
2229.02246	10082.15
2231.93245	10051.05
2234.84058	10024.95
2237.74686	10019.35
2240.65128	10002.75
2243.55385	9986.55
2246.45456	9932.35
2249.35343	9909.05
2252.25044	9908.15
2255.14561	9894.85
2258.03893	9879.15
2260.93041	9837.05
2263.82004	9809.65
2266.70783	9795.05
2269.59378	9749.65
2272.4779	9719.45
2275.36017	9705.35
2278.24061	9675.75
2281.11922	9634.65
2283.996	9623.45
2286.87094	9624.75
2289.74405	9592.05
2292.61534	9590.15
2295.4848	9562.55
2298.35243	9560.35
2301.21824	9547.75
2304.08223	9521.95
2306.94439	9508.65
2309.80474	9490.05
2312.66327	9511.45
2315.51999	9487.95
2318.37489	9477.85
2321.22797	9433.15
2324.07925	9436.95
2326.92871	9431.35
2329.77637	9400.55
2332.62222	9368.05
2335.46626	9383.65
2338.3085	9366.35
2341.14893	9367.15
2343.98756	9350.15
2346.8244	9360.45
2349.65943	9353.45
2352.49267	9372.75
2355.32411	9393.45
2358.15376	9356.25
2360.98161	9384.45
2363.80768	9382.15
2366.63195	9387.55
2369.45444	9370.45
2372.27514	9361.55
2375.09405	9344.75
2377.91118	9325.35
2380.72652	9286.45
2383.54009	9248.35
2386.35187	9196.65
2389.16188	9186.65
2391.97011	9169.85
2394.77657	9136.15
2397.58125	9117.85
2400.38416	9084.25
2403.18529	9052.45
2405.98466	9039.85
2408.78226	9008.35
2411.57809	9022.15
2414.37216	8993.05
2417.16446	8982.95
2419.955	8968.35
2422.74378	8967.35
2425.5308	8943.45
2428.31606	8952.05
2431.09956	8952.55
2433.88131	8945.55
2436.6613	8953.35
2439.43954	8955.95
2442.21603	8941.25
2444.99077	8930.05
2447.76377	8957.65
2450.53501	8941.25
2453.30451	8945.95
2456.07226	8930.45
2458.83827	8927.75
2461.60254	8888.55
2464.36507	8887.65
2467.12586	8896.35
2469.88492	8892.95
2472.64224	8875.15
2475.39782	8867.05
2478.15167	8873.05
2480.90379	8886.55
2483.65417	8907.35
2486.40283	8887.25
2489.14976	8907.45
2491.89497	8910.15
2494.63845	8894.45
2497.3802	8912.15
2500.12024	8914.65
2502.85855	8884.05
2505.59514	8864.95
2508.33002	8843.15
2511.06318	8801.25
2513.79462	8767.65
2516.52435	8739.55
2519.25237	8737.05
2521.97867	8725.55
2524.70327	8713.45
2527.42616	8664.65
2530.14734	8662.05
2532.86681	8659.45
2535.58458	8682.65
2538.30065	8647.65
2541.01501	8659.15
2543.72768	8639.35
2546.43864	8670.45
2549.14791	8629.65
2551.85548	8663.75
2554.56136	8643.15
2557.26554	8615.55
2559.96803	8611.75
2562.66883	8595.95
2565.36794	8577.55
2568.06536	8552.45
2570.7611	8541.15
2573.45514	8537.75
2576.14751	8541.55
2578.83819	8555.55
2581.52719	8519.65
2584.21451	8503.35
2586.90015	8484.95
2589.58411	8459.95
2592.2664	8488.15
2594.94701	8460.25
2597.62594	8458.25
2600.30321	8454.25
2602.9788	8459.55
2605.65273	8460.05
2608.32498	8449.25
2610.99557	8429.25
2613.66449	8447.25
2616.33175	8447.35
2618.99734	8414.55
2621.66128	8413.25
2624.32355	8407.55
2626.98416	8383.05
2629.64311	8397.85
2632.30041	8383.05
2634.95605	8349.95
2637.61004	8322.95
2640.26238	8348.45
2642.91306	8313.75
2645.56209	8327.25
2648.20948	8325.45
2650.85521	8324.55
2653.4993	8336.55
2656.14175	8325.95
2658.78255	8348.45
2661.42171	8338.05
2664.05923	8376.05
2666.6951	8375.85
2669.32934	8377.35
2671.96194	8356.85
2674.59291	8397.55
2677.22224	8363.35
2679.84993	8388.55
2682.476	8372.85
2685.10043	8369.55
2687.72324	8349.25
2690.34441	8370.65
2692.96396	8350.15
2695.58188	8379.45
2698.19818	8359.45
2700.81285	8349.55
2703.4259	8338.75
2706.03733	8332.85
2708.64714	8323.75
2711.25533	8351.25
2713.86191	8354.85
2716.46687	8391.15
2719.07021	8418.25
2721.67194	8437.05
2724.27206	8431.45
2726.87057	8444.75
2729.46747	8451.25
2732.06276	8468.05
2734.65644	8448.45
2737.24852	8447.35
2739.83899	8441.55
2742.42786	8468.35
2745.01513	8461.65
2747.60079	8447.85
2750.18486	8428.05
2752.76733	8434.95
2755.3482	8408.85
2757.92747	8434.95
2760.50515	8428.05
2763.08123	8408.75
2765.65573	8406.25
2768.22863	8388.35
2770.79994	8404.65
2773.36967	8406.65
2775.9378	8406.85
2778.50435	8401.35
2781.06932	8396.55
2783.6327	8381.75
2786.1945	8379.75
2788.75471	8378.35
2791.31335	8372.65
2793.87041	8381.35
2796.42589	8380.75
2798.97979	8398.35
2801.53212	8353.55
2804.08288	8352.65
2806.63206	8315.95
2809.17967	8290.25
2811.72571	8322.05
2814.27018	8298.85
2816.81308	8285.55
2819.35442	8265.25
2821.89419	8272.55
2824.43239	8268.35
2826.96904	8257.15
2829.50412	8258.55
2832.03763	8270.95
2834.56959	8300.05
2837.1	8344.45
2839.62884	8400.55
2842.15613	8468.95
2844.68186	8596.55
2847.20604	8754.35
2849.72867	8895.15
2852.24974	8989.65
2854.76927	9032.75
2857.28724	9041.25
2859.80367	9101.25
2862.31855	9114.25
2864.83189	9134.15
2867.34368	9154.45
2869.85393	9144.35
2872.36264	9173.05
2874.8698	9201.05
2877.37543	9201.95
2879.87952	9200.35
2882.38207	9248.15
2884.88308	9274.35
2887.38256	9315.35
2889.88051	9358.85
2892.37692	9389.35
2894.8718	9426.55
2897.36515	9480.55
2899.85698	9510.45
2902.34727	9528.15
2904.83604	9557.05
2907.32328	9593.75
2909.809	9613.95
2912.29319	9645.55
2914.77587	9677.25
2917.25702	9664.55
2919.73665	9665.05
2922.21476	9686.65
2924.69136	9670.65
2927.16644	9650.35
2929.64	9613.45
2932.11205	9583.95
2934.58258	9485.85
2937.05161	9447.35
2939.51912	9342.25
2941.98513	9264.35
2944.44962	9156.25
2946.91261	9018.05
2949.37409	8931.95
2951.83407	8830.65
2954.29254	8750.95
2956.74951	8657.75
2959.20498	8595.45
2961.65895	8507.35
2964.11142	8462.85
2966.56239	8406.05
2969.01186	8352.25
2971.45984	8264.55
2973.90632	8211.65
2976.35131	8159.95
2978.7948	8105.05
2981.23681	8032.05
2983.67732	7992.35
2986.11635	7942.65
2988.55388	7881.15
2990.98993	7866.15
2993.4245	7854.75
2995.85758	7784.85
2998.28917	7746.15
3000.71928	7737.05
3003.14791	7695.65
3005.57506	7674.55
3008.00073	7669.45
3010.42493	7664.65
3012.84764	7619.65
3015.26888	7594.55
3017.68865	7606.45
3020.10694	7572.15
3022.52376	7563.15
3024.9391	7530.15
3027.35298	7531.65
3029.76539	7516.95
3032.17632	7517.95
3034.5858	7510.15
3036.9938	7519.05
3039.40034	7510.35
3041.80542	7519.95
3044.20903	7520.15
3046.61118	7514.95
3049.01187	7493.75
3051.4111	7487.65
3053.80888	7450.55
3056.20519	7444.65
3058.60005	7438.65
3060.99345	7450.65
3063.3854	7413.65
3065.7759	7404.85
3068.16494	7398.85
3070.55254	7388.25
3072.93868	7379.55
3075.32338	7355.95
3077.70662	7346.95
3080.08842	7329.15
3082.46878	7332.65
3084.84769	7320.95
3087.22515	7322.95
3089.60118	7322.05
3091.97576	7308.15
3094.3489	7317.55
3096.72061	7339.15
3099.09087	7339.05
3101.4597	7353.75
3103.82709	7353.85
3106.19305	7352.95
3108.55757	7386.95
3110.92066	7381.65
3113.28232	7401.75
3115.64255	7376.45
3118.00134	7384.45
3120.35871	7368.75
3122.71466	7380.15
3125.06917	7372.55
3127.42226	7372.65
3129.77393	7395.25
3132.12417	7405.55
3134.47299	7414.45
3136.82039	7422.85
3139.16636	7451.85
3141.51092	7443.75
3143.85406	7481.75
3146.19579	7491.65
3148.53609	7500.25
3150.87499	7508.95
3153.21246	7547.15
3155.54853	7571.25
3157.88318	7591.55
3160.21642	7631.65
3162.54826	7635.55
3164.87868	7667.45
3167.2077	7682.05
3169.5353	7717.95
3171.86151	7722.15
3174.18631	7751.95
3176.5097	7771.65
3178.83169	7763.65
3181.15228	7808.35
3183.47147	7790.15
3185.78926	7799.25
3188.10565	7807.95
3190.42065	7799.65
3192.73424	7797.35
3195.04645	7799.65
3197.35725	7788.05
3199.66667	7807.65
3201.97469	7820.15
3204.28132	7825.45
3206.58656	7870.95
3208.8904	7881.05
3211.19287	7880.45
3213.49394	7912.15
3215.79363	7912.05
3218.09193	7913.65
3220.38884	7920.15
3222.68438	7929.65
3224.97853	7936.65
3227.2713	7938.75
3229.56269	7965.55
3231.8527	7982.45
3234.14133	7964.85
3236.42858	7938.15
3238.71446	7926.95
3240.99896	7926.85
3243.28209	7911.35
3245.56384	7905.05
3247.84423	7956.45
3250.12324	7918.05
3252.40088	7916.25
3254.67715	7895.85
3256.95205	7914.15
3259.22558	7930.45
3261.49775	7904.25
3263.76855	7913.95
3266.03799	7911.95
3268.30606	7910.25
3270.57277	7906.75
3272.83812	7860.65
3275.10211	7846.25
3277.36474	7844.35
3279.62601	7834.05
3281.88593	7811.85
3284.14448	7837.85
3286.40168	7793.45
3288.65753	7811.05
3290.91202	7774.25
3293.16516	7782.55
3295.41695	7760.15
3297.66738	7719.75
3299.91647	7657.65
3302.16421	7624.85
3304.4106	7563.85
3306.65564	7496.75
3308.89933	7441.65
3311.14169	7379.75
3313.38269	7294.85
3315.62236	7271.45
3317.86068	7204.65
3320.09766	7131.25
3322.3333	7085.35
3324.5676	7034.85
3326.80056	6963.85
3329.03219	6909.45
3331.26248	3.35
3333.49143	-0.55
3335.71905	-0.85
