Data from AgNP_FTO_APTES_UA_10uM_CRN_5uM_R6G_10uM_NaF_0.1M_Addition_RamanShift__20__15-05-40-659.txt Node

Date: Thu Feb 10 15:05:40 GMT 2022
User: TCL
Spectrometer: QEP01345
Trigger mode: 4
Integration Time (sec): 7.000000E0
Scans to average: 10
Electric dark correction enabled: true
Nonlinearity correction enabled: false
Boxcar width: 0
XAxis mode: Raman Shifts
Number of Pixels in Spectrum: 1044
>>>>>Begin Spectral Data<<<<<
46.04893	0.55
50.45542	-0.85
54.85868	-0.95
59.25871	-2.25
63.6555	72.15
68.04907	76.35
72.43941	79.15
76.82654	79.65
81.21044	87.65
85.59113	87.15
89.96862	93.05
94.34289	93.95
98.71396	98.65
103.08183	103.65
107.4465	108.65
111.80798	102.05
116.16626	112.85
120.52136	114.75
124.87327	120.95
129.222	125.55
133.56755	134.25
137.90993	144.95
142.24913	156.05
146.58517	177.75
150.91804	205.35
155.24774	247.35
159.57429	307.05
163.89768	387.65
168.21792	517.75
172.53501	710.55
176.84895	991.15
181.15975	1391.65
185.46741	1942.05
189.77193	2677.95
194.07331	3581.55
198.37157	4599.55
202.6667	5688.05
206.9587	6723.15
211.24758	7770.85
215.53334	8823.65
219.81599	9924.25
224.09553	11176.25
228.37195	12532.95
232.64527	14057.85
236.91549	15635.55
241.18261	17208.25
245.44663	18665.75
249.70755	20007.25
253.96539	21163.05
258.22014	22183.35
262.4718	22997.85
266.72039	23605.75
270.96589	23991.55
275.20832	24074.05
279.44768	24045.85
283.68397	23931.25
287.91719	23778.85
292.14735	23731.35
296.37445	23795.65
300.59849	23838.85
304.81948	23825.95
309.03742	23710.95
313.25231	23361.45
317.46415	22780.85
321.67296	22071.35
325.87872	21512.95
330.08145	21228.25
334.28114	21242.95
338.47781	21418.85
342.67145	21701.15
346.86207	22077.45
351.04966	22582.05
355.23424	23037.25
359.4158	23440.05
363.59435	23727.25
367.76989	23928.85
371.94243	24029.85
376.11196	24178.55
380.27849	24258.15
384.44203	24391.95
388.60257	24538.25
392.76012	24728.15
396.91468	25064.85
401.06626	25422.95
405.21485	25726.85
409.36047	25572.75
413.50311	25242.35
417.64277	24963.25
421.77947	24952.95
425.9132	25090.25
430.04396	25316.05
434.17176	25457.15
438.2966	25691.95
442.41849	26153.75
446.53742	26824.35
450.6534	27622.85
454.76644	28317.45
458.87653	28550.95
462.98368	28415.55
467.08789	28093.95
471.18916	27644.65
475.2875	27269.25
479.38291	27080.05
483.4754	26884.05
487.56496	26477.15
491.6516	25974.35
495.73531	25507.65
499.81612	25371.55
503.89401	25510.05
507.96899	25580.45
512.04106	25507.25
516.11023	25293.75
520.1765	25130.55
524.23987	24938.65
528.30034	24664.15
532.35792	24380.65
536.41261	24070.05
540.46441	23826.35
544.51333	23899.75
548.55936	24258.85
552.60252	24862.55
556.64279	25469.65
560.6802	25892.35
564.71473	26128.25
568.7464	26534.65
572.7752	27184.55
576.80114	27642.45
580.82422	28037.65
584.84444	28353.65
588.86181	28722.35
592.87633	29100.05
596.888	29234.65
600.89682	29223.95
604.9028	30091.65
608.90594	32672.65
612.90624	35095.55
616.90371	32669.45
620.89834	27457.55
624.89015	25432.25
628.87913	25292.75
632.86528	25228.75
636.84862	24923.15
640.82913	24440.75
644.80683	23768.15
648.78172	23276.95
652.75379	23208.85
656.72306	23491.25
660.68952	23878.35
664.65319	23802.75
668.61405	23393.15
672.57211	23204.45
676.52738	23258.65
680.47986	23245.55
684.42955	23156.25
688.37646	23116.85
692.32058	23261.45
696.26192	23521.35
700.20048	23823.15
704.13626	24013.95
708.06928	23939.95
711.99952	23739.95
715.927	23648.25
719.85171	23660.55
723.77365	23610.65
727.69284	23311.55
731.60928	23055.45
735.52295	23008.85
739.43388	23049.65
743.34206	23100.65
747.24749	23253.65
751.15017	23536.85
755.05012	23990.65
758.94733	24789.25
762.8418	26104.25
766.73354	28144.05
770.62254	29927.35
774.50882	30240.05
778.39237	28639.55
782.27321	26403.15
786.15132	24687.85
790.02671	23788.35
793.89938	23258.65
797.76935	23123.75
801.6366	23116.75
805.50115	23029.55
809.36299	22902.95
813.22213	22697.55
817.07857	22577.55
820.93231	22487.65
824.78336	22437.45
828.63172	22368.65
832.47738	22359.05
836.32036	22389.85
840.16066	22553.25
843.99827	22639.55
847.8332	22590.75
851.66546	22419.35
855.49504	22412.55
859.32195	22371.45
863.1462	22266.15
866.96777	22133.15
870.78668	22077.65
874.60293	22044.15
878.41652	22089.85
882.22745	22152.95
886.03573	22169.95
889.84136	22113.15
893.64433	22091.85
897.44466	21980.45
901.24235	21889.55
905.0374	21829.25
908.8298	21763.75
912.61957	21837.25
916.40671	22089.05
920.19121	22435.15
923.97308	22771.45
927.75233	22835.65
931.52895	22712.25
935.30295	22408.45
939.07433	21961.35
942.84309	21603.95
946.60924	21480.95
950.37278	21464.75
954.13371	21335.55
957.89203	21214.95
961.64774	21165.35
965.40086	21100.45
969.15137	21016.15
972.89929	20909.75
976.64461	20872.35
980.38733	20903.45
984.12747	21010.15
987.86502	21255.25
991.59999	21621.35
995.33237	22172.45
999.06217	23015.15
1002.78939	23901.05
1006.51404	24400.85
1010.23611	24597.65
1013.95561	24805.15
1017.67255	24772.35
1021.38692	24482.35
1025.09872	24258.45
1028.80796	24567.45
1032.51465	25523.85
1036.21877	26337.65
1039.92035	26402.45
1043.61937	25929.55
1047.31584	25073.75
1051.00976	24149.05
1054.70114	23758.65
1058.38998	23743.25
1062.07627	23870.95
1065.76003	23978.75
1069.44126	24081.75
1073.11995	24320.95
1076.79611	24584.25
1080.46974	24786.25
1084.14085	25007.75
1087.80943	25288.55
1091.47549	25476.15
1095.13903	25350.05
1098.80005	25049.25
1102.45857	24518.95
1106.11456	24159.25
1109.76805	24102.75
1113.41903	24188.95
1117.06751	24447.75
1120.71348	24667.65
1124.35696	24945.25
1127.99793	25179.05
1131.63641	25303.15
1135.2724	25196.25
1138.90589	25061.35
1142.5369	24951.05
1146.16542	24978.25
1149.79145	25082.75
1153.415	25311.35
1157.03607	25727.35
1160.65467	26500.25
1164.27079	27662.55
1167.88443	29252.35
1171.49561	31262.65
1175.10432	33821.05
1178.71056	37044.95
1182.31434	39986.85
1185.91565	41740.15
1189.51451	41815.35
1193.11091	40472.65
1196.70485	38557.35
1200.29634	36683.35
1203.88538	35196.55
1207.47197	34156.65
1211.05612	33372.75
1214.63782	32685.55
1218.21708	32282.85
1221.79391	32074.05
1225.36829	31979.45
1228.94024	31594.55
1232.50976	30898.45
1236.07685	30336.05
1239.6415	30103.45
1243.20374	30000.45
1246.76355	30079.25
1250.32093	30602.15
1253.8759	31429.95
1257.42845	32372.35
1260.97859	33368.75
1264.52631	34374.95
1268.07163	35397.95
1271.61453	36539.85
1275.15503	37851.55
1278.69312	39179.05
1282.22882	40264.65
1285.76211	41121.95
1289.29301	41982.85
1292.82151	43271.25
1296.34761	45129.95
1299.87133	47663.65
1303.39266	50768.65
1306.9116	54294.35
1310.42815	57815.85
1313.94233	60042.75
1317.45412	60206.65
1320.96354	59037.05
1324.47058	57701.45
1327.97525	56500.75
1331.47754	55681.75
1334.97747	55568.05
1338.47502	55793.05
1341.97022	55829.35
1345.46305	55144.05
1348.95352	53971.85
1352.44163	52867.75
1355.92738	52890.45
1359.41078	54514.85
1362.89183	56041.15
1366.37053	54379.05
1369.84688	49892.45
1373.32088	44914.95
1376.79254	41555.55
1380.26186	40264.95
1383.72883	40143.75
1387.19347	40109.65
1390.65578	39949.25
1394.11575	40039.55
1397.57339	40679.45
1401.0287	41654.65
1404.48168	42646.75
1407.93234	43151.05
1411.38068	42903.75
1414.82669	41787.45
1418.27039	39979.45
1421.71177	38054.85
1425.15083	36354.75
1428.58758	35546.35
1432.02203	35562.85
1435.45416	36252.05
1438.88399	37264.75
1442.31151	38149.65
1445.73673	38850.95
1449.15965	39474.95
1452.58027	39913.85
1455.9986	40153.25
1459.41463	40510.45
1462.82837	41205.85
1466.23982	42059.75
1469.64898	42827.95
1473.05586	43222.05
1476.46045	43160.25
1479.86276	42754.55
1483.26279	42208.95
1486.66054	41869.55
1490.05602	41832.95
1493.44922	41871.25
1496.84016	42004.95
1500.22882	42362.15
1503.61521	43217.35
1506.99934	44484.75
1510.38121	45656.95
1513.76081	46047.65
1517.13816	45247.75
1520.51324	43622.65
1523.88607	42190.55
1527.25665	41351.55
1530.62498	41033.45
1533.99105	40896.15
1537.35488	40752.35
1540.71647	40449.45
1544.07581	39898.95
1547.4329	39179.95
1550.78776	38528.45
1554.14038	38015.25
1557.49077	37680.05
1560.83892	37504.95
1564.18484	37304.25
1567.52853	37186.05
1570.86999	37206.95
1574.20922	37574.85
1577.54624	38011.05
1580.88103	38137.75
1584.2136	38535.75
1587.54395	39809.75
1590.87208	41996.45
1594.19801	44908.95
1597.52172	47904.65
1600.84321	48791.85
1604.16251	46825.05
1607.47959	43073.95
1610.79447	39024.35
1614.10715	35359.25
1617.41763	32326.55
1620.7259	30179.15
1624.03199	29179.05
1627.33587	29155.15
1630.63757	30159.75
1633.93707	32253.85
1637.23439	35519.35
1640.52951	39690.25
1643.82246	44081.45
1647.11321	47033.15
1650.40179	46934.65
1653.68819	43368.05
1656.97241	37630.05
1660.25446	32198.85
1663.53433	28143.15
1666.81203	25483.75
1670.08756	23868.25
1673.36092	22791.95
1676.63211	22106.95
1679.90115	21602.35
1683.16801	21211.15
1686.43272	20934.95
1689.69527	20729.45
1692.95567	20547.45
1696.2139	20459.65
1699.46999	20421.35
1702.72392	20341.75
1705.97571	20223.05
1709.22535	20208.75
1712.47284	20102.35
1715.71819	20119.05
1718.96139	20038.15
1722.20246	19940.95
1725.44139	19874.65
1728.67818	19734.15
1731.91284	19580.05
1735.14537	19485.25
1738.37576	19403.95
1741.60403	19358.45
1744.83017	19280.95
1748.05418	19212.45
1751.27607	19170.55
1754.49584	19176.75
1757.71349	19185.85
1760.92903	19148.65
1764.14244	19117.35
1767.35375	19113.65
1770.56294	19082.75
1773.77002	19036.85
1776.97499	18955.25
1780.17785	18950.65
1783.37861	18894.95
1786.57727	18878.95
1789.77382	18856.95
1792.96828	18804.35
1796.16064	18787.05
1799.3509	18752.25
1802.53907	18737.85
1805.72514	18665.85
1808.90913	18605.95
1812.09102	18598.95
1815.27083	18550.05
1818.44856	18523.65
1821.6242	18496.65
1824.79776	18495.85
1827.96924	18489.35
1831.13864	18462.05
1834.30597	18464.85
1837.47122	18455.15
1840.6344	18463.45
1843.7955	18521.45
1846.95454	18486.55
1850.11151	18478.95
1853.26642	18453.25
1856.41926	18494.85
1859.57004	18562.85
1862.71876	18462.95
1865.86542	18479.05
1869.01003	18468.05
1872.15258	18427.55
1875.29308	18462.55
1878.43152	18417.55
1881.56792	18481.45
1884.70227	18468.35
1887.83457	18428.35
1890.96482	18430.65
1894.09304	18428.55
1897.21921	18435.15
1900.34335	18397.55
1903.46544	18384.55
1906.58551	18361.95
1909.70353	18350.85
1912.81953	18306.35
1915.93349	18328.35
1919.04543	18275.95
1922.15534	18213.55
1925.26322	18146.55
1928.36908	18110.45
1931.47292	18110.65
1934.57473	18042.35
1937.67453	17970.75
1940.77232	17877.75
1943.86808	17812.15
1946.96184	17762.65
1950.05358	17669.15
1953.14331	17627.05
1956.23103	17558.55
1959.31675	17502.55
1962.40046	17457.85
1965.48217	17408.45
1968.56188	17350.25
1971.63959	17290.95
1974.7153	17267.65
1977.78901	17177.35
1980.86073	17124.45
1983.93046	17097.75
1986.99819	17026.95
1990.06394	16979.05
1993.1277	16968.95
1996.18947	16874.65
1999.24925	16832.65
2002.30706	16801.35
2005.36288	16744.95
2008.41672	16725.35
2011.46859	16663.35
2014.51848	16642.05
2017.56639	16608.55
2020.61233	16539.45
2023.6563	16535.85
2026.6983	16477.45
2029.73833	16422.35
2032.7764	16414.55
2035.8125	16413.35
2038.84664	16362.55
2041.87881	16340.95
2044.90903	16302.95
2047.93729	16310.15
2050.96359	16309.25
2053.98794	16271.25
2057.01034	16282.15
2060.03078	16236.75
2063.04927	16226.65
2066.06582	16232.85
2069.08042	16209.45
2072.09307	16211.15
2075.10378	16161.05
2078.11255	16146.65
2081.11938	16160.15
2084.12426	16137.75
2087.12722	16143.85
2090.12824	16109.75
2093.12732	16086.35
2096.12447	16108.55
2099.11969	16082.15
2102.11299	16109.65
2105.10435	16124.65
2108.09379	16095.15
2111.08131	16094.05
2114.0669	16123.55
2117.05057	16138.35
2120.03233	16125.35
2123.01216	16164.35
2125.99008	16163.35
2128.96609	16186.75
2131.94018	16208.95
2134.91236	16189.05
2137.88263	16195.95
2140.851	16199.05
2143.81746	16227.25
2146.78201	16232.05
2149.74466	16217.55
2152.7054	16250.55
2155.66425	16208.05
2158.6212	16198.15
2161.57625	16228.05
2164.52941	16240.15
2167.48067	16206.65
2170.43004	16185.55
2173.37752	16183.15
2176.32311	16194.75
2179.26681	16209.35
2182.20863	16193.85
2185.14856	16194.05
2188.08661	16203.85
2191.02278	16237.55
2193.95707	16222.75
2196.88948	16210.25
2199.82001	16230.35
2202.74867	16157.75
2205.67545	16198.95
2208.60037	16152.95
2211.52341	16183.35
2214.44458	16176.85
2217.36388	16162.65
2220.28132	16104.55
2223.1969	16096.05
2226.11061	16088.65
2229.02246	16042.45
2231.93245	15992.55
2234.84058	15934.45
2237.74686	15935.75
2240.65128	15929.85
2243.55385	15900.75
2246.45456	15878.95
2249.35343	15830.35
2252.25044	15842.65
2255.14561	15826.15
2258.03893	15829.65
2260.93041	15769.75
2263.82004	15699.75
2266.70783	15663.75
2269.59378	15608.85
2272.4779	15552.05
2275.36017	15530.35
2278.24061	15504.95
2281.11922	15509.15
2283.996	15505.65
2286.87094	15471.85
2289.74405	15498.85
2292.61534	15487.65
2295.4848	15473.25
2298.35243	15492.85
2301.21824	15470.75
2304.08223	15498.75
2306.94439	15481.55
2309.80474	15538.15
2312.66327	15523.35
2315.51999	15514.95
2318.37489	15517.75
2321.22797	15525.45
2324.07925	15500.55
2326.92871	15487.25
2329.77637	15494.25
2332.62222	15478.15
2335.46626	15505.95
2338.3085	15498.55
2341.14893	15603.55
2343.98756	15515.95
2346.8244	15573.35
2349.65943	15551.85
2352.49267	15535.35
2355.32411	15530.35
2358.15376	15537.95
2360.98161	15496.85
2363.80768	15482.45
2366.63195	15460.85
2369.45444	15428.75
2372.27514	15372.95
2375.09405	15369.55
2377.91118	15335.15
2380.72652	15286.55
2383.54009	15284.55
2386.35187	15250.35
2389.16188	15188.95
2391.97011	15167.95
2394.77657	15160.55
2397.58125	15140.45
2400.38416	15128.35
2403.18529	15109.55
2405.98466	15061.35
2408.78226	15044.95
2411.57809	14982.95
2414.37216	14994.95
2417.16446	14990.05
2419.955	14927.25
2422.74378	14913.55
2425.5308	14895.25
2428.31606	14915.65
2431.09956	14904.75
2433.88131	14871.05
2436.6613	14878.65
2439.43954	14913.95
2442.21603	14902.65
2444.99077	14869.15
2447.76377	14870.85
2450.53501	14833.25
2453.30451	14884.05
2456.07226	14865.15
2458.83827	14868.35
2461.60254	14874.05
2464.36507	14862.95
2467.12586	14885.15
2469.88492	14870.05
2472.64224	14885.15
2475.39782	14902.05
2478.15167	14922.95
2480.90379	14914.25
2483.65417	14976.45
2486.40283	14977.45
2489.14976	15007.55
2491.89497	14992.05
2494.63845	15021.85
2497.3802	15004.35
2500.12024	14988.85
2502.85855	15000.05
2505.59514	14955.65
2508.33002	14938.35
2511.06318	14937.75
2513.79462	14918.15
2516.52435	14923.85
2519.25237	14939.75
2521.97867	14913.45
2524.70327	14918.95
2527.42616	14919.95
2530.14734	14909.85
2532.86681	14913.75
2535.58458	14908.45
2538.30065	14896.95
2541.01501	14895.55
2543.72768	14871.55
2546.43864	14882.75
2549.14791	14889.25
2551.85548	14873.25
2554.56136	14843.55
2557.26554	14858.95
2559.96803	14817.85
2562.66883	14800.45
2565.36794	14809.55
2568.06536	14797.35
2570.7611	14778.05
2573.45514	14767.75
2576.14751	14769.25
2578.83819	14755.65
2581.52719	14749.95
2584.21451	14756.75
2586.90015	14764.95
2589.58411	14756.55
2592.2664	14771.85
2594.94701	14760.65
2597.62594	14753.15
2600.30321	14765.55
2602.9788	14752.15
2605.65273	14759.15
2608.32498	14788.75
2610.99557	14771.95
2613.66449	14781.45
2616.33175	14777.55
2618.99734	14804.75
2621.66128	14788.25
2624.32355	14804.05
2626.98416	14823.35
2629.64311	14804.25
2632.30041	14786.25
2634.95605	14774.05
2637.61004	14750.95
2640.26238	14750.15
2642.91306	14748.75
2645.56209	14723.15
2648.20948	14742.95
2650.85521	14717.65
2653.4993	14718.15
2656.14175	14729.25
2658.78255	14752.85
2661.42171	14745.15
2664.05923	14758.25
2666.6951	14806.95
2669.32934	14777.45
2671.96194	14765.25
2674.59291	14803.35
2677.22224	14816.25
2679.84993	14817.95
2682.476	14756.75
2685.10043	14759.35
2687.72324	14749.85
2690.34441	14767.55
2692.96396	14746.15
2695.58188	14736.65
2698.19818	14678.35
2700.81285	14728.55
2703.4259	14735.85
2706.03733	14762.35
2708.64714	14734.45
2711.25533	14749.95
2713.86191	14748.55
2716.46687	14759.45
2719.07021	14752.95
2721.67194	14774.75
2724.27206	14793.85
2726.87057	14803.35
2729.46747	14795.85
2732.06276	14788.45
2734.65644	14801.15
2737.24852	14824.65
2739.83899	14790.15
2742.42786	14806.75
2745.01513	14799.15
2747.60079	14772.75
2750.18486	14739.35
2752.76733	14744.75
2755.3482	14774.95
2757.92747	14741.55
2760.50515	14756.95
2763.08123	14739.35
2765.65573	14715.15
2768.22863	14753.35
2770.79994	14742.05
2773.36967	14751.95
2775.9378	14749.35
2778.50435	14748.65
2781.06932	14753.85
2783.6327	14780.95
2786.1945	14762.65
2788.75471	14733.85
2791.31335	14737.15
2793.87041	14712.35
2796.42589	14691.75
2798.97979	14688.05
2801.53212	14669.05
2804.08288	14643.05
2806.63206	14621.65
2809.17967	14606.35
2811.72571	14582.75
2814.27018	14543.15
2816.81308	14507.55
2819.35442	14464.85
2821.89419	14460.85
2824.43239	14462.15
2826.96904	14471.45
2829.50412	14464.75
2832.03763	14430.45
2834.56959	14431.75
2837.1	14420.25
2839.62884	14421.65
2842.15613	14424.75
2844.68186	14432.35
2847.20604	14412.95
2849.72867	14419.75
2852.24974	14427.65
2854.76927	14394.45
2857.28724	14365.85
2859.80367	14358.25
2862.31855	14359.95
2864.83189	14330.85
2867.34368	14323.85
2869.85393	14325.85
2872.36264	14300.05
2874.8698	14304.35
2877.37543	14291.95
2879.87952	14333.75
2882.38207	14296.95
2884.88308	14299.75
2887.38256	14330.95
2889.88051	14330.85
2892.37692	14317.05
2894.8718	14340.55
2897.36515	14360.35
2899.85698	14402.75
2902.34727	14400.85
2904.83604	14434.25
2907.32328	14473.25
2909.809	14476.55
2912.29319	14453.75
2914.77587	14468.25
2917.25702	14467.45
2919.73665	14424.75
2922.21476	14427.55
2924.69136	14401.15
2927.16644	14419.05
2929.64	14393.55
2932.11205	14367.75
2934.58258	14322.45
2937.05161	14311.75
2939.51912	14346.05
2941.98513	14320.25
2944.44962	14285.55
2946.91261	14226.45
2949.37409	14298.15
2951.83407	14285.85
2954.29254	14243.65
2956.74951	14223.25
2959.20498	14235.35
2961.65895	14197.75
2964.11142	14217.55
2966.56239	14186.95
2969.01186	14184.75
2971.45984	14162.45
2973.90632	14167.05
2976.35131	14125.65
2978.7948	14047.95
2981.23681	14022.15
2983.67732	13988.95
2986.11635	13954.55
2988.55388	13918.25
2990.98993	13905.85
2993.4245	13861.45
2995.85758	13826.35
2998.28917	13795.05
3000.71928	13779.75
3003.14791	13773.95
3005.57506	13763.05
3008.00073	13708.15
3010.42493	13548.95
3012.84764	13613.15
3015.26888	13617.15
3017.68865	13570.05
3020.10694	13565.25
3022.52376	13543.95
3024.9391	13528.55
3027.35298	13521.55
3029.76539	13500.75
3032.17632	13541.55
3034.5858	13493.05
3036.9938	13521.55
3039.40034	13504.15
3041.80542	13485.15
3044.20903	13481.15
3046.61118	13445.65
3049.01187	13427.35
3051.4111	13453.85
3053.80888	13406.45
3056.20519	13366.25
3058.60005	13363.85
3060.99345	13322.55
3063.3854	13277.75
3065.7759	13224.45
3068.16494	13220.85
3070.55254	13182.05
3072.93868	13139.45
3075.32338	13088.95
3077.70662	13050.55
3080.08842	13035.75
3082.46878	13034.85
3084.84769	13042.45
3087.22515	12985.55
3089.60118	13052.35
3091.97576	12993.85
3094.3489	13009.85
3096.72061	12988.85
3099.09087	12996.45
3101.4597	12990.05
3103.82709	12954.35
3106.19305	12940.85
3108.55757	12974.15
3110.92066	12944.55
3113.28232	12918.95
3115.64255	12869.95
3118.00134	12837.35
3120.35871	12835.65
3122.71466	12796.15
3125.06917	12755.35
3127.42226	12768.05
3129.77393	12765.65
3132.12417	12689.35
3134.47299	12680.85
3136.82039	12676.35
3139.16636	12685.05
3141.51092	12691.65
3143.85406	12670.05
3146.19579	12677.45
3148.53609	12695.85
3150.87499	12697.65
3153.21246	12672.25
3155.54853	12700.75
3157.88318	12688.95
3160.21642	12693.25
3162.54826	12714.65
3164.87868	12720.85
3167.2077	12720.15
3169.5353	12705.25
3171.86151	12715.25
3174.18631	12689.35
3176.5097	12676.75
3178.83169	12659.55
3181.15228	12660.75
3183.47147	12631.05
3185.78926	12633.35
3188.10565	12596.55
3190.42065	12611.95
3192.73424	12574.55
3195.04645	12595.95
3197.35725	12597.25
3199.66667	12606.05
3201.97469	12620.95
3204.28132	12610.75
3206.58656	12624.25
3208.8904	12627.75
3211.19287	12601.95
3213.49394	12600.25
3215.79363	12623.95
3218.09193	12632.65
3220.38884	12650.25
3222.68438	12649.85
3224.97853	12619.05
3227.2713	12644.05
3229.56269	12621.65
3231.8527	12604.45
3234.14133	12580.05
3236.42858	12552.25
3238.71446	12551.15
3240.99896	12502.85
3243.28209	12495.75
3245.56384	12506.05
3247.84423	12503.75
3250.12324	12489.45
3252.40088	12444.15
3254.67715	12444.95
3256.95205	12443.55
3259.22558	12414.35
3261.49775	12388.65
3263.76855	12416.65
3266.03799	12349.45
3268.30606	12385.55
3270.57277	12360.15
3272.83812	12319.35
3275.10211	12306.25
3277.36474	12300.45
3279.62601	12311.95
3281.88593	12252.85
3284.14448	12219.55
3286.40168	12261.25
3288.65753	12274.25
3290.91202	12246.65
3293.16516	12219.45
3295.41695	12203.05
3297.66738	12161.55
3299.91647	12075.75
3302.16421	12008.15
3304.4106	11940.95
3306.65564	11870.55
3308.89933	11798.25
3311.14169	11715.45
3313.38269	11627.05
3315.62236	11546.65
3317.86068	11476.55
3320.09766	11380.85
3322.3333	11298.65
3324.5676	11243.95
3326.80056	11081.55
3329.03219	11017.95
3331.26248	5.15
3333.49143	-0.45
3335.71905	-0.95
