Data from AgNP_FTO_APTES_UA_10uM_CRN_10uM_R6G_10uM_NaF_0.1M_Addition_RamanShift__0__15-24-20-682.txt Node

Date: Thu Feb 10 15:24:20 GMT 2022
User: TCL
Spectrometer: QEP01345
Trigger mode: 4
Integration Time (sec): 7.000000E0
Scans to average: 10
Electric dark correction enabled: true
Nonlinearity correction enabled: false
Boxcar width: 0
XAxis mode: Raman Shifts
Number of Pixels in Spectrum: 1044
>>>>>Begin Spectral Data<<<<<
46.04893	-1.55
50.45542	-0.85
54.85868	-2.75
59.25871	-1.05
63.6555	81.45
68.04907	85.65
72.43941	87.75
76.82654	90.65
81.21044	95.35
85.59113	95.05
89.96862	99.45
94.34289	102.75
98.71396	104.85
103.08183	114.85
107.4465	116.05
111.80798	115.45
116.16626	117.95
120.52136	127.15
124.87327	133.55
129.222	137.95
133.56755	148.55
137.90993	158.05
142.24913	174.95
146.58517	196.05
150.91804	228.35
155.24774	270.95
159.57429	334.35
163.89768	435.85
168.21792	575.55
172.53501	787.05
176.84895	1092.35
181.15975	1537.25
185.46741	2152.35
189.77193	2969.95
194.07331	3980.05
198.37157	5128.05
202.6667	6313.95
206.9587	7501.85
211.24758	8670.75
215.53334	9857.75
219.81599	11119.45
224.09553	12473.75
228.37195	13979.35
232.64527	15646.95
236.91549	17380.45
241.18261	19121.85
245.44663	20691.95
249.70755	22113.75
253.96539	23391.35
258.22014	24440.55
262.4718	25311.35
266.72039	25958.95
270.96589	26285.45
275.20832	26284.55
279.44768	26146.25
283.68397	25879.95
287.91719	25596.65
292.14735	25465.35
296.37445	25432.65
300.59849	25520.75
304.81948	25643.55
309.03742	25685.85
313.25231	25585.85
317.46415	25287.95
321.67296	24877.85
325.87872	24521.45
330.08145	24366.85
334.28114	24342.35
338.47781	24506.95
342.67145	24808.55
346.86207	25223.15
351.04966	25741.95
355.23424	26204.35
359.4158	26593.55
363.59435	26922.35
367.76989	27186.15
371.94243	27312.35
376.11196	27420.05
380.27849	27561.65
384.44203	27693.75
388.60257	27945.35
392.76012	28231.05
396.91468	28602.25
401.06626	28966.45
405.21485	29235.55
409.36047	29177.85
413.50311	28941.05
417.64277	28906.75
421.77947	29056.65
425.9132	29237.65
430.04396	29535.85
434.17176	29624.45
438.2966	29888.45
442.41849	30473.55
446.53742	31474.25
450.6534	32540.05
454.76644	33261.35
458.87653	33355.85
462.98368	32923.25
467.08789	32252.75
471.18916	31588.25
475.2875	30900.15
479.38291	30400.55
483.4754	30098.45
487.56496	29783.35
491.6516	29411.65
495.73531	29023.45
499.81612	28932.85
503.89401	29096.25
507.96899	29201.65
512.04106	29180.55
516.11023	28935.05
520.1765	28713.75
524.23987	28515.25
528.30034	28417.55
532.35792	28198.95
536.41261	27813.75
540.46441	27463.15
544.51333	27382.05
548.55936	27667.55
552.60252	28214.15
556.64279	28988.45
560.6802	29631.95
564.71473	29918.55
568.7464	30332.25
572.7752	31176.85
576.80114	32085.05
580.82422	33153.65
584.84444	34742.05
588.86181	36911.05
592.87633	38895.85
596.888	38755.05
600.89682	36477.95
604.9028	35234.15
608.90594	36712.15
612.90624	38470.35
616.90371	35997.05
620.89834	31097.05
624.89015	29012.85
628.87913	28777.35
632.86528	28742.85
636.84862	28506.75
640.82913	27934.95
644.80683	27302.65
648.78172	26939.05
652.75379	27000.35
656.72306	27337.75
660.68952	27762.85
664.65319	27537.25
668.61405	27134.25
672.57211	27118.05
676.52738	27265.25
680.47986	27214.85
684.42955	26984.05
688.37646	26905.25
692.32058	27168.85
696.26192	27666.35
700.20048	28144.75
704.13626	28350.35
708.06928	28267.85
711.99952	28106.75
715.927	28119.65
719.85171	28250.85
723.77365	28171.65
727.69284	27712.05
731.60928	27310.45
735.52295	27174.95
739.43388	27169.35
743.34206	27336.65
747.24749	27500.65
751.15017	27820.65
755.05012	28328.65
758.94733	29070.45
762.8418	30211.15
766.73354	32011.95
770.62254	33457.85
774.50882	33585.65
778.39237	32232.45
782.27321	30401.05
786.15132	28890.55
790.02671	28003.95
793.89938	27541.45
797.76935	27404.15
801.6366	27349.45
805.50115	27315.65
809.36299	27156.15
813.22213	26919.25
817.07857	26848.15
820.93231	26710.95
824.78336	26611.25
828.63172	26511.65
832.47738	26538.45
836.32036	26617.15
840.16066	26719.75
843.99827	26848.15
847.8332	26789.95
851.66546	26707.15
855.49504	26760.55
859.32195	26774.25
863.1462	26652.15
866.96777	26529.95
870.78668	26447.25
874.60293	26482.45
878.41652	26519.85
882.22745	26555.65
886.03573	26698.95
889.84136	26622.25
893.64433	26452.55
897.44466	26334.75
901.24235	26257.65
905.0374	26196.35
908.8298	26206.75
912.61957	26294.85
916.40671	26533.65
920.19121	26949.15
923.97308	27350.95
927.75233	27393.15
931.52895	27167.65
935.30295	26797.05
939.07433	26281.95
942.84309	26061.65
946.60924	25950.05
950.37278	26003.75
954.13371	25937.55
957.89203	25891.05
961.64774	25846.75
965.40086	25848.15
969.15137	25844.95
972.89929	25806.95
976.64461	25842.05
980.38733	25939.15
984.12747	26079.75
987.86502	26254.95
991.59999	26506.25
995.33237	26897.15
999.06217	27614.55
1002.78939	28520.15
1006.51404	29205.95
1010.23611	29666.05
1013.95561	30011.55
1017.67255	29975.25
1021.38692	29507.75
1025.09872	28976.95
1028.80796	28972.75
1032.51465	29538.85
1036.21877	30284.95
1039.92035	30444.25
1043.61937	30140.25
1047.31584	29585.75
1051.00976	28928.25
1054.70114	28621.65
1058.38998	28601.45
1062.07627	28725.45
1065.76003	28856.35
1069.44126	29097.75
1073.11995	29565.85
1076.79611	29965.35
1080.46974	30245.25
1084.14085	30521.35
1087.80943	30833.75
1091.47549	31040.85
1095.13903	30925.05
1098.80005	30485.75
1102.45857	29911.25
1106.11456	29430.45
1109.76805	29301.15
1113.41903	29286.85
1117.06751	29451.35
1120.71348	29616.25
1124.35696	29829.65
1127.99793	30130.45
1131.63641	30308.65
1135.2724	30296.15
1138.90589	30259.45
1142.5369	30345.75
1146.16542	30570.95
1149.79145	30850.75
1153.415	31165.75
1157.03607	31667.05
1160.65467	32556.05
1164.27079	34192.05
1167.88443	36033.95
1171.49561	37924.25
1175.10432	40257.55
1178.71056	43292.15
1182.31434	46175.05
1185.91565	47450.45
1189.51451	46806.35
1193.11091	45235.45
1196.70485	43668.85
1200.29634	42312.15
1203.88538	41520.75
1207.47197	41170.55
1211.05612	40880.15
1214.63782	40108.55
1218.21708	39153.05
1221.79391	38300.15
1225.36829	37773.05
1228.94024	37222.75
1232.50976	36514.85
1236.07685	35707.15
1239.6415	35235.85
1243.20374	35136.95
1246.76355	35520.05
1250.32093	36208.55
1253.8759	37043.15
1257.42845	38108.15
1260.97859	39256.25
1264.52631	40400.75
1268.07163	41732.25
1271.61453	43079.75
1275.15503	44439.95
1278.69312	45762.85
1282.22882	47120.95
1285.76211	48669.15
1289.29301	50434.85
1292.82151	52755.95
1296.34761	55636.95
1299.87133	59315.45
1303.39266	63289.65
1306.9116	66808.95
1310.42815	69410.35
1313.94233	70509.75
1317.45412	69790.55
1320.96354	67993.45
1324.47058	66252.65
1327.97525	65024.95
1331.47754	64150.85
1334.97747	63533.45
1338.47502	62746.25
1341.97022	61462.65
1345.46305	59688.05
1348.95352	58463.45
1352.44163	58686.85
1355.92738	60574.15
1359.41078	63849.05
1362.89183	65935.05
1366.37053	64758.65
1369.84688	59720.35
1373.32088	53170.45
1376.79254	48760.75
1380.26186	47508.35
1383.72883	47838.45
1387.19347	48050.35
1390.65578	47591.95
1394.11575	47456.15
1397.57339	48168.55
1401.0287	49285.45
1404.48168	50105.65
1407.93234	50331.55
1411.38068	49612.75
1414.82669	48194.75
1418.27039	46254.25
1421.71177	44222.25
1425.15083	42633.75
1428.58758	41871.75
1432.02203	42494.95
1435.45416	43946.75
1438.88399	45555.25
1442.31151	46610.15
1445.73673	47085.45
1449.15965	47245.55
1452.58027	46989.75
1455.9986	46571.35
1459.41463	46566.45
1462.82837	47154.75
1466.23982	48262.35
1469.64898	49272.05
1473.05586	50018.05
1476.46045	50217.65
1479.86276	49875.45
1483.26279	49209.95
1486.66054	48857.15
1490.05602	48907.75
1493.44922	49025.85
1496.84016	49018.65
1500.22882	49161.05
1503.61521	49575.65
1506.99934	50285.85
1510.38121	50940.55
1513.76081	50916.35
1517.13816	50028.85
1520.51324	48907.95
1523.88607	48195.55
1527.25665	48186.65
1530.62498	48586.85
1533.99105	48752.45
1537.35488	48371.75
1540.71647	47408.55
1544.07581	46190.75
1547.4329	44901.35
1550.78776	43829.35
1554.14038	42967.25
1557.49077	42359.25
1560.83892	41946.95
1564.18484	41676.35
1567.52853	41735.85
1570.86999	42062.35
1574.20922	42768.05
1577.54624	43635.45
1580.88103	44143.15
1584.2136	45065.35
1587.54395	47226.25
1590.87208	50560.95
1594.19801	54456.15
1597.52172	57933.35
1600.84321	58760.95
1604.16251	55736.35
1607.47959	50414.55
1610.79447	44768.55
1614.10715	40180.55
1617.41763	36915.05
1620.7259	35092.45
1624.03199	34354.25
1627.33587	34654.35
1630.63757	36045.95
1633.93707	38672.75
1637.23439	42955.45
1640.52951	49131.45
1643.82246	56325.05
1647.11321	61532.95
1650.40179	61305.45
1653.68819	55360.95
1656.97241	46936.75
1660.25446	39513.95
1663.53433	34531.55
1666.81203	31451.85
1670.08756	29578.05
1673.36092	28366.15
1676.63211	27641.25
1679.90115	27087.25
1683.16801	26721.65
1686.43272	26430.45
1689.69527	26212.55
1692.95567	26040.65
1696.2139	25923.05
1699.46999	25941.45
1702.72392	25810.35
1705.97571	25742.85
1709.22535	25619.65
1712.47284	25620.15
1715.71819	25567.65
1718.96139	25517.55
1722.20246	25463.85
1725.44139	25320.15
1728.67818	25197.65
1731.91284	25002.75
1735.14537	24908.05
1738.37576	24841.15
1741.60403	24693.45
1744.83017	24649.25
1748.05418	24590.05
1751.27607	24508.05
1754.49584	24487.75
1757.71349	24483.55
1760.92903	24481.05
1764.14244	24424.65
1767.35375	24448.65
1770.56294	24399.65
1773.77002	24378.15
1776.97499	24310.15
1780.17785	24297.05
1783.37861	24241.35
1786.57727	24209.85
1789.77382	24158.95
1792.96828	24149.55
1796.16064	24084.05
1799.3509	24063.95
1802.53907	24018.15
1805.72514	23957.95
1808.90913	23931.45
1812.09102	23870.55
1815.27083	23834.25
1818.44856	23805.25
1821.6242	23790.05
1824.79776	23755.95
1827.96924	23769.55
1831.13864	23718.15
1834.30597	23761.95
1837.47122	23717.75
1840.6344	23658.85
1843.7955	23739.25
1846.95454	23705.95
1850.11151	23701.45
1853.26642	23676.85
1856.41926	23643.15
1859.57004	23741.85
1862.71876	23638.85
1865.86542	23607.65
1869.01003	23610.95
1872.15258	23635.05
1875.29308	23605.75
1878.43152	23595.75
1881.56792	23574.85
1884.70227	23559.05
1887.83457	23566.75
1890.96482	23508.65
1894.09304	23504.05
1897.21921	23463.65
1900.34335	23483.35
1903.46544	23422.15
1906.58551	23449.15
1909.70353	23396.75
1912.81953	23348.65
1915.93349	23342.65
1919.04543	23283.15
1922.15534	23309.75
1925.26322	23200.65
1928.36908	23180.55
1931.47292	23156.85
1934.57473	23092.25
1937.67453	23064.85
1940.77232	23021.45
1943.86808	22958.15
1946.96184	22844.65
1950.05358	22804.65
1953.14331	22714.75
1956.23103	22703.55
1959.31675	22635.15
1962.40046	22577.05
1965.48217	22510.35
1968.56188	22454.95
1971.63959	22385.15
1974.7153	22296.25
1977.78901	22243.75
1980.86073	22201.05
1983.93046	22139.85
1986.99819	22067.95
1990.06394	22052.55
1993.1277	21985.85
1996.18947	21912.85
1999.24925	21838.25
2002.30706	21798.15
2005.36288	21738.75
2008.41672	21701.65
2011.46859	21626.45
2014.51848	21618.25
2017.56639	21569.25
2020.61233	21572.75
2023.6563	21509.45
2026.6983	21429.05
2029.73833	21421.05
2032.7764	21430.15
2035.8125	21359.25
2038.84664	21295.25
2041.87881	21260.95
2044.90903	21198.55
2047.93729	21192.75
2050.96359	21176.45
2053.98794	21184.65
2057.01034	21145.75
2060.03078	21114.65
2063.04927	21107.05
2066.06582	21123.55
2069.08042	21115.95
2072.09307	21129.45
2075.10378	21057.35
2078.11255	21060.05
2081.11938	21059.05
2084.12426	21064.35
2087.12722	21030.35
2090.12824	21022.85
2093.12732	21030.85
2096.12447	21020.55
2099.11969	21005.45
2102.11299	20993.15
2105.10435	21038.65
2108.09379	21055.05
2111.08131	21089.55
2114.0669	21053.75
2117.05057	21064.05
2120.03233	21102.05
2123.01216	21165.45
2125.99008	21161.15
2128.96609	21167.15
2131.94018	21216.15
2134.91236	21248.95
2137.88263	21258.75
2140.851	21243.85
2143.81746	21279.85
2146.78201	21257.35
2149.74466	21284.85
2152.7054	21264.45
2155.66425	21295.35
2158.6212	21290.15
2161.57625	21308.15
2164.52941	21276.55
2167.48067	21285.75
2170.43004	21258.75
2173.37752	21240.35
2176.32311	21271.55
2179.26681	21303.25
2182.20863	21307.45
2185.14856	21310.35
2188.08661	21297.35
2191.02278	21320.45
2193.95707	21320.35
2196.88948	21346.45
2199.82001	21304.15
2202.74867	21291.15
2205.67545	21276.65
2208.60037	21273.45
2211.52341	21245.65
2214.44458	21235.25
2217.36388	21141.65
2220.28132	21168.05
2223.1969	21147.45
2226.11061	21103.95
2229.02246	21084.95
2231.93245	21040.25
2234.84058	20988.55
2237.74686	20971.35
2240.65128	20972.45
2243.55385	20965.35
2246.45456	20917.05
2249.35343	20875.55
2252.25044	20867.65
2255.14561	20805.25
2258.03893	20807.75
2260.93041	20719.65
2263.82004	20688.15
2266.70783	20644.35
2269.59378	20578.45
2272.4779	20513.25
2275.36017	20501.45
2278.24061	20479.05
2281.11922	20448.55
2283.996	20478.05
2286.87094	20435.45
2289.74405	20409.85
2292.61534	20440.45
2295.4848	20407.15
2298.35243	20448.05
2301.21824	20391.45
2304.08223	20427.15
2306.94439	20455.55
2309.80474	20444.25
2312.66327	20503.75
2315.51999	20450.15
2318.37489	20415.65
2321.22797	20447.55
2324.07925	20437.85
2326.92871	20355.55
2329.77637	20322.05
2332.62222	20352.05
2335.46626	20348.65
2338.3085	20338.95
2341.14893	20319.25
2343.98756	20359.35
2346.8244	20359.95
2349.65943	20372.25
2352.49267	20346.75
2355.32411	20321.05
2358.15376	20327.65
2360.98161	20308.75
2363.80768	20321.95
2366.63195	20282.35
2369.45444	20249.15
2372.27514	20217.15
2375.09405	20181.05
2377.91118	20136.65
2380.72652	20133.55
2383.54009	20114.55
2386.35187	20075.15
2389.16188	20035.35
2391.97011	20017.35
2394.77657	19956.85
2397.58125	19961.05
2400.38416	19947.15
2403.18529	19873.25
2405.98466	19897.35
2408.78226	19839.95
2411.57809	19882.05
2414.37216	19818.05
2417.16446	19819.95
2419.955	19784.95
2422.74378	19758.95
2425.5308	19771.85
2428.31606	19771.55
2431.09956	19770.45
2433.88131	19770.25
2436.6613	19792.55
2439.43954	19752.45
2442.21603	19715.55
2444.99077	19724.95
2447.76377	19713.55
2450.53501	19719.45
2453.30451	19750.75
2456.07226	19716.55
2458.83827	19717.25
2461.60254	19742.75
2464.36507	19679.35
2467.12586	19703.25
2469.88492	19640.95
2472.64224	19721.15
2475.39782	19736.85
2478.15167	19728.65
2480.90379	19732.75
2483.65417	19816.05
2486.40283	19794.45
2489.14976	19796.25
2491.89497	19797.95
2494.63845	19833.25
2497.3802	19803.05
2500.12024	19845.15
2502.85855	19785.05
2505.59514	19775.05
2508.33002	19753.55
2511.06318	19726.25
2513.79462	19709.85
2516.52435	19714.15
2519.25237	19699.95
2521.97867	19691.25
2524.70327	19715.85
2527.42616	19709.05
2530.14734	19689.05
2532.86681	19656.15
2535.58458	19700.55
2538.30065	19643.85
2541.01501	19715.95
2543.72768	19683.15
2546.43864	19717.45
2549.14791	19674.45
2551.85548	19690.35
2554.56136	19654.85
2557.26554	19621.15
2559.96803	19623.95
2562.66883	19604.15
2565.36794	19565.65
2568.06536	19577.15
2570.7611	19572.15
2573.45514	19585.55
2576.14751	19583.85
2578.83819	19536.45
2581.52719	19549.55
2584.21451	19527.75
2586.90015	19547.05
2589.58411	19508.55
2592.2664	19506.35
2594.94701	19507.65
2597.62594	19521.35
2600.30321	19478.85
2602.9788	19466.55
2605.65273	19465.85
2608.32498	19495.85
2610.99557	19486.15
2613.66449	19470.25
2616.33175	19454.85
2618.99734	19497.05
2621.66128	19459.15
2624.32355	19464.85
2626.98416	19453.15
2629.64311	19432.75
2632.30041	19395.85
2634.95605	19368.55
2637.61004	19369.45
2640.26238	19357.65
2642.91306	19343.35
2645.56209	19328.85
2648.20948	19326.05
2650.85521	19347.35
2653.4993	19351.65
2656.14175	19343.55
2658.78255	19408.75
2661.42171	19389.05
2664.05923	19435.85
2666.6951	19459.75
2669.32934	19476.15
2671.96194	19492.95
2674.59291	19503.75
2677.22224	19515.25
2679.84993	19532.85
2682.476	19452.95
2685.10043	19478.05
2687.72324	19414.95
2690.34441	19464.65
2692.96396	19453.15
2695.58188	19427.25
2698.19818	19437.15
2700.81285	19476.25
2703.4259	19461.95
2706.03733	19499.85
2708.64714	19458.15
2711.25533	19484.55
2713.86191	19478.15
2716.46687	19504.95
2719.07021	19535.25
2721.67194	19600.05
2724.27206	19584.95
2726.87057	19594.95
2729.46747	19666.45
2732.06276	19633.25
2734.65644	19621.25
2737.24852	19643.95
2739.83899	19596.05
2742.42786	19651.95
2745.01513	19653.55
2747.60079	19601.15
2750.18486	19564.85
2752.76733	19579.55
2755.3482	19559.15
2757.92747	19536.75
2760.50515	19549.85
2763.08123	19526.65
2765.65573	19509.75
2768.22863	19552.65
2770.79994	19534.95
2773.36967	19533.25
2775.9378	19558.35
2778.50435	19533.25
2781.06932	19546.65
2783.6327	19536.45
2786.1945	19530.75
2788.75471	19566.45
2791.31335	19489.75
2793.87041	19510.15
2796.42589	19486.45
2798.97979	19461.35
2801.53212	19425.75
2804.08288	19436.95
2806.63206	19366.35
2809.17967	19337.15
2811.72571	19288.45
2814.27018	19276.15
2816.81308	19199.15
2819.35442	19190.85
2821.89419	19143.45
2824.43239	19135.05
2826.96904	19120.45
2829.50412	19140.65
2832.03763	19097.75
2834.56959	19076.35
2837.1	19062.05
2839.62884	19057.75
2842.15613	19076.15
2844.68186	19066.25
2847.20604	19071.55
2849.72867	19049.05
2852.24974	19029.95
2854.76927	19026.15
2857.28724	19002.25
2859.80367	18998.95
2862.31855	18978.35
2864.83189	18952.35
2867.34368	18906.65
2869.85393	18922.85
2872.36264	18928.55
2874.8698	18908.35
2877.37543	18908.45
2879.87952	18928.25
2882.38207	18893.65
2884.88308	18913.15
2887.38256	18948.45
2889.88051	18966.35
2892.37692	18965.75
2894.8718	18965.35
2897.36515	19017.05
2899.85698	19027.65
2902.34727	19036.35
2904.83604	19038.55
2907.32328	19052.65
2909.809	19089.05
2912.29319	19096.35
2914.77587	19094.95
2917.25702	19060.75
2919.73665	19047.15
2922.21476	19043.35
2924.69136	19058.95
2927.16644	19040.35
2929.64	18992.95
2932.11205	18963.05
2934.58258	18962.35
2937.05161	18946.95
2939.51912	18967.45
2941.98513	18924.25
2944.44962	18927.45
2946.91261	18888.25
2949.37409	18931.45
2951.83407	18898.65
2954.29254	18905.75
2956.74951	18916.35
2959.20498	18920.75
2961.65895	18880.85
2964.11142	18908.85
2966.56239	18870.85
2969.01186	18888.45
2971.45984	18812.85
2973.90632	18826.65
2976.35131	18771.75
2978.7948	18722.55
2981.23681	18698.05
2983.67732	18669.65
2986.11635	18623.95
2988.55388	18571.65
2990.98993	18529.45
2993.4245	18503.05
2995.85758	18464.25
2998.28917	18398.55
3000.71928	18382.15
3003.14791	18349.05
3005.57506	18351.45
3008.00073	18261.65
3010.42493	18129.45
3012.84764	18215.95
3015.26888	18189.25
3017.68865	18153.05
3020.10694	18100.45
3022.52376	18120.55
3024.9391	18067.25
3027.35298	18102.85
3029.76539	18097.55
3032.17632	18097.95
3034.5858	18067.95
3036.9938	18072.85
3039.40034	18093.45
3041.80542	18079.15
3044.20903	18033.75
3046.61118	18007.85
3049.01187	17974.85
3051.4111	17950.55
3053.80888	17870.15
3056.20519	17862.95
3058.60005	17832.45
3060.99345	17854.35
3063.3854	17799.95
3065.7759	17712.95
3068.16494	17689.95
3070.55254	17630.05
3072.93868	17588.05
3075.32338	17555.75
3077.70662	17487.05
3080.08842	17486.45
3082.46878	17461.35
3084.84769	17447.95
3087.22515	17489.75
3089.60118	17420.25
3091.97576	17449.05
3094.3489	17427.15
3096.72061	17445.85
3099.09087	17442.45
3101.4597	17418.45
3103.82709	17394.25
3106.19305	17341.85
3108.55757	17326.45
3110.92066	17300.15
3113.28232	17298.95
3115.64255	17230.55
3118.00134	17184.35
3120.35871	17178.35
3122.71466	17152.25
3125.06917	17137.55
3127.42226	17098.05
3129.77393	17059.25
3132.12417	17053.75
3134.47299	17074.85
3136.82039	17065.75
3139.16636	17055.05
3141.51092	17023.85
3143.85406	17050.65
3146.19579	16990.75
3148.53609	16975.65
3150.87499	16993.85
3153.21246	17029.85
3155.54853	17007.15
3157.88318	17020.15
3160.21642	17038.35
3162.54826	16996.85
3164.87868	17019.35
3167.2077	17048.55
3169.5353	17055.85
3171.86151	17058.15
3174.18631	17021.05
3176.5097	16994.35
3178.83169	16979.25
3181.15228	16972.15
3183.47147	16941.05
3185.78926	16945.85
3188.10565	16915.35
3190.42065	16908.45
3192.73424	16874.75
3195.04645	16851.25
3197.35725	16839.05
3199.66667	16833.95
3201.97469	16845.95
3204.28132	16824.55
3206.58656	16847.45
3208.8904	16828.65
3211.19287	16836.65
3213.49394	16812.45
3215.79363	16864.75
3218.09193	16854.25
3220.38884	16867.65
3222.68438	16875.45
3224.97853	16822.65
3227.2713	16817.65
3229.56269	16798.25
3231.8527	16827.45
3234.14133	16745.45
3236.42858	16734.85
3238.71446	16733.05
3240.99896	16698.85
3243.28209	16662.65
3245.56384	16675.85
3247.84423	16673.25
3250.12324	16640.75
3252.40088	16577.25
3254.67715	16572.85
3256.95205	16570.35
3259.22558	16585.85
3261.49775	16554.65
3263.76855	16525.85
3266.03799	16507.35
3268.30606	16470.95
3270.57277	16469.35
3272.83812	16423.95
3275.10211	16399.65
3277.36474	16374.55
3279.62601	16359.15
3281.88593	16300.15
3284.14448	16335.15
3286.40168	16357.05
3288.65753	16349.05
3290.91202	16341.15
3293.16516	16304.45
3295.41695	16279.35
3297.66738	16208.75
3299.91647	16106.85
3302.16421	15995.25
3304.4106	15921.05
3306.65564	15838.65
3308.89933	15703.95
3311.14169	15566.35
3313.38269	15460.95
3315.62236	15344.55
3317.86068	15231.75
3320.09766	15102.65
3322.3333	15014.35
3324.5676	14966.85
3326.80056	14702.15
3329.03219	14645.75
3331.26248	6.85
3333.49143	-0.25
3335.71905	-0.55
