Data from AgNP_FTO_APTES_UA_10uM_CRN_0uM_R6G_10uM_NaF_0.1M_Addition_RamanShift__5__11-14-40-360.txt Node

Date: Thu Feb 10 11:14:40 GMT 2022
User: TCL
Spectrometer: QEP01345
Trigger mode: 4
Integration Time (sec): 7.000000E0
Scans to average: 10
Electric dark correction enabled: true
Nonlinearity correction enabled: false
Boxcar width: 0
XAxis mode: Raman Shifts
Number of Pixels in Spectrum: 1044
>>>>>Begin Spectral Data<<<<<
46.04893	-1.25
50.45542	-0.55
54.85868	-1.35
59.25871	0.85
63.6555	75.05
68.04907	79.75
72.43941	80.05
76.82654	82.45
81.21044	87.15
85.59113	86.75
89.96862	91.35
94.34289	94.35
98.71396	94.25
103.08183	103.05
107.4465	107.95
111.80798	106.55
116.16626	114.25
120.52136	121.25
124.87327	127.75
129.222	130.35
133.56755	143.05
137.90993	155.45
142.24913	169.75
146.58517	196.35
150.91804	235.45
155.24774	286.95
159.57429	362.35
163.89768	471.35
168.21792	639.35
172.53501	882.85
176.84895	1229.95
181.15975	1728.25
185.46741	2438.75
189.77193	3388.45
194.07331	4528.05
198.37157	5864.95
202.6667	7263.45
206.9587	8660.85
211.24758	10011.65
215.53334	11418.55
219.81599	12900.95
224.09553	14534.05
228.37195	16335.85
232.64527	18316.95
236.91549	20480.35
241.18261	22597.65
245.44663	24585.65
249.70755	26342.65
253.96539	27857.65
258.22014	29068.55
262.4718	29970.15
266.72039	30538.45
270.96589	30730.85
275.20832	30551.15
279.44768	29958.55
283.68397	29330.45
287.91719	28771.05
292.14735	28417.75
296.37445	28188.85
300.59849	28099.15
304.81948	28101.65
309.03742	28027.25
313.25231	27636.95
317.46415	26953.85
321.67296	26138.55
325.87872	25439.75
330.08145	25115.45
334.28114	25091.15
338.47781	25273.85
342.67145	25509.75
346.86207	25895.85
351.04966	26397.35
355.23424	27039.25
359.4158	27552.55
363.59435	27941.25
367.76989	28137.45
371.94243	28272.35
376.11196	28324.15
380.27849	28332.45
384.44203	28323.65
388.60257	28412.15
392.76012	28470.55
396.91468	28782.95
401.06626	29109.15
405.21485	29243.65
409.36047	28959.15
413.50311	28294.55
417.64277	27772.25
421.77947	27636.65
425.9132	27669.95
430.04396	27803.85
434.17176	27831.95
438.2966	27955.55
442.41849	28308.25
446.53742	28696.05
450.6534	29123.65
454.76644	29397.25
458.87653	29532.55
462.98368	29587.55
467.08789	29507.75
471.18916	29314.15
475.2875	29025.75
479.38291	28965.05
483.4754	28886.35
487.56496	28846.85
491.6516	28638.55
495.73531	28348.05
499.81612	28187.75
503.89401	28241.35
507.96899	28489.65
512.04106	28761.85
516.11023	28927.25
520.1765	28936.45
524.23987	28757.05
528.30034	28435.95
532.35792	28216.35
536.41261	28001.75
540.46441	27761.05
544.51333	27716.45
548.55936	27906.95
552.60252	28334.85
556.64279	28833.85
560.6802	29146.75
564.71473	29503.25
568.7464	30002.75
572.7752	30559.55
576.80114	30828.15
580.82422	31060.15
584.84444	31193.65
588.86181	31547.65
592.87633	31918.15
596.888	31818.75
600.89682	31615.05
604.9028	32719.35
608.90594	36332.05
612.90624	40564.05
616.90371	39211.15
620.89834	32908.75
624.89015	29460.05
628.87913	28576.35
632.86528	28527.85
636.84862	28615.15
640.82913	28349.35
644.80683	27797.35
648.78172	27326.95
652.75379	27272.45
656.72306	27626.45
660.68952	28086.75
664.65319	27994.95
668.61405	27421.95
672.57211	27233.35
676.52738	27306.95
680.47986	27533.75
684.42955	27538.05
688.37646	27514.75
692.32058	27507.35
696.26192	27600.95
700.20048	27857.75
704.13626	27910.35
708.06928	28031.25
711.99952	27918.35
715.927	27862.75
719.85171	27767.25
723.77365	27694.85
727.69284	27484.35
731.60928	27276.15
735.52295	27173.25
739.43388	27106.35
743.34206	27222.55
747.24749	27265.65
751.15017	27405.15
755.05012	27743.25
758.94733	28394.75
762.8418	29658.95
766.73354	31899.65
770.62254	34228.35
774.50882	35290.15
778.39237	34244.35
782.27321	31900.85
786.15132	29815.25
790.02671	28415.25
793.89938	27715.55
797.76935	27329.25
801.6366	27179.65
805.50115	27149.95
809.36299	27091.25
813.22213	26984.75
817.07857	26947.25
820.93231	26880.15
824.78336	26801.85
828.63172	26676.15
832.47738	26555.85
836.32036	26527.35
840.16066	26455.95
843.99827	26419.35
847.8332	26472.95
851.66546	26464.15
855.49504	26604.35
859.32195	26636.35
863.1462	26619.15
866.96777	26658.35
870.78668	26729.05
874.60293	26825.35
878.41652	26918.55
882.22745	27002.65
886.03573	27150.75
889.84136	27246.45
893.64433	27359.35
897.44466	27519.15
901.24235	27632.35
905.0374	27652.95
908.8298	27737.45
912.61957	27975.25
916.40671	28279.25
920.19121	28607.15
923.97308	28955.75
927.75233	29138.95
931.52895	29033.05
935.30295	28653.05
939.07433	28119.55
942.84309	27551.35
946.60924	27102.05
950.37278	26751.75
954.13371	26517.45
957.89203	26276.55
961.64774	26102.45
965.40086	25909.25
969.15137	25753.45
972.89929	25560.55
976.64461	25391.15
980.38733	25320.65
984.12747	25273.75
987.86502	25270.15
991.59999	25365.05
995.33237	25499.35
999.06217	25761.05
1002.78939	26022.15
1006.51404	26360.15
1010.23611	26703.45
1013.95561	27013.75
1017.67255	27097.25
1021.38692	26911.85
1025.09872	26660.05
1028.80796	26431.95
1032.51465	26238.75
1036.21877	26245.95
1039.92035	26334.55
1043.61937	26453.55
1047.31584	26542.75
1051.00976	26618.55
1054.70114	26773.15
1058.38998	26931.35
1062.07627	27056.25
1065.76003	27251.05
1069.44126	27376.65
1073.11995	27596.85
1076.79611	27799.65
1080.46974	28053.15
1084.14085	28314.35
1087.80943	28694.15
1091.47549	28960.15
1095.13903	28885.05
1098.80005	28554.15
1102.45857	28000.85
1106.11456	27614.55
1109.76805	27409.35
1113.41903	27391.35
1117.06751	27601.15
1120.71348	27896.15
1124.35696	28274.75
1127.99793	28742.45
1131.63641	29022.35
1135.2724	28751.25
1138.90589	28310.15
1142.5369	28061.75
1146.16542	27997.95
1149.79145	28066.15
1153.415	28202.05
1157.03607	28503.65
1160.65467	29226.35
1164.27079	30211.25
1167.88443	31551.25
1171.49561	33241.65
1175.10432	35364.25
1178.71056	38201.75
1182.31434	40963.55
1185.91565	42426.35
1189.51451	42484.35
1193.11091	41462.95
1196.70485	39842.75
1200.29634	37933.45
1203.88538	36678.15
1207.47197	35870.65
1211.05612	35181.25
1214.63782	34461.45
1218.21708	33583.05
1221.79391	32692.75
1225.36829	32189.55
1228.94024	31873.95
1232.50976	31733.55
1236.07685	31660.55
1239.6415	31609.65
1243.20374	31530.75
1246.76355	31597.45
1250.32093	31722.25
1253.8759	32171.25
1257.42845	32936.85
1260.97859	33896.85
1264.52631	34926.55
1268.07163	35970.05
1271.61453	36838.45
1275.15503	37626.65
1278.69312	38378.75
1282.22882	39045.05
1285.76211	39877.45
1289.29301	41138.55
1292.82151	42746.05
1296.34761	44615.85
1299.87133	46861.95
1303.39266	49161.35
1306.9116	51641.95
1310.42815	53754.05
1313.94233	54796.45
1317.45412	54212.45
1320.96354	52791.35
1324.47058	51678.75
1327.97525	50791.75
1331.47754	50325.05
1334.97747	49999.65
1338.47502	49863.65
1341.97022	49790.25
1345.46305	50193.55
1348.95352	50736.35
1352.44163	51273.85
1355.92738	52381.95
1359.41078	54401.95
1362.89183	56970.15
1366.37053	56785.75
1369.84688	52233.55
1373.32088	46416.45
1376.79254	42357.45
1380.26186	40539.15
1383.72883	40194.45
1387.19347	40152.95
1390.65578	39923.45
1394.11575	39797.55
1397.57339	39928.55
1401.0287	40186.45
1404.48168	40208.05
1407.93234	39645.35
1411.38068	38550.35
1414.82669	37249.05
1418.27039	36013.95
1421.71177	34987.75
1425.15083	34146.05
1428.58758	33616.85
1432.02203	33694.25
1435.45416	34268.45
1438.88399	34997.75
1442.31151	35550.15
1445.73673	35877.05
1449.15965	36245.15
1452.58027	36422.45
1455.9986	36502.55
1459.41463	36558.05
1462.82837	36664.05
1466.23982	36820.15
1469.64898	36903.65
1473.05586	36863.45
1476.46045	36701.05
1479.86276	36521.35
1483.26279	36433.45
1486.66054	36561.45
1490.05602	36990.55
1493.44922	37770.05
1496.84016	39101.95
1500.22882	41108.25
1503.61521	43682.15
1506.99934	46546.05
1510.38121	49098.35
1513.76081	50043.15
1517.13816	48684.45
1520.51324	45870.25
1523.88607	43148.75
1527.25665	41397.55
1530.62498	40436.75
1533.99105	39885.05
1537.35488	39176.05
1540.71647	38289.85
1544.07581	37390.15
1547.4329	36659.85
1550.78776	36164.95
1554.14038	35968.35
1557.49077	35989.35
1560.83892	36198.65
1564.18484	36439.15
1567.52853	36789.65
1570.86999	37365.35
1574.20922	38144.25
1577.54624	38799.55
1580.88103	38865.65
1584.2136	38608.05
1587.54395	38790.35
1590.87208	39497.95
1594.19801	40408.05
1597.52172	41092.75
1600.84321	40705.35
1604.16251	38847.85
1607.47959	36526.15
1610.79447	34390.05
1614.10715	32346.35
1617.41763	30405.85
1620.7259	29026.75
1624.03199	28388.25
1627.33587	28463.15
1630.63757	29298.25
1633.93707	31004.85
1637.23439	33651.05
1640.52951	37318.95
1643.82246	41423.75
1647.11321	44664.65
1650.40179	45467.25
1653.68819	42858.25
1656.97241	37630.95
1660.25446	32218.65
1663.53433	28288.85
1666.81203	25801.35
1670.08756	24302.05
1673.36092	23349.05
1676.63211	22743.25
1679.90115	22284.25
1683.16801	21931.35
1686.43272	21707.65
1689.69527	21501.15
1692.95567	21337.35
1696.2139	21165.45
1699.46999	21096.55
1702.72392	21025.95
1705.97571	20983.95
1709.22535	20866.75
1712.47284	20846.25
1715.71819	20816.85
1718.96139	20773.55
1722.20246	20750.25
1725.44139	20612.35
1728.67818	20526.95
1731.91284	20387.35
1735.14537	20287.25
1738.37576	20259.15
1741.60403	20195.65
1744.83017	20151.35
1748.05418	20081.15
1751.27607	20044.75
1754.49584	20043.55
1757.71349	20061.95
1760.92903	20099.45
1764.14244	20103.55
1767.35375	20144.95
1770.56294	20113.25
1773.77002	20093.15
1776.97499	20051.95
1780.17785	20014.15
1783.37861	20009.25
1786.57727	19966.75
1789.77382	19897.15
1792.96828	19795.65
1796.16064	19755.15
1799.3509	19669.55
1802.53907	19620.15
1805.72514	19508.95
1808.90913	19425.55
1812.09102	19348.15
1815.27083	19257.25
1818.44856	19215.05
1821.6242	19198.35
1824.79776	19166.25
1827.96924	19074.95
1831.13864	19089.45
1834.30597	19113.55
1837.47122	19091.95
1840.6344	19101.65
1843.7955	19090.95
1846.95454	19079.55
1850.11151	18995.15
1853.26642	18950.35
1856.41926	18882.15
1859.57004	18848.45
1862.71876	18761.65
1865.86542	18724.75
1869.01003	18640.65
1872.15258	18594.95
1875.29308	18583.15
1878.43152	18498.15
1881.56792	18507.15
1884.70227	18398.45
1887.83457	18344.55
1890.96482	18289.95
1894.09304	18244.55
1897.21921	18205.85
1900.34335	18159.65
1903.46544	18119.55
1906.58551	18099.85
1909.70353	18055.75
1912.81953	18025.85
1915.93349	17969.95
1919.04543	17963.15
1922.15534	17918.55
1925.26322	17853.55
1928.36908	17825.85
1931.47292	17823.45
1934.57473	17772.75
1937.67453	17708.25
1940.77232	17646.65
1943.86808	17667.95
1946.96184	17616.55
1950.05358	17579.75
1953.14331	17528.35
1956.23103	17439.85
1959.31675	17399.15
1962.40046	17372.45
1965.48217	17337.75
1968.56188	17295.45
1971.63959	17264.35
1974.7153	17237.95
1977.78901	17197.25
1980.86073	17107.55
1983.93046	17049.75
1986.99819	16979.05
1990.06394	16901.45
1993.1277	16828.95
1996.18947	16715.65
1999.24925	16682.75
2002.30706	16615.45
2005.36288	16531.05
2008.41672	16490.15
2011.46859	16427.85
2014.51848	16341.05
2017.56639	16282.35
2020.61233	16212.45
2023.6563	16182.65
2026.6983	16121.15
2029.73833	16032.05
2032.7764	15985.35
2035.8125	15875.85
2038.84664	15850.95
2041.87881	15816.55
2044.90903	15777.15
2047.93729	15758.15
2050.96359	15720.55
2053.98794	15724.75
2057.01034	15744.55
2060.03078	15711.05
2063.04927	15653.75
2066.06582	15682.55
2069.08042	15692.35
2072.09307	15691.45
2075.10378	15696.25
2078.11255	15681.55
2081.11938	15740.85
2084.12426	15730.05
2087.12722	15756.65
2090.12824	15773.95
2093.12732	15747.35
2096.12447	15783.05
2099.11969	15766.15
2102.11299	15804.65
2105.10435	15805.45
2108.09379	15824.15
2111.08131	15833.95
2114.0669	15821.15
2117.05057	15824.45
2120.03233	15813.15
2123.01216	15877.55
2125.99008	15888.75
2128.96609	15909.55
2131.94018	15923.95
2134.91236	15888.45
2137.88263	15870.35
2140.851	15854.55
2143.81746	15819.05
2146.78201	15745.55
2149.74466	15699.65
2152.7054	15658.75
2155.66425	15606.65
2158.6212	15569.65
2161.57625	15521.95
2164.52941	15481.25
2167.48067	15452.65
2170.43004	15437.15
2173.37752	15377.05
2176.32311	15362.95
2179.26681	15315.65
2182.20863	15316.95
2185.14856	15320.65
2188.08661	15290.15
2191.02278	15308.65
2193.95707	15256.35
2196.88948	15238.15
2199.82001	15217.75
2202.74867	15223.95
2205.67545	15215.35
2208.60037	15149.55
2211.52341	15130.75
2214.44458	15082.65
2217.36388	15026.15
2220.28132	14991.45
2223.1969	14955.55
2226.11061	14951.55
2229.02246	14894.95
2231.93245	14804.45
2234.84058	14771.45
2237.74686	14729.35
2240.65128	14743.65
2243.55385	14686.95
2246.45456	14662.85
2249.35343	14643.45
2252.25044	14576.25
2255.14561	14600.75
2258.03893	14595.75
2260.93041	14532.95
2263.82004	14487.75
2266.70783	14467.75
2269.59378	14430.35
2272.4779	14382.65
2275.36017	14320.15
2278.24061	14309.65
2281.11922	14293.75
2283.996	14255.85
2286.87094	14224.25
2289.74405	14223.35
2292.61534	14184.65
2295.4848	14147.65
2298.35243	14124.25
2301.21824	14135.45
2304.08223	14071.75
2306.94439	14074.95
2309.80474	14072.65
2312.66327	14035.95
2315.51999	14047.65
2318.37489	13996.95
2321.22797	13965.95
2324.07925	13938.25
2326.92871	13889.65
2329.77637	13868.25
2332.62222	13815.65
2335.46626	13816.25
2338.3085	13825.35
2341.14893	13821.55
2343.98756	13808.25
2346.8244	13768.65
2349.65943	13768.35
2352.49267	13799.05
2355.32411	13776.85
2358.15376	13766.25
2360.98161	13766.35
2363.80768	13771.45
2366.63195	13768.05
2369.45444	13736.55
2372.27514	13743.05
2375.09405	13700.05
2377.91118	13678.75
2380.72652	13673.55
2383.54009	13604.95
2386.35187	13568.35
2389.16188	13533.25
2391.97011	13502.65
2394.77657	13487.55
2397.58125	13428.25
2400.38416	13405.85
2403.18529	13359.75
2405.98466	13324.75
2408.78226	13273.45
2411.57809	13274.15
2414.37216	13292.05
2417.16446	13266.05
2419.955	13175.35
2422.74378	13190.25
2425.5308	13174.65
2428.31606	13202.35
2431.09956	13180.95
2433.88131	13204.65
2436.6613	13227.55
2439.43954	13208.25
2442.21603	13168.45
2444.99077	13115.85
2447.76377	13141.95
2450.53501	13127.05
2453.30451	13104.15
2456.07226	13094.65
2458.83827	13067.85
2461.60254	13058.85
2464.36507	13007.95
2467.12586	13035.55
2469.88492	13013.85
2472.64224	12983.65
2475.39782	12995.25
2478.15167	13011.05
2480.90379	13025.75
2483.65417	13023.25
2486.40283	12981.05
2489.14976	12989.95
2491.89497	12968.05
2494.63845	12976.05
2497.3802	12977.45
2500.12024	13001.75
2502.85855	13005.95
2505.59514	12939.05
2508.33002	12885.15
2511.06318	12830.65
2513.79462	12820.05
2516.52435	12778.45
2519.25237	12781.45
2521.97867	12760.75
2524.70327	12749.45
2527.42616	12708.65
2530.14734	12683.55
2532.86681	12657.65
2535.58458	12663.95
2538.30065	12654.65
2541.01501	12615.85
2543.72768	12607.15
2546.43864	12648.35
2549.14791	12645.65
2551.85548	12636.85
2554.56136	12594.95
2557.26554	12568.85
2559.96803	12534.15
2562.66883	12481.65
2565.36794	12458.65
2568.06536	12418.95
2570.7611	12404.65
2573.45514	12419.65
2576.14751	12375.55
2578.83819	12371.15
2581.52719	12340.45
2584.21451	12282.65
2586.90015	12282.55
2589.58411	12269.45
2592.2664	12265.65
2594.94701	12222.25
2597.62594	12259.05
2600.30321	12212.55
2602.9788	12218.25
2605.65273	12200.85
2608.32498	12199.75
2610.99557	12166.35
2613.66449	12197.05
2616.33175	12150.55
2618.99734	12140.45
2621.66128	12119.45
2624.32355	12099.65
2626.98416	12069.05
2629.64311	12051.95
2632.30041	12050.45
2634.95605	12009.65
2637.61004	11997.15
2640.26238	11971.45
2642.91306	11965.55
2645.56209	11935.85
2648.20948	11944.25
2650.85521	11968.85
2653.4993	11958.65
2656.14175	11946.25
2658.78255	11934.35
2661.42171	11929.45
2664.05923	11966.85
2666.6951	11967.95
2669.32934	11994.25
2671.96194	11959.75
2674.59291	11982.45
2677.22224	11981.15
2679.84993	11987.05
2682.476	11980.55
2685.10043	11974.45
2687.72324	11961.55
2690.34441	11987.55
2692.96396	11948.85
2695.58188	11926.55
2698.19818	11924.25
2700.81285	11936.65
2703.4259	11921.55
2706.03733	11887.75
2708.64714	11881.15
2711.25533	11909.45
2713.86191	11928.15
2716.46687	11974.85
2719.07021	11983.15
2721.67194	12016.35
2724.27206	11996.75
2726.87057	12001.75
2729.46747	11987.35
2732.06276	11985.25
2734.65644	11976.15
2737.24852	11989.85
2739.83899	11954.95
2742.42786	11962.55
2745.01513	11955.75
2747.60079	11949.85
2750.18486	11937.25
2752.76733	11924.35
2755.3482	11908.25
2757.92747	11893.05
2760.50515	11861.05
2763.08123	11855.25
2765.65573	11811.35
2768.22863	11818.15
2770.79994	11830.15
2773.36967	11822.15
2775.9378	11787.55
2778.50435	11765.95
2781.06932	11746.75
2783.6327	11754.95
2786.1945	11711.95
2788.75471	11713.45
2791.31335	11736.25
2793.87041	11666.05
2796.42589	11692.35
2798.97979	11655.85
2801.53212	11633.05
2804.08288	11615.55
2806.63206	11560.45
2809.17967	11558.35
2811.72571	11563.85
2814.27018	11525.55
2816.81308	11479.85
2819.35442	11490.45
2821.89419	11448.15
2824.43239	11454.65
2826.96904	11442.25
2829.50412	11415.45
2832.03763	11395.95
2834.56959	11446.15
2837.1	11442.05
2839.62884	11500.15
2842.15613	11554.15
2844.68186	11667.75
2847.20604	11747.15
2849.72867	11866.65
2852.24974	11900.05
2854.76927	11927.95
2857.28724	11926.95
2859.80367	11958.75
2862.31855	11955.45
2864.83189	11960.85
2867.34368	11909.55
2869.85393	11918.25
2872.36264	11901.75
2874.8698	11934.05
2877.37543	11939.85
2879.87952	11913.35
2882.38207	11953.75
2884.88308	11959.25
2887.38256	11973.35
2889.88051	11986.35
2892.37692	12036.65
2894.8718	12082.65
2897.36515	12139.15
2899.85698	12132.95
2902.34727	12176.75
2904.83604	12205.15
2907.32328	12244.35
2909.809	12244.45
2912.29319	12305.35
2914.77587	12333.65
2917.25702	12328.65
2919.73665	12328.55
2922.21476	12350.15
2924.69136	12315.75
2927.16644	12319.25
2929.64	12268.75
2932.11205	12207.75
2934.58258	12155.05
2937.05161	12108.25
2939.51912	12029.55
2941.98513	11979.45
2944.44962	11902.55
2946.91261	11764.05
2949.37409	11685.55
2951.83407	11663.65
2954.29254	11623.85
2956.74951	11521.75
2959.20498	11492.05
2961.65895	11429.75
2964.11142	11435.25
2966.56239	11395.15
2969.01186	11363.15
2971.45984	11264.95
2973.90632	11238.15
2976.35131	11193.65
2978.7948	11167.25
2981.23681	11126.05
2983.67732	11096.55
2986.11635	11020.15
2988.55388	10984.55
2990.98993	10947.45
2993.4245	10929.55
2995.85758	10913.85
2998.28917	10841.75
3000.71928	10806.55
3003.14791	10765.85
3005.57506	10792.05
3008.00073	10753.85
3010.42493	10734.45
3012.84764	10697.95
3015.26888	10681.95
3017.68865	10671.45
3020.10694	10683.55
3022.52376	10600.55
3024.9391	10603.55
3027.35298	10603.95
3029.76539	10590.25
3032.17632	10553.75
3034.5858	10549.75
3036.9938	10559.15
3039.40034	10545.75
3041.80542	10572.25
3044.20903	10511.45
3046.61118	10524.85
3049.01187	10486.05
3051.4111	10475.55
3053.80888	10445.15
3056.20519	10451.15
3058.60005	10430.65
3060.99345	10420.05
3063.3854	10378.75
3065.7759	10349.95
3068.16494	10384.05
3070.55254	10360.75
3072.93868	10350.25
3075.32338	10345.45
3077.70662	10297.55
3080.08842	10295.45
3082.46878	10270.75
3084.84769	10259.15
3087.22515	10282.25
3089.60118	10272.45
3091.97576	10253.45
3094.3489	10283.25
3096.72061	10296.45
3099.09087	10306.95
3101.4597	10313.95
3103.82709	10320.15
3106.19305	10318.85
3108.55757	10343.15
3110.92066	10329.15
3113.28232	10348.05
3115.64255	10337.35
3118.00134	10335.45
3120.35871	10325.05
3122.71466	10299.25
3125.06917	10279.75
3127.42226	10267.95
3129.77393	10303.65
3132.12417	10302.15
3134.47299	10295.25
3136.82039	10286.85
3139.16636	10344.75
3141.51092	10357.95
3143.85406	10359.95
3146.19579	10357.55
3148.53609	10377.85
3150.87499	10401.85
3153.21246	10443.15
3155.54853	10490.35
3157.88318	10484.15
3160.21642	10530.65
3162.54826	10542.95
3164.87868	10556.75
3167.2077	10563.95
3169.5353	10597.75
3171.86151	10642.35
3174.18631	10655.35
3176.5097	10662.35
3178.83169	10660.25
3181.15228	10684.75
3183.47147	10681.45
3185.78926	10673.35
3188.10565	10660.45
3190.42065	10666.25
3192.73424	10645.85
3195.04645	10640.75
3197.35725	10633.75
3199.66667	10647.45
3201.97469	10641.45
3204.28132	10670.25
3206.58656	10720.85
3208.8904	10746.55
3211.19287	10737.55
3213.49394	10754.05
3215.79363	10720.25
3218.09193	10773.35
3220.38884	10779.75
3222.68438	10780.05
3224.97853	10753.55
3227.2713	10779.25
3229.56269	10783.55
3231.8527	10778.85
3234.14133	10788.35
3236.42858	10754.95
3238.71446	10729.15
3240.99896	10712.95
3243.28209	10736.05
3245.56384	10681.55
3247.84423	10695.15
3250.12324	10693.75
3252.40088	10681.75
3254.67715	10681.25
3256.95205	10667.35
3259.22558	10648.25
3261.49775	10641.25
3263.76855	10670.75
3266.03799	10637.35
3268.30606	10677.55
3270.57277	10639.85
3272.83812	10611.95
3275.10211	10591.65
3277.36474	10566.45
3279.62601	10529.25
3281.88593	10514.35
3284.14448	10526.55
3286.40168	10504.25
3288.65753	10528.45
3290.91202	10515.55
3293.16516	10471.75
3295.41695	10457.75
3297.66738	10409.35
3299.91647	10359.55
3302.16421	10263.75
3304.4106	10176.45
3306.65564	10091.65
3308.89933	10027.25
3311.14169	9974.85
3313.38269	9872.05
3315.62236	9818.75
3317.86068	9744.35
3320.09766	9637.55
3322.3333	9599.95
3324.5676	9541.35
3326.80056	9394.75
3329.03219	9333.35
3331.26248	4.25
3333.49143	-1.25
3335.71905	-0.85
