Data from AgNP_FTO_APTES_UA_10uM_CRN_20uM_R6G_10uM_NaF_0.1M_Addition_RamanShift__31__16-39-00-774.txt Node

Date: Thu Feb 10 16:39:00 GMT 2022
User: TCL
Spectrometer: QEP01345
Trigger mode: 4
Integration Time (sec): 7.000000E0
Scans to average: 10
Electric dark correction enabled: true
Nonlinearity correction enabled: false
Boxcar width: 0
XAxis mode: Raman Shifts
Number of Pixels in Spectrum: 1044
>>>>>Begin Spectral Data<<<<<
46.04893	0.65
50.45542	-0.15
54.85868	-1.35
59.25871	-0.35
63.6555	42.85
68.04907	45.95
72.43941	48.95
76.82654	48.85
81.21044	52.15
85.59113	53.75
89.96862	59.25
94.34289	60.05
98.71396	56.85
103.08183	62.65
107.4465	66.35
111.80798	63.05
116.16626	66.55
120.52136	69.05
124.87327	71.65
129.222	69.55
133.56755	78.45
137.90993	76.75
142.24913	81.55
146.58517	90.45
150.91804	105.95
155.24774	123.15
159.57429	148.95
163.89768	182.65
168.21792	245.95
172.53501	329.35
176.84895	456.95
181.15975	623.15
185.46741	874.55
189.77193	1197.95
194.07331	1590.95
198.37157	2057.15
202.6667	2529.35
206.9587	3004.15
211.24758	3478.55
215.53334	3983.35
219.81599	4534.05
224.09553	5171.45
228.37195	5883.65
232.64527	6653.85
236.91549	7449.75
241.18261	8121.25
245.44663	8685.55
249.70755	9140.45
253.96539	9520.05
258.22014	9860.35
262.4718	10191.45
266.72039	10460.65
270.96589	10676.05
275.20832	10739.35
279.44768	10702.75
283.68397	10591.15
287.91719	10546.55
292.14735	10612.15
296.37445	10858.25
300.59849	11259.25
304.81948	11676.15
309.03742	11938.05
313.25231	11830.85
317.46415	11183.65
321.67296	10249.15
325.87872	9502.55
330.08145	9178.65
334.28114	9114.95
338.47781	9242.75
342.67145	9542.95
346.86207	9990.45
351.04966	10612.45
355.23424	11304.75
359.4158	11820.55
363.59435	12050.55
367.76989	12125.45
371.94243	12073.45
376.11196	11979.65
380.27849	11937.25
384.44203	11792.05
388.60257	11589.95
392.76012	11499.65
396.91468	11610.15
401.06626	11937.55
405.21485	12215.35
409.36047	11921.05
413.50311	11271.65
417.64277	10591.05
421.77947	10239.35
425.9132	10093.45
430.04396	10099.05
434.17176	10140.45
438.2966	10273.15
442.41849	10453.35
446.53742	10759.65
450.6534	11058.55
454.76644	11253.85
458.87653	11303.45
462.98368	11195.95
467.08789	11023.15
471.18916	10778.85
475.2875	10540.15
479.38291	10297.95
483.4754	10097.45
487.56496	9985.25
491.6516	9861.95
495.73531	9844.05
499.81612	9880.55
503.89401	10001.45
507.96899	10144.95
512.04106	10281.65
516.11023	10493.55
520.1765	10567.95
524.23987	10517.15
528.30034	10287.15
532.35792	10025.65
536.41261	9800.05
540.46441	9558.75
544.51333	9489.45
548.55936	9612.75
552.60252	9872.75
556.64279	10201.55
560.6802	10323.05
564.71473	10495.65
568.7464	10891.95
572.7752	11192.95
576.80114	10901.65
580.82422	10467.35
584.84444	10291.05
588.86181	10178.05
592.87633	10149.35
596.888	10236.55
600.89682	10646.85
604.9028	12068.15
608.90594	15784.45
612.90624	20778.25
616.90371	19763.85
620.89834	13364.25
624.89015	10449.85
628.87913	9921.55
632.86528	10000.25
636.84862	10184.25
640.82913	10080.15
644.80683	9566.05
648.78172	9238.55
652.75379	9302.25
656.72306	9756.15
660.68952	10305.25
664.65319	10185.95
668.61405	9611.05
672.57211	9331.15
676.52738	9328.35
680.47986	9311.35
684.42955	9242.65
688.37646	9216.25
692.32058	9233.35
696.26192	9344.05
700.20048	9514.75
704.13626	9611.35
708.06928	9615.55
711.99952	9514.45
715.927	9478.55
719.85171	9494.25
723.77365	9494.85
727.69284	9369.95
731.60928	9272.35
735.52295	9226.45
739.43388	9256.25
743.34206	9313.85
747.24749	9354.75
751.15017	9436.65
755.05012	9706.95
758.94733	10237.25
762.8418	11453.55
766.73354	13594.55
770.62254	15857.45
774.50882	16939.55
778.39237	16036.25
782.27321	13649.15
786.15132	11447.35
790.02671	10174.95
793.89938	9635.95
797.76935	9390.15
801.6366	9287.55
805.50115	9224.05
809.36299	9144.25
813.22213	9114.55
817.07857	9097.15
820.93231	9105.35
824.78336	9127.95
828.63172	9173.35
832.47738	9204.25
836.32036	9158.65
840.16066	9094.05
843.99827	9053.55
847.8332	9037.85
851.66546	8999.75
855.49504	9026.05
859.32195	8984.85
863.1462	8940.35
866.96777	8906.45
870.78668	8882.55
874.60293	8913.35
878.41652	8921.05
882.22745	8989.35
886.03573	9041.05
889.84136	9019.65
893.64433	8944.05
897.44466	8926.95
901.24235	8923.15
905.0374	8935.95
908.8298	8898.45
912.61957	8901.55
916.40671	8990.65
920.19121	9049.05
923.97308	9151.35
927.75233	9191.95
931.52895	9253.15
935.30295	9142.65
939.07433	8869.35
942.84309	8625.55
946.60924	8470.85
950.37278	8394.85
954.13371	8366.55
957.89203	8358.95
961.64774	8303.65
965.40086	8301.15
969.15137	8264.95
972.89929	8237.75
976.64461	8225.75
980.38733	8202.85
984.12747	8232.95
987.86502	8260.05
991.59999	8314.85
995.33237	8422.85
999.06217	8590.75
1002.78939	8798.15
1006.51404	9023.05
1010.23611	9226.25
1013.95561	9404.15
1017.67255	9363.75
1021.38692	9230.65
1025.09872	9094.85
1028.80796	9012.45
1032.51465	9073.55
1036.21877	9198.85
1039.92035	9295.95
1043.61937	9310.35
1047.31584	9263.15
1051.00976	9224.45
1054.70114	9216.25
1058.38998	9242.75
1062.07627	9328.35
1065.76003	9366.55
1069.44126	9398.85
1073.11995	9502.15
1076.79611	9584.45
1080.46974	9771.85
1084.14085	10033.05
1087.80943	10325.25
1091.47549	10461.25
1095.13903	10314.75
1098.80005	9930.75
1102.45857	9565.05
1106.11456	9412.95
1109.76805	9466.55
1113.41903	9657.25
1117.06751	9980.75
1120.71348	10425.75
1124.35696	10875.25
1127.99793	11284.15
1131.63641	11234.15
1135.2724	10731.35
1138.90589	10167.55
1142.5369	9848.15
1146.16542	9647.35
1149.79145	9552.05
1153.415	9558.55
1157.03607	9651.45
1160.65467	9910.75
1164.27079	10287.65
1167.88443	10874.75
1171.49561	11841.25
1175.10432	13417.45
1178.71056	15516.85
1182.31434	16982.45
1185.91565	17252.35
1189.51451	16730.65
1193.11091	15539.15
1196.70485	14222.45
1200.29634	13246.25
1203.88538	12590.05
1207.47197	11780.45
1211.05612	11116.25
1214.63782	10699.65
1218.21708	10575.45
1221.79391	10544.35
1225.36829	10603.15
1228.94024	10672.95
1232.50976	10717.15
1236.07685	10761.95
1239.6415	10798.05
1243.20374	10860.65
1246.76355	10905.45
1250.32093	11115.05
1253.8759	11383.85
1257.42845	11787.15
1260.97859	12159.95
1264.52631	12569.75
1268.07163	12907.65
1271.61453	13244.35
1275.15503	13514.95
1278.69312	13574.55
1282.22882	13599.35
1285.76211	13830.95
1289.29301	14237.35
1292.82151	14642.05
1296.34761	15119.95
1299.87133	15889.45
1303.39266	17198.65
1306.9116	19245.05
1310.42815	21592.85
1313.94233	23097.55
1317.45412	22806.65
1320.96354	21317.45
1324.47058	19524.65
1327.97525	18026.15
1331.47754	17097.95
1334.97747	16767.25
1338.47502	16888.95
1341.97022	17289.55
1345.46305	17916.15
1348.95352	18833.15
1352.44163	20100.85
1355.92738	22136.35
1359.41078	25436.05
1362.89183	28822.05
1366.37053	28064.55
1369.84688	23620.15
1373.32088	19243.85
1376.79254	16450.25
1380.26186	15108.75
1383.72883	14430.25
1387.19347	13922.45
1390.65578	13398.85
1394.11575	12964.15
1397.57339	12684.55
1401.0287	12669.45
1404.48168	12826.65
1407.93234	13039.05
1411.38068	13221.05
1414.82669	13228.35
1418.27039	13005.85
1421.71177	12669.75
1425.15083	12374.25
1428.58758	12122.65
1432.02203	12117.95
1435.45416	12209.65
1438.88399	12299.25
1442.31151	12307.15
1445.73673	12384.15
1449.15965	12490.55
1452.58027	12465.35
1455.9986	12393.35
1459.41463	12359.35
1462.82837	12482.15
1466.23982	12756.25
1469.64898	13116.05
1473.05586	13384.35
1476.46045	13545.65
1479.86276	13840.75
1483.26279	14215.25
1486.66054	14600.85
1490.05602	15113.05
1493.44922	15840.05
1496.84016	16903.65
1500.22882	18588.75
1503.61521	20862.05
1506.99934	23547.55
1510.38121	26181.45
1513.76081	27586.45
1517.13816	26450.05
1520.51324	23318.65
1523.88607	20029.45
1527.25665	17663.05
1530.62498	16246.75
1533.99105	15389.05
1537.35488	14853.15
1540.71647	14465.95
1544.07581	14258.95
1547.4329	14131.75
1550.78776	14026.15
1554.14038	13997.35
1557.49077	14150.95
1560.83892	14498.95
1564.18484	14982.55
1567.52853	15439.45
1570.86999	15776.95
1574.20922	15950.45
1577.54624	15806.05
1580.88103	14998.55
1584.2136	13948.35
1587.54395	13416.05
1590.87208	13553.95
1594.19801	14275.95
1597.52172	15297.05
1600.84321	15718.95
1604.16251	15125.05
1607.47959	14105.85
1610.79447	13033.75
1614.10715	12031.55
1617.41763	11196.85
1620.7259	10687.65
1624.03199	10443.95
1627.33587	10436.25
1630.63757	10683.95
1633.93707	11168.05
1637.23439	12001.65
1640.52951	13138.05
1643.82246	14737.25
1647.11321	16748.55
1650.40179	18399.15
1653.68819	18192.55
1656.97241	15848.85
1660.25446	13127.15
1663.53433	11142.15
1666.81203	9916.45
1670.08756	9187.15
1673.36092	8779.65
1676.63211	8530.25
1679.90115	8321.95
1683.16801	8191.05
1686.43272	8095.45
1689.69527	8033.75
1692.95567	7960.55
1696.2139	7956.65
1699.46999	7951.65
1702.72392	7914.25
1705.97571	7886.95
1709.22535	7869.15
1712.47284	7821.15
1715.71819	7834.85
1718.96139	7862.35
1722.20246	7830.85
1725.44139	7783.75
1728.67818	7717.25
1731.91284	7661.75
1735.14537	7596.35
1738.37576	7575.25
1741.60403	7528.05
1744.83017	7496.45
1748.05418	7467.85
1751.27607	7472.05
1754.49584	7432.45
1757.71349	7428.55
1760.92903	7436.25
1764.14244	7434.85
1767.35375	7409.15
1770.56294	7388.55
1773.77002	7347.35
1776.97499	7318.35
1780.17785	7295.05
1783.37861	7278.45
1786.57727	7248.25
1789.77382	7248.75
1792.96828	7244.75
1796.16064	7230.15
1799.3509	7211.75
1802.53907	7183.15
1805.72514	7170.15
1808.90913	7140.25
1812.09102	7125.15
1815.27083	7103.95
1818.44856	7080.85
1821.6242	7078.75
1824.79776	7051.35
1827.96924	7060.85
1831.13864	7028.05
1834.30597	7029.75
1837.47122	7022.85
1840.6344	7037.45
1843.7955	7010.45
1846.95454	7010.55
1850.11151	7015.85
1853.26642	7013.65
1856.41926	7009.45
1859.57004	7006.95
1862.71876	7009.25
1865.86542	7008.65
1869.01003	7004.65
1872.15258	6999.55
1875.29308	7012.05
1878.43152	6998.75
1881.56792	7002.45
1884.70227	7014.45
1887.83457	7014.15
1890.96482	7014.65
1894.09304	7009.65
1897.21921	7003.45
1900.34335	6990.85
1903.46544	6984.45
1906.58551	7002.45
1909.70353	7016.55
1912.81953	6996.25
1915.93349	7010.65
1919.04543	7000.55
1922.15534	6981.85
1925.26322	6944.35
1928.36908	6962.65
1931.47292	6928.25
1934.57473	6884.35
1937.67453	6843.15
1940.77232	6836.15
1943.86808	6801.75
1946.96184	6771.15
1950.05358	6721.25
1953.14331	6687.35
1956.23103	6663.15
1959.31675	6663.95
1962.40046	6650.75
1965.48217	6601.45
1968.56188	6614.55
1971.63959	6565.45
1974.7153	6573.65
1977.78901	6541.85
1980.86073	6505.45
1983.93046	6486.75
1986.99819	6474.25
1990.06394	6450.35
1993.1277	6416.35
1996.18947	6378.15
1999.24925	6378.45
2002.30706	6350.15
2005.36288	6332.75
2008.41672	6317.75
2011.46859	6311.55
2014.51848	6284.55
2017.56639	6269.75
2020.61233	6246.45
2023.6563	6228.95
2026.6983	6222.25
2029.73833	6189.05
2032.7764	6167.85
2035.8125	6156.55
2038.84664	6142.85
2041.87881	6128.45
2044.90903	6119.35
2047.93729	6101.95
2050.96359	6100.85
2053.98794	6088.25
2057.01034	6074.35
2060.03078	6064.85
2063.04927	6047.85
2066.06582	6085.75
2069.08042	6045.45
2072.09307	6037.55
2075.10378	6027.35
2078.11255	6030.95
2081.11938	6034.05
2084.12426	6021.55
2087.12722	6015.25
2090.12824	6006.65
2093.12732	6018.65
2096.12447	6005.25
2099.11969	5996.95
2102.11299	5994.55
2105.10435	6012.95
2108.09379	6006.65
2111.08131	6004.75
2114.0669	6004.45
2117.05057	5996.55
2120.03233	6014.95
2123.01216	6004.85
2125.99008	6028.95
2128.96609	6021.05
2131.94018	6041.45
2134.91236	6040.65
2137.88263	6024.65
2140.851	6032.35
2143.81746	6033.45
2146.78201	6028.15
2149.74466	6029.15
2152.7054	6019.75
2155.66425	6022.25
2158.6212	6020.05
2161.57625	6021.95
2164.52941	6006.35
2167.48067	6000.15
2170.43004	6003.85
2173.37752	5961.35
2176.32311	5966.45
2179.26681	5994.55
2182.20863	5988.75
2185.14856	5991.25
2188.08661	5970.15
2191.02278	5967.45
2193.95707	5966.35
2196.88948	5973.75
2199.82001	5967.65
2202.74867	5947.95
2205.67545	5955.65
2208.60037	5937.65
2211.52341	5940.05
2214.44458	5927.95
2217.36388	5909.75
2220.28132	5899.65
2223.1969	5881.05
2226.11061	5880.95
2229.02246	5857.05
2231.93245	5834.05
2234.84058	5821.45
2237.74686	5809.55
2240.65128	5804.05
2243.55385	5786.75
2246.45456	5795.45
2249.35343	5800.65
2252.25044	5778.75
2255.14561	5803.45
2258.03893	5787.95
2260.93041	5780.85
2263.82004	5761.65
2266.70783	5758.35
2269.59378	5734.75
2272.4779	5723.45
2275.36017	5693.55
2278.24061	5711.05
2281.11922	5685.15
2283.996	5679.85
2286.87094	5649.95
2289.74405	5648.35
2292.61534	5623.55
2295.4848	5605.25
2298.35243	5632.55
2301.21824	5600.05
2304.08223	5600.85
2306.94439	5604.85
2309.80474	5603.15
2312.66327	5615.95
2315.51999	5584.95
2318.37489	5595.65
2321.22797	5581.45
2324.07925	5582.85
2326.92871	5564.95
2329.77637	5572.85
2332.62222	5540.15
2335.46626	5549.75
2338.3085	5558.45
2341.14893	5539.95
2343.98756	5559.15
2346.8244	5554.75
2349.65943	5559.75
2352.49267	5577.45
2355.32411	5562.95
2358.15376	5580.15
2360.98161	5590.35
2363.80768	5603.15
2366.63195	5592.55
2369.45444	5592.75
2372.27514	5593.15
2375.09405	5575.35
2377.91118	5556.25
2380.72652	5526.35
2383.54009	5485.45
2386.35187	5486.65
2389.16188	5438.45
2391.97011	5429.25
2394.77657	5405.05
2397.58125	5398.95
2400.38416	5391.95
2403.18529	5389.05
2405.98466	5355.45
2408.78226	5349.35
2411.57809	5334.35
2414.37216	5317.75
2417.16446	5326.45
2419.955	5328.55
2422.74378	5317.75
2425.5308	5315.85
2428.31606	5332.55
2431.09956	5301.15
2433.88131	5293.75
2436.6613	5302.25
2439.43954	5316.35
2442.21603	5296.15
2444.99077	5307.45
2447.76377	5290.95
2450.53501	5294.65
2453.30451	5298.75
2456.07226	5306.05
2458.83827	5298.05
2461.60254	5291.05
2464.36507	5280.15
2467.12586	5273.85
2469.88492	5264.65
2472.64224	5279.95
2475.39782	5270.15
2478.15167	5281.55
2480.90379	5301.15
2483.65417	5307.95
2486.40283	5305.95
2489.14976	5320.75
2491.89497	5330.45
2494.63845	5341.25
2497.3802	5315.75
2500.12024	5333.65
2502.85855	5317.75
2505.59514	5306.55
2508.33002	5274.85
2511.06318	5259.15
2513.79462	5233.85
2516.52435	5205.05
2519.25237	5210.35
2521.97867	5177.05
2524.70327	5181.05
2527.42616	5160.05
2530.14734	5160.35
2532.86681	5143.85
2535.58458	5151.45
2538.30065	5154.95
2541.01501	5136.65
2543.72768	5137.25
2546.43864	5148.25
2549.14791	5140.75
2551.85548	5132.95
2554.56136	5140.25
2557.26554	5123.85
2559.96803	5107.25
2562.66883	5100.15
2565.36794	5080.55
2568.06536	5083.55
2570.7611	5066.95
2573.45514	5052.95
2576.14751	5055.95
2578.83819	5038.55
2581.52719	5027.95
2584.21451	5031.75
2586.90015	5019.85
2589.58411	5015.35
2592.2664	5011.15
2594.94701	5008.85
2597.62594	5004.25
2600.30321	5007.65
2602.9788	4989.35
2605.65273	4979.55
2608.32498	5005.65
2610.99557	4976.65
2613.66449	4994.25
2616.33175	5001.05
2618.99734	4993.95
2621.66128	4972.25
2624.32355	4977.45
2626.98416	4976.65
2629.64311	4950.65
2632.30041	4957.65
2634.95605	4940.35
2637.61004	4933.45
2640.26238	4936.85
2642.91306	4920.45
2645.56209	4913.75
2648.20948	4910.35
2650.85521	4892.35
2653.4993	4883.85
2656.14175	4894.75
2658.78255	4895.75
2661.42171	4908.45
2664.05923	4909.15
2666.6951	4933.75
2669.32934	4942.25
2671.96194	4941.85
2674.59291	4940.85
2677.22224	4944.05
2679.84993	4958.75
2682.476	4955.45
2685.10043	4929.95
2687.72324	4924.25
2690.34441	4926.25
2692.96396	4929.05
2695.58188	4920.05
2698.19818	4921.55
2700.81285	4924.25
2703.4259	4926.55
2706.03733	4926.15
2708.64714	4902.25
2711.25533	4910.55
2713.86191	4926.65
2716.46687	4927.35
2719.07021	4932.15
2721.67194	4946.55
2724.27206	4932.85
2726.87057	4935.65
2729.46747	4945.15
2732.06276	4937.05
2734.65644	4924.55
2737.24852	4920.85
2739.83899	4899.05
2742.42786	4925.45
2745.01513	4896.15
2747.60079	4887.55
2750.18486	4883.25
2752.76733	4879.75
2755.3482	4874.75
2757.92747	4865.15
2760.50515	4854.35
2763.08123	4870.75
2765.65573	4837.15
2768.22863	4827.45
2770.79994	4826.55
2773.36967	4824.25
2775.9378	4831.15
2778.50435	4834.65
2781.06932	4833.75
2783.6327	4828.25
2786.1945	4832.85
2788.75471	4814.15
2791.31335	4810.45
2793.87041	4813.05
2796.42589	4786.15
2798.97979	4813.35
2801.53212	4795.25
2804.08288	4791.25
2806.63206	4789.45
2809.17967	4790.35
2811.72571	4783.65
2814.27018	4772.35
2816.81308	4779.85
2819.35442	4770.95
2821.89419	4782.65
2824.43239	4769.55
2826.96904	4772.85
2829.50412	4780.95
2832.03763	4767.45
2834.56959	4789.75
2837.1	4779.75
2839.62884	4794.85
2842.15613	4811.15
2844.68186	4831.95
2847.20604	4857.55
2849.72867	4868.55
2852.24974	4882.55
2854.76927	4872.55
2857.28724	4865.25
2859.80367	4852.35
2862.31855	4828.05
2864.83189	4807.65
2867.34368	4814.05
2869.85393	4821.95
2872.36264	4812.35
2874.8698	4811.75
2877.37543	4813.85
2879.87952	4811.15
2882.38207	4810.05
2884.88308	4804.95
2887.38256	4796.85
2889.88051	4797.55
2892.37692	4794.25
2894.8718	4802.85
2897.36515	4807.95
2899.85698	4801.25
2902.34727	4805.95
2904.83604	4798.05
2907.32328	4805.85
2909.809	4810.95
2912.29319	4815.35
2914.77587	4809.55
2917.25702	4811.25
2919.73665	4794.25
2922.21476	4788.95
2924.69136	4791.85
2927.16644	4786.75
2929.64	4790.35
2932.11205	4771.85
2934.58258	4741.35
2937.05161	4732.45
2939.51912	4736.75
2941.98513	4708.75
2944.44962	4687.35
2946.91261	4648.95
2949.37409	4672.95
2951.83407	4638.15
2954.29254	4630.25
2956.74951	4619.55
2959.20498	4606.65
2961.65895	4618.05
2964.11142	4622.55
2966.56239	4598.15
2969.01186	4601.15
2971.45984	4585.55
2973.90632	4573.55
2976.35131	4563.25
2978.7948	4537.95
2981.23681	4532.85
2983.67732	4536.85
2986.11635	4512.65
2988.55388	4500.75
2990.98993	4479.75
2993.4245	4492.45
2995.85758	4468.05
2998.28917	4454.65
3000.71928	4451.85
3003.14791	4454.85
3005.57506	4442.85
3008.00073	4434.45
3010.42493	4408.45
3012.84764	4410.45
3015.26888	4407.75
3017.68865	4388.25
3020.10694	4398.25
3022.52376	4387.85
3024.9391	4377.75
3027.35298	4373.15
3029.76539	4382.75
3032.17632	4380.35
3034.5858	4356.05
3036.9938	4367.85
3039.40034	4356.05
3041.80542	4364.55
3044.20903	4354.45
3046.61118	4341.35
3049.01187	4323.65
3051.4111	4317.25
3053.80888	4305.75
3056.20519	4310.55
3058.60005	4287.95
3060.99345	4295.05
3063.3854	4268.85
3065.7759	4252.25
3068.16494	4265.55
3070.55254	4233.75
3072.93868	4239.95
3075.32338	4221.85
3077.70662	4211.65
3080.08842	4198.05
3082.46878	4196.35
3084.84769	4171.85
3087.22515	4175.65
3089.60118	4179.95
3091.97576	4168.05
3094.3489	4161.35
3096.72061	4177.05
3099.09087	4177.15
3101.4597	4159.65
3103.82709	4152.15
3106.19305	4162.55
3108.55757	4156.45
3110.92066	4146.85
3113.28232	4143.25
3115.64255	4132.75
3118.00134	4126.25
3120.35871	4118.05
3122.71466	4128.25
3125.06917	4107.55
3127.42226	4101.15
3129.77393	4120.15
3132.12417	4106.95
3134.47299	4105.15
3136.82039	4108.05
3139.16636	4122.55
3141.51092	4116.95
3143.85406	4118.25
3146.19579	4128.85
3148.53609	4113.05
3150.87499	4120.35
3153.21246	4126.85
3155.54853	4145.45
3157.88318	4125.55
3160.21642	4142.45
3162.54826	4144.75
3164.87868	4145.95
3167.2077	4159.55
3169.5353	4146.15
3171.86151	4150.15
3174.18631	4167.25
3176.5097	4141.55
3178.83169	4139.45
3181.15228	4144.95
3183.47147	4139.95
3185.78926	4134.45
3188.10565	4140.45
3190.42065	4133.45
3192.73424	4138.45
3195.04645	4136.05
3197.35725	4130.35
3199.66667	4146.65
3201.97469	4157.45
3204.28132	4143.65
3206.58656	4155.35
3208.8904	4152.55
3211.19287	4168.55
3213.49394	4179.45
3215.79363	4173.25
3218.09193	4174.45
3220.38884	4181.75
3222.68438	4173.25
3224.97853	4164.55
3227.2713	4171.05
3229.56269	4166.15
3231.8527	4172.85
3234.14133	4155.85
3236.42858	4158.75
3238.71446	4141.45
3240.99896	4138.65
3243.28209	4115.75
3245.56384	4126.35
3247.84423	4129.95
3250.12324	4114.65
3252.40088	4108.35
3254.67715	4103.65
3256.95205	4104.85
3259.22558	4109.65
3261.49775	4106.35
3263.76855	4098.45
3266.03799	4086.45
3268.30606	4088.25
3270.57277	4081.15
3272.83812	4058.95
3275.10211	4059.55
3277.36474	4042.05
3279.62601	4040.45
3281.88593	4029.55
3284.14448	4034.65
3286.40168	4035.15
3288.65753	4036.45
3290.91202	4030.75
3293.16516	4018.25
3295.41695	4011.55
3297.66738	3997.35
3299.91647	3989.25
3302.16421	3941.75
3304.4106	3929.35
3306.65564	3909.75
3308.89933	3873.95
3311.14169	3836.35
3313.38269	3805.45
3315.62236	3795.05
3317.86068	3758.75
3320.09766	3733.95
3322.3333	3713.45
3324.5676	3676.15
3326.80056	3619.55
3329.03219	3599.75
3331.26248	2.05
3333.49143	-0.45
3335.71905	-0.25
