Data from AgNP_FTO_APTES_UA_10uM_CRN_50uM_R6G_10uM_NaF_0.1M_Addition_RamanShift__15__17-00-00-800.txt Node

Date: Thu Feb 10 17:00:00 GMT 2022
User: TCL
Spectrometer: QEP01345
Trigger mode: 4
Integration Time (sec): 7.000000E0
Scans to average: 10
Electric dark correction enabled: true
Nonlinearity correction enabled: false
Boxcar width: 0
XAxis mode: Raman Shifts
Number of Pixels in Spectrum: 1044
>>>>>Begin Spectral Data<<<<<
46.04893	0.05
50.45542	-0.65
54.85868	-1.35
59.25871	-1.35
63.6555	60.15
68.04907	64.45
72.43941	67.45
76.82654	68.65
81.21044	74.15
85.59113	69.35
89.96862	74.95
94.34289	77.55
98.71396	80.25
103.08183	87.25
107.4465	89.05
111.80798	88.05
116.16626	91.15
120.52136	90.15
124.87327	99.85
129.222	102.85
133.56755	111.45
137.90993	115.15
142.24913	120.65
146.58517	136.65
150.91804	161.55
155.24774	188.25
159.57429	236.55
163.89768	293.85
168.21792	389.55
172.53501	530.15
176.84895	743.45
181.15975	1037.95
185.46741	1471.75
189.77193	2037.65
194.07331	2727.45
198.37157	3518.05
202.6667	4360.05
206.9587	5204.75
211.24758	5994.85
215.53334	6802.35
219.81599	7627.35
224.09553	8521.15
228.37195	9526.45
232.64527	10618.25
236.91549	11787.75
241.18261	13000.85
245.44663	14219.75
249.70755	15300.05
253.96539	16269.05
258.22014	17077.55
262.4718	17781.05
266.72039	18246.55
270.96589	18515.55
275.20832	18608.15
279.44768	18596.55
283.68397	18468.55
287.91719	18335.95
292.14735	18209.05
296.37445	18155.15
300.59849	18131.25
304.81948	18114.05
309.03742	17991.95
313.25231	17768.55
317.46415	17456.25
321.67296	17087.65
325.87872	16823.15
330.08145	16775.55
334.28114	16819.15
338.47781	16939.75
342.67145	17149.05
346.86207	17360.85
351.04966	17557.35
355.23424	17807.85
359.4158	18029.35
363.59435	18226.95
367.76989	18334.85
371.94243	18452.15
376.11196	18557.05
380.27849	18686.85
384.44203	18797.05
388.60257	18935.55
392.76012	19061.55
396.91468	19307.35
401.06626	19498.55
405.21485	19727.45
409.36047	19667.35
413.50311	19525.25
417.64277	19380.05
421.77947	19299.25
425.9132	19350.85
430.04396	19438.65
434.17176	19511.95
438.2966	19636.85
442.41849	19824.15
446.53742	20051.95
450.6534	20354.85
454.76644	20666.25
458.87653	20785.35
462.98368	20823.65
467.08789	20825.15
471.18916	20769.65
475.2875	20716.25
479.38291	20642.25
483.4754	20548.15
487.56496	20385.55
491.6516	20169.75
495.73531	20016.45
499.81612	19911.35
503.89401	20024.05
507.96899	20106.15
512.04106	20150.95
516.11023	20141.35
520.1765	20070.55
524.23987	19980.05
528.30034	19831.65
532.35792	19711.05
536.41261	19621.45
540.46441	19532.45
544.51333	19592.75
548.55936	19767.35
552.60252	20026.85
556.64279	20330.75
560.6802	20473.15
564.71473	20549.95
568.7464	20687.55
572.7752	20941.05
576.80114	21207.35
580.82422	21471.85
584.84444	21664.05
588.86181	21664.45
592.87633	21586.95
596.888	21459.95
600.89682	21559.35
604.9028	22004.15
608.90594	23096.25
612.90624	24263.25
616.90371	23308.85
620.89834	21006.65
624.89015	20053.45
628.87913	19963.55
632.86528	20053.95
636.84862	20149.25
640.82913	20033.95
644.80683	19781.45
648.78172	19615.65
652.75379	19547.05
656.72306	19662.45
660.68952	19889.05
664.65319	19829.15
668.61405	19679.45
672.57211	19666.25
676.52738	19735.65
680.47986	19750.45
684.42955	19709.55
688.37646	19671.85
692.32058	19760.25
696.26192	19856.35
700.20048	19973.75
704.13626	20088.25
708.06928	20120.55
711.99952	20059.95
715.927	20005.05
719.85171	20000.25
723.77365	19948.75
727.69284	19873.05
731.60928	19723.95
735.52295	19656.55
739.43388	19632.85
743.34206	19653.75
747.24749	19712.95
751.15017	19766.45
755.05012	19958.85
758.94733	20263.35
762.8418	20864.95
766.73354	21793.95
770.62254	22644.65
774.50882	22888.55
778.39237	22311.75
782.27321	21299.55
786.15132	20470.65
790.02671	19977.45
793.89938	19720.45
797.76935	19598.25
801.6366	19561.55
805.50115	19486.85
809.36299	19419.05
813.22213	19363.25
817.07857	19338.05
820.93231	19331.95
824.78336	19335.45
828.63172	19336.55
832.47738	19314.65
836.32036	19285.85
840.16066	19258.15
843.99827	19295.55
847.8332	19276.25
851.66546	19275.05
855.49504	19282.35
859.32195	19334.65
863.1462	19283.55
866.96777	19278.05
870.78668	19281.65
874.60293	19283.05
878.41652	19309.25
882.22745	19317.05
886.03573	19342.55
889.84136	19372.55
893.64433	19306.65
897.44466	19287.55
901.24235	19233.15
905.0374	19210.95
908.8298	19170.65
912.61957	19217.25
916.40671	19303.85
920.19121	19428.45
923.97308	19506.05
927.75233	19440.45
931.52895	19317.75
935.30295	19194.85
939.07433	19029.35
942.84309	18898.45
946.60924	18824.05
950.37278	18772.35
954.13371	18736.95
957.89203	18693.85
961.64774	18687.05
965.40086	18644.55
969.15137	18648.35
972.89929	18556.45
976.64461	18530.25
980.38733	18541.15
984.12747	18583.15
987.86502	18632.75
991.59999	18691.15
995.33237	18819.45
999.06217	18946.25
1002.78939	19075.65
1006.51404	19176.35
1010.23611	19306.15
1013.95561	19451.45
1017.67255	19429.05
1021.38692	19401.35
1025.09872	19279.45
1028.80796	19259.65
1032.51465	19237.35
1036.21877	19348.45
1039.92035	19424.65
1043.61937	19440.05
1047.31584	19446.95
1051.00976	19418.85
1054.70114	19481.35
1058.38998	19581.55
1062.07627	19697.95
1065.76003	19841.75
1069.44126	19998.55
1073.11995	20100.45
1076.79611	20242.55
1080.46974	20312.25
1084.14085	20375.45
1087.80943	20392.75
1091.47549	20525.05
1095.13903	20547.05
1098.80005	20477.85
1102.45857	20275.35
1106.11456	20079.15
1109.76805	19941.85
1113.41903	19860.65
1117.06751	19893.45
1120.71348	20009.25
1124.35696	20145.25
1127.99793	20268.45
1131.63641	20349.65
1135.2724	20263.35
1138.90589	20184.55
1142.5369	20182.65
1146.16542	20141.75
1149.79145	20194.95
1153.415	20253.35
1157.03607	20350.05
1160.65467	20620.95
1164.27079	21069.45
1167.88443	21629.95
1171.49561	22275.35
1175.10432	23089.75
1178.71056	24154.55
1182.31434	25179.05
1185.91565	25839.85
1189.51451	26023.55
1193.11091	25873.15
1196.70485	25327.55
1200.29634	24658.25
1203.88538	24066.65
1207.47197	23626.45
1211.05612	23211.05
1214.63782	22819.25
1218.21708	22465.55
1221.79391	22100.85
1225.36829	21943.65
1228.94024	21689.65
1232.50976	21586.15
1236.07685	21566.85
1239.6415	21595.15
1243.20374	21657.05
1246.76355	21759.25
1250.32093	21892.45
1253.8759	22134.75
1257.42845	22486.55
1260.97859	22778.15
1264.52631	23126.15
1268.07163	23439.05
1271.61453	23804.15
1275.15503	24064.55
1278.69312	24363.05
1282.22882	24618.85
1285.76211	24931.85
1289.29301	25292.45
1292.82151	25838.65
1296.34761	26512.75
1299.87133	27244.65
1303.39266	28086.35
1306.9116	28940.45
1310.42815	29662.45
1313.94233	30113.45
1317.45412	30167.25
1320.96354	30012.95
1324.47058	29888.05
1327.97525	29861.95
1331.47754	29796.95
1334.97747	29892.15
1338.47502	30188.35
1341.97022	30498.55
1345.46305	30810.05
1348.95352	30854.05
1352.44163	30718.65
1355.92738	30579.05
1359.41078	30760.35
1362.89183	30949.65
1366.37053	30309.45
1369.84688	28659.55
1373.32088	26863.45
1376.79254	25501.05
1380.26186	24878.45
1383.72883	24705.15
1387.19347	24595.35
1390.65578	24455.85
1394.11575	24276.95
1397.57339	24119.95
1401.0287	24216.95
1404.48168	24216.05
1407.93234	24169.45
1411.38068	23941.45
1414.82669	23542.65
1418.27039	23007.95
1421.71177	22469.35
1425.15083	22052.05
1428.58758	21811.95
1432.02203	21768.85
1435.45416	21937.75
1438.88399	22218.35
1442.31151	22440.95
1445.73673	22667.05
1449.15965	22848.85
1452.58027	22955.85
1455.9986	23133.75
1459.41463	23339.85
1462.82837	23588.35
1466.23982	23861.75
1469.64898	24140.15
1473.05586	24306.75
1476.46045	24383.65
1479.86276	24349.85
1483.26279	24324.55
1486.66054	24282.15
1490.05602	24384.45
1493.44922	24648.35
1496.84016	25016.35
1500.22882	25665.35
1503.61521	26529.75
1506.99934	27490.65
1510.38121	28191.85
1513.76081	28287.55
1517.13816	27801.45
1520.51324	26989.55
1523.88607	26284.85
1527.25665	25794.75
1530.62498	25570.95
1533.99105	25357.45
1537.35488	25146.55
1540.71647	24844.25
1544.07581	24466.45
1547.4329	24116.35
1550.78776	23800.35
1554.14038	23635.55
1557.49077	23588.65
1560.83892	23559.65
1564.18484	23670.75
1567.52853	23761.75
1570.86999	23871.65
1574.20922	24054.95
1577.54624	24170.75
1580.88103	24139.65
1584.2136	23940.75
1587.54395	23970.75
1590.87208	24235.05
1594.19801	24812.85
1597.52172	25429.25
1600.84321	25630.75
1604.16251	25149.75
1607.47959	24370.75
1610.79447	23476.35
1614.10715	22500.45
1617.41763	21526.65
1620.7259	20767.15
1624.03199	20302.95
1627.33587	20187.55
1630.63757	20332.05
1633.93707	20801.85
1637.23439	21662.55
1640.52951	22960.15
1643.82246	24562.75
1647.11321	25901.55
1650.40179	26479.75
1653.68819	25837.15
1656.97241	24107.65
1660.25446	22270.95
1663.53433	20627.75
1666.81203	19519.55
1670.08756	18669.05
1673.36092	18165.05
1676.63211	17802.05
1679.90115	17531.55
1683.16801	17314.95
1686.43272	17231.65
1689.69527	17113.35
1692.95567	17044.95
1696.2139	16981.65
1699.46999	16954.55
1702.72392	16931.15
1705.97571	16869.35
1709.22535	16792.05
1712.47284	16763.35
1715.71819	16760.55
1718.96139	16750.45
1722.20246	16715.25
1725.44139	16644.85
1728.67818	16567.15
1731.91284	16499.65
1735.14537	16452.05
1738.37576	16355.55
1741.60403	16370.65
1744.83017	16307.25
1748.05418	16296.35
1751.27607	16280.45
1754.49584	16292.65
1757.71349	16279.75
1760.92903	16241.95
1764.14244	16215.45
1767.35375	16223.25
1770.56294	16191.45
1773.77002	16174.15
1776.97499	16141.55
1780.17785	16079.25
1783.37861	16053.25
1786.57727	16011.85
1789.77382	16003.65
1792.96828	15979.85
1796.16064	15902.35
1799.3509	15915.25
1802.53907	15898.75
1805.72514	15833.95
1808.90913	15798.75
1812.09102	15783.75
1815.27083	15744.95
1818.44856	15690.05
1821.6242	15683.45
1824.79776	15675.75
1827.96924	15679.45
1831.13864	15652.75
1834.30597	15653.75
1837.47122	15630.15
1840.6344	15635.45
1843.7955	15630.85
1846.95454	15590.45
1850.11151	15573.85
1853.26642	15568.35
1856.41926	15578.25
1859.57004	15537.45
1862.71876	15529.95
1865.86542	15520.75
1869.01003	15482.75
1872.15258	15483.25
1875.29308	15473.25
1878.43152	15444.55
1881.56792	15402.15
1884.70227	15370.95
1887.83457	15365.05
1890.96482	15332.25
1894.09304	15293.35
1897.21921	15247.25
1900.34335	15231.75
1903.46544	15246.35
1906.58551	15220.45
1909.70353	15202.95
1912.81953	15145.55
1915.93349	15136.85
1919.04543	15143.25
1922.15534	15116.55
1925.26322	15066.65
1928.36908	15051.65
1931.47292	15049.85
1934.57473	15038.55
1937.67453	14998.05
1940.77232	14958.05
1943.86808	14882.25
1946.96184	14819.05
1950.05358	14824.15
1953.14331	14765.95
1956.23103	14739.45
1959.31675	14705.55
1962.40046	14661.95
1965.48217	14593.05
1968.56188	14519.05
1971.63959	14510.75
1974.7153	14437.95
1977.78901	14410.25
1980.86073	14366.05
1983.93046	14357.95
1986.99819	14286.55
1990.06394	14241.95
1993.1277	14203.45
1996.18947	14156.45
1999.24925	14130.25
2002.30706	14071.65
2005.36288	14050.45
2008.41672	13980.75
2011.46859	13971.05
2014.51848	13950.45
2017.56639	13921.15
2020.61233	13828.25
2023.6563	13840.05
2026.6983	13776.75
2029.73833	13733.55
2032.7764	13704.85
2035.8125	13673.75
2038.84664	13627.85
2041.87881	13591.85
2044.90903	13558.65
2047.93729	13569.75
2050.96359	13544.75
2053.98794	13532.95
2057.01034	13489.75
2060.03078	13481.85
2063.04927	13503.95
2066.06582	13494.15
2069.08042	13457.45
2072.09307	13443.35
2075.10378	13429.65
2078.11255	13421.95
2081.11938	13433.95
2084.12426	13430.45
2087.12722	13413.15
2090.12824	13397.75
2093.12732	13362.35
2096.12447	13388.25
2099.11969	13369.65
2102.11299	13361.15
2105.10435	13376.65
2108.09379	13403.35
2111.08131	13400.05
2114.0669	13391.45
2117.05057	13400.25
2120.03233	13404.55
2123.01216	13417.15
2125.99008	13438.65
2128.96609	13459.95
2131.94018	13455.55
2134.91236	13463.55
2137.88263	13488.85
2140.851	13449.85
2143.81746	13501.95
2146.78201	13500.35
2149.74466	13488.25
2152.7054	13466.45
2155.66425	13471.45
2158.6212	13475.85
2161.57625	13449.75
2164.52941	13458.75
2167.48067	13486.35
2170.43004	13457.05
2173.37752	13412.95
2176.32311	13430.45
2179.26681	13436.05
2182.20863	13408.05
2185.14856	13413.75
2188.08661	13398.85
2191.02278	13394.35
2193.95707	13404.45
2196.88948	13406.45
2199.82001	13406.35
2202.74867	13413.05
2205.67545	13365.45
2208.60037	13321.45
2211.52341	13332.55
2214.44458	13305.45
2217.36388	13269.75
2220.28132	13242.25
2223.1969	13191.75
2226.11061	13185.15
2229.02246	13154.95
2231.93245	13108.95
2234.84058	13109.35
2237.74686	13078.85
2240.65128	13058.85
2243.55385	13048.65
2246.45456	13021.15
2249.35343	13024.85
2252.25044	13017.45
2255.14561	12967.65
2258.03893	12962.25
2260.93041	12925.85
2263.82004	12888.05
2266.70783	12843.05
2269.59378	12799.45
2272.4779	12802.85
2275.36017	12736.05
2278.24061	12736.95
2281.11922	12697.75
2283.996	12680.55
2286.87094	12678.95
2289.74405	12669.35
2292.61534	12618.85
2295.4848	12619.85
2298.35243	12622.15
2301.21824	12601.95
2304.08223	12563.45
2306.94439	12563.35
2309.80474	12559.15
2312.66327	12589.05
2315.51999	12555.65
2318.37489	12529.35
2321.22797	12496.15
2324.07925	12475.95
2326.92871	12459.55
2329.77637	12459.85
2332.62222	12437.55
2335.46626	12412.15
2338.3085	12410.35
2341.14893	12374.05
2343.98756	12365.05
2346.8244	12356.75
2349.65943	12326.65
2352.49267	12335.85
2355.32411	12355.05
2358.15376	12328.55
2360.98161	12347.85
2363.80768	12290.55
2366.63195	12305.95
2369.45444	12279.25
2372.27514	12259.05
2375.09405	12250.55
2377.91118	12208.95
2380.72652	12185.65
2383.54009	12148.85
2386.35187	12141.35
2389.16188	12098.35
2391.97011	12073.95
2394.77657	12033.05
2397.58125	12012.85
2400.38416	11990.65
2403.18529	11969.05
2405.98466	11997.35
2408.78226	11962.15
2411.57809	11963.85
2414.37216	11927.05
2417.16446	11920.45
2419.955	11914.55
2422.74378	11896.25
2425.5308	11880.35
2428.31606	11883.55
2431.09956	11886.75
2433.88131	11854.75
2436.6613	11856.55
2439.43954	11845.65
2442.21603	11790.15
2444.99077	11797.15
2447.76377	11793.35
2450.53501	11781.05
2453.30451	11779.05
2456.07226	11737.75
2458.83827	11745.95
2461.60254	11711.65
2464.36507	11710.85
2467.12586	11697.65
2469.88492	11692.45
2472.64224	11700.85
2475.39782	11675.95
2478.15167	11688.35
2480.90379	11665.55
2483.65417	11662.85
2486.40283	11674.05
2489.14976	11633.95
2491.89497	11643.35
2494.63845	11644.85
2497.3802	11611.45
2500.12024	11628.15
2502.85855	11595.65
2505.59514	11607.85
2508.33002	11577.15
2511.06318	11576.45
2513.79462	11562.85
2516.52435	11543.65
2519.25237	11495.85
2521.97867	11511.45
2524.70327	11515.95
2527.42616	11489.35
2530.14734	11471.45
2532.86681	11449.35
2535.58458	11452.25
2538.30065	11471.35
2541.01501	11455.95
2543.72768	11440.25
2546.43864	11407.25
2549.14791	11410.95
2551.85548	11378.75
2554.56136	11354.75
2557.26554	11323.45
2559.96803	11307.65
2562.66883	11258.65
2565.36794	11248.75
2568.06536	11226.65
2570.7611	11203.55
2573.45514	11172.55
2576.14751	11184.95
2578.83819	11168.95
2581.52719	11132.45
2584.21451	11098.85
2586.90015	11103.35
2589.58411	11067.85
2592.2664	11075.35
2594.94701	11045.75
2597.62594	11039.75
2600.30321	10994.65
2602.9788	10986.95
2605.65273	10954.85
2608.32498	10962.75
2610.99557	10931.55
2613.66449	10945.85
2616.33175	10929.55
2618.99734	10905.75
2621.66128	10914.25
2624.32355	10896.45
2626.98416	10873.55
2629.64311	10850.75
2632.30041	10835.25
2634.95605	10832.65
2637.61004	10787.85
2640.26238	10796.45
2642.91306	10765.05
2645.56209	10794.15
2648.20948	10749.05
2650.85521	10751.25
2653.4993	10770.05
2656.14175	10762.05
2658.78255	10769.75
2661.42171	10767.05
2664.05923	10757.25
2666.6951	10777.95
2669.32934	10755.55
2671.96194	10774.45
2674.59291	10767.35
2677.22224	10749.45
2679.84993	10768.15
2682.476	10755.95
2685.10043	10740.75
2687.72324	10724.85
2690.34441	10718.05
2692.96396	10720.75
2695.58188	10717.85
2698.19818	10719.25
2700.81285	10724.25
2703.4259	10732.95
2706.03733	10741.55
2708.64714	10708.25
2711.25533	10728.75
2713.86191	10703.55
2716.46687	10734.85
2719.07021	10731.65
2721.67194	10728.85
2724.27206	10720.65
2726.87057	10719.55
2729.46747	10736.05
2732.06276	10726.05
2734.65644	10700.05
2737.24852	10700.45
2739.83899	10671.65
2742.42786	10676.25
2745.01513	10627.75
2747.60079	10592.65
2750.18486	10616.95
2752.76733	10623.75
2755.3482	10592.05
2757.92747	10575.65
2760.50515	10576.95
2763.08123	10545.65
2765.65573	10539.95
2768.22863	10525.85
2770.79994	10502.95
2773.36967	10504.15
2775.9378	10513.45
2778.50435	10533.95
2781.06932	10512.95
2783.6327	10481.85
2786.1945	10477.35
2788.75471	10441.65
2791.31335	10421.15
2793.87041	10403.15
2796.42589	10394.25
2798.97979	10399.65
2801.53212	10354.55
2804.08288	10325.55
2806.63206	10336.15
2809.17967	10280.35
2811.72571	10250.45
2814.27018	10248.05
2816.81308	10196.95
2819.35442	10202.95
2821.89419	10202.25
2824.43239	10161.35
2826.96904	10160.65
2829.50412	10170.85
2832.03763	10148.05
2834.56959	10131.75
2837.1	10090.75
2839.62884	10112.45
2842.15613	10104.55
2844.68186	10105.65
2847.20604	10114.65
2849.72867	10131.95
2852.24974	10076.75
2854.76927	10071.25
2857.28724	10049.25
2859.80367	10034.75
2862.31855	10035.25
2864.83189	9994.75
2867.34368	9980.05
2869.85393	9955.25
2872.36264	9977.05
2874.8698	9962.85
2877.37543	9947.85
2879.87952	9940.75
2882.38207	9938.35
2884.88308	9932.45
2887.38256	9935.55
2889.88051	9920.75
2892.37692	9920.15
2894.8718	9939.95
2897.36515	9924.35
2899.85698	9944.85
2902.34727	9966.65
2904.83604	9945.05
2907.32328	9965.15
2909.809	9942.05
2912.29319	9920.45
2914.77587	9950.55
2917.25702	9918.75
2919.73665	9925.25
2922.21476	9901.45
2924.69136	9915.85
2927.16644	9903.05
2929.64	9887.65
2932.11205	9890.75
2934.58258	9861.45
2937.05161	9872.15
2939.51912	9877.65
2941.98513	9888.35
2944.44962	9856.95
2946.91261	9805.45
2949.37409	9808.35
2951.83407	9807.95
2954.29254	9809.75
2956.74951	9783.45
2959.20498	9762.15
2961.65895	9790.35
2964.11142	9775.25
2966.56239	9774.45
2969.01186	9750.95
2971.45984	9757.45
2973.90632	9752.65
2976.35131	9740.55
2978.7948	9725.75
2981.23681	9724.05
2983.67732	9703.65
2986.11635	9665.15
2988.55388	9655.75
2990.98993	9646.95
2993.4245	9607.05
2995.85758	9568.85
2998.28917	9575.85
3000.71928	9533.75
3003.14791	9520.05
3005.57506	9508.15
3008.00073	9506.65
3010.42493	9473.85
3012.84764	9467.45
3015.26888	9454.25
3017.68865	9429.05
3020.10694	9414.85
3022.52376	9424.05
3024.9391	9410.75
3027.35298	9374.65
3029.76539	9381.65
3032.17632	9361.15
3034.5858	9348.35
3036.9938	9332.75
3039.40034	9352.25
3041.80542	9328.15
3044.20903	9283.35
3046.61118	9312.85
3049.01187	9276.95
3051.4111	9283.95
3053.80888	9262.65
3056.20519	9236.55
3058.60005	9211.55
3060.99345	9204.45
3063.3854	9175.85
3065.7759	9156.45
3068.16494	9159.35
3070.55254	9121.75
3072.93868	9126.95
3075.32338	9104.75
3077.70662	9076.35
3080.08842	9068.25
3082.46878	9051.85
3084.84769	9051.65
3087.22515	9043.45
3089.60118	9047.15
3091.97576	9027.75
3094.3489	9033.25
3096.72061	9008.75
3099.09087	8991.75
3101.4597	9009.75
3103.82709	9002.95
3106.19305	8998.15
3108.55757	9028.35
3110.92066	8983.85
3113.28232	8973.25
3115.64255	8958.85
3118.00134	8931.05
3120.35871	8912.95
3122.71466	8891.85
3125.06917	8876.75
3127.42226	8848.95
3129.77393	8866.05
3132.12417	8839.75
3134.47299	8867.55
3136.82039	8826.75
3139.16636	8826.15
3141.51092	8868.05
3143.85406	8854.75
3146.19579	8830.45
3148.53609	8836.85
3150.87499	8865.25
3153.21246	8830.05
3155.54853	8844.55
3157.88318	8842.35
3160.21642	8868.25
3162.54826	8868.35
3164.87868	8875.35
3167.2077	8884.95
3169.5353	8908.35
3171.86151	8880.85
3174.18631	8868.85
3176.5097	8868.45
3178.83169	8844.35
3181.15228	8846.65
3183.47147	8819.35
3185.78926	8811.65
3188.10565	8812.65
3190.42065	8806.05
3192.73424	8765.05
3195.04645	8762.75
3197.35725	8755.65
3199.66667	8772.15
3201.97469	8774.05
3204.28132	8781.35
3206.58656	8794.85
3208.8904	8764.95
3211.19287	8763.75
3213.49394	8765.55
3215.79363	8787.35
3218.09193	8807.35
3220.38884	8781.65
3222.68438	8799.05
3224.97853	8802.45
3227.2713	8761.95
3229.56269	8760.65
3231.8527	8758.35
3234.14133	8720.65
3236.42858	8714.85
3238.71446	8705.85
3240.99896	8685.55
3243.28209	8662.15
3245.56384	8661.25
3247.84423	8652.45
3250.12324	8666.45
3252.40088	8632.35
3254.67715	8627.75
3256.95205	8631.15
3259.22558	8613.95
3261.49775	8611.85
3263.76855	8603.25
3266.03799	8584.15
3268.30606	8609.85
3270.57277	8562.25
3272.83812	8553.85
3275.10211	8525.45
3277.36474	8500.95
3279.62601	8516.35
3281.88593	8476.75
3284.14448	8475.65
3286.40168	8478.45
3288.65753	8463.05
3290.91202	8476.05
3293.16516	8451.65
3295.41695	8428.75
3297.66738	8389.85
3299.91647	8345.75
3302.16421	8296.35
3304.4106	8253.15
3306.65564	8222.55
3308.89933	8162.75
3311.14169	8085.05
3313.38269	8011.45
3315.62236	7965.85
3317.86068	7875.55
3320.09766	7855.55
3322.3333	7789.65
3324.5676	7759.15
3326.80056	7633.15
3329.03219	7571.75
3331.26248	3.25
3333.49143	0.85
3335.71905	-0.45
