Data from AgNP_FTO_APTES_UA_10uM_CRN_2uM_R6G_10uM_NaF_0.1M_Addition_RamanShift__9__14-07-20-586.txt Node

Date: Thu Feb 10 14:07:20 GMT 2022
User: TCL
Spectrometer: QEP01345
Trigger mode: 4
Integration Time (sec): 7.000000E0
Scans to average: 10
Electric dark correction enabled: true
Nonlinearity correction enabled: false
Boxcar width: 0
XAxis mode: Raman Shifts
Number of Pixels in Spectrum: 1044
>>>>>Begin Spectral Data<<<<<
46.04893	-0.35
50.45542	-0.05
54.85868	-0.85
59.25871	-1.05
63.6555	66.75
68.04907	69.95
72.43941	76.15
76.82654	73.85
81.21044	77.85
85.59113	80.15
89.96862	85.15
94.34289	84.55
98.71396	87.55
103.08183	92.15
107.4465	97.95
111.80798	98.35
116.16626	101.25
120.52136	104.85
124.87327	108.65
129.222	113.85
133.56755	121.55
137.90993	129.65
142.24913	143.65
146.58517	162.15
150.91804	187.65
155.24774	227.15
159.57429	283.85
163.89768	361.05
168.21792	484.65
172.53501	668.15
176.84895	927.55
181.15975	1308.95
185.46741	1822.65
189.77193	2518.55
194.07331	3372.75
198.37157	4346.25
202.6667	5388.65
206.9587	6418.95
211.24758	7417.75
215.53334	8444.35
219.81599	9505.25
224.09553	10701.05
228.37195	12027.65
232.64527	13488.95
236.91549	14993.85
241.18261	16456.35
245.44663	17799.45
249.70755	18989.15
253.96539	20025.55
258.22014	20843.65
262.4718	21605.15
266.72039	22102.05
270.96589	22346.75
275.20832	22405.55
279.44768	22254.45
283.68397	22073.45
287.91719	21878.65
292.14735	21782.65
296.37445	21855.85
300.59849	22049.25
304.81948	22297.85
309.03742	22418.45
313.25231	22249.75
317.46415	21785.15
321.67296	21102.65
325.87872	20551.05
330.08145	20224.85
334.28114	20206.95
338.47781	20374.95
342.67145	20686.15
346.86207	21026.85
351.04966	21535.75
355.23424	21988.25
359.4158	22346.85
363.59435	22600.15
367.76989	22752.85
371.94243	22838.55
376.11196	22836.75
380.27849	22826.85
384.44203	22923.65
388.60257	23026.15
392.76012	23242.05
396.91468	23553.75
401.06626	23924.75
405.21485	24196.95
409.36047	23987.55
413.50311	23490.05
417.64277	23140.85
421.77947	23059.85
425.9132	23094.95
430.04396	23199.15
434.17176	23268.95
438.2966	23317.75
442.41849	23605.95
446.53742	24135.05
450.6534	24691.45
454.76644	25080.45
458.87653	25241.15
462.98368	25199.65
467.08789	24978.15
471.18916	24757.35
475.2875	24401.85
479.38291	24173.95
483.4754	23976.05
487.56496	23765.85
491.6516	23442.45
495.73531	23144.75
499.81612	22974.85
503.89401	23054.95
507.96899	23187.95
512.04106	23264.75
516.11023	23233.75
520.1765	23088.55
524.23987	22919.45
528.30034	22692.35
532.35792	22512.45
536.41261	22235.35
540.46441	21940.15
544.51333	21902.85
548.55936	22133.35
552.60252	22625.75
556.64279	23139.15
560.6802	23523.35
564.71473	23774.65
568.7464	24244.55
572.7752	24993.15
576.80114	25697.85
580.82422	26336.05
584.84444	26940.45
588.86181	27714.45
592.87633	28268.85
596.888	28012.75
600.89682	27178.45
604.9028	27358.65
608.90594	29660.65
612.90624	32412.45
616.90371	30497.25
620.89834	25187.75
624.89015	22830.25
628.87913	22547.75
632.86528	22750.65
636.84862	22921.55
640.82913	22545.75
644.80683	21932.65
648.78172	21479.05
652.75379	21446.45
656.72306	21742.65
660.68952	22166.45
664.65319	22035.35
668.61405	21577.05
672.57211	21428.15
676.52738	21546.65
680.47986	21462.25
684.42955	21311.95
688.37646	21228.55
692.32058	21354.95
696.26192	21619.25
700.20048	21960.25
704.13626	22105.55
708.06928	22159.85
711.99952	22076.35
715.927	21986.55
719.85171	21985.75
723.77365	21879.45
727.69284	21555.15
731.60928	21282.25
735.52295	21150.65
739.43388	21185.25
743.34206	21199.55
747.24749	21349.95
751.15017	21560.05
755.05012	21927.25
758.94733	22577.25
762.8418	23918.55
766.73354	25958.05
770.62254	27873.85
774.50882	28221.55
778.39237	26952.55
782.27321	24981.75
786.15132	23241.95
790.02671	22131.25
793.89938	21537.75
797.76935	21311.05
801.6366	21165.55
805.50115	21069.05
809.36299	20954.15
813.22213	20787.85
817.07857	20752.65
820.93231	20707.75
824.78336	20626.45
828.63172	20560.85
832.47738	20481.45
836.32036	20469.75
840.16066	20504.35
843.99827	20465.15
847.8332	20432.85
851.66546	20449.35
855.49504	20502.35
859.32195	20498.95
863.1462	20436.85
866.96777	20382.85
870.78668	20372.25
874.60293	20350.45
878.41652	20402.55
882.22745	20488.55
886.03573	20504.75
889.84136	20527.35
893.64433	20448.85
897.44466	20396.85
901.24235	20368.65
905.0374	20351.55
908.8298	20261.25
912.61957	20272.95
916.40671	20398.45
920.19121	20689.45
923.97308	20875.85
927.75233	20917.75
931.52895	20763.95
935.30295	20445.15
939.07433	20086.15
942.84309	19780.05
946.60924	19614.55
950.37278	19535.25
954.13371	19510.15
957.89203	19477.25
961.64774	19491.45
965.40086	19472.85
969.15137	19463.45
972.89929	19421.35
976.64461	19334.25
980.38733	19337.35
984.12747	19361.35
987.86502	19424.95
991.59999	19545.85
995.33237	19676.95
999.06217	19910.15
1002.78939	20242.45
1006.51404	20642.45
1010.23611	21017.45
1013.95561	21277.35
1017.67255	21303.95
1021.38692	21134.55
1025.09872	20839.85
1028.80796	20551.45
1032.51465	20485.55
1036.21877	20554.35
1039.92035	20687.85
1043.61937	20730.25
1047.31584	20751.05
1051.00976	20730.15
1054.70114	20759.45
1058.38998	20891.15
1062.07627	21109.25
1065.76003	21372.55
1069.44126	21670.85
1073.11995	22035.85
1076.79611	22358.75
1080.46974	22601.95
1084.14085	22777.35
1087.80943	23028.75
1091.47549	23282.25
1095.13903	23278.95
1098.80005	22952.15
1102.45857	22350.25
1106.11456	21927.25
1109.76805	21702.75
1113.41903	21697.35
1117.06751	21849.95
1120.71348	22155.25
1124.35696	22511.95
1127.99793	22889.05
1131.63641	23013.35
1135.2724	22814.05
1138.90589	22572.85
1142.5369	22495.25
1146.16542	22503.35
1149.79145	22619.25
1153.415	22765.15
1157.03607	23041.85
1160.65467	23580.25
1164.27079	24566.15
1167.88443	25837.05
1171.49561	27309.35
1175.10432	29222.25
1178.71056	31761.55
1182.31434	33947.95
1185.91565	35093.95
1189.51451	35102.75
1193.11091	34324.75
1196.70485	33030.95
1200.29634	31605.25
1203.88538	30409.95
1207.47197	29609.05
1211.05612	29003.95
1214.63782	28364.15
1218.21708	27615.15
1221.79391	26892.55
1225.36829	26384.55
1228.94024	26127.75
1232.50976	25883.15
1236.07685	25623.55
1239.6415	25427.55
1243.20374	25434.85
1246.76355	25516.95
1250.32093	25887.85
1253.8759	26349.45
1257.42845	27043.65
1260.97859	27875.25
1264.52631	28722.95
1268.07163	29566.85
1271.61453	30312.85
1275.15503	31080.15
1278.69312	31752.75
1282.22882	32483.85
1285.76211	33396.65
1289.29301	34609.85
1292.82151	36071.65
1296.34761	37709.55
1299.87133	39769.55
1303.39266	42015.85
1306.9116	44357.95
1310.42815	46277.05
1313.94233	47285.25
1317.45412	46879.95
1320.96354	45851.55
1324.47058	44970.85
1327.97525	44287.85
1331.47754	43874.75
1334.97747	43625.95
1338.47502	43539.55
1341.97022	43533.65
1345.46305	43666.75
1348.95352	43834.25
1352.44163	44074.05
1355.92738	44631.25
1359.41078	46180.05
1362.89183	47819.85
1366.37053	46836.25
1369.84688	42741.65
1373.32088	37982.75
1376.79254	34811.35
1380.26186	33486.45
1383.72883	33207.55
1387.19347	33035.15
1390.65578	32718.15
1394.11575	32412.05
1397.57339	32476.15
1401.0287	32602.25
1404.48168	32758.65
1407.93234	32541.75
1411.38068	32008.65
1414.82669	31123.65
1418.27039	30108.55
1421.71177	29101.15
1425.15083	28287.65
1428.58758	27964.85
1432.02203	28271.55
1435.45416	28927.65
1438.88399	29716.85
1442.31151	30172.35
1445.73673	30517.65
1449.15965	30804.15
1452.58027	30936.65
1455.9986	31023.65
1459.41463	31224.85
1462.82837	31717.35
1466.23982	32162.85
1469.64898	32574.55
1473.05586	32815.95
1476.46045	32800.55
1479.86276	32654.05
1483.26279	32518.25
1486.66054	32623.45
1490.05602	33029.45
1493.44922	33739.45
1496.84016	34800.85
1500.22882	36421.95
1503.61521	38533.95
1506.99934	40721.65
1510.38121	42327.05
1513.76081	42411.25
1517.13816	40846.45
1520.51324	38493.55
1523.88607	36611.05
1527.25665	35583.05
1530.62498	35106.75
1533.99105	34732.85
1537.35488	34075.55
1540.71647	33318.05
1544.07581	32322.95
1547.4329	31502.85
1550.78776	30855.65
1554.14038	30434.95
1557.49077	30250.25
1560.83892	30246.25
1564.18484	30353.85
1567.52853	30592.75
1570.86999	31024.45
1574.20922	31547.95
1577.54624	31917.95
1580.88103	31791.85
1584.2136	31464.85
1587.54395	31777.55
1590.87208	32752.45
1594.19801	34317.35
1597.52172	36022.25
1600.84321	36401.95
1604.16251	35043.15
1607.47959	32829.65
1610.79447	30506.45
1614.10715	28122.35
1617.41763	26047.25
1620.7259	24550.85
1624.03199	23718.75
1627.33587	23642.75
1630.63757	24286.95
1633.93707	25827.35
1637.23439	28412.25
1640.52951	32180.55
1643.82246	36755.15
1647.11321	40576.15
1650.40179	41679.55
1653.68819	39012.55
1656.97241	33779.75
1660.25446	28628.35
1663.53433	24780.85
1666.81203	22327.35
1670.08756	20813.25
1673.36092	19876.65
1676.63211	19270.45
1679.90115	18852.45
1683.16801	18533.15
1686.43272	18272.05
1689.69527	18096.65
1692.95567	17991.95
1696.2139	17901.85
1699.46999	17839.95
1702.72392	17743.95
1705.97571	17666.95
1709.22535	17603.15
1712.47284	17586.15
1715.71819	17568.95
1718.96139	17502.55
1722.20246	17444.15
1725.44139	17347.75
1728.67818	17247.45
1731.91284	17154.05
1735.14537	17037.65
1738.37576	16958.15
1741.60403	16875.85
1744.83017	16823.45
1748.05418	16771.95
1751.27607	16736.85
1754.49584	16700.45
1757.71349	16681.75
1760.92903	16664.25
1764.14244	16645.45
1767.35375	16636.75
1770.56294	16560.85
1773.77002	16552.75
1776.97499	16529.15
1780.17785	16476.25
1783.37861	16444.85
1786.57727	16385.75
1789.77382	16344.85
1792.96828	16329.15
1796.16064	16292.05
1799.3509	16215.25
1802.53907	16237.95
1805.72514	16149.25
1808.90913	16101.35
1812.09102	16085.65
1815.27083	16023.75
1818.44856	16008.55
1821.6242	15968.25
1824.79776	15958.35
1827.96924	15943.95
1831.13864	15950.55
1834.30597	15918.05
1837.47122	15910.45
1840.6344	15927.25
1843.7955	15928.15
1846.95454	15893.35
1850.11151	15873.55
1853.26642	15865.95
1856.41926	15848.45
1859.57004	15869.15
1862.71876	15814.35
1865.86542	15800.95
1869.01003	15773.65
1872.15258	15740.55
1875.29308	15740.45
1878.43152	15664.75
1881.56792	15683.75
1884.70227	15616.25
1887.83457	15609.45
1890.96482	15583.35
1894.09304	15563.55
1897.21921	15534.55
1900.34335	15530.15
1903.46544	15493.65
1906.58551	15488.35
1909.70353	15498.95
1912.81953	15440.05
1915.93349	15409.35
1919.04543	15387.15
1922.15534	15328.25
1925.26322	15256.95
1928.36908	15288.45
1931.47292	15253.15
1934.57473	15202.45
1937.67453	15152.25
1940.77232	15115.55
1943.86808	15063.25
1946.96184	15042.65
1950.05358	14952.85
1953.14331	14921.95
1956.23103	14895.35
1959.31675	14851.45
1962.40046	14805.85
1965.48217	14745.45
1968.56188	14717.35
1971.63959	14685.55
1974.7153	14671.55
1977.78901	14585.45
1980.86073	14532.75
1983.93046	14482.95
1986.99819	14455.05
1990.06394	14403.45
1993.1277	14359.45
1996.18947	14313.25
1999.24925	14281.55
2002.30706	14216.85
2005.36288	14131.25
2008.41672	14129.95
2011.46859	14081.85
2014.51848	14073.05
2017.56639	14055.75
2020.61233	14017.25
2023.6563	13962.95
2026.6983	13920.15
2029.73833	13882.95
2032.7764	13860.05
2035.8125	13809.35
2038.84664	13781.05
2041.87881	13745.65
2044.90903	13691.05
2047.93729	13692.15
2050.96359	13703.15
2053.98794	13649.15
2057.01034	13644.05
2060.03078	13617.95
2063.04927	13618.15
2066.06582	13623.45
2069.08042	13591.45
2072.09307	13609.35
2075.10378	13584.05
2078.11255	13555.85
2081.11938	13558.85
2084.12426	13526.95
2087.12722	13566.25
2090.12824	13542.35
2093.12732	13492.05
2096.12447	13539.05
2099.11969	13509.35
2102.11299	13536.85
2105.10435	13526.95
2108.09379	13544.75
2111.08131	13563.45
2114.0669	13552.05
2117.05057	13550.65
2120.03233	13561.05
2123.01216	13564.55
2125.99008	13587.55
2128.96609	13589.45
2131.94018	13572.75
2134.91236	13614.45
2137.88263	13607.35
2140.851	13624.75
2143.81746	13612.85
2146.78201	13594.55
2149.74466	13611.75
2152.7054	13595.15
2155.66425	13550.55
2158.6212	13568.95
2161.57625	13541.65
2164.52941	13559.95
2167.48067	13538.95
2170.43004	13539.45
2173.37752	13529.35
2176.32311	13526.95
2179.26681	13526.15
2182.20863	13528.15
2185.14856	13493.35
2188.08661	13521.15
2191.02278	13530.75
2193.95707	13524.85
2196.88948	13495.65
2199.82001	13462.75
2202.74867	13455.55
2205.67545	13411.25
2208.60037	13415.25
2211.52341	13402.35
2214.44458	13394.25
2217.36388	13371.05
2220.28132	13346.05
2223.1969	13295.75
2226.11061	13288.25
2229.02246	13293.65
2231.93245	13242.95
2234.84058	13211.45
2237.74686	13194.85
2240.65128	13196.85
2243.55385	13192.35
2246.45456	13156.75
2249.35343	13098.25
2252.25044	13088.15
2255.14561	13078.75
2258.03893	13063.75
2260.93041	13019.55
2263.82004	12995.35
2266.70783	12960.15
2269.59378	12906.85
2272.4779	12874.75
2275.36017	12846.65
2278.24061	12834.85
2281.11922	12809.65
2283.996	12781.15
2286.87094	12782.65
2289.74405	12746.65
2292.61534	12762.15
2295.4848	12721.15
2298.35243	12723.55
2301.21824	12693.75
2304.08223	12692.75
2306.94439	12679.35
2309.80474	12677.65
2312.66327	12684.45
2315.51999	12672.15
2318.37489	12676.65
2321.22797	12640.25
2324.07925	12629.95
2326.92871	12605.65
2329.77637	12601.55
2332.62222	12586.55
2335.46626	12578.15
2338.3085	12534.75
2341.14893	12546.05
2343.98756	12536.65
2346.8244	12531.35
2349.65943	12530.75
2352.49267	12500.25
2355.32411	12535.95
2358.15376	12514.65
2360.98161	12527.25
2363.80768	12504.25
2366.63195	12519.25
2369.45444	12495.05
2372.27514	12518.95
2375.09405	12475.85
2377.91118	12436.55
2380.72652	12403.05
2383.54009	12370.85
2386.35187	12357.95
2389.16188	12307.35
2391.97011	12271.45
2394.77657	12257.15
2397.58125	12234.55
2400.38416	12224.95
2403.18529	12209.75
2405.98466	12202.55
2408.78226	12165.65
2411.57809	12166.65
2414.37216	12147.55
2417.16446	12112.45
2419.955	12111.95
2422.74378	12111.45
2425.5308	12088.65
2428.31606	12106.05
2431.09956	12087.75
2433.88131	12074.45
2436.6613	12085.85
2439.43954	12067.85
2442.21603	12081.65
2444.99077	12063.85
2447.76377	12065.75
2450.53501	12033.65
2453.30451	12039.05
2456.07226	12034.75
2458.83827	12045.95
2461.60254	12002.45
2464.36507	12021.95
2467.12586	12023.65
2469.88492	11996.75
2472.64224	12008.55
2475.39782	12002.05
2478.15167	12013.65
2480.90379	12032.55
2483.65417	12025.75
2486.40283	12005.75
2489.14976	12011.25
2491.89497	11996.15
2494.63845	12023.35
2497.3802	11996.85
2500.12024	11996.25
2502.85855	11979.85
2505.59514	11952.05
2508.33002	11944.85
2511.06318	11918.25
2513.79462	11917.45
2516.52435	11886.75
2519.25237	11879.95
2521.97867	11854.65
2524.70327	11855.35
2527.42616	11844.75
2530.14734	11842.35
2532.86681	11825.85
2535.58458	11832.25
2538.30065	11810.15
2541.01501	11802.25
2543.72768	11794.05
2546.43864	11776.55
2549.14791	11779.25
2551.85548	11778.75
2554.56136	11743.35
2557.26554	11710.55
2559.96803	11729.05
2562.66883	11695.95
2565.36794	11671.55
2568.06536	11649.55
2570.7611	11638.85
2573.45514	11630.35
2576.14751	11615.05
2578.83819	11607.35
2581.52719	11577.55
2584.21451	11561.15
2586.90015	11550.15
2589.58411	11545.85
2592.2664	11544.55
2594.94701	11531.45
2597.62594	11505.65
2600.30321	11463.85
2602.9788	11484.75
2605.65273	11500.25
2608.32498	11484.15
2610.99557	11492.05
2613.66449	11474.55
2616.33175	11457.15
2618.99734	11465.05
2621.66128	11436.35
2624.32355	11441.05
2626.98416	11416.65
2629.64311	11368.35
2632.30041	11392.55
2634.95605	11363.65
2637.61004	11348.95
2640.26238	11345.55
2642.91306	11338.15
2645.56209	11336.05
2648.20948	11355.45
2650.85521	11356.75
2653.4993	11354.75
2656.14175	11330.85
2658.78255	11339.75
2661.42171	11366.15
2664.05923	11393.45
2666.6951	11368.55
2669.32934	11392.05
2671.96194	11358.55
2674.59291	11379.75
2677.22224	11363.15
2679.84993	11380.05
2682.476	11366.75
2685.10043	11377.35
2687.72324	11373.55
2690.34441	11372.65
2692.96396	11374.05
2695.58188	11355.75
2698.19818	11351.95
2700.81285	11347.45
2703.4259	11350.35
2706.03733	11372.15
2708.64714	11343.45
2711.25533	11388.45
2713.86191	11387.05
2716.46687	11388.05
2719.07021	11403.75
2721.67194	11405.75
2724.27206	11386.85
2726.87057	11406.35
2729.46747	11409.55
2732.06276	11383.05
2734.65644	11406.75
2737.24852	11406.05
2739.83899	11357.25
2742.42786	11410.65
2745.01513	11364.45
2747.60079	11366.75
2750.18486	11338.55
2752.76733	11331.85
2755.3482	11326.45
2757.92747	11312.45
2760.50515	11253.85
2763.08123	11285.85
2765.65573	11242.65
2768.22863	11254.95
2770.79994	11237.65
2773.36967	11261.15
2775.9378	11246.65
2778.50435	11234.75
2781.06932	11233.85
2783.6327	11216.55
2786.1945	11223.75
2788.75471	11218.85
2791.31335	11186.45
2793.87041	11170.45
2796.42589	11165.85
2798.97979	11135.05
2801.53212	11132.25
2804.08288	11130.65
2806.63206	11077.15
2809.17967	11079.15
2811.72571	11076.65
2814.27018	11029.05
2816.81308	10987.75
2819.35442	11008.45
2821.89419	10952.25
2824.43239	10945.95
2826.96904	10945.35
2829.50412	10947.65
2832.03763	10934.85
2834.56959	10945.95
2837.1	10907.25
2839.62884	10943.95
2842.15613	10944.35
2844.68186	10928.35
2847.20604	10938.75
2849.72867	10954.65
2852.24974	10922.85
2854.76927	10915.45
2857.28724	10862.95
2859.80367	10881.25
2862.31855	10871.25
2864.83189	10846.15
2867.34368	10818.95
2869.85393	10813.75
2872.36264	10813.05
2874.8698	10818.95
2877.37543	10802.25
2879.87952	10785.65
2882.38207	10799.45
2884.88308	10782.75
2887.38256	10787.95
2889.88051	10803.35
2892.37692	10795.15
2894.8718	10796.65
2897.36515	10801.75
2899.85698	10804.65
2902.34727	10811.95
2904.83604	10828.15
2907.32328	10849.15
2909.809	10853.35
2912.29319	10844.35
2914.77587	10825.05
2917.25702	10817.95
2919.73665	10824.15
2922.21476	10812.15
2924.69136	10813.35
2927.16644	10774.45
2929.64	10777.95
2932.11205	10774.45
2934.58258	10734.95
2937.05161	10749.25
2939.51912	10745.85
2941.98513	10734.05
2944.44962	10715.75
2946.91261	10694.95
2949.37409	10685.55
2951.83407	10667.55
2954.29254	10647.05
2956.74951	10648.35
2959.20498	10632.45
2961.65895	10622.05
2964.11142	10628.25
2966.56239	10625.25
2969.01186	10631.55
2971.45984	10597.95
2973.90632	10597.25
2976.35131	10560.35
2978.7948	10547.25
2981.23681	10535.35
2983.67732	10522.95
2986.11635	10474.75
2988.55388	10463.85
2990.98993	10426.75
2993.4245	10411.35
2995.85758	10377.65
2998.28917	10358.15
3000.71928	10319.05
3003.14791	10343.65
3005.57506	10303.85
3008.00073	10294.75
3010.42493	10131.65
3012.84764	10212.55
3015.26888	10197.15
3017.68865	10187.15
3020.10694	10175.55
3022.52376	10126.45
3024.9391	10137.05
3027.35298	10126.35
3029.76539	10121.95
3032.17632	10104.95
3034.5858	10094.45
3036.9938	10079.55
3039.40034	10072.25
3041.80542	10052.15
3044.20903	10046.65
3046.61118	10032.05
3049.01187	10015.65
3051.4111	10019.95
3053.80888	9983.15
3056.20519	9983.55
3058.60005	9934.15
3060.99345	9918.25
3063.3854	9919.15
3065.7759	9857.05
3068.16494	9834.55
3070.55254	9819.65
3072.93868	9788.25
3075.32338	9760.25
3077.70662	9744.85
3080.08842	9699.95
3082.46878	9686.35
3084.84769	9694.05
3087.22515	9667.95
3089.60118	9653.45
3091.97576	9665.95
3094.3489	9655.55
3096.72061	9652.55
3099.09087	9645.65
3101.4597	9642.85
3103.82709	9652.95
3106.19305	9619.95
3108.55757	9633.25
3110.92066	9586.35
3113.28232	9575.15
3115.64255	9564.65
3118.00134	9521.65
3120.35871	9523.35
3122.71466	9494.85
3125.06917	9489.55
3127.42226	9474.95
3129.77393	9459.65
3132.12417	9456.35
3134.47299	9424.05
3136.82039	9427.75
3139.16636	9457.45
3141.51092	9440.05
3143.85406	9436.05
3146.19579	9421.15
3148.53609	9407.05
3150.87499	9419.85
3153.21246	9427.55
3155.54853	9451.35
3157.88318	9419.25
3160.21642	9446.45
3162.54826	9426.25
3164.87868	9429.65
3167.2077	9438.05
3169.5353	9454.75
3171.86151	9426.15
3174.18631	9427.35
3176.5097	9401.25
3178.83169	9394.45
3181.15228	9398.65
3183.47147	9367.25
3185.78926	9352.15
3188.10565	9328.65
3190.42065	9322.05
3192.73424	9302.25
3195.04645	9307.65
3197.35725	9308.85
3199.66667	9322.85
3201.97469	9287.25
3204.28132	9293.75
3206.58656	9328.85
3208.8904	9305.45
3211.19287	9314.55
3213.49394	9299.05
3215.79363	9319.95
3218.09193	9329.15
3220.38884	9308.05
3222.68438	9296.65
3224.97853	9286.25
3227.2713	9294.55
3229.56269	9276.55
3231.8527	9273.15
3234.14133	9240.05
3236.42858	9236.75
3238.71446	9212.55
3240.99896	9217.75
3243.28209	9211.45
3245.56384	9188.05
3247.84423	9168.75
3250.12324	9138.35
3252.40088	9124.65
3254.67715	9126.65
3256.95205	9090.95
3259.22558	9104.85
3261.49775	9098.65
3263.76855	9080.65
3266.03799	9056.85
3268.30606	9055.85
3270.57277	9034.25
3272.83812	9018.25
3275.10211	9015.15
3277.36474	8997.75
3279.62601	8992.15
3281.88593	8951.75
3284.14448	8971.45
3286.40168	8982.55
3288.65753	8974.15
3290.91202	8969.25
3293.16516	8933.15
3295.41695	8933.75
3297.66738	8899.65
3299.91647	8825.45
3302.16421	8770.25
3304.4106	8694.95
3306.65564	8661.45
3308.89933	8607.15
3311.14169	8519.25
3313.38269	8456.75
3315.62236	8396.75
3317.86068	8344.65
3320.09766	8274.05
3322.3333	8202.95
3324.5676	8142.75
3326.80056	8036.85
3329.03219	7995.05
3331.26248	2.95
3333.49143	-0.25
3335.71905	-0.55
