Data from AgNP_FTO_APTES_UA_10uM_CRN_1000uM_R6G_10uM_NaF_0.1M_Addition_RamanShift__31__19-57-21-018.txt Node

Date: Thu Feb 10 19:57:21 GMT 2022
User: TCL
Spectrometer: QEP01345
Trigger mode: 4
Integration Time (sec): 7.000000E0
Scans to average: 10
Electric dark correction enabled: true
Nonlinearity correction enabled: false
Boxcar width: 0
XAxis mode: Raman Shifts
Number of Pixels in Spectrum: 1044
>>>>>Begin Spectral Data<<<<<
46.04893	0.65
50.45542	-0.65
54.85868	-2.15
59.25871	-0.65
63.6555	40.55
68.04907	43.15
72.43941	46.95
76.82654	46.25
81.21044	49.35
85.59113	50.55
89.96862	53.75
94.34289	58.35
98.71396	58.85
103.08183	61.15
107.4465	62.15
111.80798	58.75
116.16626	63.95
120.52136	65.15
124.87327	67.85
129.222	67.15
133.56755	73.85
137.90993	75.15
142.24913	80.85
146.58517	89.25
150.91804	102.75
155.24774	121.25
159.57429	148.25
163.89768	186.75
168.21792	246.05
172.53501	326.95
176.84895	457.25
181.15975	638.95
185.46741	885.15
189.77193	1228.75
194.07331	1638.15
198.37157	2117.95
202.6667	2607.15
206.9587	3099.55
211.24758	3598.15
215.53334	4129.45
219.81599	4715.35
224.09553	5384.85
228.37195	6129.85
232.64527	6938.55
236.91549	7763.75
241.18261	8467.15
245.44663	9055.75
249.70755	9488.65
253.96539	9852.95
258.22014	10154.55
262.4718	10441.35
266.72039	10693.15
270.96589	10848.85
275.20832	10817.25
279.44768	10740.55
283.68397	10558.15
287.91719	10431.55
292.14735	10492.45
296.37445	10754.15
300.59849	11234.55
304.81948	11881.05
309.03742	12309.15
313.25231	12294.35
317.46415	11656.95
321.67296	10605.05
325.87872	9760.85
330.08145	9341.05
334.28114	9297.55
338.47781	9491.25
342.67145	9815.85
346.86207	10321.35
351.04966	11070.75
355.23424	11897.85
359.4158	12512.05
363.59435	12781.95
367.76989	12814.45
371.94243	12789.95
376.11196	12729.55
380.27849	12641.05
384.44203	12441.25
388.60257	12220.15
392.76012	12051.35
396.91468	12134.45
401.06626	12477.55
405.21485	12771.05
409.36047	12471.35
413.50311	11682.65
417.64277	10955.15
421.77947	10541.15
425.9132	10348.35
430.04396	10345.65
434.17176	10377.05
438.2966	10535.35
442.41849	10809.45
446.53742	11124.95
450.6534	11487.85
454.76644	11646.95
458.87653	11671.35
462.98368	11543.85
467.08789	11330.65
471.18916	11090.35
475.2875	10817.75
479.38291	10568.95
483.4754	10341.25
487.56496	10171.15
491.6516	10039.65
495.73531	9997.65
499.81612	10061.15
503.89401	10215.35
507.96899	10393.95
512.04106	10597.15
516.11023	10868.55
520.1765	11056.35
524.23987	11031.85
528.30034	10760.45
532.35792	10500.85
536.41261	10216.65
540.46441	9932.35
544.51333	9822.45
548.55936	9842.35
552.60252	10101.05
556.64279	10419.75
560.6802	10642.05
564.71473	10843.55
568.7464	11414.25
572.7752	11834.35
576.80114	11370.35
580.82422	10674.15
584.84444	10329.15
588.86181	10264.35
592.87633	10337.15
596.888	10464.25
600.89682	10796.85
604.9028	12207.15
608.90594	16265.95
612.90624	22183.35
616.90371	21769.15
620.89834	14442.55
624.89015	10867.45
628.87913	10145.55
632.86528	10194.85
636.84862	10431.15
640.82913	10335.85
644.80683	9860.55
648.78172	9544.75
652.75379	9582.65
656.72306	10078.05
660.68952	10711.25
664.65319	10612.35
668.61405	9942.25
672.57211	9653.45
676.52738	9638.85
680.47986	9668.25
684.42955	9594.55
688.37646	9524.05
692.32058	9551.35
696.26192	9643.35
700.20048	9778.05
704.13626	9873.15
708.06928	9826.95
711.99952	9733.75
715.927	9653.85
719.85171	9679.05
723.77365	9698.05
727.69284	9589.95
731.60928	9482.55
735.52295	9439.75
739.43388	9462.75
743.34206	9513.55
747.24749	9532.75
751.15017	9585.65
755.05012	9807.25
758.94733	10310.05
762.8418	11564.85
766.73354	13813.95
770.62254	16379.25
774.50882	17866.25
778.39237	17215.95
782.27321	14626.45
786.15132	12029.55
790.02671	10533.25
793.89938	9874.75
797.76935	9613.25
801.6366	9497.55
805.50115	9472.85
809.36299	9454.55
813.22213	9353.55
817.07857	9321.75
820.93231	9295.35
824.78336	9318.55
828.63172	9398.15
832.47738	9398.55
836.32036	9367.85
840.16066	9298.35
843.99827	9221.15
847.8332	9197.35
851.66546	9191.05
855.49504	9196.65
859.32195	9183.95
863.1462	9141.85
866.96777	9108.05
870.78668	9083.85
874.60293	9130.75
878.41652	9146.75
882.22745	9186.15
886.03573	9257.05
889.84136	9244.85
893.64433	9159.55
897.44466	9134.15
901.24235	9128.55
905.0374	9087.25
908.8298	9047.15
912.61957	9040.25
916.40671	9068.35
920.19121	9123.05
923.97308	9164.45
927.75233	9287.35
931.52895	9439.85
935.30295	9343.55
939.07433	9059.85
942.84309	8747.75
946.60924	8582.65
950.37278	8496.05
954.13371	8458.85
957.89203	8413.45
961.64774	8407.95
965.40086	8391.65
969.15137	8346.45
972.89929	8323.75
976.64461	8297.05
980.38733	8286.55
984.12747	8317.75
987.86502	8332.85
991.59999	8393.25
995.33237	8443.95
999.06217	8562.45
1002.78939	8782.25
1006.51404	8956.35
1010.23611	9168.75
1013.95561	9310.15
1017.67255	9267.35
1021.38692	9127.45
1025.09872	8979.95
1028.80796	8868.25
1032.51465	8833.65
1036.21877	8896.25
1039.92035	9011.55
1043.61937	9069.65
1047.31584	9090.05
1051.00976	9096.25
1054.70114	9101.45
1058.38998	9080.25
1062.07627	9113.35
1065.76003	9122.15
1069.44126	9148.65
1073.11995	9251.15
1076.79611	9377.35
1080.46974	9590.75
1084.14085	9889.35
1087.80943	10256.85
1091.47549	10385.45
1095.13903	10192.95
1098.80005	9792.75
1102.45857	9467.35
1106.11456	9352.15
1109.76805	9444.25
1113.41903	9702.65
1117.06751	10113.45
1120.71348	10626.15
1124.35696	11209.85
1127.99793	11656.15
1131.63641	11586.15
1135.2724	10962.25
1138.90589	10255.25
1142.5369	9893.65
1146.16542	9664.15
1149.79145	9541.35
1153.415	9518.75
1157.03607	9575.65
1160.65467	9790.95
1164.27079	10196.75
1167.88443	10756.95
1171.49561	11794.55
1175.10432	13510.65
1178.71056	15807.55
1182.31434	17276.95
1185.91565	17420.75
1189.51451	16730.75
1193.11091	15531.15
1196.70485	14217.45
1200.29634	13285.85
1203.88538	12616.65
1207.47197	11792.75
1211.05612	10998.65
1214.63782	10613.45
1218.21708	10469.75
1221.79391	10437.25
1225.36829	10454.05
1228.94024	10430.95
1232.50976	10399.95
1236.07685	10434.75
1239.6415	10493.25
1243.20374	10599.85
1246.76355	10683.75
1250.32093	10782.45
1253.8759	11055.45
1257.42845	11363.55
1260.97859	11726.25
1264.52631	12121.35
1268.07163	12488.05
1271.61453	12855.65
1275.15503	13043.55
1278.69312	13029.55
1282.22882	12968.65
1285.76211	13202.45
1289.29301	13636.75
1292.82151	14140.95
1296.34761	14688.15
1299.87133	15465.35
1303.39266	16866.25
1306.9116	19090.45
1310.42815	21661.35
1313.94233	23295.35
1317.45412	22784.25
1320.96354	20975.55
1324.47058	18881.75
1327.97525	17055.85
1331.47754	15957.05
1334.97747	15522.95
1338.47502	15651.45
1341.97022	16120.15
1345.46305	16901.85
1348.95352	18202.75
1352.44163	19934.25
1355.92738	22393.25
1359.41078	26134.35
1362.89183	29713.15
1366.37053	28798.65
1369.84688	23943.65
1373.32088	19170.95
1376.79254	16124.65
1380.26186	14622.65
1383.72883	13894.65
1387.19347	13379.35
1390.65578	12847.45
1394.11575	12342.25
1397.57339	12090.75
1401.0287	12087.95
1404.48168	12191.05
1407.93234	12312.25
1411.38068	12409.75
1414.82669	12407.75
1418.27039	12230.85
1421.71177	12017.35
1425.15083	11699.25
1428.58758	11543.55
1432.02203	11573.95
1435.45416	11697.05
1438.88399	11781.65
1442.31151	11762.75
1445.73673	11805.75
1449.15965	11894.45
1452.58027	11894.75
1455.9986	11808.45
1459.41463	11770.15
1462.82837	11906.45
1466.23982	12166.65
1469.64898	12477.65
1473.05586	12691.25
1476.46045	12814.45
1479.86276	13031.85
1483.26279	13374.55
1486.66054	13741.65
1490.05602	14261.65
1493.44922	14938.05
1496.84016	16050.85
1500.22882	17865.05
1503.61521	20365.85
1506.99934	23245.75
1510.38121	26161.45
1513.76081	27660.95
1517.13816	26408.55
1520.51324	22802.75
1523.88607	19035.25
1527.25665	16469.75
1530.62498	15115.75
1533.99105	14295.15
1537.35488	13831.45
1540.71647	13530.55
1544.07581	13398.55
1547.4329	13358.45
1550.78776	13325.75
1554.14038	13333.15
1557.49077	13497.35
1560.83892	13781.05
1564.18484	14215.45
1567.52853	14767.45
1570.86999	15211.05
1574.20922	15486.05
1577.54624	15350.25
1580.88103	14493.95
1584.2136	13320.65
1587.54395	12623.05
1590.87208	12616.05
1594.19801	13239.35
1597.52172	14222.75
1600.84321	14764.75
1604.16251	14338.35
1607.47959	13497.05
1610.79447	12467.15
1614.10715	11449.95
1617.41763	10628.05
1620.7259	10084.75
1624.03199	9828.45
1627.33587	9801.15
1630.63757	9966.95
1633.93707	10384.15
1637.23439	11108.25
1640.52951	12253.55
1643.82246	13938.15
1647.11321	16132.55
1650.40179	18009.05
1653.68819	17857.35
1656.97241	15487.55
1660.25446	12628.75
1663.53433	10657.15
1666.81203	9499.95
1670.08756	8839.15
1673.36092	8446.65
1676.63211	8177.05
1679.90115	8022.55
1683.16801	7902.65
1686.43272	7788.85
1689.69527	7723.15
1692.95567	7680.85
1696.2139	7678.95
1699.46999	7670.55
1702.72392	7615.95
1705.97571	7586.35
1709.22535	7555.65
1712.47284	7557.55
1715.71819	7549.25
1718.96139	7550.25
1722.20246	7549.05
1725.44139	7493.65
1728.67818	7457.45
1731.91284	7384.25
1735.14537	7306.95
1738.37576	7275.25
1741.60403	7231.25
1744.83017	7207.65
1748.05418	7174.65
1751.27607	7152.45
1754.49584	7134.45
1757.71349	7159.45
1760.92903	7136.35
1764.14244	7122.95
1767.35375	7102.65
1770.56294	7074.05
1773.77002	7072.15
1776.97499	7024.25
1780.17785	6979.55
1783.37861	6977.95
1786.57727	6936.95
1789.77382	6925.75
1792.96828	6906.15
1796.16064	6890.85
1799.3509	6879.85
1802.53907	6863.55
1805.72514	6841.85
1808.90913	6815.75
1812.09102	6806.25
1815.27083	6764.75
1818.44856	6753.55
1821.6242	6744.55
1824.79776	6723.85
1827.96924	6710.85
1831.13864	6690.45
1834.30597	6676.85
1837.47122	6678.75
1840.6344	6661.85
1843.7955	6650.65
1846.95454	6646.35
1850.11151	6658.75
1853.26642	6629.15
1856.41926	6624.25
1859.57004	6620.25
1862.71876	6623.25
1865.86542	6621.05
1869.01003	6620.65
1872.15258	6625.85
1875.29308	6612.85
1878.43152	6579.35
1881.56792	6600.35
1884.70227	6602.65
1887.83457	6581.05
1890.96482	6578.85
1894.09304	6565.15
1897.21921	6554.05
1900.34335	6546.05
1903.46544	6575.05
1906.58551	6570.75
1909.70353	6546.35
1912.81953	6548.05
1915.93349	6555.05
1919.04543	6523.35
1922.15534	6528.65
1925.26322	6481.75
1928.36908	6470.25
1931.47292	6459.75
1934.57473	6456.25
1937.67453	6415.95
1940.77232	6407.15
1943.86808	6377.55
1946.96184	6362.05
1950.05358	6318.05
1953.14331	6314.75
1956.23103	6285.55
1959.31675	6274.75
1962.40046	6241.25
1965.48217	6236.15
1968.56188	6216.25
1971.63959	6179.45
1974.7153	6178.15
1977.78901	6148.85
1980.86073	6146.15
1983.93046	6123.35
1986.99819	6092.25
1990.06394	6075.85
1993.1277	6057.75
1996.18947	6019.45
1999.24925	6006.85
2002.30706	5974.95
2005.36288	5966.15
2008.41672	5962.75
2011.46859	5918.35
2014.51848	5936.15
2017.56639	5884.85
2020.61233	5884.65
2023.6563	5864.05
2026.6983	5845.55
2029.73833	5829.35
2032.7764	5795.85
2035.8125	5795.15
2038.84664	5776.75
2041.87881	5752.55
2044.90903	5731.45
2047.93729	5718.95
2050.96359	5731.05
2053.98794	5720.55
2057.01034	5711.15
2060.03078	5685.05
2063.04927	5698.85
2066.06582	5679.85
2069.08042	5696.35
2072.09307	5688.35
2075.10378	5676.75
2078.11255	5664.15
2081.11938	5668.75
2084.12426	5673.65
2087.12722	5652.55
2090.12824	5653.35
2093.12732	5638.75
2096.12447	5638.45
2099.11969	5637.75
2102.11299	5619.45
2105.10435	5637.05
2108.09379	5634.75
2111.08131	5634.75
2114.0669	5627.45
2117.05057	5651.65
2120.03233	5648.35
2123.01216	5639.75
2125.99008	5663.95
2128.96609	5660.55
2131.94018	5680.25
2134.91236	5662.55
2137.88263	5662.15
2140.851	5670.25
2143.81746	5671.75
2146.78201	5648.75
2149.74466	5668.95
2152.7054	5646.15
2155.66425	5632.45
2158.6212	5624.15
2161.57625	5629.45
2164.52941	5620.15
2167.48067	5616.05
2170.43004	5611.85
2173.37752	5616.25
2176.32311	5627.05
2179.26681	5626.95
2182.20863	5593.05
2185.14856	5602.95
2188.08661	5603.75
2191.02278	5588.85
2193.95707	5586.95
2196.88948	5576.95
2199.82001	5575.35
2202.74867	5552.35
2205.67545	5531.95
2208.60037	5550.85
2211.52341	5541.45
2214.44458	5540.15
2217.36388	5520.25
2220.28132	5490.75
2223.1969	5466.45
2226.11061	5472.15
2229.02246	5441.25
2231.93245	5435.95
2234.84058	5438.15
2237.74686	5417.55
2240.65128	5406.05
2243.55385	5401.85
2246.45456	5387.35
2249.35343	5385.65
2252.25044	5375.15
2255.14561	5371.05
2258.03893	5373.45
2260.93041	5369.75
2263.82004	5364.25
2266.70783	5349.45
2269.59378	5331.55
2272.4779	5324.25
2275.36017	5288.65
2278.24061	5298.25
2281.11922	5288.35
2283.996	5252.15
2286.87094	5273.55
2289.74405	5265.05
2292.61534	5229.05
2295.4848	5227.25
2298.35243	5219.05
2301.21824	5207.35
2304.08223	5207.65
2306.94439	5196.55
2309.80474	5189.25
2312.66327	5200.45
2315.51999	5186.65
2318.37489	5184.65
2321.22797	5165.85
2324.07925	5174.05
2326.92871	5147.35
2329.77637	5144.55
2332.62222	5137.75
2335.46626	5116.05
2338.3085	5121.75
2341.14893	5111.45
2343.98756	5113.35
2346.8244	5112.35
2349.65943	5104.25
2352.49267	5120.05
2355.32411	5137.25
2358.15376	5136.65
2360.98161	5135.95
2363.80768	5154.65
2366.63195	5157.55
2369.45444	5154.55
2372.27514	5169.85
2375.09405	5147.25
2377.91118	5133.15
2380.72652	5113.75
2383.54009	5071.25
2386.35187	5044.65
2389.16188	5018.05
2391.97011	5003.75
2394.77657	4998.35
2397.58125	4969.05
2400.38416	4972.45
2403.18529	4959.65
2405.98466	4943.85
2408.78226	4914.85
2411.57809	4900.05
2414.37216	4918.05
2417.16446	4902.25
2419.955	4887.65
2422.74378	4891.05
2425.5308	4872.05
2428.31606	4884.05
2431.09956	4882.75
2433.88131	4867.65
2436.6613	4860.65
2439.43954	4880.35
2442.21603	4869.05
2444.99077	4858.05
2447.76377	4874.55
2450.53501	4875.95
2453.30451	4869.85
2456.07226	4859.65
2458.83827	4846.35
2461.60254	4859.75
2464.36507	4850.65
2467.12586	4838.15
2469.88492	4822.05
2472.64224	4820.05
2475.39782	4823.05
2478.15167	4844.95
2480.90379	4856.45
2483.65417	4864.65
2486.40283	4872.45
2489.14976	4887.05
2491.89497	4874.35
2494.63845	4878.25
2497.3802	4876.05
2500.12024	4865.95
2502.85855	4852.65
2505.59514	4840.35
2508.33002	4817.95
2511.06318	4806.65
2513.79462	4777.45
2516.52435	4742.85
2519.25237	4726.65
2521.97867	4715.55
2524.70327	4711.55
2527.42616	4678.15
2530.14734	4694.55
2532.86681	4678.25
2535.58458	4678.45
2538.30065	4691.15
2541.01501	4679.15
2543.72768	4666.55
2546.43864	4669.35
2549.14791	4660.15
2551.85548	4661.75
2554.56136	4657.15
2557.26554	4633.05
2559.96803	4624.45
2562.66883	4632.35
2565.36794	4615.25
2568.06536	4596.15
2570.7611	4588.15
2573.45514	4580.65
2576.14751	4573.75
2578.83819	4545.05
2581.52719	4572.25
2584.21451	4540.35
2586.90015	4534.05
2589.58411	4527.55
2592.2664	4511.85
2594.94701	4502.85
2597.62594	4498.35
2600.30321	4504.55
2602.9788	4494.05
2605.65273	4474.75
2608.32498	4479.95
2610.99557	4468.05
2613.66449	4477.15
2616.33175	4476.65
2618.99734	4473.05
2621.66128	4475.55
2624.32355	4442.25
2626.98416	4466.55
2629.64311	4447.95
2632.30041	4450.05
2634.95605	4420.75
2637.61004	4400.65
2640.26238	4400.95
2642.91306	4388.85
2645.56209	4386.65
2648.20948	4386.95
2650.85521	4391.55
2653.4993	4387.65
2656.14175	4389.25
2658.78255	4386.95
2661.42171	4402.65
2664.05923	4388.75
2666.6951	4397.15
2669.32934	4408.95
2671.96194	4408.75
2674.59291	4418.25
2677.22224	4402.15
2679.84993	4411.35
2682.476	4406.25
2685.10043	4398.15
2687.72324	4398.65
2690.34441	4393.65
2692.96396	4397.55
2695.58188	4400.15
2698.19818	4379.25
2700.81285	4398.45
2703.4259	4403.05
2706.03733	4410.95
2708.64714	4378.45
2711.25533	4408.95
2713.86191	4408.75
2716.46687	4419.95
2719.07021	4420.05
2721.67194	4419.05
2724.27206	4419.95
2726.87057	4417.55
2729.46747	4409.95
2732.06276	4400.45
2734.65644	4408.45
2737.24852	4370.15
2739.83899	4386.65
2742.42786	4374.05
2745.01513	4363.65
2747.60079	4348.35
2750.18486	4340.75
2752.76733	4342.65
2755.3482	4329.05
2757.92747	4338.35
2760.50515	4308.85
2763.08123	4310.55
2765.65573	4296.45
2768.22863	4307.25
2770.79994	4290.45
2773.36967	4282.65
2775.9378	4292.35
2778.50435	4262.55
2781.06932	4296.65
2783.6327	4268.65
2786.1945	4273.55
2788.75471	4283.15
2791.31335	4274.75
2793.87041	4276.35
2796.42589	4268.95
2798.97979	4271.65
2801.53212	4262.15
2804.08288	4243.85
2806.63206	4233.95
2809.17967	4252.05
2811.72571	4235.25
2814.27018	4248.05
2816.81308	4232.65
2819.35442	4259.45
2821.89419	4254.75
2824.43239	4250.65
2826.96904	4254.95
2829.50412	4252.75
2832.03763	4262.05
2834.56959	4265.45
2837.1	4269.35
2839.62884	4292.85
2842.15613	4328.15
2844.68186	4379.55
2847.20604	4435.35
2849.72867	4504.25
2852.24974	4506.65
2854.76927	4496.75
2857.28724	4488.05
2859.80367	4482.65
2862.31855	4454.15
2864.83189	4439.35
2867.34368	4420.65
2869.85393	4419.55
2872.36264	4417.95
2874.8698	4429.35
2877.37543	4415.95
2879.87952	4405.25
2882.38207	4410.85
2884.88308	4391.35
2887.38256	4383.45
2889.88051	4389.35
2892.37692	4374.95
2894.8718	4389.95
2897.36515	4377.75
2899.85698	4394.65
2902.34727	4401.35
2904.83604	4393.25
2907.32328	4386.35
2909.809	4386.05
2912.29319	4387.05
2914.77587	4378.25
2917.25702	4378.95
2919.73665	4376.85
2922.21476	4381.95
2924.69136	4375.05
2927.16644	4368.25
2929.64	4356.25
2932.11205	4342.85
2934.58258	4306.75
2937.05161	4304.75
2939.51912	4298.95
2941.98513	4277.05
2944.44962	4233.95
2946.91261	4191.55
2949.37409	4172.65
2951.83407	4161.75
2954.29254	4118.05
2956.74951	4124.45
2959.20498	4111.55
2961.65895	4084.25
2964.11142	4090.55
2966.56239	4076.85
2969.01186	4058.35
2971.45984	4041.55
2973.90632	4043.05
2976.35131	4033.45
2978.7948	4019.05
2981.23681	4003.15
2983.67732	3980.15
2986.11635	3986.15
2988.55388	3963.85
2990.98993	3949.15
2993.4245	3936.75
2995.85758	3915.85
2998.28917	3909.95
3000.71928	3903.55
3003.14791	3893.55
3005.57506	3895.85
3008.00073	3894.45
3010.42493	3898.75
3012.84764	3873.85
3015.26888	3877.65
3017.68865	3871.45
3020.10694	3862.85
3022.52376	3861.65
3024.9391	3856.45
3027.35298	3829.75
3029.76539	3827.25
3032.17632	3844.45
3034.5858	3836.05
3036.9938	3821.05
3039.40034	3841.45
3041.80542	3823.75
3044.20903	3816.35
3046.61118	3794.65
3049.01187	3798.25
3051.4111	3799.25
3053.80888	3773.65
3056.20519	3775.95
3058.60005	3792.45
3060.99345	3760.85
3063.3854	3751.65
3065.7759	3754.95
3068.16494	3741.85
3070.55254	3729.05
3072.93868	3729.35
3075.32338	3717.25
3077.70662	3710.75
3080.08842	3681.75
3082.46878	3684.35
3084.84769	3679.65
3087.22515	3662.95
3089.60118	3658.05
3091.97576	3664.05
3094.3489	3674.55
3096.72061	3661.35
3099.09087	3661.65
3101.4597	3669.85
3103.82709	3659.25
3106.19305	3658.75
3108.55757	3641.15
3110.92066	3632.35
3113.28232	3635.95
3115.64255	3626.65
3118.00134	3627.95
3120.35871	3626.95
3122.71466	3623.25
3125.06917	3617.35
3127.42226	3611.15
3129.77393	3617.85
3132.12417	3610.05
3134.47299	3626.75
3136.82039	3609.65
3139.16636	3618.55
3141.51092	3610.75
3143.85406	3643.35
3146.19579	3633.65
3148.53609	3618.85
3150.87499	3637.45
3153.21246	3661.95
3155.54853	3656.25
3157.88318	3637.85
3160.21642	3653.95
3162.54826	3654.95
3164.87868	3654.65
3167.2077	3650.95
3169.5353	3660.45
3171.86151	3666.05
3174.18631	3652.35
3176.5097	3657.65
3178.83169	3684.95
3181.15228	3651.55
3183.47147	3665.75
3185.78926	3671.25
3188.10565	3661.45
3190.42065	3665.95
3192.73424	3649.45
3195.04645	3662.95
3197.35725	3660.25
3199.66667	3670.35
3201.97469	3666.85
3204.28132	3673.85
3206.58656	3676.05
3208.8904	3672.05
3211.19287	3696.15
3213.49394	3673.35
3215.79363	3693.45
3218.09193	3689.55
3220.38884	3696.45
3222.68438	3697.25
3224.97853	3682.15
3227.2713	3687.85
3229.56269	3668.55
3231.8527	3677.95
3234.14133	3674.15
3236.42858	3668.55
3238.71446	3659.85
3240.99896	3659.65
3243.28209	3646.05
3245.56384	3633.45
3247.84423	3642.85
3250.12324	3634.75
3252.40088	3647.85
3254.67715	3632.05
3256.95205	3624.75
3259.22558	3624.85
3261.49775	3623.95
3263.76855	3620.95
3266.03799	3615.75
3268.30606	3604.15
3270.57277	3596.45
3272.83812	3589.15
3275.10211	3582.95
3277.36474	3588.75
3279.62601	3574.35
3281.88593	3566.25
3284.14448	3577.35
3286.40168	3571.85
3288.65753	3578.15
3290.91202	3582.55
3293.16516	3559.15
3295.41695	3547.75
3297.66738	3539.45
3299.91647	3521.45
3302.16421	3490.85
3304.4106	3481.25
3306.65564	3442.95
3308.89933	3425.95
3311.14169	3410.55
3313.38269	3366.95
3315.62236	3335.05
3317.86068	3333.65
3320.09766	3306.05
3322.3333	3277.65
3324.5676	3258.15
3326.80056	3206.15
3329.03219	3169.95
3331.26248	1.75
3333.49143	-0.25
3335.71905	-0.55
