Data from AgNP_FTO_APTES_UA_10uM_CRN_0uM_R6G_10uM_NaF_0.1M_Addition_RamanShift__4__12-13-00-437.txt Node

Date: Thu Feb 10 12:13:00 GMT 2022
User: TCL
Spectrometer: QEP01345
Trigger mode: 4
Integration Time (sec): 7.000000E0
Scans to average: 10
Electric dark correction enabled: true
Nonlinearity correction enabled: false
Boxcar width: 0
XAxis mode: Raman Shifts
Number of Pixels in Spectrum: 1044
>>>>>Begin Spectral Data<<<<<
46.04893	0.15
50.45542	-0.45
54.85868	-1.25
59.25871	-1.75
63.6555	56.05
68.04907	60.45
72.43941	62.85
76.82654	57.55
81.21044	68.75
85.59113	63.85
89.96862	71.25
94.34289	73.25
98.71396	71.55
103.08183	77.75
107.4465	82.15
111.80798	76.65
116.16626	83.85
120.52136	84.85
124.87327	92.05
129.222	93.35
133.56755	98.85
137.90993	104.95
142.24913	111.95
146.58517	129.75
150.91804	152.05
155.24774	179.55
159.57429	228.05
163.89768	288.35
168.21792	386.65
172.53501	533.25
176.84895	740.15
181.15975	1050.55
185.46741	1478.95
189.77193	2027.55
194.07331	2710.65
198.37157	3495.95
202.6667	4338.45
206.9587	5154.35
211.24758	5985.65
215.53334	6826.65
219.81599	7721.35
224.09553	8752.95
228.37195	9855.95
232.64527	11094.05
236.91549	12306.65
241.18261	13521.25
245.44663	14547.15
249.70755	15392.25
253.96539	16080.65
258.22014	16710.55
262.4718	17193.05
266.72039	17575.55
270.96589	17706.25
275.20832	17635.75
279.44768	17395.45
283.68397	17108.15
287.91719	16877.75
292.14735	16814.15
296.37445	16939.25
300.59849	17202.15
304.81948	17576.25
309.03742	17909.65
313.25231	17939.15
317.46415	17547.05
321.67296	16881.45
325.87872	16199.05
330.08145	15848.75
334.28114	15777.25
338.47781	15895.65
342.67145	16141.05
346.86207	16570.45
351.04966	17115.15
355.23424	17727.95
359.4158	18200.55
363.59435	18472.75
367.76989	18620.85
371.94243	18556.25
376.11196	18500.25
380.27849	18460.85
384.44203	18461.25
388.60257	18504.85
392.76012	18642.95
396.91468	18855.45
401.06626	19192.25
405.21485	19424.45
409.36047	19224.45
413.50311	18614.25
417.64277	18229.55
421.77947	18076.55
425.9132	18089.85
430.04396	18138.75
434.17176	18069.45
438.2966	18134.15
442.41849	18417.85
446.53742	18892.65
450.6534	19389.15
454.76644	19676.55
458.87653	19657.15
462.98368	19441.05
467.08789	19121.75
471.18916	18720.85
475.2875	18250.35
479.38291	17915.75
483.4754	17740.65
487.56496	17619.05
491.6516	17522.05
495.73531	17482.85
499.81612	17516.55
503.89401	17727.25
507.96899	17819.15
512.04106	17870.55
516.11023	17817.25
520.1765	17779.85
524.23987	17700.95
528.30034	17578.45
532.35792	17437.65
536.41261	17080.55
540.46441	16718.35
544.51333	16568.35
548.55936	16687.85
552.60252	17096.85
556.64279	17588.95
560.6802	17890.85
564.71473	18007.85
568.7464	18336.85
572.7752	18798.75
576.80114	19065.95
580.82422	19455.75
584.84444	20213.85
588.86181	21213.85
592.87633	22066.95
596.888	22060.95
600.89682	21212.55
604.9028	21372.45
608.90594	24452.75
612.90624	28605.35
616.90371	27257.35
620.89834	20947.55
624.89015	17837.55
628.87913	17294.15
632.86528	17433.95
636.84862	17510.75
640.82913	17271.75
644.80683	16633.45
648.78172	16224.85
652.75379	16193.55
656.72306	16549.45
660.68952	17064.75
664.65319	16891.05
668.61405	16294.55
672.57211	16090.05
676.52738	16177.65
680.47986	16164.25
684.42955	15956.05
688.37646	15832.35
692.32058	15900.85
696.26192	16199.65
700.20048	16535.55
704.13626	16675.75
708.06928	16622.85
711.99952	16468.35
715.927	16487.05
719.85171	16578.25
723.77365	16548.45
727.69284	16272.35
731.60928	15960.45
735.52295	15868.85
739.43388	15877.75
743.34206	15995.65
747.24749	16080.25
751.15017	16245.05
755.05012	16524.05
758.94733	17117.45
762.8418	18402.95
766.73354	20587.45
770.62254	22743.65
774.50882	23400.05
778.39237	22267.55
782.27321	20312.65
786.15132	18434.05
790.02671	17166.75
793.89938	16538.85
797.76935	16292.25
801.6366	16159.05
805.50115	16052.85
809.36299	15960.45
813.22213	15709.75
817.07857	15562.25
820.93231	15482.35
824.78336	15439.35
828.63172	15404.75
832.47738	15405.25
836.32036	15397.45
840.16066	15446.55
843.99827	15450.65
847.8332	15425.15
851.66546	15396.15
855.49504	15385.25
859.32195	15413.35
863.1462	15320.25
866.96777	15258.25
870.78668	15251.25
874.60293	15269.75
878.41652	15307.05
882.22745	15433.55
886.03573	15545.05
889.84136	15546.15
893.64433	15535.55
897.44466	15490.65
901.24235	15485.35
905.0374	15401.65
908.8298	15290.65
912.61957	15224.25
916.40671	15341.15
920.19121	15511.35
923.97308	15797.55
927.75233	16036.95
931.52895	16102.35
935.30295	15848.35
939.07433	15365.85
942.84309	15028.65
946.60924	14798.95
950.37278	14721.65
954.13371	14698.25
957.89203	14599.35
961.64774	14557.35
965.40086	14531.85
969.15137	14498.55
972.89929	14434.05
976.64461	14424.45
980.38733	14441.05
984.12747	14495.85
987.86502	14565.75
991.59999	14732.75
995.33237	15007.85
999.06217	15430.55
1002.78939	15970.95
1006.51404	16404.15
1010.23611	16703.45
1013.95561	16919.25
1017.67255	16954.35
1021.38692	16769.35
1025.09872	16453.45
1028.80796	16324.15
1032.51465	16655.35
1036.21877	17077.55
1039.92035	17230.05
1043.61937	17065.75
1047.31584	16772.15
1051.00976	16311.15
1054.70114	16089.85
1058.38998	16046.55
1062.07627	16059.85
1065.76003	16127.85
1069.44126	16233.85
1073.11995	16638.45
1076.79611	17049.05
1080.46974	17346.95
1084.14085	17662.95
1087.80943	18038.65
1091.47549	18199.75
1095.13903	18023.55
1098.80005	17538.55
1102.45857	17009.15
1106.11456	16636.55
1109.76805	16513.85
1113.41903	16596.95
1117.06751	16774.35
1120.71348	17102.35
1124.35696	17537.25
1127.99793	17968.55
1131.63641	18109.95
1135.2724	17789.15
1138.90589	17442.55
1142.5369	17188.95
1146.16542	17103.45
1149.79145	17004.95
1153.415	17032.25
1157.03607	17234.75
1160.65467	17768.65
1164.27079	18711.45
1167.88443	20017.65
1171.49561	21550.95
1175.10432	23714.45
1178.71056	26549.05
1182.31434	29181.15
1185.91565	30358.75
1189.51451	29941.65
1193.11091	28489.25
1196.70485	26603.65
1200.29634	24842.45
1203.88538	23523.95
1207.47197	22554.85
1211.05612	21740.45
1214.63782	21083.75
1218.21708	20643.25
1221.79391	20424.35
1225.36829	20431.05
1228.94024	20359.45
1232.50976	20030.75
1236.07685	19684.55
1239.6415	19421.55
1243.20374	19309.85
1246.76355	19362.45
1250.32093	19679.25
1253.8759	20164.75
1257.42845	20896.15
1260.97859	21807.55
1264.52631	22815.55
1268.07163	23803.15
1271.61453	24770.75
1275.15503	25610.25
1278.69312	26280.15
1282.22882	26826.95
1285.76211	27474.15
1289.29301	28381.65
1292.82151	29450.85
1296.34761	30788.95
1299.87133	32717.05
1303.39266	35245.75
1306.9116	38279.95
1310.42815	41235.45
1313.94233	42808.65
1317.45412	42116.25
1320.96354	40034.85
1324.47058	37907.95
1327.97525	36374.15
1331.47754	35312.05
1334.97747	34495.75
1338.47502	33831.35
1341.97022	33295.75
1345.46305	33178.95
1348.95352	33715.05
1352.44163	34924.25
1355.92738	37013.15
1359.41078	40342.55
1362.89183	43601.85
1366.37053	43459.65
1369.84688	38665.25
1373.32088	32611.55
1376.79254	28447.55
1380.26186	26671.15
1383.72883	25945.95
1387.19347	25316.85
1390.65578	24614.15
1394.11575	24228.25
1397.57339	24336.15
1401.0287	24641.45
1404.48168	25004.55
1407.93234	24987.65
1411.38068	24734.05
1414.82669	24218.35
1418.27039	23612.85
1421.71177	22957.95
1425.15083	22354.85
1428.58758	22151.75
1432.02203	22524.75
1435.45416	23210.75
1438.88399	23774.95
1442.31151	23960.15
1445.73673	24062.75
1449.15965	24104.75
1452.58027	23981.55
1455.9986	23803.75
1459.41463	23873.75
1462.82837	24357.05
1466.23982	24923.75
1469.64898	25491.55
1473.05586	25836.45
1476.46045	25870.75
1479.86276	25843.75
1483.26279	25892.65
1486.66054	26131.95
1490.05602	26665.45
1493.44922	27500.55
1496.84016	28571.25
1500.22882	30115.75
1503.61521	32265.75
1506.99934	34871.05
1510.38121	37172.15
1513.76081	37832.65
1517.13816	36155.15
1520.51324	32886.15
1523.88607	29949.55
1527.25665	28031.35
1530.62498	26987.55
1533.99105	26333.65
1537.35488	25676.25
1540.71647	24987.35
1544.07581	24356.15
1547.4329	23742.25
1550.78776	23326.35
1554.14038	23072.45
1557.49077	23021.75
1560.83892	23123.15
1564.18484	23380.65
1567.52853	23849.45
1570.86999	24287.25
1574.20922	24731.45
1577.54624	24878.35
1580.88103	24449.35
1584.2136	23950.25
1587.54395	24164.45
1590.87208	25369.05
1594.19801	27309.05
1597.52172	29307.25
1600.84321	29799.45
1604.16251	28338.65
1607.47959	25861.05
1610.79447	23334.45
1614.10715	21052.05
1617.41763	19262.45
1620.7259	18119.95
1624.03199	17637.05
1627.33587	17730.55
1630.63757	18440.95
1633.93707	19874.35
1637.23439	22261.25
1640.52951	25755.65
1643.82246	30147.85
1647.11321	33958.75
1650.40179	35210.25
1653.68819	32689.45
1656.97241	27498.35
1660.25446	22365.15
1663.53433	18855.05
1666.81203	16721.65
1670.08756	15508.95
1673.36092	14771.75
1676.63211	14344.25
1679.90115	14023.95
1683.16801	13774.65
1686.43272	13624.05
1689.69527	13455.55
1692.95567	13388.45
1696.2139	13311.15
1699.46999	13288.75
1702.72392	13242.95
1705.97571	13186.15
1709.22535	13176.05
1712.47284	13161.05
1715.71819	13179.55
1718.96139	13096.45
1722.20246	13050.45
1725.44139	12983.55
1728.67818	12874.15
1731.91284	12759.45
1735.14537	12700.35
1738.37576	12617.35
1741.60403	12571.75
1744.83017	12549.75
1748.05418	12456.45
1751.27607	12431.65
1754.49584	12391.95
1757.71349	12374.85
1760.92903	12373.15
1764.14244	12353.55
1767.35375	12353.25
1770.56294	12322.05
1773.77002	12305.95
1776.97499	12267.35
1780.17785	12215.55
1783.37861	12215.35
1786.57727	12173.85
1789.77382	12129.85
1792.96828	12135.25
1796.16064	12125.65
1799.3509	12092.05
1802.53907	12058.85
1805.72514	12031.25
1808.90913	11975.05
1812.09102	11966.85
1815.27083	11960.65
1818.44856	11965.55
1821.6242	11901.45
1824.79776	11941.45
1827.96924	11903.55
1831.13864	11923.15
1834.30597	11956.15
1837.47122	11944.55
1840.6344	11990.85
1843.7955	11967.95
1846.95454	11968.15
1850.11151	11981.85
1853.26642	11954.75
1856.41926	11981.55
1859.57004	11951.35
1862.71876	11929.45
1865.86542	11933.45
1869.01003	11903.55
1872.15258	11911.75
1875.29308	11888.65
1878.43152	11848.85
1881.56792	11844.25
1884.70227	11831.15
1887.83457	11810.65
1890.96482	11773.75
1894.09304	11751.35
1897.21921	11710.35
1900.34335	11690.25
1903.46544	11640.75
1906.58551	11631.85
1909.70353	11624.35
1912.81953	11601.65
1915.93349	11573.95
1919.04543	11531.05
1922.15534	11511.85
1925.26322	11442.45
1928.36908	11422.55
1931.47292	11398.95
1934.57473	11356.85
1937.67453	11326.25
1940.77232	11308.05
1943.86808	11260.25
1946.96184	11192.95
1950.05358	11152.15
1953.14331	11131.85
1956.23103	11104.65
1959.31675	11065.75
1962.40046	11060.05
1965.48217	11018.35
1968.56188	10977.45
1971.63959	10953.95
1974.7153	10937.55
1977.78901	10885.85
1980.86073	10830.55
1983.93046	10804.45
1986.99819	10782.35
1990.06394	10765.35
1993.1277	10743.95
1996.18947	10668.55
1999.24925	10685.15
2002.30706	10623.85
2005.36288	10608.65
2008.41672	10559.75
2011.46859	10532.05
2014.51848	10547.25
2017.56639	10499.35
2020.61233	10466.05
2023.6563	10446.55
2026.6983	10425.05
2029.73833	10400.55
2032.7764	10355.25
2035.8125	10349.55
2038.84664	10331.85
2041.87881	10305.55
2044.90903	10301.05
2047.93729	10302.55
2050.96359	10275.95
2053.98794	10235.75
2057.01034	10257.05
2060.03078	10242.55
2063.04927	10224.05
2066.06582	10214.55
2069.08042	10207.05
2072.09307	10222.55
2075.10378	10228.45
2078.11255	10192.65
2081.11938	10195.45
2084.12426	10173.85
2087.12722	10182.25
2090.12824	10170.95
2093.12732	10174.85
2096.12447	10170.55
2099.11969	10191.75
2102.11299	10194.55
2105.10435	10184.65
2108.09379	10174.65
2111.08131	10189.65
2114.0669	10199.65
2117.05057	10208.15
2120.03233	10194.75
2123.01216	10212.85
2125.99008	10218.55
2128.96609	10230.15
2131.94018	10220.05
2134.91236	10271.25
2137.88263	10235.35
2140.851	10260.65
2143.81746	10247.95
2146.78201	10240.45
2149.74466	10236.75
2152.7054	10209.35
2155.66425	10224.85
2158.6212	10216.35
2161.57625	10189.25
2164.52941	10190.05
2167.48067	10198.45
2170.43004	10197.65
2173.37752	10184.05
2176.32311	10176.85
2179.26681	10174.55
2182.20863	10182.25
2185.14856	10187.75
2188.08661	10182.55
2191.02278	10167.45
2193.95707	10187.35
2196.88948	10159.55
2199.82001	10161.45
2202.74867	10149.95
2205.67545	10161.55
2208.60037	10131.95
2211.52341	10130.15
2214.44458	10134.25
2217.36388	10121.45
2220.28132	10080.85
2223.1969	10039.95
2226.11061	10050.35
2229.02246	10033.15
2231.93245	10024.05
2234.84058	10003.95
2237.74686	9990.15
2240.65128	10002.35
2243.55385	9950.95
2246.45456	9919.45
2249.35343	9923.45
2252.25044	9903.05
2255.14561	9892.35
2258.03893	9883.95
2260.93041	9885.75
2263.82004	9847.95
2266.70783	9852.35
2269.59378	9792.45
2272.4779	9776.85
2275.36017	9755.25
2278.24061	9734.65
2281.11922	9738.75
2283.996	9716.35
2286.87094	9719.15
2289.74405	9695.75
2292.61534	9701.55
2295.4848	9699.95
2298.35243	9689.95
2301.21824	9691.55
2304.08223	9711.25
2306.94439	9680.65
2309.80474	9662.15
2312.66327	9700.25
2315.51999	9670.05
2318.37489	9664.35
2321.22797	9655.05
2324.07925	9658.85
2326.92871	9655.55
2329.77637	9650.55
2332.62222	9627.65
2335.46626	9647.45
2338.3085	9641.85
2341.14893	9646.75
2343.98756	9653.65
2346.8244	9652.85
2349.65943	9651.25
2352.49267	9652.45
2355.32411	9688.75
2358.15376	9650.85
2360.98161	9657.45
2363.80768	9656.15
2366.63195	9666.85
2369.45444	9604.75
2372.27514	9610.35
2375.09405	9593.05
2377.91118	9582.35
2380.72652	9553.55
2383.54009	9514.85
2386.35187	9508.55
2389.16188	9449.05
2391.97011	9442.45
2394.77657	9411.25
2397.58125	9376.75
2400.38416	9394.55
2403.18529	9388.75
2405.98466	9355.95
2408.78226	9347.15
2411.57809	9324.95
2414.37216	9310.75
2417.16446	9297.95
2419.955	9291.45
2422.74378	9290.05
2425.5308	9302.65
2428.31606	9285.25
2431.09956	9294.35
2433.88131	9279.15
2436.6613	9300.55
2439.43954	9298.55
2442.21603	9292.35
2444.99077	9296.85
2447.76377	9288.55
2450.53501	9276.65
2453.30451	9301.65
2456.07226	9267.45
2458.83827	9284.55
2461.60254	9316.55
2464.36507	9269.55
2467.12586	9281.45
2469.88492	9306.95
2472.64224	9290.45
2475.39782	9287.55
2478.15167	9325.95
2480.90379	9326.15
2483.65417	9336.45
2486.40283	9320.75
2489.14976	9337.85
2491.89497	9355.85
2494.63845	9335.25
2497.3802	9306.35
2500.12024	9323.55
2502.85855	9315.55
2505.59514	9303.55
2508.33002	9295.35
2511.06318	9274.45
2513.79462	9254.15
2516.52435	9208.75
2519.25237	9234.25
2521.97867	9187.15
2524.70327	9201.45
2527.42616	9196.15
2530.14734	9198.95
2532.86681	9189.65
2535.58458	9167.85
2538.30065	9180.75
2541.01501	9204.55
2543.72768	9188.45
2546.43864	9178.25
2549.14791	9195.65
2551.85548	9157.15
2554.56136	9157.95
2557.26554	9155.75
2559.96803	9159.75
2562.66883	9118.05
2565.36794	9108.05
2568.06536	9123.45
2570.7611	9100.15
2573.45514	9089.85
2576.14751	9078.95
2578.83819	9070.05
2581.52719	9089.35
2584.21451	9069.15
2586.90015	9079.95
2589.58411	9059.75
2592.2664	9052.35
2594.94701	9023.55
2597.62594	9031.75
2600.30321	9014.05
2602.9788	9038.05
2605.65273	9015.05
2608.32498	9015.45
2610.99557	9043.05
2613.66449	9030.25
2616.33175	9012.25
2618.99734	9007.85
2621.66128	9008.55
2624.32355	8993.85
2626.98416	8992.15
2629.64311	8997.35
2632.30041	8973.45
2634.95605	8958.15
2637.61004	8948.25
2640.26238	8928.55
2642.91306	8942.45
2645.56209	8926.55
2648.20948	8905.65
2650.85521	8913.05
2653.4993	8936.65
2656.14175	8929.65
2658.78255	8926.05
2661.42171	8940.85
2664.05923	8976.85
2666.6951	8977.45
2669.32934	8960.95
2671.96194	8975.65
2674.59291	8985.35
2677.22224	8980.45
2679.84993	8980.15
2682.476	8959.45
2685.10043	8990.65
2687.72324	8966.65
2690.34441	8906.85
2692.96396	8923.65
2695.58188	8925.75
2698.19818	8909.25
2700.81285	8916.75
2703.4259	8909.05
2706.03733	8896.95
2708.64714	8914.95
2711.25533	8909.05
2713.86191	8939.75
2716.46687	8985.15
2719.07021	8974.85
2721.67194	9000.85
2724.27206	9006.55
2726.87057	9002.65
2729.46747	8982.05
2732.06276	9002.45
2734.65644	9018.15
2737.24852	8998.95
2739.83899	8970.85
2742.42786	8994.65
2745.01513	8976.05
2747.60079	8940.25
2750.18486	8928.95
2752.76733	8956.75
2755.3482	8953.05
2757.92747	8949.95
2760.50515	8916.75
2763.08123	8934.65
2765.65573	8902.95
2768.22863	8911.25
2770.79994	8921.35
2773.36967	8888.85
2775.9378	8902.55
2778.50435	8888.65
2781.06932	8905.45
2783.6327	8887.25
2786.1945	8910.25
2788.75471	8881.65
2791.31335	8887.35
2793.87041	8877.65
2796.42589	8860.85
2798.97979	8857.35
2801.53212	8845.75
2804.08288	8847.35
2806.63206	8840.65
2809.17967	8819.75
2811.72571	8798.05
2814.27018	8787.75
2816.81308	8778.65
2819.35442	8773.25
2821.89419	8757.85
2824.43239	8781.25
2826.96904	8762.45
2829.50412	8770.15
2832.03763	8751.25
2834.56959	8753.85
2837.1	8711.75
2839.62884	8740.65
2842.15613	8726.65
2844.68186	8793.05
2847.20604	8768.65
2849.72867	8795.35
2852.24974	8791.35
2854.76927	8779.95
2857.28724	8759.85
2859.80367	8761.05
2862.31855	8761.75
2864.83189	8790.85
2867.34368	8786.35
2869.85393	8799.05
2872.36264	8788.05
2874.8698	8797.65
2877.37543	8776.15
2879.87952	8777.05
2882.38207	8793.45
2884.88308	8775.35
2887.38256	8783.95
2889.88051	8790.85
2892.37692	8804.15
2894.8718	8813.75
2897.36515	8821.55
2899.85698	8829.35
2902.34727	8830.05
2904.83604	8846.55
2907.32328	8873.05
2909.809	8868.75
2912.29319	8844.55
2914.77587	8850.75
2917.25702	8854.35
2919.73665	8864.75
2922.21476	8865.75
2924.69136	8835.35
2927.16644	8853.95
2929.64	8798.05
2932.11205	8769.05
2934.58258	8760.35
2937.05161	8772.75
2939.51912	8773.95
2941.98513	8777.85
2944.44962	8701.25
2946.91261	8696.05
2949.37409	8705.05
2951.83407	8693.35
2954.29254	8687.45
2956.74951	8709.25
2959.20498	8656.15
2961.65895	8654.15
2964.11142	8671.55
2966.56239	8637.25
2969.01186	8632.95
2971.45984	8594.65
2973.90632	8596.65
2976.35131	8578.55
2978.7948	8548.05
2981.23681	8538.65
2983.67732	8518.65
2986.11635	8482.75
2988.55388	8464.45
2990.98993	8467.35
2993.4245	8457.45
2995.85758	8433.75
2998.28917	8414.25
3000.71928	8402.95
3003.14791	8383.55
3005.57506	8384.85
3008.00073	8369.45
3010.42493	8383.15
3012.84764	8334.85
3015.26888	8322.75
3017.68865	8312.85
3020.10694	8285.65
3022.52376	8288.25
3024.9391	8298.15
3027.35298	8286.15
3029.76539	8242.05
3032.17632	8245.95
3034.5858	8263.45
3036.9938	8259.25
3039.40034	8253.85
3041.80542	8247.05
3044.20903	8227.15
3046.61118	8224.95
3049.01187	8191.35
3051.4111	8200.45
3053.80888	8158.45
3056.20519	8160.95
3058.60005	8147.75
3060.99345	8143.45
3063.3854	8124.25
3065.7759	8126.85
3068.16494	8098.35
3070.55254	8065.95
3072.93868	8052.45
3075.32338	8041.85
3077.70662	8037.65
3080.08842	8012.05
3082.46878	8008.75
3084.84769	7997.55
3087.22515	7992.25
3089.60118	8002.65
3091.97576	7990.35
3094.3489	7988.75
3096.72061	7988.05
3099.09087	7984.45
3101.4597	7976.05
3103.82709	7969.75
3106.19305	7967.75
3108.55757	7966.15
3110.92066	7977.75
3113.28232	7939.75
3115.64255	7941.85
3118.00134	7932.65
3120.35871	7904.85
3122.71466	7908.55
3125.06917	7883.55
3127.42226	7887.55
3129.77393	7879.55
3132.12417	7874.65
3134.47299	7869.25
3136.82039	7886.75
3139.16636	7886.55
3141.51092	7883.75
3143.85406	7877.15
3146.19579	7862.85
3148.53609	7854.85
3150.87499	7865.55
3153.21246	7898.75
3155.54853	7907.25
3157.88318	7883.15
3160.21642	7905.45
3162.54826	7899.45
3164.87868	7912.35
3167.2077	7915.95
3169.5353	7939.05
3171.86151	7926.35
3174.18631	7913.15
3176.5097	7925.55
3178.83169	7917.85
3181.15228	7922.25
3183.47147	7878.85
3185.78926	7901.15
3188.10565	7883.35
3190.42065	7882.05
3192.73424	7880.75
3195.04645	7894.75
3197.35725	7866.95
3199.66667	7863.35
3201.97469	7875.45
3204.28132	7864.65
3206.58656	7892.55
3208.8904	7901.05
3211.19287	7901.15
3213.49394	7910.95
3215.79363	7917.35
3218.09193	7937.25
3220.38884	7900.85
3222.68438	7908.25
3224.97853	7908.25
3227.2713	7918.05
3229.56269	7894.35
3231.8527	7922.35
3234.14133	7875.25
3236.42858	7877.15
3238.71446	7863.65
3240.99896	7866.35
3243.28209	7853.95
3245.56384	7841.35
3247.84423	7856.45
3250.12324	7832.95
3252.40088	7840.85
3254.67715	7822.15
3256.95205	7796.35
3259.22558	7808.75
3261.49775	7794.55
3263.76855	7796.25
3266.03799	7787.75
3268.30606	7778.25
3270.57277	7754.35
3272.83812	7739.65
3275.10211	7738.05
3277.36474	7712.65
3279.62601	7723.45
3281.88593	7706.25
3284.14448	7712.65
3286.40168	7726.85
3288.65753	7721.95
3290.91202	7735.95
3293.16516	7707.85
3295.41695	7688.55
3297.66738	7656.95
3299.91647	7618.75
3302.16421	7555.75
3304.4106	7512.75
3306.65564	7483.75
3308.89933	7435.55
3311.14169	7403.95
3313.38269	7316.35
3315.62236	7265.35
3317.86068	7226.55
3320.09766	7180.95
3322.3333	7116.55
3324.5676	7098.55
3326.80056	6959.65
3329.03219	6917.45
3331.26248	3.55
3333.49143	-0.15
3335.71905	-0.05
