Data from AgNP_FTO_APTES_UA_10uM_CRN_10uM_R6G_10uM_NaF_0.1M_Addition_RamanShift__23__15-51-10-715.txt Node

Date: Thu Feb 10 15:51:10 GMT 2022
User: TCL
Spectrometer: QEP01345
Trigger mode: 4
Integration Time (sec): 7.000000E0
Scans to average: 10
Electric dark correction enabled: true
Nonlinearity correction enabled: false
Boxcar width: 0
XAxis mode: Raman Shifts
Number of Pixels in Spectrum: 1044
>>>>>Begin Spectral Data<<<<<
46.04893	0.05
50.45542	-0.15
54.85868	-2.05
59.25871	-1.95
63.6555	75.45
68.04907	74.85
72.43941	79.95
76.82654	80.05
81.21044	85.45
85.59113	87.75
89.96862	91.85
94.34289	92.65
98.71396	97.75
103.08183	96.85
107.4465	105.65
111.80798	104.55
116.16626	109.35
120.52136	112.85
124.87327	117.65
129.222	124.65
133.56755	132.85
137.90993	141.15
142.24913	154.25
146.58517	175.45
150.91804	200.75
155.24774	239.55
159.57429	301.45
163.89768	386.05
168.21792	506.25
172.53501	694.45
176.84895	968.65
181.15975	1363.55
185.46741	1896.85
189.77193	2626.55
194.07331	3499.45
198.37157	4509.25
202.6667	5573.95
206.9587	6608.55
211.24758	7650.05
215.53334	8696.05
219.81599	9777.05
224.09553	11001.95
228.37195	12333.55
232.64527	13862.25
236.91549	15411.55
241.18261	16976.35
245.44663	18356.75
249.70755	19679.85
253.96539	20827.75
258.22014	21786.15
262.4718	22650.05
266.72039	23298.65
270.96589	23623.05
275.20832	23824.35
279.44768	23777.65
283.68397	23729.85
287.91719	23600.65
292.14735	23541.55
296.37445	23632.35
300.59849	23717.45
304.81948	23816.25
309.03742	23709.95
313.25231	23343.75
317.46415	22703.85
321.67296	21888.55
325.87872	21259.25
330.08145	20998.35
334.28114	20988.65
338.47781	21167.25
342.67145	21483.35
346.86207	21913.95
351.04966	22429.35
355.23424	23011.65
359.4158	23468.65
363.59435	23741.85
367.76989	23909.95
371.94243	24074.25
376.11196	24158.75
380.27849	24247.05
384.44203	24301.35
388.60257	24448.55
392.76012	24571.75
396.91468	24902.55
401.06626	25302.05
405.21485	25599.65
409.36047	25458.85
413.50311	24990.85
417.64277	24597.35
421.77947	24519.15
425.9132	24620.95
430.04396	24844.15
434.17176	25013.85
438.2966	25270.75
442.41849	25720.65
446.53742	26384.45
450.6534	27174.75
454.76644	27798.95
458.87653	28083.65
462.98368	27974.15
467.08789	27673.45
471.18916	27288.05
475.2875	26902.55
479.38291	26667.35
483.4754	26444.25
487.56496	26078.05
491.6516	25572.95
495.73531	25182.15
499.81612	25003.95
503.89401	25107.85
507.96899	25183.55
512.04106	25122.55
516.11023	25009.35
520.1765	24810.95
524.23987	24620.15
528.30034	24338.85
532.35792	24105.65
536.41261	23813.45
540.46441	23579.15
544.51333	23659.55
548.55936	23967.25
552.60252	24551.55
556.64279	25156.75
560.6802	25513.45
564.71473	25762.25
568.7464	26200.85
572.7752	26742.95
576.80114	27037.25
580.82422	27201.25
584.84444	27322.45
588.86181	27495.25
592.87633	27779.15
596.888	28104.95
600.89682	28304.05
604.9028	29445.25
608.90594	32403.05
612.90624	35524.55
616.90371	33189.85
620.89834	27390.65
624.89015	25040.05
628.87913	24740.45
632.86528	24790.75
636.84862	24632.15
640.82913	24167.95
644.80683	23475.75
648.78172	22960.35
652.75379	22871.85
656.72306	23214.25
660.68952	23713.65
664.65319	23598.35
668.61405	23190.35
672.57211	23006.85
676.52738	23026.25
680.47986	22995.85
684.42955	22918.25
688.37646	22889.45
692.32058	23015.95
696.26192	23265.25
700.20048	23560.55
704.13626	23686.75
708.06928	23615.85
711.99952	23399.15
715.927	23307.75
719.85171	23332.65
723.77365	23221.25
727.69284	23052.45
731.60928	22824.55
735.52295	22720.85
739.43388	22753.75
743.34206	22836.35
747.24749	23023.05
751.15017	23247.45
755.05012	23658.25
758.94733	24491.65
762.8418	25878.65
766.73354	28083.75
770.62254	30116.95
774.50882	30541.65
778.39237	28956.15
782.27321	26496.25
786.15132	24648.35
790.02671	23529.55
793.89938	23007.95
797.76935	22800.65
801.6366	22714.25
805.50115	22659.75
809.36299	22502.75
813.22213	22350.65
817.07857	22316.15
820.93231	22266.35
824.78336	22216.15
828.63172	22203.55
832.47738	22228.45
836.32036	22242.95
840.16066	22277.95
843.99827	22379.45
847.8332	22301.05
851.66546	22195.55
855.49504	22152.85
859.32195	22107.85
863.1462	21990.85
866.96777	21869.95
870.78668	21812.35
874.60293	21800.45
878.41652	21825.95
882.22745	21886.85
886.03573	21931.95
889.84136	21922.65
893.64433	21789.95
897.44466	21740.55
901.24235	21625.75
905.0374	21597.75
908.8298	21626.75
912.61957	21663.55
916.40671	21896.55
920.19121	22194.85
923.97308	22472.25
927.75233	22527.55
931.52895	22414.45
935.30295	22136.05
939.07433	21707.75
942.84309	21363.75
946.60924	21242.25
950.37278	21170.75
954.13371	21090.25
957.89203	20963.95
961.64774	20899.55
965.40086	20839.05
969.15137	20795.05
972.89929	20657.15
976.64461	20618.65
980.38733	20586.35
984.12747	20723.55
987.86502	20926.05
991.59999	21223.75
995.33237	21724.75
999.06217	22508.85
1002.78939	23389.05
1006.51404	23917.35
1010.23611	24180.25
1013.95561	24385.95
1017.67255	24315.85
1021.38692	24022.05
1025.09872	23818.75
1028.80796	24097.25
1032.51465	24888.35
1036.21877	25631.45
1039.92035	25755.45
1043.61937	25309.75
1047.31584	24555.95
1051.00976	23760.65
1054.70114	23375.25
1058.38998	23294.55
1062.07627	23422.85
1065.76003	23523.95
1069.44126	23640.15
1073.11995	23828.45
1076.79611	24045.65
1080.46974	24222.25
1084.14085	24476.45
1087.80943	24792.65
1091.47549	24969.75
1095.13903	24880.35
1098.80005	24453.85
1102.45857	23993.65
1106.11456	23652.25
1109.76805	23576.65
1113.41903	23779.05
1117.06751	24040.55
1120.71348	24367.85
1124.35696	24631.15
1127.99793	24968.55
1131.63641	25031.55
1135.2724	24858.35
1138.90589	24636.65
1142.5369	24458.65
1146.16542	24420.55
1149.79145	24515.95
1153.415	24712.25
1157.03607	25146.35
1160.65467	25827.25
1164.27079	26842.15
1167.88443	28273.85
1171.49561	30158.35
1175.10432	32688.85
1178.71056	35906.85
1182.31434	38707.75
1185.91565	40338.05
1189.51451	40489.65
1193.11091	39249.95
1196.70485	37312.15
1200.29634	35493.35
1203.88538	34053.05
1207.47197	32858.15
1211.05612	31933.15
1214.63782	31248.25
1218.21708	30906.35
1221.79391	30820.15
1225.36829	30726.35
1228.94024	30440.75
1232.50976	29927.55
1236.07685	29602.55
1239.6415	29414.55
1243.20374	29332.85
1246.76355	29461.25
1250.32093	29926.65
1253.8759	30702.05
1257.42845	31666.85
1260.97859	32552.65
1264.52631	33394.75
1268.07163	34278.35
1271.61453	35286.65
1275.15503	36394.85
1278.69312	37494.35
1282.22882	38467.15
1285.76211	39243.15
1289.29301	40113.85
1292.82151	41328.95
1296.34761	42971.05
1299.87133	45197.15
1303.39266	48080.65
1306.9116	51413.25
1310.42815	54692.95
1313.94233	56955.85
1317.45412	57274.15
1320.96354	56258.35
1324.47058	54967.45
1327.97525	53723.35
1331.47754	52889.85
1334.97747	52716.35
1338.47502	53067.55
1341.97022	53411.65
1345.46305	53080.35
1348.95352	52128.25
1352.44163	51172.65
1355.92738	51358.35
1359.41078	53266.05
1362.89183	55112.95
1366.37053	53672.25
1369.84688	48879.75
1373.32088	43779.85
1376.79254	40456.05
1380.26186	39080.25
1383.72883	38769.75
1387.19347	38661.45
1390.65578	38439.45
1394.11575	38494.75
1397.57339	39158.85
1401.0287	40065.45
1404.48168	41010.15
1407.93234	41669.65
1411.38068	41622.15
1414.82669	40643.35
1418.27039	38993.55
1421.71177	37129.95
1425.15083	35590.65
1428.58758	34639.55
1432.02203	34563.75
1435.45416	35058.25
1438.88399	35794.35
1442.31151	36570.95
1445.73673	37190.45
1449.15965	37868.25
1452.58027	38293.55
1455.9986	38631.55
1459.41463	38934.25
1462.82837	39605.45
1466.23982	40386.05
1469.64898	41118.55
1473.05586	41498.65
1476.46045	41486.05
1479.86276	41237.75
1483.26279	40864.65
1486.66054	40691.85
1490.05602	40792.95
1493.44922	41005.75
1496.84016	41165.65
1500.22882	41672.95
1503.61521	42727.25
1506.99934	44270.95
1510.38121	45812.65
1513.76081	46504.25
1517.13816	45698.35
1520.51324	43745.75
1523.88607	41878.75
1527.25665	40580.25
1530.62498	39981.65
1533.99105	39674.05
1537.35488	39502.95
1540.71647	39192.45
1544.07581	38714.25
1547.4329	38025.75
1550.78776	37527.85
1554.14038	37114.75
1557.49077	36926.35
1560.83892	36863.45
1564.18484	36790.65
1567.52853	36706.85
1570.86999	36670.65
1574.20922	36989.45
1577.54624	37311.65
1580.88103	37384.35
1584.2136	37544.95
1587.54395	38535.75
1590.87208	40531.05
1594.19801	43058.15
1597.52172	45701.65
1600.84321	46549.75
1604.16251	44744.85
1607.47959	41301.15
1610.79447	37636.15
1614.10715	34327.65
1617.41763	31560.05
1620.7259	29613.25
1624.03199	28668.55
1627.33587	28588.15
1630.63757	29477.05
1633.93707	31389.15
1637.23439	34227.35
1640.52951	37895.55
1643.82246	41767.85
1647.11321	44519.55
1650.40179	44796.45
1653.68819	41788.85
1656.97241	36634.95
1660.25446	31495.25
1663.53433	27649.55
1666.81203	25122.85
1670.08756	23492.75
1673.36092	22526.05
1676.63211	21828.75
1679.90115	21375.15
1683.16801	21009.15
1686.43272	20723.65
1689.69527	20542.35
1692.95567	20381.05
1696.2139	20296.85
1699.46999	20238.05
1702.72392	20168.05
1705.97571	20070.85
1709.22535	19967.05
1712.47284	19951.65
1715.71819	19919.95
1718.96139	19847.65
1722.20246	19790.85
1725.44139	19703.95
1728.67818	19586.85
1731.91284	19408.55
1735.14537	19347.65
1738.37576	19277.45
1741.60403	19203.55
1744.83017	19114.95
1748.05418	19097.85
1751.27607	19027.85
1754.49584	19016.85
1757.71349	19019.45
1760.92903	18996.45
1764.14244	18959.15
1767.35375	18965.45
1770.56294	18951.05
1773.77002	18921.25
1776.97499	18876.25
1780.17785	18791.75
1783.37861	18740.45
1786.57727	18759.15
1789.77382	18687.85
1792.96828	18696.25
1796.16064	18650.55
1799.3509	18664.05
1802.53907	18611.45
1805.72514	18541.05
1808.90913	18476.85
1812.09102	18490.55
1815.27083	18453.85
1818.44856	18399.35
1821.6242	18380.95
1824.79776	18348.25
1827.96924	18363.85
1831.13864	18305.55
1834.30597	18352.75
1837.47122	18345.05
1840.6344	18349.25
1843.7955	18352.45
1846.95454	18360.15
1850.11151	18362.75
1853.26642	18366.55
1856.41926	18333.35
1859.57004	18395.45
1862.71876	18340.85
1865.86542	18342.85
1869.01003	18323.35
1872.15258	18325.65
1875.29308	18340.95
1878.43152	18356.35
1881.56792	18344.95
1884.70227	18356.65
1887.83457	18364.85
1890.96482	18352.65
1894.09304	18367.15
1897.21921	18338.45
1900.34335	18359.95
1903.46544	18339.65
1906.58551	18339.25
1909.70353	18356.45
1912.81953	18299.45
1915.93349	18355.65
1919.04543	18255.65
1922.15534	18247.45
1925.26322	18141.25
1928.36908	18084.95
1931.47292	18103.05
1934.57473	17968.65
1937.67453	17934.75
1940.77232	17849.55
1943.86808	17782.65
1946.96184	17693.55
1950.05358	17630.85
1953.14331	17518.15
1956.23103	17498.65
1959.31675	17450.45
1962.40046	17390.25
1965.48217	17323.35
1968.56188	17275.15
1971.63959	17224.65
1974.7153	17170.95
1977.78901	17109.65
1980.86073	17047.65
1983.93046	17031.65
1986.99819	16952.75
1990.06394	16945.55
1993.1277	16856.75
1996.18947	16840.15
1999.24925	16780.45
2002.30706	16707.35
2005.36288	16669.85
2008.41672	16622.55
2011.46859	16540.15
2014.51848	16577.05
2017.56639	16510.95
2020.61233	16482.25
2023.6563	16425.05
2026.6983	16400.35
2029.73833	16368.95
2032.7764	16361.05
2035.8125	16340.95
2038.84664	16336.15
2041.87881	16263.55
2044.90903	16198.65
2047.93729	16176.35
2050.96359	16216.05
2053.98794	16146.35
2057.01034	16152.55
2060.03078	16124.55
2063.04927	16109.95
2066.06582	16137.45
2069.08042	16129.55
2072.09307	16090.15
2075.10378	16067.85
2078.11255	16036.95
2081.11938	16067.25
2084.12426	16012.95
2087.12722	15997.15
2090.12824	15992.45
2093.12732	15992.45
2096.12447	15969.85
2099.11969	15960.05
2102.11299	15937.25
2105.10435	15985.85
2108.09379	15963.25
2111.08131	15990.75
2114.0669	15986.65
2117.05057	15995.25
2120.03233	15998.25
2123.01216	16039.35
2125.99008	16024.75
2128.96609	16043.55
2131.94018	16059.75
2134.91236	16102.25
2137.88263	16056.95
2140.851	16095.05
2143.81746	16101.15
2146.78201	16070.75
2149.74466	16093.25
2152.7054	16077.45
2155.66425	16109.05
2158.6212	16079.15
2161.57625	16081.75
2164.52941	16092.65
2167.48067	16078.15
2170.43004	16046.65
2173.37752	16015.55
2176.32311	16051.05
2179.26681	16072.55
2182.20863	16078.45
2185.14856	16083.85
2188.08661	16073.55
2191.02278	16067.45
2193.95707	16077.75
2196.88948	16105.45
2199.82001	16069.95
2202.74867	16061.15
2205.67545	16062.55
2208.60037	16058.05
2211.52341	16034.85
2214.44458	16014.65
2217.36388	15987.15
2220.28132	15984.45
2223.1969	15939.45
2226.11061	15962.45
2229.02246	15901.45
2231.93245	15848.45
2234.84058	15790.85
2237.74686	15777.95
2240.65128	15764.75
2243.55385	15727.85
2246.45456	15716.15
2249.35343	15703.05
2252.25044	15693.05
2255.14561	15672.65
2258.03893	15673.45
2260.93041	15612.85
2263.82004	15581.55
2266.70783	15531.75
2269.59378	15483.85
2272.4779	15429.45
2275.36017	15384.55
2278.24061	15404.45
2281.11922	15345.25
2283.996	15351.65
2286.87094	15354.65
2289.74405	15311.65
2292.61534	15317.85
2295.4848	15310.55
2298.35243	15320.85
2301.21824	15325.55
2304.08223	15308.45
2306.94439	15344.95
2309.80474	15364.95
2312.66327	15381.45
2315.51999	15359.15
2318.37489	15391.35
2321.22797	15355.95
2324.07925	15368.65
2326.92871	15345.35
2329.77637	15297.15
2332.62222	15297.45
2335.46626	15275.55
2338.3085	15276.45
2341.14893	15306.95
2343.98756	15333.05
2346.8244	15355.65
2349.65943	15381.95
2352.49267	15357.05
2355.32411	15363.55
2358.15376	15331.95
2360.98161	15339.55
2363.80768	15341.65
2366.63195	15317.55
2369.45444	15253.85
2372.27514	15186.45
2375.09405	15196.85
2377.91118	15142.35
2380.72652	15134.45
2383.54009	15055.45
2386.35187	15023.55
2389.16188	14983.45
2391.97011	14983.25
2394.77657	14971.85
2397.58125	14916.35
2400.38416	14911.25
2403.18529	14906.85
2405.98466	14873.75
2408.78226	14806.15
2411.57809	14800.95
2414.37216	14771.05
2417.16446	14739.35
2419.955	14722.75
2422.74378	14704.15
2425.5308	14694.05
2428.31606	14704.55
2431.09956	14714.95
2433.88131	14702.45
2436.6613	14716.35
2439.43954	14729.65
2442.21603	14702.15
2444.99077	14681.55
2447.76377	14691.05
2450.53501	14665.75
2453.30451	14664.75
2456.07226	14693.45
2458.83827	14670.55
2461.60254	14660.45
2464.36507	14623.75
2467.12586	14642.85
2469.88492	14630.55
2472.64224	14657.95
2475.39782	14682.35
2478.15167	14687.95
2480.90379	14705.85
2483.65417	14735.35
2486.40283	14742.95
2489.14976	14737.05
2491.89497	14767.85
2494.63845	14790.05
2497.3802	14786.65
2500.12024	14769.55
2502.85855	14789.85
2505.59514	14755.45
2508.33002	14737.45
2511.06318	14704.95
2513.79462	14707.85
2516.52435	14686.55
2519.25237	14642.25
2521.97867	14659.35
2524.70327	14619.25
2527.42616	14635.75
2530.14734	14633.15
2532.86681	14638.75
2535.58458	14614.75
2538.30065	14646.05
2541.01501	14634.25
2543.72768	14661.15
2546.43864	14617.25
2549.14791	14613.05
2551.85548	14593.65
2554.56136	14605.45
2557.26554	14553.45
2559.96803	14528.75
2562.66883	14511.85
2565.36794	14482.85
2568.06536	14520.65
2570.7611	14524.95
2573.45514	14482.15
2576.14751	14473.35
2578.83819	14489.75
2581.52719	14494.25
2584.21451	14481.75
2586.90015	14490.75
2589.58411	14466.25
2592.2664	14456.95
2594.94701	14492.95
2597.62594	14469.55
2600.30321	14468.95
2602.9788	14453.35
2605.65273	14466.85
2608.32498	14475.85
2610.99557	14463.95
2613.66449	14515.45
2616.33175	14486.25
2618.99734	14510.95
2621.66128	14501.75
2624.32355	14501.55
2626.98416	14492.15
2629.64311	14517.95
2632.30041	14471.65
2634.95605	14493.45
2637.61004	14468.75
2640.26238	14450.35
2642.91306	14433.55
2645.56209	14430.65
2648.20948	14420.35
2650.85521	14404.75
2653.4993	14400.55
2656.14175	14399.45
2658.78255	14444.55
2661.42171	14419.55
2664.05923	14429.75
2666.6951	14474.15
2669.32934	14501.25
2671.96194	14487.25
2674.59291	14493.25
2677.22224	14495.15
2679.84993	14520.35
2682.476	14446.75
2685.10043	14458.05
2687.72324	14431.05
2690.34441	14437.35
2692.96396	14417.95
2695.58188	14414.45
2698.19818	14398.65
2700.81285	14396.05
2703.4259	14406.95
2706.03733	14459.25
2708.64714	14401.45
2711.25533	14458.85
2713.86191	14385.95
2716.46687	14452.05
2719.07021	14450.45
2721.67194	14483.15
2724.27206	14467.65
2726.87057	14472.45
2729.46747	14489.45
2732.06276	14508.45
2734.65644	14470.05
2737.24852	14471.35
2739.83899	14495.95
2742.42786	14469.95
2745.01513	14474.85
2747.60079	14472.85
2750.18486	14427.25
2752.76733	14447.05
2755.3482	14447.35
2757.92747	14436.35
2760.50515	14421.05
2763.08123	14438.25
2765.65573	14426.35
2768.22863	14431.55
2770.79994	14405.85
2773.36967	14418.25
2775.9378	14445.15
2778.50435	14439.05
2781.06932	14418.75
2783.6327	14452.65
2786.1945	14446.65
2788.75471	14421.25
2791.31335	14384.75
2793.87041	14365.95
2796.42589	14357.35
2798.97979	14373.25
2801.53212	14334.15
2804.08288	14305.05
2806.63206	14288.45
2809.17967	14257.15
2811.72571	14212.75
2814.27018	14238.45
2816.81308	14192.25
2819.35442	14168.75
2821.89419	14171.95
2824.43239	14159.75
2826.96904	14127.65
2829.50412	14158.85
2832.03763	14108.65
2834.56959	14085.75
2837.1	14074.75
2839.62884	14083.35
2842.15613	14089.35
2844.68186	14108.55
2847.20604	14063.05
2849.72867	14084.15
2852.24974	14080.15
2854.76927	14065.85
2857.28724	14054.35
2859.80367	14007.15
2862.31855	13999.35
2864.83189	14000.95
2867.34368	13931.45
2869.85393	13956.85
2872.36264	13973.75
2874.8698	13980.55
2877.37543	13968.55
2879.87952	13976.65
2882.38207	13974.75
2884.88308	13981.65
2887.38256	14007.35
2889.88051	13973.55
2892.37692	13984.85
2894.8718	14014.45
2897.36515	14033.65
2899.85698	14070.35
2902.34727	14041.35
2904.83604	14043.85
2907.32328	14109.55
2909.809	14117.85
2912.29319	14089.65
2914.77587	14068.75
2917.25702	14105.25
2919.73665	14067.95
2922.21476	14085.85
2924.69136	14049.95
2927.16644	14041.95
2929.64	14030.75
2932.11205	13999.15
2934.58258	13920.95
2937.05161	13949.15
2939.51912	13940.95
2941.98513	13921.85
2944.44962	13904.95
2946.91261	13867.65
2949.37409	13907.65
2951.83407	13898.45
2954.29254	13897.15
2956.74951	13864.15
2959.20498	13851.55
2961.65895	13827.75
2964.11142	13841.85
2966.56239	13802.45
2969.01186	13813.25
2971.45984	13753.85
2973.90632	13767.05
2976.35131	13702.75
2978.7948	13711.95
2981.23681	13660.95
2983.67732	13627.05
2986.11635	13602.65
2988.55388	13569.35
2990.98993	13554.55
2993.4245	13498.15
2995.85758	13467.45
2998.28917	13409.75
3000.71928	13409.65
3003.14791	13375.95
3005.57506	13348.25
3008.00073	13307.55
3010.42493	13191.85
3012.84764	13246.45
3015.26888	13222.15
3017.68865	13202.35
3020.10694	13200.75
3022.52376	13156.95
3024.9391	13154.45
3027.35298	13130.15
3029.76539	13174.25
3032.17632	13141.75
3034.5858	13124.55
3036.9938	13138.55
3039.40034	13134.75
3041.80542	13139.25
3044.20903	13102.35
3046.61118	13108.85
3049.01187	13075.55
3051.4111	13028.05
3053.80888	13018.25
3056.20519	12956.95
3058.60005	12943.25
3060.99345	12928.35
3063.3854	12916.05
3065.7759	12841.15
3068.16494	12820.85
3070.55254	12771.45
3072.93868	12743.45
3075.32338	12698.15
3077.70662	12691.65
3080.08842	12662.65
3082.46878	12615.65
3084.84769	12601.55
3087.22515	12616.45
3089.60118	12577.65
3091.97576	12604.05
3094.3489	12586.15
3096.72061	12591.75
3099.09087	12582.25
3101.4597	12584.55
3103.82709	12576.75
3106.19305	12548.75
3108.55757	12516.55
3110.92066	12499.35
3113.28232	12504.55
3115.64255	12454.05
3118.00134	12419.85
3120.35871	12413.95
3122.71466	12356.05
3125.06917	12353.55
3127.42226	12348.55
3129.77393	12332.05
3132.12417	12313.65
3134.47299	12278.75
3136.82039	12280.55
3139.16636	12275.75
3141.51092	12289.35
3143.85406	12262.65
3146.19579	12272.75
3148.53609	12278.45
3150.87499	12271.25
3153.21246	12262.95
3155.54853	12266.75
3157.88318	12268.55
3160.21642	12289.15
3162.54826	12274.05
3164.87868	12276.25
3167.2077	12288.45
3169.5353	12304.25
3171.86151	12304.45
3174.18631	12300.05
3176.5097	12286.95
3178.83169	12274.15
3181.15228	12251.25
3183.47147	12214.85
3185.78926	12229.75
3188.10565	12215.75
3190.42065	12196.45
3192.73424	12202.15
3195.04645	12177.75
3197.35725	12168.85
3199.66667	12169.35
3201.97469	12208.25
3204.28132	12195.95
3206.58656	12181.85
3208.8904	12173.95
3211.19287	12188.25
3213.49394	12187.95
3215.79363	12200.75
3218.09193	12211.85
3220.38884	12228.25
3222.68438	12233.75
3224.97853	12203.25
3227.2713	12184.55
3229.56269	12176.05
3231.8527	12148.75
3234.14133	12144.75
3236.42858	12131.25
3238.71446	12095.65
3240.99896	12067.55
3243.28209	12062.95
3245.56384	12069.85
3247.84423	12071.25
3250.12324	12045.15
3252.40088	12025.55
3254.67715	12021.55
3256.95205	11992.45
3259.22558	12003.45
3261.49775	11985.25
3263.76855	11971.05
3266.03799	11953.55
3268.30606	11928.75
3270.57277	11911.35
3272.83812	11909.85
3275.10211	11853.45
3277.36474	11856.05
3279.62601	11844.65
3281.88593	11822.35
3284.14448	11814.65
3286.40168	11813.95
3288.65753	11848.15
3290.91202	11831.85
3293.16516	11788.65
3295.41695	11758.55
3297.66738	11726.05
3299.91647	11665.95
3302.16421	11576.45
3304.4106	11512.95
3306.65564	11433.35
3308.89933	11353.45
3311.14169	11263.95
3313.38269	11151.15
3315.62236	11108.65
3317.86068	11028.45
3320.09766	10946.85
3322.3333	10850.95
3324.5676	10805.85
3326.80056	10658.65
3329.03219	10605.35
3331.26248	4.75
3333.49143	0.25
3335.71905	-0.25
