Data from AgNP_FTO_APTES_UA_10uM_CRN_1uM_R6G_10uM_NaF_0.1M_Addition_RamanShift__3__12-56-10-495.txt Node

Date: Thu Feb 10 12:56:10 GMT 2022
User: TCL
Spectrometer: QEP01345
Trigger mode: 4
Integration Time (sec): 7.000000E0
Scans to average: 10
Electric dark correction enabled: true
Nonlinearity correction enabled: false
Boxcar width: 0
XAxis mode: Raman Shifts
Number of Pixels in Spectrum: 1044
>>>>>Begin Spectral Data<<<<<
46.04893	-0.45
50.45542	-0.15
54.85868	-1.05
59.25871	-1.35
63.6555	78.05
68.04907	79.55
72.43941	85.75
76.82654	85.15
81.21044	92.15
85.59113	92.95
89.96862	97.35
94.34289	97.85
98.71396	100.35
103.08183	108.25
107.4465	110.85
111.80798	112.35
116.16626	116.45
120.52136	119.35
124.87327	131.05
129.222	130.95
133.56755	142.95
137.90993	150.55
142.24913	164.45
146.58517	184.45
150.91804	220.85
155.24774	263.85
159.57429	329.25
163.89768	422.05
168.21792	566.35
172.53501	764.45
176.84895	1083.45
181.15975	1513.15
185.46741	2123.05
189.77193	2931.65
194.07331	3925.85
198.37157	5018.65
202.6667	6220.05
206.9587	7394.45
211.24758	8555.75
215.53334	9742.15
219.81599	10995.95
224.09553	12379.45
228.37195	13935.95
232.64527	15598.75
236.91549	17340.45
241.18261	19053.35
245.44663	20579.25
249.70755	21962.25
253.96539	23123.65
258.22014	24152.35
262.4718	24995.65
266.72039	25554.45
270.96589	25823.15
275.20832	25814.45
279.44768	25535.75
283.68397	25236.15
287.91719	25001.25
292.14735	24805.65
296.37445	24791.05
300.59849	24909.05
304.81948	25117.35
309.03742	25273.85
313.25231	25199.05
317.46415	24863.15
321.67296	24353.35
325.87872	23920.95
330.08145	23703.65
334.28114	23723.35
338.47781	23863.25
342.67145	24167.55
346.86207	24620.85
351.04966	25209.45
355.23424	25772.85
359.4158	26256.75
363.59435	26597.45
367.76989	26828.35
371.94243	26976.65
376.11196	27068.35
380.27849	27150.45
384.44203	27337.45
388.60257	27588.85
392.76012	27827.25
396.91468	28158.35
401.06626	28546.85
405.21485	28859.85
409.36047	28810.05
413.50311	28570.05
417.64277	28471.75
421.77947	28603.25
425.9132	28811.35
430.04396	28968.95
434.17176	29054.15
438.2966	29124.85
442.41849	29636.65
446.53742	30556.85
450.6534	31606.15
454.76644	32262.45
458.87653	32277.35
462.98368	31860.35
467.08789	31218.35
471.18916	30504.25
475.2875	29656.55
479.38291	29134.05
483.4754	28777.55
487.56496	28566.65
491.6516	28273.95
495.73531	28128.25
499.81612	28198.55
503.89401	28406.95
507.96899	28577.75
512.04106	28517.25
516.11023	28292.75
520.1765	28004.85
524.23987	27815.55
528.30034	27654.85
532.35792	27384.45
536.41261	26889.85
540.46441	26492.95
544.51333	26386.75
548.55936	26618.95
552.60252	27236.45
556.64279	27961.25
560.6802	28518.75
564.71473	28733.25
568.7464	29085.05
572.7752	29927.65
576.80114	30855.35
580.82422	32081.45
584.84444	33864.25
588.86181	36177.55
592.87633	37956.75
596.888	37687.85
600.89682	35303.05
604.9028	34305.85
608.90594	36473.25
612.90624	39212.15
616.90371	36901.05
620.89834	30999.05
624.89015	28355.35
628.87913	27981.65
632.86528	27918.55
636.84862	27697.75
640.82913	27098.85
644.80683	26396.25
648.78172	25973.65
652.75379	26028.25
656.72306	26401.55
660.68952	26974.45
664.65319	26761.35
668.61405	26235.85
672.57211	26215.35
676.52738	26420.35
680.47986	26366.65
684.42955	26086.45
688.37646	26018.15
692.32058	26253.55
696.26192	26862.85
700.20048	27416.45
704.13626	27541.25
708.06928	27352.45
711.99952	27121.25
715.927	27188.15
719.85171	27411.65
723.77365	27349.55
727.69284	26788.65
731.60928	26275.05
735.52295	26129.35
739.43388	26126.85
743.34206	26250.05
747.24749	26470.85
751.15017	26751.05
755.05012	27206.15
758.94733	27966.45
762.8418	29274.05
766.73354	31256.55
770.62254	33112.15
774.50882	33429.05
778.39237	32112.95
782.27321	30128.85
786.15132	28434.75
790.02671	27339.25
793.89938	26789.15
797.76935	26633.55
801.6366	26549.45
805.50115	26536.95
809.36299	26401.85
813.22213	26150.55
817.07857	25904.85
820.93231	25757.35
824.78336	25586.35
828.63172	25512.35
832.47738	25500.75
836.32036	25569.05
840.16066	25701.15
843.99827	25772.45
847.8332	25754.45
851.66546	25706.25
855.49504	25664.25
859.32195	25671.55
863.1462	25556.25
866.96777	25481.35
870.78668	25409.95
874.60293	25415.65
878.41652	25496.45
882.22745	25610.75
886.03573	25693.95
889.84136	25681.35
893.64433	25564.45
897.44466	25443.55
901.24235	25340.85
905.0374	25237.55
908.8298	25207.65
912.61957	25238.85
916.40671	25423.15
920.19121	25743.45
923.97308	26145.45
927.75233	26375.65
931.52895	26322.55
935.30295	25898.65
939.07433	25375.45
942.84309	25016.35
946.60924	24951.05
950.37278	24972.05
954.13371	24924.95
957.89203	24811.25
961.64774	24766.95
965.40086	24780.85
969.15137	24842.95
972.89929	24715.55
976.64461	24716.05
980.38733	24829.35
984.12747	24988.15
987.86502	25159.85
991.59999	25494.25
995.33237	26010.85
999.06217	26844.05
1002.78939	27863.35
1006.51404	28681.75
1010.23611	29301.15
1013.95561	29605.05
1017.67255	29533.55
1021.38692	29120.75
1025.09872	28555.45
1028.80796	28555.25
1032.51465	29242.75
1036.21877	30057.85
1039.92035	30306.55
1043.61937	30055.95
1047.31584	29299.25
1051.00976	28435.45
1054.70114	27945.05
1058.38998	27844.65
1062.07627	27849.05
1065.76003	28012.95
1069.44126	28321.05
1073.11995	28885.05
1076.79611	29464.55
1080.46974	29796.45
1084.14085	30168.65
1087.80943	30568.75
1091.47549	30820.15
1095.13903	30670.15
1098.80005	30069.55
1102.45857	29406.05
1106.11456	28949.15
1109.76805	28687.95
1113.41903	28659.45
1117.06751	28730.95
1120.71348	28937.55
1124.35696	29183.55
1127.99793	29489.85
1131.63641	29731.95
1135.2724	29670.25
1138.90589	29533.85
1142.5369	29589.85
1146.16542	29764.65
1149.79145	29999.35
1153.415	30159.55
1157.03607	30474.15
1160.65467	31367.45
1164.27079	32882.55
1167.88443	34793.45
1171.49561	36920.15
1175.10432	39501.15
1178.71056	43015.95
1182.31434	46376.25
1185.91565	48036.95
1189.51451	47520.45
1193.11091	45848.65
1196.70485	43859.45
1200.29634	42122.05
1203.88538	41009.05
1207.47197	40443.05
1211.05612	39971.65
1214.63782	39165.35
1218.21708	38229.05
1221.79391	37389.15
1225.36829	36963.85
1228.94024	36468.25
1232.50976	35748.45
1236.07685	34945.25
1239.6415	34369.35
1243.20374	34252.85
1246.76355	34581.05
1250.32093	35339.45
1253.8759	36295.45
1257.42845	37523.55
1260.97859	38813.65
1264.52631	40253.55
1268.07163	41804.45
1271.61453	43321.45
1275.15503	44851.55
1278.69312	46179.95
1282.22882	47386.85
1285.76211	48701.75
1289.29301	50244.95
1292.82151	52327.05
1296.34761	55008.25
1299.87133	58692.55
1303.39266	62944.15
1306.9116	67268.25
1310.42815	70571.05
1313.94233	71961.95
1317.45412	70764.15
1320.96354	68245.15
1324.47058	65991.65
1327.97525	64555.45
1331.47754	63695.05
1334.97747	63063.95
1338.47502	62258.35
1341.97022	60885.45
1345.46305	59092.75
1348.95352	58027.75
1352.44163	58488.55
1355.92738	60800.85
1359.41078	64625.25
1362.89183	67654.05
1366.37053	66836.25
1369.84688	61336.95
1373.32088	53984.05
1376.79254	48912.15
1380.26186	47029.45
1383.72883	46896.45
1387.19347	46774.55
1390.65578	46042.35
1394.11575	45787.75
1397.57339	46429.15
1401.0287	47395.05
1404.48168	48345.95
1407.93234	48722.05
1411.38068	48287.25
1414.82669	46998.95
1418.27039	45258.35
1421.71177	43471.15
1425.15083	41991.15
1428.58758	41571.35
1432.02203	42364.25
1435.45416	43930.25
1438.88399	45605.95
1442.31151	46357.95
1445.73673	46660.15
1449.15965	46564.25
1452.58027	46163.85
1455.9986	45734.95
1459.41463	45797.75
1462.82837	46696.85
1466.23982	47936.35
1469.64898	49006.15
1473.05586	49589.55
1476.46045	49657.25
1479.86276	49239.95
1483.26279	48597.65
1486.66054	48315.95
1490.05602	48522.15
1493.44922	48862.95
1496.84016	49027.65
1500.22882	49360.75
1503.61521	50227.65
1506.99934	51562.25
1510.38121	52506.95
1513.76081	52435.55
1517.13816	51106.85
1520.51324	49094.95
1523.88607	47717.45
1527.25665	47288.05
1530.62498	47455.95
1533.99105	47312.25
1537.35488	47006.05
1540.71647	46266.35
1544.07581	45186.95
1547.4329	44054.15
1550.78776	43092.85
1554.14038	42249.85
1557.49077	41675.75
1560.83892	41286.85
1564.18484	41049.35
1567.52853	41179.75
1570.86999	41496.25
1574.20922	42095.05
1577.54624	42678.35
1580.88103	43031.45
1584.2136	43666.45
1587.54395	45656.85
1590.87208	49150.75
1594.19801	53534.65
1597.52172	57462.75
1600.84321	58507.45
1604.16251	55398.85
1607.47959	49931.25
1610.79447	44278.45
1614.10715	39409.75
1617.41763	35990.15
1620.7259	33943.45
1624.03199	33131.95
1627.33587	33323.05
1630.63757	34687.05
1633.93707	37364.45
1637.23439	41705.55
1640.52951	48201.65
1643.82246	55554.65
1647.11321	61042.25
1650.40179	60982.25
1653.68819	54843.35
1656.97241	46047.35
1660.25446	38385.15
1663.53433	33291.15
1666.81203	30195.85
1670.08756	28354.65
1673.36092	27194.35
1676.63211	26448.65
1679.90115	25926.55
1683.16801	25546.25
1686.43272	25236.35
1689.69527	25019.55
1692.95567	24862.45
1696.2139	24758.25
1699.46999	24681.75
1702.72392	24615.85
1705.97571	24532.95
1709.22535	24519.15
1712.47284	24493.45
1715.71819	24488.95
1718.96139	24397.55
1722.20246	24286.15
1725.44139	24198.05
1728.67818	24018.75
1731.91284	23878.15
1735.14537	23757.45
1738.37576	23674.65
1741.60403	23584.85
1744.83017	23476.95
1748.05418	23426.15
1751.27607	23377.15
1754.49584	23314.65
1757.71349	23328.15
1760.92903	23317.05
1764.14244	23293.65
1767.35375	23316.65
1770.56294	23245.75
1773.77002	23246.95
1776.97499	23158.55
1780.17785	23131.35
1783.37861	23101.05
1786.57727	23063.65
1789.77382	23019.75
1792.96828	22967.15
1796.16064	22926.85
1799.3509	22902.05
1802.53907	22864.55
1805.72514	22838.25
1808.90913	22783.25
1812.09102	22745.95
1815.27083	22706.95
1818.44856	22669.35
1821.6242	22652.45
1824.79776	22626.05
1827.96924	22605.95
1831.13864	22623.85
1834.30597	22629.15
1837.47122	22651.55
1840.6344	22638.55
1843.7955	22658.75
1846.95454	22641.55
1850.11151	22676.85
1853.26642	22603.25
1856.41926	22615.95
1859.57004	22677.45
1862.71876	22648.05
1865.86542	22606.75
1869.01003	22580.05
1872.15258	22563.65
1875.29308	22553.15
1878.43152	22544.75
1881.56792	22551.05
1884.70227	22521.15
1887.83457	22498.85
1890.96482	22488.75
1894.09304	22396.65
1897.21921	22350.75
1900.34335	22359.45
1903.46544	22348.25
1906.58551	22338.35
1909.70353	22296.95
1912.81953	22286.25
1915.93349	22239.45
1919.04543	22166.55
1922.15534	22152.25
1925.26322	22038.75
1928.36908	22036.15
1931.47292	22047.15
1934.57473	21941.25
1937.67453	21902.85
1940.77232	21885.55
1943.86808	21799.45
1946.96184	21733.05
1950.05358	21658.15
1953.14331	21650.15
1956.23103	21603.05
1959.31675	21475.65
1962.40046	21475.15
1965.48217	21407.55
1968.56188	21355.65
1971.63959	21284.15
1974.7153	21269.55
1977.78901	21189.75
1980.86073	21142.55
1983.93046	21092.65
1986.99819	21023.55
1990.06394	20942.95
1993.1277	20915.35
1996.18947	20838.45
1999.24925	20804.55
2002.30706	20780.35
2005.36288	20727.95
2008.41672	20637.45
2011.46859	20600.35
2014.51848	20542.45
2017.56639	20507.25
2020.61233	20492.55
2023.6563	20478.35
2026.6983	20429.85
2029.73833	20390.45
2032.7764	20343.55
2035.8125	20320.05
2038.84664	20266.05
2041.87881	20283.55
2044.90903	20255.25
2047.93729	20243.55
2050.96359	20211.55
2053.98794	20165.95
2057.01034	20176.75
2060.03078	20131.55
2063.04927	20131.95
2066.06582	20150.35
2069.08042	20102.75
2072.09307	20092.25
2075.10378	20060.75
2078.11255	20061.35
2081.11938	20073.95
2084.12426	20053.55
2087.12722	20056.05
2090.12824	20049.75
2093.12732	20041.15
2096.12447	20013.75
2099.11969	20011.25
2102.11299	20039.25
2105.10435	20073.15
2108.09379	20092.85
2111.08131	20107.95
2114.0669	20086.35
2117.05057	20082.05
2120.03233	20119.65
2123.01216	20173.15
2125.99008	20209.35
2128.96609	20150.75
2131.94018	20239.95
2134.91236	20240.75
2137.88263	20265.35
2140.851	20224.35
2143.81746	20260.95
2146.78201	20277.25
2149.74466	20313.55
2152.7054	20302.15
2155.66425	20268.35
2158.6212	20255.75
2161.57625	20233.85
2164.52941	20236.85
2167.48067	20196.85
2170.43004	20224.95
2173.37752	20252.35
2176.32311	20248.65
2179.26681	20308.25
2182.20863	20313.55
2185.14856	20308.15
2188.08661	20277.15
2191.02278	20328.15
2193.95707	20346.65
2196.88948	20286.55
2199.82001	20329.65
2202.74867	20284.45
2205.67545	20312.15
2208.60037	20306.15
2211.52341	20293.15
2214.44458	20280.05
2217.36388	20229.65
2220.28132	20174.05
2223.1969	20150.95
2226.11061	20153.45
2229.02246	20124.65
2231.93245	20091.45
2234.84058	20117.45
2237.74686	20040.85
2240.65128	20034.55
2243.55385	20012.25
2246.45456	19939.05
2249.35343	19906.05
2252.25044	19932.15
2255.14561	19850.35
2258.03893	19864.35
2260.93041	19792.45
2263.82004	19792.15
2266.70783	19737.45
2269.59378	19639.85
2272.4779	19646.25
2275.36017	19624.75
2278.24061	19595.45
2281.11922	19582.05
2283.996	19553.25
2286.87094	19525.55
2289.74405	19499.05
2292.61534	19523.15
2295.4848	19527.15
2298.35243	19536.95
2301.21824	19547.25
2304.08223	19575.55
2306.94439	19580.25
2309.80474	19582.35
2312.66327	19570.75
2315.51999	19576.05
2318.37489	19595.45
2321.22797	19604.05
2324.07925	19591.85
2326.92871	19540.15
2329.77637	19551.55
2332.62222	19534.75
2335.46626	19526.55
2338.3085	19496.55
2341.14893	19514.15
2343.98756	19545.15
2346.8244	19572.65
2349.65943	19592.45
2352.49267	19562.55
2355.32411	19569.35
2358.15376	19534.75
2360.98161	19526.35
2363.80768	19515.55
2366.63195	19501.25
2369.45444	19457.85
2372.27514	19445.65
2375.09405	19412.05
2377.91118	19396.75
2380.72652	19348.05
2383.54009	19296.75
2386.35187	19266.15
2389.16188	19241.45
2391.97011	19222.75
2394.77657	19205.25
2397.58125	19172.45
2400.38416	19135.95
2403.18529	19126.75
2405.98466	19103.65
2408.78226	19055.15
2411.57809	19062.35
2414.37216	19031.85
2417.16446	19005.15
2419.955	18974.55
2422.74378	18950.75
2425.5308	18953.95
2428.31606	18997.95
2431.09956	18948.75
2433.88131	19004.65
2436.6613	18984.95
2439.43954	18997.45
2442.21603	18963.75
2444.99077	18965.05
2447.76377	18937.45
2450.53501	18963.95
2453.30451	18933.45
2456.07226	18942.35
2458.83827	18980.95
2461.60254	18984.55
2464.36507	18967.75
2467.12586	18967.75
2469.88492	18983.95
2472.64224	18986.25
2475.39782	19021.15
2478.15167	19015.95
2480.90379	19040.55
2483.65417	19043.75
2486.40283	19053.85
2489.14976	19063.05
2491.89497	19053.15
2494.63845	19094.55
2497.3802	19078.35
2500.12024	19058.45
2502.85855	19047.15
2505.59514	19035.75
2508.33002	19010.25
2511.06318	18990.15
2513.79462	18993.25
2516.52435	19001.55
2519.25237	18997.95
2521.97867	18976.25
2524.70327	18989.95
2527.42616	18977.45
2530.14734	19005.15
2532.86681	18987.45
2535.58458	19004.55
2538.30065	18993.45
2541.01501	19023.15
2543.72768	19004.65
2546.43864	19003.05
2549.14791	18968.05
2551.85548	19020.75
2554.56136	18968.55
2557.26554	18928.75
2559.96803	18927.55
2562.66883	18875.75
2565.36794	18854.35
2568.06536	18876.15
2570.7611	18879.75
2573.45514	18871.25
2576.14751	18910.15
2578.83819	18862.85
2581.52719	18889.75
2584.21451	18906.05
2586.90015	18871.05
2589.58411	18855.85
2592.2664	18871.15
2594.94701	18831.75
2597.62594	18844.05
2600.30321	18813.45
2602.9788	18821.95
2605.65273	18822.75
2608.32498	18840.65
2610.99557	18851.35
2613.66449	18870.55
2616.33175	18829.45
2618.99734	18793.85
2621.66128	18824.25
2624.32355	18803.65
2626.98416	18776.55
2629.64311	18759.85
2632.30041	18769.15
2634.95605	18761.75
2637.61004	18726.45
2640.26238	18725.65
2642.91306	18718.85
2645.56209	18724.85
2648.20948	18703.05
2650.85521	18709.75
2653.4993	18700.05
2656.14175	18706.45
2658.78255	18736.75
2661.42171	18777.35
2664.05923	18829.15
2666.6951	18848.05
2669.32934	18867.75
2671.96194	18829.15
2674.59291	18879.85
2677.22224	18806.65
2679.84993	18832.15
2682.476	18813.25
2685.10043	18811.55
2687.72324	18787.45
2690.34441	18763.95
2692.96396	18777.15
2695.58188	18751.25
2698.19818	18742.55
2700.81285	18772.95
2703.4259	18801.45
2706.03733	18805.65
2708.64714	18783.95
2711.25533	18838.35
2713.86191	18831.95
2716.46687	18853.55
2719.07021	18884.15
2721.67194	18926.95
2724.27206	18923.05
2726.87057	18943.75
2729.46747	18961.35
2732.06276	18988.95
2734.65644	18979.95
2737.24852	18986.15
2739.83899	18933.15
2742.42786	18977.65
2745.01513	18965.45
2747.60079	18985.25
2750.18486	18921.75
2752.76733	18919.55
2755.3482	18927.55
2757.92747	18967.25
2760.50515	18924.75
2763.08123	18930.05
2765.65573	18874.65
2768.22863	18880.95
2770.79994	18920.05
2773.36967	18930.05
2775.9378	18877.75
2778.50435	18904.95
2781.06932	18917.35
2783.6327	18912.15
2786.1945	18933.05
2788.75471	18882.75
2791.31335	18868.35
2793.87041	18847.45
2796.42589	18825.25
2798.97979	18811.05
2801.53212	18795.45
2804.08288	18768.05
2806.63206	18742.65
2809.17967	18692.15
2811.72571	18654.65
2814.27018	18618.05
2816.81308	18564.55
2819.35442	18524.65
2821.89419	18529.65
2824.43239	18526.55
2826.96904	18503.85
2829.50412	18507.55
2832.03763	18471.45
2834.56959	18472.95
2837.1	18439.85
2839.62884	18428.55
2842.15613	18460.85
2844.68186	18494.15
2847.20604	18463.35
2849.72867	18503.85
2852.24974	18525.35
2854.76927	18468.45
2857.28724	18450.45
2859.80367	18436.05
2862.31855	18399.35
2864.83189	18401.45
2867.34368	18347.85
2869.85393	18391.75
2872.36264	18352.45
2874.8698	18370.25
2877.37543	18400.15
2879.87952	18396.25
2882.38207	18369.65
2884.88308	18412.55
2887.38256	18398.75
2889.88051	18410.95
2892.37692	18427.75
2894.8718	18417.65
2897.36515	18476.85
2899.85698	18449.35
2902.34727	18541.25
2904.83604	18531.55
2907.32328	18571.85
2909.809	18577.85
2912.29319	18597.55
2914.77587	18550.85
2917.25702	18530.05
2919.73665	18523.55
2922.21476	18517.05
2924.69136	18492.95
2927.16644	18477.35
2929.64	18442.15
2932.11205	18473.55
2934.58258	18413.35
2937.05161	18436.75
2939.51912	18439.95
2941.98513	18422.75
2944.44962	18383.45
2946.91261	18321.05
2949.37409	18352.35
2951.83407	18354.65
2954.29254	18350.35
2956.74951	18356.45
2959.20498	18305.85
2961.65895	18332.45
2964.11142	18312.55
2966.56239	18256.65
2969.01186	18297.45
2971.45984	18217.05
2973.90632	18194.55
2976.35131	18154.55
2978.7948	18141.55
2981.23681	18128.85
2983.67732	18079.65
2986.11635	18025.35
2988.55388	18016.15
2990.98993	17957.95
2993.4245	17928.35
2995.85758	17889.35
2998.28917	17829.85
3000.71928	17836.75
3003.14791	17802.65
3005.57506	17793.85
3008.00073	17733.95
3010.42493	17729.15
3012.84764	17678.55
3015.26888	17655.75
3017.68865	17586.95
3020.10694	17529.45
3022.52376	17518.65
3024.9391	17512.55
3027.35298	17519.55
3029.76539	17514.95
3032.17632	17522.25
3034.5858	17454.35
3036.9938	17497.15
3039.40034	17480.35
3041.80542	17457.55
3044.20903	17437.85
3046.61118	17429.85
3049.01187	17392.85
3051.4111	17359.95
3053.80888	17369.35
3056.20519	17319.15
3058.60005	17269.35
3060.99345	17232.55
3063.3854	17215.35
3065.7759	17148.95
3068.16494	17124.35
3070.55254	17075.65
3072.93868	17053.85
3075.32338	17009.35
3077.70662	16992.35
3080.08842	16929.65
3082.46878	16916.15
3084.84769	16891.45
3087.22515	16899.65
3089.60118	16904.35
3091.97576	16839.35
3094.3489	16829.05
3096.72061	16832.95
3099.09087	16857.85
3101.4597	16848.45
3103.82709	16871.05
3106.19305	16820.55
3108.55757	16822.15
3110.92066	16795.65
3113.28232	16771.65
3115.64255	16729.05
3118.00134	16690.35
3120.35871	16652.35
3122.71466	16656.55
3125.06917	16609.25
3127.42226	16543.65
3129.77393	16570.65
3132.12417	16519.15
3134.47299	16522.25
3136.82039	16516.55
3139.16636	16537.95
3141.51092	16534.45
3143.85406	16513.15
3146.19579	16477.15
3148.53609	16516.85
3150.87499	16497.25
3153.21246	16508.95
3155.54853	16563.25
3157.88318	16509.85
3160.21642	16519.65
3162.54826	16491.35
3164.87868	16526.85
3167.2077	16557.75
3169.5353	16563.25
3171.86151	16541.85
3174.18631	16525.35
3176.5097	16481.35
3178.83169	16461.75
3181.15228	16457.35
3183.47147	16456.55
3185.78926	16446.35
3188.10565	16432.05
3190.42065	16446.85
3192.73424	16393.75
3195.04645	16382.15
3197.35725	16329.75
3199.66667	16307.65
3201.97469	16360.55
3204.28132	16312.35
3206.58656	16382.85
3208.8904	16360.85
3211.19287	16349.35
3213.49394	16355.75
3215.79363	16383.35
3218.09193	16378.45
3220.38884	16354.15
3222.68438	16363.05
3224.97853	16379.45
3227.2713	16371.65
3229.56269	16359.15
3231.8527	16346.35
3234.14133	16286.65
3236.42858	16274.95
3238.71446	16256.45
3240.99896	16209.75
3243.28209	16188.25
3245.56384	16172.25
3247.84423	16141.95
3250.12324	16131.45
3252.40088	16120.85
3254.67715	16100.65
3256.95205	16119.75
3259.22558	16129.65
3261.49775	16067.25
3263.76855	16053.45
3266.03799	16048.35
3268.30606	16004.05
3270.57277	15976.55
3272.83812	15973.85
3275.10211	15929.55
3277.36474	15897.15
3279.62601	15883.95
3281.88593	15864.95
3284.14448	15874.55
3286.40168	15917.65
3288.65753	15905.45
3290.91202	15896.75
3293.16516	15851.75
3295.41695	15839.75
3297.66738	15767.45
3299.91647	15654.55
3302.16421	15552.75
3304.4106	15486.05
3306.65564	15394.55
3308.89933	15302.55
3311.14169	15188.15
3313.38269	15069.45
3315.62236	14962.15
3317.86068	14860.75
3320.09766	14726.25
3322.3333	14616.85
3324.5676	14551.95
3326.80056	14311.95
3329.03219	14235.85
3331.26248	4.05
3333.49143	-1.35
3335.71905	0.25
