Data from AgNPs_FTO_APTES_UA_0.1mM_CRN_50uM_NaF_0.1M_Addition_RamanShift__22__13-02-17-650.txt Node

Date: Mon Dec 20 13:02:17 GMT 2021
User: TCL
Spectrometer: QEP01345
Trigger mode: 4
Integration Time (sec): 7.000000E0
Scans to average: 10
Electric dark correction enabled: true
Nonlinearity correction enabled: false
Boxcar width: 0
XAxis mode: Raman Shifts
Number of Pixels in Spectrum: 1044
>>>>>Begin Spectral Data<<<<<
46.04893	0.75
50.45542	-0.45
54.85868	-1.85
59.25871	0.05
63.6555	32.75
68.04907	34.55
72.43941	35.65
76.82654	35.85
81.21044	36.85
85.59113	43.45
89.96862	40.05
94.34289	41.05
98.71396	43.05
103.08183	42.95
107.4465	45.95
111.80798	49.05
116.16626	48.05
120.52136	51.45
124.87327	56.65
129.222	54.05
133.56755	54.45
137.90993	59.35
142.24913	63.45
146.58517	69.95
150.91804	83.15
155.24774	96.05
159.57429	112.95
163.89768	145.75
168.21792	189.85
172.53501	256.55
176.84895	347.55
181.15975	484.05
185.46741	672.15
189.77193	932.45
194.07331	1241.55
198.37157	1608.55
202.6667	2020.65
206.9587	2404.35
211.24758	2795.85
215.53334	3201.95
219.81599	3596.75
224.09553	4017.35
228.37195	4495.95
232.64527	4981.35
236.91549	5495.35
241.18261	6019.55
245.44663	6474.15
249.70755	6917.95
253.96539	7290.95
258.22014	7578.45
262.4718	7800.65
266.72039	7930.65
270.96589	7975.15
275.20832	7948.45
279.44768	7848.25
283.68397	7741.25
287.91719	7638.75
292.14735	7540.05
296.37445	7500.95
300.59849	7479.35
304.81948	7488.35
309.03742	7504.45
313.25231	7445.85
317.46415	7328.45
321.67296	7154.15
325.87872	7033.35
330.08145	6945.15
334.28114	6963.35
338.47781	6999.55
342.67145	7074.05
346.86207	7149.05
351.04966	7282.75
355.23424	7458.95
359.4158	7562.15
363.59435	7687.15
367.76989	7757.65
371.94243	7836.45
376.11196	7889.65
380.27849	7957.35
384.44203	8010.15
388.60257	8073.65
392.76012	8117.75
396.91468	8181.05
401.06626	8272.85
405.21485	8331.25
409.36047	8326.25
413.50311	8242.15
417.64277	8126.55
421.77947	8101.25
425.9132	8072.15
430.04396	8102.55
434.17176	8140.95
438.2966	8182.05
442.41849	8279.75
446.53742	8372.25
450.6534	8463.95
454.76644	8561.95
458.87653	8612.35
462.98368	8614.75
467.08789	8591.95
471.18916	8577.75
475.2875	8585.35
479.38291	8621.85
483.4754	8694.85
487.56496	8790.25
491.6516	8875.05
495.73531	8943.55
499.81612	8950.95
503.89401	8865.45
507.96899	8787.05
512.04106	8719.85
516.11023	8736.45
520.1765	8754.55
524.23987	8805.75
528.30034	8838.35
532.35792	8810.85
536.41261	8764.75
540.46441	8637.55
544.51333	8550.35
548.55936	8517.65
552.60252	8494.85
556.64279	8521.15
560.6802	8555.55
564.71473	8576.15
568.7464	8660.95
572.7752	8748.25
576.80114	8728.25
580.82422	8750.95
584.84444	8824.75
588.86181	8942.35
592.87633	8996.55
596.888	9032.15
600.89682	9036.05
604.9028	9201.95
608.90594	9737.45
612.90624	10596.35
616.90371	10611.45
620.89834	9827.05
624.89015	9641.05
628.87913	10024.55
632.86528	10505.45
636.84862	10810.85
640.82913	10741.95
644.80683	10336.65
648.78172	9825.85
652.75379	9430.05
656.72306	9238.95
660.68952	9182.75
664.65319	9110.55
668.61405	9032.65
672.57211	9030.15
676.52738	9078.25
680.47986	9093.15
684.42955	9084.85
688.37646	9042.05
692.32058	8998.35
696.26192	8932.75
700.20048	8865.95
704.13626	8789.05
708.06928	8717.25
711.99952	8638.95
715.927	8584.85
719.85171	8600.85
723.77365	8628.35
727.69284	8622.15
731.60928	8565.05
735.52295	8492.75
739.43388	8454.05
743.34206	8446.75
747.24749	8458.65
751.15017	8459.45
755.05012	8503.35
758.94733	8571.75
762.8418	8783.65
766.73354	9142.45
770.62254	9513.15
774.50882	9682.15
778.39237	9512.35
782.27321	9082.35
786.15132	8707.95
790.02671	8517.35
793.89938	8439.85
797.76935	8441.45
801.6366	8486.75
805.50115	8671.55
809.36299	8896.75
813.22213	8978.65
817.07857	8883.05
820.93231	8667.85
824.78336	8413.55
828.63172	8239.65
832.47738	8107.25
836.32036	8077.35
840.16066	8030.95
843.99827	8010.15
847.8332	8015.75
851.66546	7982.85
855.49504	7979.35
859.32195	7992.05
863.1462	8030.25
866.96777	8094.35
870.78668	8179.25
874.60293	8282.95
878.41652	8434.45
882.22745	8565.45
886.03573	8656.15
889.84136	8643.25
893.64433	8531.75
897.44466	8324.35
901.24235	8105.95
905.0374	7941.85
908.8298	7805.95
912.61957	7764.05
916.40671	7719.45
920.19121	7726.25
923.97308	7707.85
927.75233	7717.25
931.52895	7703.55
935.30295	7667.05
939.07433	7632.85
942.84309	7577.45
946.60924	7540.55
950.37278	7529.55
954.13371	7512.95
957.89203	7469.15
961.64774	7455.65
965.40086	7411.65
969.15137	7387.35
972.89929	7339.25
976.64461	7322.75
980.38733	7315.65
984.12747	7308.25
987.86502	7323.95
991.59999	7383.05
995.33237	7405.75
999.06217	7480.85
1002.78939	7592.85
1006.51404	7686.55
1010.23611	7796.55
1013.95561	7854.75
1017.67255	7846.55
1021.38692	7812.85
1025.09872	7731.45
1028.80796	7620.55
1032.51465	7582.35
1036.21877	7528.45
1039.92035	7476.15
1043.61937	7470.05
1047.31584	7441.35
1051.00976	7430.75
1054.70114	7458.25
1058.38998	7479.85
1062.07627	7547.35
1065.76003	7596.95
1069.44126	7644.35
1073.11995	7695.05
1076.79611	7737.15
1080.46974	7694.25
1084.14085	7673.95
1087.80943	7627.45
1091.47549	7607.85
1095.13903	7523.55
1098.80005	7447.05
1102.45857	7396.65
1106.11456	7385.65
1109.76805	7430.55
1113.41903	7529.65
1117.06751	7680.25
1120.71348	7972.35
1124.35696	8349.35
1127.99793	8850.65
1131.63641	9282.65
1135.2724	9500.15
1138.90589	9468.65
1142.5369	9237.85
1146.16542	8850.35
1149.79145	8425.65
1153.415	8054.85
1157.03607	7812.95
1160.65467	7694.35
1164.27079	7646.75
1167.88443	7725.05
1171.49561	7904.15
1175.10432	8187.65
1178.71056	8549.75
1182.31434	8919.95
1185.91565	9102.15
1189.51451	9118.75
1193.11091	9066.55
1196.70485	9030.35
1200.29634	9033.05
1203.88538	9019.85
1207.47197	8874.35
1211.05612	8659.85
1214.63782	8425.85
1218.21708	8185.95
1221.79391	7986.85
1225.36829	7830.85
1228.94024	7712.95
1232.50976	7649.95
1236.07685	7603.95
1239.6415	7577.25
1243.20374	7590.85
1246.76355	7648.55
1250.32093	7689.85
1253.8759	7736.25
1257.42845	7817.65
1260.97859	7884.95
1264.52631	7978.85
1268.07163	8043.45
1271.61453	8081.55
1275.15503	8125.85
1278.69312	8155.15
1282.22882	8174.75
1285.76211	8252.35
1289.29301	8319.95
1292.82151	8496.55
1296.34761	8718.05
1299.87133	8939.65
1303.39266	9262.75
1306.9116	9706.45
1310.42815	10150.85
1313.94233	10429.65
1317.45412	10379.05
1320.96354	10213.25
1324.47058	9996.15
1327.97525	9799.65
1331.47754	9663.15
1334.97747	9652.25
1338.47502	9703.95
1341.97022	9805.85
1345.46305	9965.05
1348.95352	10125.45
1352.44163	10399.05
1355.92738	10759.25
1359.41078	11283.25
1362.89183	11808.75
1366.37053	11746.75
1369.84688	10893.95
1373.32088	10039.55
1376.79254	9457.85
1380.26186	9111.85
1383.72883	8926.15
1387.19347	8809.65
1390.65578	8663.05
1394.11575	8561.15
1397.57339	8483.95
1401.0287	8441.55
1404.48168	8419.25
1407.93234	8329.95
1411.38068	8227.85
1414.82669	8061.35
1418.27039	7882.45
1421.71177	7679.85
1425.15083	7480.65
1428.58758	7368.55
1432.02203	7299.15
1435.45416	7305.25
1438.88399	7321.35
1442.31151	7334.05
1445.73673	7349.35
1449.15965	7401.35
1452.58027	7430.75
1455.9986	7433.65
1459.41463	7461.95
1462.82837	7521.35
1466.23982	7571.45
1469.64898	7681.05
1473.05586	7707.45
1476.46045	7734.35
1479.86276	7750.15
1483.26279	7773.55
1486.66054	7785.95
1490.05602	7864.85
1493.44922	7959.95
1496.84016	8118.35
1500.22882	8390.95
1503.61521	8762.15
1506.99934	9242.25
1510.38121	9626.45
1513.76081	9762.55
1517.13816	9469.65
1520.51324	8950.55
1523.88607	8453.85
1527.25665	8174.45
1530.62498	8032.95
1533.99105	7996.55
1537.35488	7985.15
1540.71647	7970.45
1544.07581	8014.65
1547.4329	8020.75
1550.78776	8058.15
1554.14038	8049.15
1557.49077	8091.55
1560.83892	8149.15
1564.18484	8220.65
1567.52853	8290.65
1570.86999	8346.85
1574.20922	8430.15
1577.54624	8437.85
1580.88103	8373.15
1584.2136	8228.25
1587.54395	8158.85
1590.87208	8210.55
1594.19801	8347.85
1597.52172	8555.15
1600.84321	8656.15
1604.16251	8581.95
1607.47959	8403.55
1610.79447	8148.65
1614.10715	7954.65
1617.41763	7772.95
1620.7259	7633.35
1624.03199	7584.05
1627.33587	7608.85
1630.63757	7661.15
1633.93707	7815.65
1637.23439	8047.75
1640.52951	8422.95
1643.82246	8903.15
1647.11321	9413.15
1650.40179	9736.95
1653.68819	9622.85
1656.97241	9066.15
1660.25446	8441.15
1663.53433	7953.05
1666.81203	7650.25
1670.08756	7442.55
1673.36092	7289.45
1676.63211	7183.35
1679.90115	7109.35
1683.16801	7000.85
1686.43272	6890.75
1689.69527	6781.25
1692.95567	6657.35
1696.2139	6547.75
1699.46999	6439.05
1702.72392	6305.35
1705.97571	6178.45
1709.22535	6066.85
1712.47284	5995.55
1715.71819	5924.05
1718.96139	5887.25
1722.20246	5813.35
1725.44139	5748.95
1728.67818	5716.15
1731.91284	5662.05
1735.14537	5608.85
1738.37576	5566.65
1741.60403	5537.65
1744.83017	5500.95
1748.05418	5503.85
1751.27607	5477.35
1754.49584	5465.85
1757.71349	5468.05
1760.92903	5465.15
1764.14244	5434.65
1767.35375	5401.85
1770.56294	5409.85
1773.77002	5366.75
1776.97499	5329.25
1780.17785	5294.15
1783.37861	5263.75
1786.57727	5236.65
1789.77382	5206.85
1792.96828	5186.65
1796.16064	5171.15
1799.3509	5136.95
1802.53907	5131.15
1805.72514	5099.25
1808.90913	5089.35
1812.09102	5077.35
1815.27083	5058.95
1818.44856	5043.65
1821.6242	5022.65
1824.79776	5021.05
1827.96924	5006.05
1831.13864	4990.45
1834.30597	4995.25
1837.47122	4988.15
1840.6344	4987.65
1843.7955	4973.75
1846.95454	4967.35
1850.11151	4953.35
1853.26642	4955.75
1856.41926	4940.45
1859.57004	4936.95
1862.71876	4935.95
1865.86542	4930.45
1869.01003	4913.35
1872.15258	4898.35
1875.29308	4894.75
1878.43152	4896.15
1881.56792	4872.65
1884.70227	4869.45
1887.83457	4869.15
1890.96482	4854.75
1894.09304	4848.05
1897.21921	4842.95
1900.34335	4837.05
1903.46544	4843.75
1906.58551	4836.15
1909.70353	4829.25
1912.81953	4792.15
1915.93349	4794.85
1919.04543	4797.55
1922.15534	4777.55
1925.26322	4768.95
1928.36908	4746.55
1931.47292	4745.65
1934.57473	4729.15
1937.67453	4721.45
1940.77232	4680.15
1943.86808	4691.35
1946.96184	4674.95
1950.05358	4656.55
1953.14331	4648.35
1956.23103	4638.95
1959.31675	4624.15
1962.40046	4607.05
1965.48217	4586.65
1968.56188	4588.05
1971.63959	4567.75
1974.7153	4545.35
1977.78901	4536.25
1980.86073	4519.85
1983.93046	4502.65
1986.99819	4490.65
1990.06394	4476.45
1993.1277	4464.45
1996.18947	4433.85
1999.24925	4439.35
2002.30706	4413.15
2005.36288	4393.95
2008.41672	4395.05
2011.46859	4374.75
2014.51848	4364.15
2017.56639	4324.75
2020.61233	4334.05
2023.6563	4320.45
2026.6983	4314.25
2029.73833	4295.35
2032.7764	4290.75
2035.8125	4284.75
2038.84664	4267.75
2041.87881	4258.75
2044.90903	4261.45
2047.93729	4233.15
2050.96359	4229.55
2053.98794	4238.45
2057.01034	4223.05
2060.03078	4215.75
2063.04927	4206.25
2066.06582	4206.65
2069.08042	4204.35
2072.09307	4195.55
2075.10378	4198.15
2078.11255	4202.05
2081.11938	4197.85
2084.12426	4188.85
2087.12722	4197.05
2090.12824	4190.65
2093.12732	4173.75
2096.12447	4175.45
2099.11969	4180.95
2102.11299	4181.55
2105.10435	4181.75
2108.09379	4176.95
2111.08131	4172.55
2114.0669	4176.35
2117.05057	4174.25
2120.03233	4202.95
2123.01216	4199.15
2125.99008	4186.25
2128.96609	4192.65
2131.94018	4185.35
2134.91236	4192.35
2137.88263	4205.55
2140.851	4184.45
2143.81746	4192.15
2146.78201	4206.85
2149.74466	4184.15
2152.7054	4210.25
2155.66425	4203.45
2158.6212	4196.45
2161.57625	4186.35
2164.52941	4188.65
2167.48067	4194.55
2170.43004	4180.65
2173.37752	4185.15
2176.32311	4168.95
2179.26681	4180.25
2182.20863	4170.45
2185.14856	4155.65
2188.08661	4165.65
2191.02278	4158.45
2193.95707	4153.65
2196.88948	4148.05
2199.82001	4143.35
2202.74867	4137.25
2205.67545	4129.65
2208.60037	4126.35
2211.52341	4112.25
2214.44458	4109.95
2217.36388	4101.05
2220.28132	4100.15
2223.1969	4074.85
2226.11061	4073.55
2229.02246	4052.75
2231.93245	4060.65
2234.84058	4049.25
2237.74686	4040.35
2240.65128	4032.55
2243.55385	4025.85
2246.45456	4018.65
2249.35343	4018.85
2252.25044	3992.15
2255.14561	4010.75
2258.03893	4003.25
2260.93041	3997.65
2263.82004	3983.95
2266.70783	3972.85
2269.59378	3954.95
2272.4779	3946.05
2275.36017	3939.75
2278.24061	3938.55
2281.11922	3923.85
2283.996	3918.65
2286.87094	3915.75
2289.74405	3901.85
2292.61534	3885.95
2295.4848	3870.65
2298.35243	3869.05
2301.21824	3879.55
2304.08223	3873.85
2306.94439	3867.65
2309.80474	3854.25
2312.66327	3866.15
2315.51999	3852.25
2318.37489	3850.55
2321.22797	3843.55
2324.07925	3840.85
2326.92871	3840.25
2329.77637	3820.85
2332.62222	3817.05
2335.46626	3808.55
2338.3085	3807.05
2341.14893	3804.95
2343.98756	3793.75
2346.8244	3788.65
2349.65943	3780.75
2352.49267	3785.05
2355.32411	3775.25
2358.15376	3785.45
2360.98161	3777.85
2363.80768	3782.05
2366.63195	3770.95
2369.45444	3768.75
2372.27514	3766.95
2375.09405	3747.05
2377.91118	3745.45
2380.72652	3747.05
2383.54009	3726.75
2386.35187	3735.65
2389.16188	3723.75
2391.97011	3715.05
2394.77657	3705.45
2397.58125	3692.95
2400.38416	3694.45
2403.18529	3692.95
2405.98466	3681.35
2408.78226	3677.75
2411.57809	3669.25
2414.37216	3651.15
2417.16446	3652.05
2419.955	3650.05
2422.74378	3639.65
2425.5308	3636.75
2428.31606	3638.65
2431.09956	3603.35
2433.88131	3610.15
2436.6613	3616.85
2439.43954	3605.05
2442.21603	3602.15
2444.99077	3588.75
2447.76377	3590.25
2450.53501	3583.75
2453.30451	3589.75
2456.07226	3591.95
2458.83827	3586.65
2461.60254	3584.05
2464.36507	3576.05
2467.12586	3579.45
2469.88492	3573.75
2472.64224	3560.85
2475.39782	3582.45
2478.15167	3567.85
2480.90379	3556.95
2483.65417	3554.65
2486.40283	3549.35
2489.14976	3567.85
2491.89497	3532.95
2494.63845	3540.65
2497.3802	3538.05
2500.12024	3552.15
2502.85855	3538.85
2505.59514	3520.25
2508.33002	3516.55
2511.06318	3523.55
2513.79462	3513.55
2516.52435	3502.45
2519.25237	3493.85
2521.97867	3488.75
2524.70327	3484.65
2527.42616	3486.85
2530.14734	3481.05
2532.86681	3461.95
2535.58458	3463.15
2538.30065	3460.65
2541.01501	3459.55
2543.72768	3448.05
2546.43864	3448.95
2549.14791	3433.95
2551.85548	3423.55
2554.56136	3419.45
2557.26554	3410.25
2559.96803	3417.15
2562.66883	3406.15
2565.36794	3396.65
2568.06536	3388.15
2570.7611	3380.65
2573.45514	3373.65
2576.14751	3376.55
2578.83819	3376.15
2581.52719	3376.75
2584.21451	3353.15
2586.90015	3357.55
2589.58411	3354.15
2592.2664	3334.55
2594.94701	3340.85
2597.62594	3337.75
2600.30321	3310.95
2602.9788	3322.05
2605.65273	3309.05
2608.32498	3303.75
2610.99557	3298.75
2613.66449	3286.05
2616.33175	3294.85
2618.99734	3298.95
2621.66128	3286.25
2624.32355	3280.45
2626.98416	3280.95
2629.64311	3283.35
2632.30041	3270.55
2634.95605	3270.15
2637.61004	3265.55
2640.26238	3257.35
2642.91306	3249.45
2645.56209	3247.65
2648.20948	3245.75
2650.85521	3249.25
2653.4993	3240.65
2656.14175	3230.35
2658.78255	3242.55
2661.42171	3231.95
2664.05923	3237.85
2666.6951	3238.25
2669.32934	3240.75
2671.96194	3332.55
2674.59291	3327.25
2677.22224	3269.55
2679.84993	3238.35
2682.476	3225.35
2685.10043	3234.85
2687.72324	3233.35
2690.34441	3215.75
2692.96396	3218.05
2695.58188	3230.05
2698.19818	3233.95
2700.81285	3234.95
2703.4259	3242.85
2706.03733	3261.05
2708.64714	3238.65
2711.25533	3234.05
2713.86191	3239.65
2716.46687	3234.45
2719.07021	3239.05
2721.67194	3245.45
2724.27206	3230.75
2726.87057	3246.65
2729.46747	3236.95
2732.06276	3221.75
2734.65644	3224.55
2737.24852	3233.35
2739.83899	3219.65
2742.42786	3219.15
2745.01513	3201.75
2747.60079	3202.95
2750.18486	3192.95
2752.76733	3205.95
2755.3482	3204.55
2757.92747	3202.05
2760.50515	3186.15
2763.08123	3192.05
2765.65573	3184.35
2768.22863	3168.45
2770.79994	3182.95
2773.36967	3173.55
2775.9378	3169.75
2778.50435	3162.75
2781.06932	3147.55
2783.6327	3147.35
2786.1945	3150.05
2788.75471	3145.95
2791.31335	3141.95
2793.87041	3133.45
2796.42589	3126.15
2798.97979	3105.95
2801.53212	3124.45
2804.08288	3117.65
2806.63206	3103.55
2809.17967	3105.05
2811.72571	3095.75
2814.27018	3087.25
2816.81308	3097.95
2819.35442	3102.95
2821.89419	3079.15
2824.43239	3079.95
2826.96904	3072.85
2829.50412	3096.45
2832.03763	3069.25
2834.56959	3069.15
2837.1	3066.05
2839.62884	3063.55
2842.15613	3062.25
2844.68186	3062.65
2847.20604	3071.55
2849.72867	3080.35
2852.24974	3071.35
2854.76927	3066.45
2857.28724	3066.45
2859.80367	3048.45
2862.31855	3050.05
2864.83189	3053.05
2867.34368	3050.85
2869.85393	3044.35
2872.36264	3057.25
2874.8698	3045.55
2877.37543	3056.75
2879.87952	3051.15
2882.38207	3056.75
2884.88308	3044.55
2887.38256	3055.65
2889.88051	3054.55
2892.37692	3058.75
2894.8718	3055.95
2897.36515	3063.75
2899.85698	3065.85
2902.34727	3072.75
2904.83604	3063.45
2907.32328	3062.95
2909.809	3075.85
2912.29319	3071.65
2914.77587	3069.75
2917.25702	3080.85
2919.73665	3081.35
2922.21476	3075.75
2924.69136	3077.25
2927.16644	3092.85
2929.64	3078.85
2932.11205	3080.05
2934.58258	3082.65
2937.05161	3089.45
2939.51912	3079.15
2941.98513	3078.95
2944.44962	3059.35
2946.91261	3059.05
2949.37409	3070.25
2951.83407	3071.55
2954.29254	3071.55
2956.74951	3056.65
2959.20498	3043.05
2961.65895	3040.45
2964.11142	3032.35
2966.56239	3041.75
2969.01186	3030.75
2971.45984	3026.35
2973.90632	3008.15
2976.35131	3001.15
2978.7948	3016.15
2981.23681	2995.65
2983.67732	2999.85
2986.11635	2985.35
2988.55388	2962.25
2990.98993	2972.45
2993.4245	2973.75
2995.85758	2962.15
2998.28917	2962.75
3000.71928	2955.15
3003.14791	2963.45
3005.57506	2952.65
3008.00073	2957.75
3010.42493	2955.55
3012.84764	2963.05
3015.26888	2964.85
3017.68865	2950.75
3020.10694	2943.45
3022.52376	2938.95
3024.9391	2943.45
3027.35298	2930.65
3029.76539	2928.35
3032.17632	2925.95
3034.5858	2926.15
3036.9938	2931.55
3039.40034	2929.85
3041.80542	2919.05
3044.20903	2924.55
3046.61118	2933.65
3049.01187	2911.55
3051.4111	2919.95
3053.80888	2913.25
3056.20519	2915.05
3058.60005	2900.05
3060.99345	2920.95
3063.3854	2911.45
3065.7759	2890.15
3068.16494	2903.85
3070.55254	2900.45
3072.93868	2892.35
3075.32338	2903.05
3077.70662	2899.85
3080.08842	2900.55
3082.46878	2909.65
3084.84769	2897.85
3087.22515	2904.35
3089.60118	2907.65
3091.97576	2912.95
3094.3489	2913.15
3096.72061	2913.65
3099.09087	2929.15
3101.4597	2921.75
3103.82709	2937.75
3106.19305	2932.85
3108.55757	2930.65
3110.92066	2927.55
3113.28232	2925.05
3115.64255	2931.35
3118.00134	2928.05
3120.35871	2930.75
3122.71466	2927.85
3125.06917	2923.35
3127.42226	2927.15
3129.77393	2941.15
3132.12417	2942.65
3134.47299	2958.15
3136.82039	2943.45
3139.16636	2950.95
3141.51092	2962.05
3143.85406	2972.25
3146.19579	2971.55
3148.53609	2981.25
3150.87499	2993.35
3153.21246	3001.45
3155.54853	3013.05
3157.88318	3028.65
3160.21642	3027.15
3162.54826	3031.45
3164.87868	3027.45
3167.2077	3038.65
3169.5353	3047.15
3171.86151	3043.65
3174.18631	3071.35
3176.5097	3037.45
3178.83169	3052.15
3181.15228	3047.65
3183.47147	3041.85
3185.78926	3071.95
3188.10565	3052.85
3190.42065	3064.95
3192.73424	3068.55
3195.04645	3067.85
3197.35725	3072.65
3199.66667	3092.15
3201.97469	3103.55
3204.28132	3108.75
3206.58656	3098.25
3208.8904	3107.45
3211.19287	3115.25
3213.49394	3128.15
3215.79363	3126.75
3218.09193	3127.45
3220.38884	3138.25
3222.68438	3133.35
3224.97853	3132.95
3227.2713	3141.45
3229.56269	3135.25
3231.8527	3119.85
3234.14133	3122.85
3236.42858	3120.85
3238.71446	3119.15
3240.99896	3117.05
3243.28209	3125.35
3245.56384	3124.45
3247.84423	3124.45
3250.12324	3118.35
3252.40088	3127.45
3254.67715	3120.45
3256.95205	3116.95
3259.22558	3116.85
3261.49775	3115.65
3263.76855	3118.65
3266.03799	3103.75
3268.30606	3100.85
3270.57277	3112.65
3272.83812	3088.45
3275.10211	3082.85
3277.36474	3077.85
3279.62601	3087.95
3281.88593	3080.75
3284.14448	3099.75
3286.40168	3088.65
3288.65753	3064.25
3290.91202	3063.85
3293.16516	3064.75
3295.41695	3060.45
3297.66738	3027.15
3299.91647	3014.25
3302.16421	3003.05
3304.4106	2999.95
3306.65564	2987.65
3308.89933	2984.65
3311.14169	2965.25
3313.38269	2950.75
3315.62236	2921.05
3317.86068	2892.55
3320.09766	2859.95
3322.3333	2844.55
3324.5676	2853.15
3326.80056	2819.25
3329.03219	2794.85
3331.26248	0.95
3333.49143	1.55
3335.71905	-0.35
