Data from AgNPs_FTO_APTES_UA_0.1mM_CRN_0uM_NaF_0.1M_Addition_RamanShift__25__10-31-47-479.txt Node

Date: Mon Dec 20 10:31:47 GMT 2021
User: TCL
Spectrometer: QEP01345
Trigger mode: 4
Integration Time (sec): 7.000000E0
Scans to average: 10
Electric dark correction enabled: true
Nonlinearity correction enabled: false
Boxcar width: 0
XAxis mode: Raman Shifts
Number of Pixels in Spectrum: 1044
>>>>>Begin Spectral Data<<<<<
46.04893	-0.35
50.45542	0.25
54.85868	0.25
59.25871	2.05
63.6555	25.15
68.04907	25.95
72.43941	28.65
76.82654	29.95
81.21044	31.95
85.59113	39.15
89.96862	31.85
94.34289	35.85
98.71396	37.95
103.08183	38.15
107.4465	36.95
111.80798	42.15
116.16626	39.85
120.52136	42.55
124.87327	42.65
129.222	41.95
133.56755	42.35
137.90993	46.85
142.24913	48.75
146.58517	47.85
150.91804	56.85
155.24774	70.25
159.57429	80.15
163.89768	101.15
168.21792	131.25
172.53501	161.65
176.84895	218.15
181.15975	300.95
185.46741	411.75
189.77193	563.75
194.07331	746.85
198.37157	967.55
202.6667	1186.15
206.9587	1420.35
211.24758	1637.65
215.53334	1854.35
219.81599	2066.65
224.09553	2290.35
228.37195	2535.25
232.64527	2797.95
236.91549	3064.65
241.18261	3323.85
245.44663	3561.95
249.70755	3773.35
253.96539	3960.65
258.22014	4111.85
262.4718	4192.95
266.72039	4272.35
270.96589	4280.45
275.20832	4266.95
279.44768	4227.45
283.68397	4166.35
287.91719	4100.05
292.14735	4044.95
296.37445	4029.15
300.59849	4029.45
304.81948	4044.75
309.03742	4072.95
313.25231	4035.85
317.46415	3976.85
321.67296	3863.95
325.87872	3753.95
330.08145	3690.15
334.28114	3691.15
338.47781	3696.15
342.67145	3737.35
346.86207	3791.45
351.04966	3882.05
355.23424	3980.95
359.4158	4089.15
363.59435	4146.75
367.76989	4205.85
371.94243	4243.55
376.11196	4298.85
380.27849	4340.55
384.44203	4387.25
388.60257	4413.15
392.76012	4432.55
396.91468	4473.35
401.06626	4511.35
405.21485	4554.55
409.36047	4541.25
413.50311	4455.85
417.64277	4374.35
421.77947	4336.35
425.9132	4307.95
430.04396	4316.95
434.17176	4309.55
438.2966	4382.75
442.41849	4462.45
446.53742	4545.25
450.6534	4616.15
454.76644	4684.55
458.87653	4677.65
462.98368	4645.55
467.08789	4633.95
471.18916	4610.65
475.2875	4621.25
479.38291	4651.65
483.4754	4735.25
487.56496	4877.75
491.6516	5039.95
495.73531	5108.15
499.81612	5064.75
503.89401	4937.85
507.96899	4825.65
512.04106	4782.35
516.11023	4798.55
520.1765	4843.15
524.23987	4945.05
528.30034	4993.65
532.35792	5000.15
536.41261	4946.85
540.46441	4843.15
544.51333	4722.75
548.55936	4645.85
552.60252	4608.65
556.64279	4605.75
560.6802	4604.45
564.71473	4615.35
568.7464	4621.65
572.7752	4694.25
576.80114	4688.85
580.82422	4722.35
584.84444	4797.45
588.86181	4962.05
592.87633	5112.95
596.888	5133.65
600.89682	5086.45
604.9028	5150.05
608.90594	5548.95
612.90624	6240.85
616.90371	6398.85
620.89834	5983.15
624.89015	6034.95
628.87913	6478.15
632.86528	6964.85
636.84862	7240.95
640.82913	7081.85
644.80683	6626.55
648.78172	6138.15
652.75379	5703.95
656.72306	5441.25
660.68952	5309.45
664.65319	5198.65
668.61405	5130.65
672.57211	5088.85
676.52738	5107.75
680.47986	5109.95
684.42955	5091.35
688.37646	5058.75
692.32058	5041.35
696.26192	4951.95
700.20048	4899.65
704.13626	4867.35
708.06928	4802.55
711.99952	4737.85
715.927	4728.45
719.85171	4773.75
723.77365	4812.25
727.69284	4813.45
731.60928	4765.45
735.52295	4691.85
739.43388	4638.35
743.34206	4636.15
747.24749	4645.15
751.15017	4668.55
755.05012	4681.85
758.94733	4698.75
762.8418	4832.05
766.73354	5075.75
770.62254	5332.15
774.50882	5497.45
778.39237	5403.85
782.27321	5144.35
786.15132	4897.95
790.02671	4788.05
793.89938	4769.95
797.76935	4810.55
801.6366	4968.55
805.50115	5217.95
809.36299	5511.35
813.22213	5617.15
817.07857	5494.55
820.93231	5225.95
824.78336	4916.35
828.63172	4688.95
832.47738	4573.05
836.32036	4511.15
840.16066	4470.15
843.99827	4432.65
847.8332	4422.45
851.66546	4404.95
855.49504	4364.95
859.32195	4379.35
863.1462	4404.65
866.96777	4467.05
870.78668	4590.65
874.60293	4750.25
878.41652	4952.25
882.22745	5131.05
886.03573	5247.45
889.84136	5245.75
893.64433	5087.95
897.44466	4842.85
901.24235	4601.35
905.0374	4410.15
908.8298	4294.25
912.61957	4228.05
916.40671	4183.15
920.19121	4174.65
923.97308	4160.95
927.75233	4148.05
931.52895	4161.65
935.30295	4147.55
939.07433	4134.05
942.84309	4101.65
946.60924	4059.05
950.37278	4055.65
954.13371	4049.35
957.89203	4024.05
961.64774	3989.35
965.40086	3972.65
969.15137	3964.15
972.89929	3933.55
976.64461	3913.45
980.38733	3916.15
984.12747	3898.35
987.86502	3911.95
991.59999	3959.15
995.33237	3992.55
999.06217	4104.05
1002.78939	4208.85
1006.51404	4331.55
1010.23611	4432.65
1013.95561	4517.55
1017.67255	4554.35
1021.38692	4504.65
1025.09872	4389.65
1028.80796	4276.25
1032.51465	4152.75
1036.21877	4059.35
1039.92035	4001.45
1043.61937	3969.45
1047.31584	3943.65
1051.00976	3942.85
1054.70114	3969.35
1058.38998	3998.95
1062.07627	4053.05
1065.76003	4114.75
1069.44126	4152.85
1073.11995	4173.75
1076.79611	4166.25
1080.46974	4131.15
1084.14085	4090.15
1087.80943	4050.95
1091.47549	4015.45
1095.13903	3964.65
1098.80005	3900.05
1102.45857	3859.75
1106.11456	3858.65
1109.76805	3893.65
1113.41903	4023.25
1117.06751	4199.55
1120.71348	4482.05
1124.35696	4879.15
1127.99793	5387.25
1131.63641	5821.85
1135.2724	6063.95
1138.90589	6048.25
1142.5369	5809.15
1146.16542	5444.35
1149.79145	5000.55
1153.415	4618.75
1157.03607	4311.65
1160.65467	4131.05
1164.27079	4025.85
1167.88443	4030.05
1171.49561	4133.95
1175.10432	4310.45
1178.71056	4599.65
1182.31434	4873.65
1185.91565	5061.35
1189.51451	5184.55
1193.11091	5300.65
1196.70485	5420.95
1200.29634	5569.35
1203.88538	5611.75
1207.47197	5468.05
1211.05612	5206.05
1214.63782	4930.45
1218.21708	4669.95
1221.79391	4463.15
1225.36829	4283.65
1228.94024	4173.55
1232.50976	4067.65
1236.07685	4016.65
1239.6415	4034.55
1243.20374	4076.55
1246.76355	4077.45
1250.32093	4091.95
1253.8759	4133.35
1257.42845	4189.05
1260.97859	4241.35
1264.52631	4285.05
1268.07163	4321.25
1271.61453	4347.85
1275.15503	4314.85
1278.69312	4300.65
1282.22882	4273.35
1285.76211	4304.15
1289.29301	4372.35
1292.82151	4461.55
1296.34761	4590.45
1299.87133	4720.75
1303.39266	4917.05
1306.9116	5219.55
1310.42815	5596.05
1313.94233	5870.45
1317.45412	5930.75
1320.96354	5783.15
1324.47058	5561.65
1327.97525	5354.85
1331.47754	5266.65
1334.97747	5282.95
1338.47502	5394.25
1341.97022	5534.35
1345.46305	5683.75
1348.95352	5901.35
1352.44163	6167.45
1355.92738	6555.75
1359.41078	7050.65
1362.89183	7550.15
1366.37053	7540.35
1369.84688	6993.45
1373.32088	6304.35
1376.79254	5856.55
1380.26186	5576.75
1383.72883	5448.65
1387.19347	5288.25
1390.65578	5117.65
1394.11575	4957.95
1397.57339	4849.85
1401.0287	4745.05
1404.48168	4669.35
1407.93234	4577.15
1411.38068	4463.25
1414.82669	4360.85
1418.27039	4248.95
1421.71177	4113.55
1425.15083	3994.85
1428.58758	3920.45
1432.02203	3924.45
1435.45416	3930.55
1438.88399	3921.45
1442.31151	3938.15
1445.73673	3933.15
1449.15965	3935.15
1452.58027	3914.65
1455.9986	3862.75
1459.41463	3802.65
1462.82837	3796.15
1466.23982	3843.75
1469.64898	3920.75
1473.05586	3994.75
1476.46045	4051.25
1479.86276	4126.05
1483.26279	4211.95
1486.66054	4292.55
1490.05602	4369.75
1493.44922	4479.25
1496.84016	4534.35
1500.22882	4670.55
1503.61521	4902.35
1506.99934	5209.65
1510.38121	5485.95
1513.76081	5638.95
1517.13816	5497.95
1520.51324	5110.75
1523.88607	4715.95
1527.25665	4461.25
1530.62498	4368.95
1533.99105	4385.55
1537.35488	4393.55
1540.71647	4460.15
1544.07581	4513.25
1547.4329	4561.45
1550.78776	4630.55
1554.14038	4649.35
1557.49077	4682.65
1560.83892	4708.35
1564.18484	4723.15
1567.52853	4772.55
1570.86999	4828.65
1574.20922	4882.45
1577.54624	4876.95
1580.88103	4809.05
1584.2136	4698.45
1587.54395	4622.15
1590.87208	4640.25
1594.19801	4728.85
1597.52172	4917.15
1600.84321	5113.65
1604.16251	5160.15
1607.47959	5062.85
1610.79447	4893.65
1614.10715	4720.45
1617.41763	4612.95
1620.7259	4555.75
1624.03199	4550.95
1627.33587	4553.75
1630.63757	4604.45
1633.93707	4715.45
1637.23439	4906.95
1640.52951	5187.05
1643.82246	5567.85
1647.11321	6016.65
1650.40179	6309.65
1653.68819	6277.35
1656.97241	5897.35
1660.25446	5403.55
1663.53433	5004.35
1666.81203	4680.05
1670.08756	4445.75
1673.36092	4250.15
1676.63211	4119.45
1679.90115	4014.95
1683.16801	3912.85
1686.43272	3820.65
1689.69527	3718.45
1692.95567	3640.05
1696.2139	3560.55
1699.46999	3468.15
1702.72392	3385.65
1705.97571	3256.25
1709.22535	3147.35
1712.47284	3072.25
1715.71819	2999.95
1718.96139	2926.65
1722.20246	2870.35
1725.44139	2816.15
1728.67818	2752.35
1731.91284	2711.85
1735.14537	2646.65
1738.37576	2612.45
1741.60403	2579.85
1744.83017	2549.85
1748.05418	2536.65
1751.27607	2521.55
1754.49584	2505.25
1757.71349	2489.25
1760.92903	2464.65
1764.14244	2452.55
1767.35375	2440.05
1770.56294	2415.35
1773.77002	2401.05
1776.97499	2372.65
1780.17785	2364.55
1783.37861	2340.95
1786.57727	2325.95
1789.77382	2301.55
1792.96828	2285.15
1796.16064	2274.45
1799.3509	2270.35
1802.53907	2248.85
1805.72514	2227.85
1808.90913	2220.85
1812.09102	2216.65
1815.27083	2213.65
1818.44856	2194.75
1821.6242	2180.05
1824.79776	2180.15
1827.96924	2184.65
1831.13864	2154.65
1834.30597	2156.15
1837.47122	2156.75
1840.6344	2136.65
1843.7955	2144.35
1846.95454	2133.85
1850.11151	2136.65
1853.26642	2124.85
1856.41926	2119.15
1859.57004	2121.35
1862.71876	2115.95
1865.86542	2110.15
1869.01003	2094.05
1872.15258	2105.95
1875.29308	2097.15
1878.43152	2077.95
1881.56792	2078.95
1884.70227	2073.55
1887.83457	2060.45
1890.96482	2062.95
1894.09304	2053.65
1897.21921	2045.55
1900.34335	2042.45
1903.46544	2042.95
1906.58551	2037.35
1909.70353	2031.25
1912.81953	2016.45
1915.93349	2015.95
1919.04543	2005.25
1922.15534	2002.75
1925.26322	1990.45
1928.36908	1980.45
1931.47292	1979.95
1934.57473	1975.15
1937.67453	1969.45
1940.77232	1953.05
1943.86808	1940.85
1946.96184	1952.35
1950.05358	1935.45
1953.14331	1924.65
1956.23103	1926.85
1959.31675	1919.45
1962.40046	1909.35
1965.48217	1905.05
1968.56188	1893.15
1971.63959	1886.45
1974.7153	1877.65
1977.78901	1871.15
1980.86073	1867.45
1983.93046	1857.55
1986.99819	1854.65
1990.06394	1844.45
1993.1277	1835.25
1996.18947	1838.55
1999.24925	1821.15
2002.30706	1819.75
2005.36288	1811.05
2008.41672	1800.95
2011.46859	1800.95
2014.51848	1776.15
2017.56639	1783.45
2020.61233	1771.25
2023.6563	1775.45
2026.6983	1770.35
2029.73833	1756.85
2032.7764	1748.05
2035.8125	1752.45
2038.84664	1746.85
2041.87881	1742.55
2044.90903	1734.15
2047.93729	1736.35
2050.96359	1736.65
2053.98794	1730.95
2057.01034	1724.05
2060.03078	1725.75
2063.04927	1709.65
2066.06582	1729.75
2069.08042	1712.05
2072.09307	1714.95
2075.10378	1704.45
2078.11255	1705.95
2081.11938	1708.15
2084.12426	1699.35
2087.12722	1706.15
2090.12824	1707.65
2093.12732	1704.45
2096.12447	1693.65
2099.11969	1690.65
2102.11299	1698.15
2105.10435	1693.65
2108.09379	1687.35
2111.08131	1688.75
2114.0669	1690.85
2117.05057	1684.05
2120.03233	1685.15
2123.01216	1678.25
2125.99008	1676.85
2128.96609	1680.15
2131.94018	1688.75
2134.91236	1672.35
2137.88263	1684.45
2140.851	1680.05
2143.81746	1675.15
2146.78201	1670.15
2149.74466	1668.45
2152.7054	1672.65
2155.66425	1665.15
2158.6212	1663.65
2161.57625	1653.95
2164.52941	1659.05
2167.48067	1651.65
2170.43004	1652.85
2173.37752	1644.25
2176.32311	1651.35
2179.26681	1633.95
2182.20863	1643.85
2185.14856	1641.75
2188.08661	1640.65
2191.02278	1632.85
2193.95707	1637.05
2196.88948	1624.25
2199.82001	1621.65
2202.74867	1611.75
2205.67545	1611.05
2208.60037	1613.95
2211.52341	1606.45
2214.44458	1600.45
2217.36388	1599.55
2220.28132	1596.55
2223.1969	1585.05
2226.11061	1580.65
2229.02246	1575.45
2231.93245	1575.35
2234.84058	1567.35
2237.74686	1564.85
2240.65128	1561.75
2243.55385	1561.15
2246.45456	1552.25
2249.35343	1549.75
2252.25044	1539.85
2255.14561	1538.05
2258.03893	1537.45
2260.93041	1540.15
2263.82004	1527.15
2266.70783	1522.75
2269.59378	1519.85
2272.4779	1523.15
2275.36017	1514.25
2278.24061	1515.45
2281.11922	1513.15
2283.996	1498.75
2286.87094	1500.65
2289.74405	1495.65
2292.61534	1482.75
2295.4848	1480.85
2298.35243	1479.15
2301.21824	1471.55
2304.08223	1475.05
2306.94439	1463.25
2309.80474	1467.25
2312.66327	1463.05
2315.51999	1457.95
2318.37489	1454.45
2321.22797	1444.95
2324.07925	1442.35
2326.92871	1440.25
2329.77637	1441.25
2332.62222	1431.65
2335.46626	1434.15
2338.3085	1427.65
2341.14893	1416.35
2343.98756	1425.25
2346.8244	1419.15
2349.65943	1411.05
2352.49267	1417.45
2355.32411	1418.75
2358.15376	1418.75
2360.98161	1415.55
2363.80768	1412.65
2366.63195	1417.55
2369.45444	1407.55
2372.27514	1406.65
2375.09405	1408.35
2377.91118	1408.45
2380.72652	1407.95
2383.54009	1392.55
2386.35187	1400.35
2389.16188	1391.55
2391.97011	1382.85
2394.77657	1376.85
2397.58125	1378.75
2400.38416	1379.85
2403.18529	1368.25
2405.98466	1369.45
2408.78226	1361.35
2411.57809	1347.75
2414.37216	1352.95
2417.16446	1348.45
2419.955	1350.15
2422.74378	1339.15
2425.5308	1333.95
2428.31606	1334.85
2431.09956	1324.95
2433.88131	1327.05
2436.6613	1329.25
2439.43954	1326.75
2442.21603	1311.95
2444.99077	1312.55
2447.76377	1311.05
2450.53501	1310.85
2453.30451	1319.55
2456.07226	1312.05
2458.83827	1302.95
2461.60254	1306.55
2464.36507	1291.65
2467.12586	1294.85
2469.88492	1300.25
2472.64224	1290.25
2475.39782	1286.95
2478.15167	1286.35
2480.90379	1283.55
2483.65417	1288.35
2486.40283	1290.35
2489.14976	1292.15
2491.89497	1282.65
2494.63845	1283.15
2497.3802	1275.15
2500.12024	1278.85
2502.85855	1272.85
2505.59514	1267.55
2508.33002	1266.05
2511.06318	1266.75
2513.79462	1262.45
2516.52435	1260.35
2519.25237	1251.35
2521.97867	1247.65
2524.70327	1250.85
2527.42616	1249.15
2530.14734	1232.05
2532.86681	1232.35
2535.58458	1233.85
2538.30065	1235.25
2541.01501	1225.85
2543.72768	1225.15
2546.43864	1222.25
2549.14791	1218.45
2551.85548	1215.45
2554.56136	1211.45
2557.26554	1207.95
2559.96803	1197.35
2562.66883	1207.65
2565.36794	1205.25
2568.06536	1197.05
2570.7611	1198.95
2573.45514	1196.55
2576.14751	1188.55
2578.83819	1188.65
2581.52719	1191.65
2584.21451	1179.15
2586.90015	1170.35
2589.58411	1176.45
2592.2664	1179.05
2594.94701	1171.55
2597.62594	1166.95
2600.30321	1157.95
2602.9788	1155.85
2605.65273	1154.45
2608.32498	1148.65
2610.99557	1159.95
2613.66449	1151.05
2616.33175	1149.75
2618.99734	1146.35
2621.66128	1150.15
2624.32355	1136.85
2626.98416	1144.15
2629.64311	1151.35
2632.30041	1130.35
2634.95605	1137.65
2637.61004	1136.25
2640.26238	1131.05
2642.91306	1127.65
2645.56209	1133.65
2648.20948	1132.45
2650.85521	1121.25
2653.4993	1118.75
2656.14175	1117.45
2658.78255	1115.85
2661.42171	1123.65
2664.05923	1113.05
2666.6951	1118.75
2669.32934	1125.05
2671.96194	1124.95
2674.59291	1121.45
2677.22224	1127.75
2679.84993	1122.75
2682.476	1119.45
2685.10043	1130.95
2687.72324	1124.85
2690.34441	1119.35
2692.96396	1122.85
2695.58188	1121.75
2698.19818	1133.95
2700.81285	1125.65
2703.4259	1121.55
2706.03733	1120.45
2708.64714	1125.15
2711.25533	1121.75
2713.86191	1130.15
2716.46687	1126.25
2719.07021	1137.45
2721.67194	1132.15
2724.27206	1128.85
2726.87057	1139.05
2729.46747	1132.85
2732.06276	1135.45
2734.65644	1125.05
2737.24852	1126.25
2739.83899	1118.65
2742.42786	1123.05
2745.01513	1114.65
2747.60079	1120.25
2750.18486	1124.15
2752.76733	1119.75
2755.3482	1118.15
2757.92747	1120.65
2760.50515	1109.05
2763.08123	1122.35
2765.65573	1102.95
2768.22863	1111.95
2770.79994	1114.05
2773.36967	1114.75
2775.9378	1111.25
2778.50435	1107.05
2781.06932	1111.75
2783.6327	1112.95
2786.1945	1106.85
2788.75471	1105.75
2791.31335	1108.55
2793.87041	1099.95
2796.42589	1109.65
2798.97979	1099.15
2801.53212	1098.15
2804.08288	1094.95
2806.63206	1097.75
2809.17967	1097.55
2811.72571	1104.15
2814.27018	1091.35
2816.81308	1090.75
2819.35442	1092.85
2821.89419	1083.45
2824.43239	1099.95
2826.96904	1093.35
2829.50412	1097.95
2832.03763	1092.85
2834.56959	1094.95
2837.1	1089.05
2839.62884	1101.15
2842.15613	1101.55
2844.68186	1116.95
2847.20604	1114.35
2849.72867	1117.45
2852.24974	1119.65
2854.76927	1122.05
2857.28724	1121.65
2859.80367	1120.95
2862.31855	1123.65
2864.83189	1127.55
2867.34368	1131.45
2869.85393	1127.15
2872.36264	1130.55
2874.8698	1138.95
2877.37543	1145.85
2879.87952	1145.05
2882.38207	1145.85
2884.88308	1142.25
2887.38256	1145.55
2889.88051	1154.45
2892.37692	1151.45
2894.8718	1153.55
2897.36515	1156.25
2899.85698	1154.35
2902.34727	1158.65
2904.83604	1165.05
2907.32328	1160.95
2909.809	1155.55
2912.29319	1153.55
2914.77587	1158.95
2917.25702	1162.35
2919.73665	1156.15
2922.21476	1159.95
2924.69136	1162.25
2927.16644	1154.75
2929.64	1156.85
2932.11205	1150.55
2934.58258	1152.65
2937.05161	1149.75
2939.51912	1144.65
2941.98513	1136.65
2944.44962	1139.85
2946.91261	1118.75
2949.37409	1122.35
2951.83407	1113.05
2954.29254	1108.05
2956.74951	1104.45
2959.20498	1098.15
2961.65895	1087.25
2964.11142	1088.85
2966.56239	1081.85
2969.01186	1081.75
2971.45984	1078.15
2973.90632	1067.75
2976.35131	1058.55
2978.7948	1063.85
2981.23681	1052.75
2983.67732	1048.75
2986.11635	1046.15
2988.55388	1047.15
2990.98993	1047.65
2993.4245	1034.45
2995.85758	1032.35
2998.28917	1035.95
3000.71928	1035.25
3003.14791	1040.75
3005.57506	1036.55
3008.00073	1040.95
3010.42493	1033.25
3012.84764	1038.75
3015.26888	1039.15
3017.68865	1035.45
3020.10694	1033.95
3022.52376	1037.65
3024.9391	1039.75
3027.35298	1033.15
3029.76539	1034.15
3032.17632	1032.65
3034.5858	1035.95
3036.9938	1038.95
3039.40034	1047.25
3041.80542	1038.75
3044.20903	1034.25
3046.61118	1040.65
3049.01187	1039.75
3051.4111	1041.05
3053.80888	1044.35
3056.20519	1051.15
3058.60005	1051.85
3060.99345	1052.05
3063.3854	1058.95
3065.7759	1069.25
3068.16494	1053.65
3070.55254	1056.35
3072.93868	1064.15
3075.32338	1067.55
3077.70662	1069.05
3080.08842	1064.05
3082.46878	1066.05
3084.84769	1078.25
3087.22515	1078.95
3089.60118	1081.75
3091.97576	1085.45
3094.3489	1089.25
3096.72061	1090.25
3099.09087	1105.95
3101.4597	1100.95
3103.82709	1103.65
3106.19305	1109.85
3108.55757	1116.95
3110.92066	1115.85
3113.28232	1122.15
3115.64255	1123.75
3118.00134	1132.75
3120.35871	1130.95
3122.71466	1132.45
3125.06917	1144.65
3127.42226	1145.15
3129.77393	1146.05
3132.12417	1154.45
3134.47299	1164.75
3136.82039	1169.15
3139.16636	1177.55
3141.51092	1185.55
3143.85406	1190.55
3146.19579	1198.25
3148.53609	1205.05
3150.87499	1209.65
3153.21246	1220.85
3155.54853	1226.05
3157.88318	1228.05
3160.21642	1240.95
3162.54826	1238.45
3164.87868	1238.85
3167.2077	1251.35
3169.5353	1261.05
3171.86151	1260.55
3174.18631	1268.65
3176.5097	1277.05
3178.83169	1275.05
3181.15228	1283.05
3183.47147	1293.15
3185.78926	1295.65
3188.10565	1292.85
3190.42065	1299.35
3192.73424	1296.75
3195.04645	1318.55
3197.35725	1307.85
3199.66667	1314.85
3201.97469	1336.35
3204.28132	1340.25
3206.58656	1344.85
3208.8904	1345.05
3211.19287	1352.75
3213.49394	1350.55
3215.79363	1356.75
3218.09193	1366.75
3220.38884	1369.15
3222.68438	1364.25
3224.97853	1368.65
3227.2713	1377.45
3229.56269	1376.85
3231.8527	1368.95
3234.14133	1364.05
3236.42858	1370.05
3238.71446	1374.15
3240.99896	1383.75
3243.28209	1380.15
3245.56384	1378.25
3247.84423	1372.65
3250.12324	1372.65
3252.40088	1380.55
3254.67715	1379.25
3256.95205	1371.65
3259.22558	1380.45
3261.49775	1382.05
3263.76855	1383.95
3266.03799	1380.75
3268.30606	1377.65
3270.57277	1365.55
3272.83812	1374.65
3275.10211	1375.65
3277.36474	1376.15
3279.62601	1366.15
3281.88593	1365.25
3284.14448	1371.75
3286.40168	1369.65
3288.65753	1365.25
3290.91202	1365.35
3293.16516	1357.85
3295.41695	1357.75
3297.66738	1338.95
3299.91647	1337.05
3302.16421	1336.25
3304.4106	1335.55
3306.65564	1326.65
3308.89933	1322.05
3311.14169	1314.95
3313.38269	1306.65
3315.62236	1296.05
3317.86068	1284.65
3320.09766	1271.35
3322.3333	1264.25
3324.5676	1268.05
3326.80056	1232.55
3329.03219	1240.55
3331.26248	-0.15
3333.49143	-0.45
3335.71905	-1.15
