Data from AgNPs_FTO_APTES_UA_0.1mM_CRN_20uM_NaF_0.1M_Addition_RamanShift__27__12-28-27-612.txt Node

Date: Mon Dec 20 12:28:27 GMT 2021
User: TCL
Spectrometer: QEP01345
Trigger mode: 4
Integration Time (sec): 7.000000E0
Scans to average: 10
Electric dark correction enabled: true
Nonlinearity correction enabled: false
Boxcar width: 0
XAxis mode: Raman Shifts
Number of Pixels in Spectrum: 1044
>>>>>Begin Spectral Data<<<<<
46.04893	0.05
50.45542	0.05
54.85868	-0.65
59.25871	0.75
63.6555	34.15
68.04907	36.45
72.43941	39.85
76.82654	40.45
81.21044	42.15
85.59113	46.25
89.96862	41.45
94.34289	47.35
98.71396	47.45
103.08183	49.45
107.4465	49.45
111.80798	53.35
116.16626	53.75
120.52136	53.15
124.87327	57.75
129.222	58.55
133.56755	61.75
137.90993	65.95
142.24913	70.25
146.58517	73.25
150.91804	85.35
155.24774	102.35
159.57429	121.85
163.89768	157.75
168.21792	202.75
172.53501	260.95
176.84895	357.95
181.15975	500.85
185.46741	695.85
189.77193	960.55
194.07331	1283.95
198.37157	1662.25
202.6667	2068.05
206.9587	2455.45
211.24758	2851.35
215.53334	3245.55
219.81599	3647.35
224.09553	4067.85
228.37195	4534.05
232.64527	5041.55
236.91549	5574.35
241.18261	6063.05
245.44663	6520.95
249.70755	6954.65
253.96539	7340.95
258.22014	7633.35
262.4718	7870.05
266.72039	8005.65
270.96589	8057.35
275.20832	8046.55
279.44768	7964.35
283.68397	7847.25
287.91719	7764.45
292.14735	7684.05
296.37445	7658.25
300.59849	7718.35
304.81948	7756.65
309.03742	7772.95
313.25231	7733.95
317.46415	7575.05
321.67296	7306.15
325.87872	7140.55
330.08145	7036.65
334.28114	7035.55
338.47781	7080.65
342.67145	7162.95
346.86207	7283.45
351.04966	7450.15
355.23424	7663.75
359.4158	7821.95
363.59435	7947.75
367.76989	8018.15
371.94243	8120.25
376.11196	8147.25
380.27849	8214.95
384.44203	8264.35
388.60257	8286.75
392.76012	8347.65
396.91468	8407.65
401.06626	8513.75
405.21485	8618.85
409.36047	8577.55
413.50311	8452.95
417.64277	8270.75
421.77947	8228.25
425.9132	8175.25
430.04396	8194.35
434.17176	8245.65
438.2966	8308.85
442.41849	8400.85
446.53742	8518.05
450.6534	8676.75
454.76644	8784.75
458.87653	8804.15
462.98368	8777.15
467.08789	8728.65
471.18916	8724.75
475.2875	8707.15
479.38291	8736.35
483.4754	8804.75
487.56496	8928.95
491.6516	9020.45
495.73531	9089.65
499.81612	8991.95
503.89401	8899.95
507.96899	8803.55
512.04106	8740.95
516.11023	8772.65
520.1765	8830.35
524.23987	8913.15
528.30034	8939.35
532.35792	8903.45
536.41261	8827.55
540.46441	8675.15
544.51333	8549.55
548.55936	8471.65
552.60252	8489.25
556.64279	8546.25
560.6802	8611.95
564.71473	8658.75
568.7464	8782.35
572.7752	8899.05
576.80114	8860.15
580.82422	8861.25
584.84444	8911.85
588.86181	9048.85
592.87633	9179.05
596.888	9222.05
600.89682	9205.25
604.9028	9411.75
608.90594	10240.25
612.90624	11440.75
616.90371	11500.45
620.89834	10355.05
624.89015	10088.65
628.87913	10540.65
632.86528	11091.95
636.84862	11388.35
640.82913	11179.05
644.80683	10569.65
648.78172	9907.75
652.75379	9422.85
656.72306	9207.45
660.68952	9157.75
664.65319	9042.15
668.61405	8904.95
672.57211	8880.45
676.52738	8889.25
680.47986	8847.15
684.42955	8802.65
688.37646	8764.05
692.32058	8759.25
696.26192	8737.35
700.20048	8703.35
704.13626	8668.05
708.06928	8612.55
711.99952	8532.35
715.927	8501.75
719.85171	8556.35
723.77365	8597.85
727.69284	8604.25
731.60928	8534.45
735.52295	8423.15
739.43388	8347.05
743.34206	8367.95
747.24749	8417.95
751.15017	8393.45
755.05012	8464.75
758.94733	8587.05
762.8418	8875.25
766.73354	9351.15
770.62254	9853.35
774.50882	10118.15
778.39237	9913.75
782.27321	9333.85
786.15132	8826.75
790.02671	8556.15
793.89938	8454.95
797.76935	8498.05
801.6366	8621.75
805.50115	8898.85
809.36299	9236.15
813.22213	9377.05
817.07857	9228.35
820.93231	8919.85
824.78336	8558.15
828.63172	8274.05
832.47738	8154.85
836.32036	8065.35
840.16066	8038.95
843.99827	8010.55
847.8332	7989.05
851.66546	7965.55
855.49504	7965.25
859.32195	7960.85
863.1462	8007.65
866.96777	8062.35
870.78668	8199.65
874.60293	8385.35
878.41652	8603.15
882.22745	8816.35
886.03573	8929.95
889.84136	8924.15
893.64433	8708.55
897.44466	8416.95
901.24235	8130.95
905.0374	7904.15
908.8298	7763.65
912.61957	7704.45
916.40671	7662.15
920.19121	7660.55
923.97308	7662.55
927.75233	7657.25
931.52895	7647.35
935.30295	7613.35
939.07433	7547.35
942.84309	7466.15
946.60924	7425.85
950.37278	7435.15
954.13371	7407.55
957.89203	7380.45
961.64774	7326.25
965.40086	7325.55
969.15137	7269.35
972.89929	7252.35
976.64461	7229.05
980.38733	7208.75
984.12747	7211.75
987.86502	7234.35
991.59999	7295.05
995.33237	7345.15
999.06217	7485.55
1002.78939	7647.85
1006.51404	7797.95
1010.23611	7970.35
1013.95561	8063.15
1017.67255	8072.15
1021.38692	8009.15
1025.09872	7889.35
1028.80796	7736.15
1032.51465	7621.95
1036.21877	7542.05
1039.92035	7476.15
1043.61937	7463.65
1047.31584	7425.05
1051.00976	7402.85
1054.70114	7402.45
1058.38998	7441.85
1062.07627	7535.35
1065.76003	7608.85
1069.44126	7650.05
1073.11995	7696.85
1076.79611	7712.25
1080.46974	7704.85
1084.14085	7684.85
1087.80943	7644.35
1091.47549	7606.05
1095.13903	7553.05
1098.80005	7444.25
1102.45857	7368.25
1106.11456	7360.35
1109.76805	7397.55
1113.41903	7504.15
1117.06751	7753.85
1120.71348	8068.45
1124.35696	8514.15
1127.99793	9113.65
1131.63641	9630.85
1135.2724	9845.25
1138.90589	9834.45
1142.5369	9566.95
1146.16542	9133.65
1149.79145	8643.35
1153.415	8220.15
1157.03607	7890.35
1160.65467	7735.85
1164.27079	7730.25
1167.88443	7848.05
1171.49561	8065.45
1175.10432	8469.75
1178.71056	9014.05
1182.31434	9543.45
1185.91565	9807.55
1189.51451	9855.25
1193.11091	9843.85
1196.70485	9831.55
1200.29634	9849.55
1203.88538	9865.55
1207.47197	9655.85
1211.05612	9319.85
1214.63782	8962.35
1218.21708	8620.05
1221.79391	8335.95
1225.36829	8117.55
1228.94024	7961.75
1232.50976	7814.55
1236.07685	7740.25
1239.6415	7722.75
1243.20374	7761.65
1246.76355	7803.85
1250.32093	7850.15
1253.8759	7919.25
1257.42845	8025.85
1260.97859	8115.65
1264.52631	8190.55
1268.07163	8298.15
1271.61453	8369.95
1275.15503	8420.55
1278.69312	8475.35
1282.22882	8483.75
1285.76211	8607.95
1289.29301	8765.65
1292.82151	8992.05
1296.34761	9283.55
1299.87133	9640.15
1303.39266	10116.05
1306.9116	10753.75
1310.42815	11394.15
1313.94233	11827.25
1317.45412	11804.35
1320.96354	11522.15
1324.47058	11201.25
1327.97525	10903.65
1331.47754	10718.55
1334.97747	10709.35
1338.47502	10774.15
1341.97022	10891.45
1345.46305	11060.85
1348.95352	11268.95
1352.44163	11569.05
1355.92738	12036.35
1359.41078	12747.05
1362.89183	13548.75
1366.37053	13383.75
1369.84688	12226.15
1373.32088	11026.05
1376.79254	10212.25
1380.26186	9812.55
1383.72883	9613.35
1387.19347	9486.65
1390.65578	9342.95
1394.11575	9246.95
1397.57339	9221.85
1401.0287	9232.55
1404.48168	9243.95
1407.93234	9208.35
1411.38068	9065.25
1414.82669	8863.05
1418.27039	8541.45
1421.71177	8232.95
1425.15083	7959.65
1428.58758	7781.75
1432.02203	7715.55
1435.45416	7748.95
1438.88399	7798.15
1442.31151	7829.85
1445.73673	7886.45
1449.15965	7960.65
1452.58027	7997.75
1455.9986	7977.75
1459.41463	8000.55
1462.82837	8053.75
1466.23982	8131.65
1469.64898	8238.45
1473.05586	8330.25
1476.46045	8337.85
1479.86276	8335.15
1483.26279	8385.35
1486.66054	8418.25
1490.05602	8496.95
1493.44922	8620.35
1496.84016	8827.15
1500.22882	9151.15
1503.61521	9636.15
1506.99934	10233.95
1510.38121	10777.85
1513.76081	10954.35
1517.13816	10586.35
1520.51324	9882.55
1523.88607	9226.55
1527.25665	8814.95
1530.62498	8646.35
1533.99105	8599.85
1537.35488	8591.35
1540.71647	8604.25
1544.07581	8645.25
1547.4329	8639.75
1550.78776	8649.35
1554.14038	8645.65
1557.49077	8648.65
1560.83892	8674.25
1564.18484	8722.85
1567.52853	8814.35
1570.86999	8919.65
1574.20922	9017.35
1577.54624	9044.65
1580.88103	8977.75
1584.2136	8813.55
1587.54395	8787.35
1590.87208	8898.85
1594.19801	9183.65
1597.52172	9557.55
1600.84321	9740.85
1604.16251	9663.05
1607.47959	9310.65
1610.79447	8931.95
1614.10715	8557.15
1617.41763	8248.25
1620.7259	8064.05
1624.03199	7970.05
1627.33587	7982.15
1630.63757	8077.85
1633.93707	8312.75
1637.23439	8656.95
1640.52951	9195.85
1643.82246	9890.95
1647.11321	10626.15
1650.40179	11056.45
1653.68819	10822.25
1656.97241	10019.05
1660.25446	9097.35
1663.53433	8364.35
1666.81203	7885.75
1670.08756	7546.75
1673.36092	7324.55
1676.63211	7163.95
1679.90115	7048.25
1683.16801	6917.05
1686.43272	6822.25
1689.69527	6694.85
1692.95567	6603.05
1696.2139	6496.15
1699.46999	6405.75
1702.72392	6306.95
1705.97571	6185.15
1709.22535	6062.75
1712.47284	5994.35
1715.71819	5908.65
1718.96139	5843.25
1722.20246	5786.15
1725.44139	5724.55
1728.67818	5649.75
1731.91284	5604.35
1735.14537	5546.95
1738.37576	5501.25
1741.60403	5491.05
1744.83017	5442.05
1748.05418	5450.15
1751.27607	5414.25
1754.49584	5417.45
1757.71349	5409.95
1760.92903	5376.75
1764.14244	5354.25
1767.35375	5348.75
1770.56294	5340.25
1773.77002	5302.35
1776.97499	5262.35
1780.17785	5239.55
1783.37861	5204.85
1786.57727	5179.55
1789.77382	5147.85
1792.96828	5148.35
1796.16064	5113.45
1799.3509	5104.55
1802.53907	5089.05
1805.72514	5055.85
1808.90913	5044.95
1812.09102	5020.75
1815.27083	5013.65
1818.44856	5008.75
1821.6242	4996.95
1824.79776	4972.75
1827.96924	4979.75
1831.13864	4947.45
1834.30597	4964.55
1837.47122	4942.15
1840.6344	4941.65
1843.7955	4930.55
1846.95454	4925.45
1850.11151	4932.75
1853.26642	4914.05
1856.41926	4894.85
1859.57004	4897.55
1862.71876	4917.75
1865.86542	4883.55
1869.01003	4890.75
1872.15258	4867.35
1875.29308	4862.05
1878.43152	4862.95
1881.56792	4845.75
1884.70227	4841.05
1887.83457	4829.45
1890.96482	4830.85
1894.09304	4829.45
1897.21921	4803.55
1900.34335	4805.75
1903.46544	4803.95
1906.58551	4792.05
1909.70353	4792.55
1912.81953	4787.05
1915.93349	4764.45
1919.04543	4742.05
1922.15534	4763.75
1925.26322	4721.85
1928.36908	4710.35
1931.47292	4709.15
1934.57473	4686.15
1937.67453	4672.75
1940.77232	4674.45
1943.86808	4643.55
1946.96184	4633.35
1950.05358	4611.65
1953.14331	4611.95
1956.23103	4596.45
1959.31675	4571.65
1962.40046	4566.25
1965.48217	4561.15
1968.56188	4561.45
1971.63959	4530.25
1974.7153	4509.05
1977.78901	4506.05
1980.86073	4489.95
1983.93046	4458.75
1986.99819	4436.15
1990.06394	4436.25
1993.1277	4415.45
1996.18947	4393.35
1999.24925	4378.25
2002.30706	4384.15
2005.36288	4355.25
2008.41672	4338.05
2011.46859	4337.95
2014.51848	4324.95
2017.56639	4303.85
2020.61233	4287.25
2023.6563	4299.35
2026.6983	4282.25
2029.73833	4263.55
2032.7764	4251.35
2035.8125	4247.15
2038.84664	4229.95
2041.87881	4228.45
2044.90903	4216.85
2047.93729	4210.45
2050.96359	4193.95
2053.98794	4199.15
2057.01034	4192.75
2060.03078	4183.15
2063.04927	4179.15
2066.06582	4174.95
2069.08042	4172.05
2072.09307	4157.15
2075.10378	4173.35
2078.11255	4149.15
2081.11938	4157.15
2084.12426	4155.55
2087.12722	4162.15
2090.12824	4157.95
2093.12732	4140.75
2096.12447	4149.65
2099.11969	4129.35
2102.11299	4129.75
2105.10435	4139.35
2108.09379	4143.75
2111.08131	4139.95
2114.0669	4149.45
2117.05057	4149.35
2120.03233	4145.45
2123.01216	4141.55
2125.99008	4149.95
2128.96609	4143.55
2131.94018	4134.05
2134.91236	4148.55
2137.88263	4146.85
2140.851	4132.65
2143.81746	4142.25
2146.78201	4139.85
2149.74466	4152.25
2152.7054	4159.45
2155.66425	4139.65
2158.6212	4137.55
2161.57625	4147.25
2164.52941	4130.15
2167.48067	4129.35
2170.43004	4136.15
2173.37752	4116.85
2176.32311	4121.25
2179.26681	4111.85
2182.20863	4111.55
2185.14856	4118.25
2188.08661	4119.15
2191.02278	4116.35
2193.95707	4094.85
2196.88948	4090.55
2199.82001	4094.35
2202.74867	4087.25
2205.67545	4086.25
2208.60037	4062.95
2211.52341	4059.35
2214.44458	4053.65
2217.36388	4050.75
2220.28132	4045.95
2223.1969	4027.65
2226.11061	4018.35
2229.02246	3998.55
2231.93245	4004.55
2234.84058	3987.25
2237.74686	3987.15
2240.65128	3979.15
2243.55385	3966.85
2246.45456	3973.55
2249.35343	3960.75
2252.25044	3951.75
2255.14561	3959.45
2258.03893	3939.85
2260.93041	3942.95
2263.82004	3935.35
2266.70783	3918.75
2269.59378	3897.15
2272.4779	3905.25
2275.36017	3896.55
2278.24061	3880.45
2281.11922	3888.35
2283.996	3850.85
2286.87094	3862.25
2289.74405	3844.45
2292.61534	3830.95
2295.4848	3823.85
2298.35243	3816.65
2301.21824	3816.25
2304.08223	3824.35
2306.94439	3822.15
2309.80474	3805.85
2312.66327	3813.75
2315.51999	3797.05
2318.37489	3797.45
2321.22797	3792.75
2324.07925	3777.75
2326.92871	3785.75
2329.77637	3768.45
2332.62222	3774.15
2335.46626	3761.35
2338.3085	3769.95
2341.14893	3752.55
2343.98756	3737.25
2346.8244	3737.95
2349.65943	3721.55
2352.49267	3739.95
2355.32411	3749.85
2358.15376	3736.85
2360.98161	3725.25
2363.80768	3721.05
2366.63195	3727.05
2369.45444	3713.85
2372.27514	3704.65
2375.09405	3721.25
2377.91118	3705.25
2380.72652	3707.45
2383.54009	3696.15
2386.35187	3683.75
2389.16188	3675.95
2391.97011	3655.85
2394.77657	3658.25
2397.58125	3643.45
2400.38416	3648.75
2403.18529	3642.75
2405.98466	3633.25
2408.78226	3611.45
2411.57809	3601.15
2414.37216	3611.65
2417.16446	3585.75
2419.955	3575.45
2422.74378	3579.75
2425.5308	3576.75
2428.31606	3571.55
2431.09956	3565.05
2433.88131	3551.55
2436.6613	3552.25
2439.43954	3549.95
2442.21603	3533.85
2444.99077	3540.85
2447.76377	3545.15
2450.53501	3537.85
2453.30451	3531.95
2456.07226	3518.25
2458.83827	3540.45
2461.60254	3526.25
2464.36507	3510.75
2467.12586	3504.95
2469.88492	3519.05
2472.64224	3518.25
2475.39782	3513.25
2478.15167	3502.95
2480.90379	3494.95
2483.65417	3498.05
2486.40283	3488.55
2489.14976	3507.45
2491.89497	3487.65
2494.63845	3499.75
2497.3802	3487.25
2500.12024	3486.45
2502.85855	3472.35
2505.59514	3474.85
2508.33002	3469.15
2511.06318	3473.25
2513.79462	3462.15
2516.52435	3448.05
2519.25237	3440.65
2521.97867	3435.95
2524.70327	3435.25
2527.42616	3441.25
2530.14734	3412.75
2532.86681	3407.55
2535.58458	3414.85
2538.30065	3412.05
2541.01501	3390.35
2543.72768	3393.85
2546.43864	3388.25
2549.14791	3382.45
2551.85548	3375.45
2554.56136	3369.65
2557.26554	3356.65
2559.96803	3350.35
2562.66883	3349.65
2565.36794	3351.95
2568.06536	3337.45
2570.7611	3332.85
2573.45514	3341.05
2576.14751	3320.35
2578.83819	3307.65
2581.52719	3320.45
2584.21451	3306.25
2586.90015	3299.35
2589.58411	3291.05
2592.2664	3280.85
2594.94701	3285.85
2597.62594	3281.55
2600.30321	3263.65
2602.9788	3258.85
2605.65273	3257.25
2608.32498	3269.25
2610.99557	3259.45
2613.66449	3240.65
2616.33175	3246.35
2618.99734	3227.05
2621.66128	3237.55
2624.32355	3234.95
2626.98416	3232.85
2629.64311	3229.05
2632.30041	3227.45
2634.95605	3222.95
2637.61004	3208.15
2640.26238	3215.65
2642.91306	3205.55
2645.56209	3199.75
2648.20948	3203.35
2650.85521	3192.25
2653.4993	3188.35
2656.14175	3199.05
2658.78255	3184.85
2661.42171	3187.05
2664.05923	3186.35
2666.6951	3181.95
2669.32934	3199.55
2671.96194	3191.85
2674.59291	3191.65
2677.22224	3187.25
2679.84993	3188.05
2682.476	3185.05
2685.10043	3182.55
2687.72324	3193.65
2690.34441	3188.15
2692.96396	3182.25
2695.58188	3204.75
2698.19818	3185.85
2700.81285	3191.45
2703.4259	3189.75
2706.03733	3230.75
2708.64714	3206.25
2711.25533	3193.15
2713.86191	3213.95
2716.46687	3206.65
2719.07021	3199.75
2721.67194	3195.95
2724.27206	3172.55
2726.87057	3199.35
2729.46747	3190.55
2732.06276	3180.25
2734.65644	3186.55
2737.24852	3186.15
2739.83899	3184.35
2742.42786	3185.15
2745.01513	3168.85
2747.60079	3171.85
2750.18486	3149.75
2752.76733	3157.45
2755.3482	3156.75
2757.92747	3142.55
2760.50515	3150.75
2763.08123	3133.95
2765.65573	3145.35
2768.22863	3142.35
2770.79994	3135.55
2773.36967	3138.75
2775.9378	3139.35
2778.50435	3113.35
2781.06932	3115.95
2783.6327	3110.15
2786.1945	3111.15
2788.75471	3104.15
2791.31335	3100.55
2793.87041	3100.15
2796.42589	3081.05
2798.97979	3084.15
2801.53212	3087.85
2804.08288	3082.25
2806.63206	3067.25
2809.17967	3048.75
2811.72571	3054.75
2814.27018	3049.75
2816.81308	3039.35
2819.35442	3037.15
2821.89419	3030.05
2824.43239	3033.55
2826.96904	3030.55
2829.50412	3038.35
2832.03763	3025.55
2834.56959	3022.85
2837.1	3026.55
2839.62884	3028.75
2842.15613	3027.95
2844.68186	3024.95
2847.20604	3024.95
2849.72867	3026.85
2852.24974	3029.65
2854.76927	3028.55
2857.28724	3039.35
2859.80367	3028.25
2862.31855	3015.25
2864.83189	3018.35
2867.34368	3011.95
2869.85393	3018.55
2872.36264	3016.75
2874.8698	3031.65
2877.37543	3006.75
2879.87952	3011.35
2882.38207	3024.65
2884.88308	3023.05
2887.38256	3011.65
2889.88051	3012.05
2892.37692	3032.65
2894.8718	3028.45
2897.36515	3025.35
2899.85698	3024.45
2902.34727	3039.35
2904.83604	3020.05
2907.32328	3037.65
2909.809	3034.85
2912.29319	3034.55
2914.77587	3038.65
2917.25702	3052.65
2919.73665	3031.05
2922.21476	3029.45
2924.69136	3036.95
2927.16644	3031.25
2929.64	3020.05
2932.11205	3034.05
2934.58258	3022.35
2937.05161	3029.35
2939.51912	3020.35
2941.98513	3024.15
2944.44962	3018.45
2946.91261	2997.85
2949.37409	3000.55
2951.83407	3006.25
2954.29254	3006.95
2956.74951	2988.85
2959.20498	2993.75
2961.65895	2991.15
2964.11142	2989.45
2966.56239	2966.65
2969.01186	2972.55
2971.45984	2961.05
2973.90632	2963.15
2976.35131	2952.75
2978.7948	2944.55
2981.23681	2944.35
2983.67732	2940.45
2986.11635	2941.25
2988.55388	2939.25
2990.98993	2939.85
2993.4245	2931.35
2995.85758	2912.45
2998.28917	2913.65
3000.71928	2901.15
3003.14791	2911.45
3005.57506	2912.95
3008.00073	2901.65
3010.42493	2903.35
3012.84764	2902.05
3015.26888	2906.95
3017.68865	2898.75
3020.10694	2876.85
3022.52376	2893.55
3024.9391	2891.15
3027.35298	2876.95
3029.76539	2893.75
3032.17632	2889.05
3034.5858	2879.45
3036.9938	2878.55
3039.40034	2884.35
3041.80542	2885.75
3044.20903	2867.35
3046.61118	2884.25
3049.01187	2881.15
3051.4111	2881.45
3053.80888	2879.15
3056.20519	2883.55
3058.60005	2879.05
3060.99345	2859.65
3063.3854	2874.25
3065.7759	2866.85
3068.16494	2862.95
3070.55254	2853.85
3072.93868	2847.75
3075.32338	2852.05
3077.70662	2860.95
3080.08842	2847.95
3082.46878	2863.15
3084.84769	2857.65
3087.22515	2862.85
3089.60118	2866.75
3091.97576	2864.65
3094.3489	2875.25
3096.72061	2876.95
3099.09087	2883.15
3101.4597	2885.15
3103.82709	2885.15
3106.19305	2872.15
3108.55757	2878.65
3110.92066	2895.75
3113.28232	2863.35
3115.64255	2878.65
3118.00134	2876.65
3120.35871	2881.45
3122.71466	2898.75
3125.06917	2878.45
3127.42226	2889.85
3129.77393	2888.05
3132.12417	2894.35
3134.47299	2900.35
3136.82039	2918.05
3139.16636	2916.25
3141.51092	2921.75
3143.85406	2935.95
3146.19579	2940.85
3148.53609	2947.75
3150.87499	2946.65
3153.21246	2961.25
3155.54853	2958.95
3157.88318	2968.95
3160.21642	2977.65
3162.54826	2984.75
3164.87868	2983.75
3167.2077	2993.15
3169.5353	2999.65
3171.86151	2996.95
3174.18631	2998.05
3176.5097	3000.85
3178.83169	3007.35
3181.15228	3002.35
3183.47147	3018.45
3185.78926	3018.85
3188.10565	3016.05
3190.42065	3022.75
3192.73424	3027.05
3195.04645	3027.65
3197.35725	3032.95
3199.66667	3045.45
3201.97469	3062.55
3204.28132	3063.55
3206.58656	3069.05
3208.8904	3067.15
3211.19287	3068.65
3213.49394	3082.25
3215.79363	3094.05
3218.09193	3085.95
3220.38884	3095.65
3222.68438	3099.35
3224.97853	3095.55
3227.2713	3096.55
3229.56269	3091.25
3231.8527	3094.95
3234.14133	3081.65
3236.42858	3086.75
3238.71446	3086.55
3240.99896	3091.05
3243.28209	3085.75
3245.56384	3081.55
3247.84423	3085.55
3250.12324	3085.45
3252.40088	3093.55
3254.67715	3077.05
3256.95205	3067.95
3259.22558	3068.25
3261.49775	3052.05
3263.76855	3062.75
3266.03799	3069.35
3268.30606	3056.75
3270.57277	3060.55
3272.83812	3053.35
3275.10211	3046.55
3277.36474	3045.65
3279.62601	3052.85
3281.88593	3048.15
3284.14448	3048.25
3286.40168	3048.35
3288.65753	3052.35
3290.91202	3032.75
3293.16516	3019.15
3295.41695	3012.55
3297.66738	2994.05
3299.91647	2984.85
3302.16421	2965.15
3304.4106	2962.25
3306.65564	2949.45
3308.89933	2940.95
3311.14169	2910.45
3313.38269	2900.65
3315.62236	2892.65
3317.86068	2860.15
3320.09766	2821.55
3322.3333	2811.45
3324.5676	2807.55
3326.80056	2780.75
3329.03219	2757.65
3331.26248	0.65
3333.49143	-0.25
3335.71905	0.25
