Data from AgNPs_FTO_APTES_UA_0.1mM_CRN_200uM_NaF_0.1M_Addition_RamanShift__0__13-54-47-709.txt Node

Date: Mon Dec 20 13:54:47 GMT 2021
User: TCL
Spectrometer: QEP01345
Trigger mode: 4
Integration Time (sec): 7.000000E0
Scans to average: 10
Electric dark correction enabled: true
Nonlinearity correction enabled: false
Boxcar width: 0
XAxis mode: Raman Shifts
Number of Pixels in Spectrum: 1044
>>>>>Begin Spectral Data<<<<<
46.04893	1.05
50.45542	0.55
54.85868	-1.65
59.25871	1.35
63.6555	24.65
68.04907	25.45
72.43941	27.75
76.82654	29.05
81.21044	26.65
85.59113	34.85
89.96862	29.15
94.34289	33.05
98.71396	33.05
103.08183	32.05
107.4465	34.15
111.80798	38.75
116.16626	39.45
120.52136	39.45
124.87327	39.65
129.222	40.45
133.56755	42.55
137.90993	48.15
142.24913	46.85
146.58517	49.35
150.91804	60.85
155.24774	68.55
159.57429	77.45
163.89768	97.15
168.21792	127.85
172.53501	160.85
176.84895	221.55
181.15975	299.85
185.46741	419.35
189.77193	580.35
194.07331	772.85
198.37157	996.55
202.6667	1243.75
206.9587	1488.85
211.24758	1719.35
215.53334	1966.15
219.81599	2230.05
224.09553	2506.55
228.37195	2842.45
232.64527	3189.75
236.91549	3529.95
241.18261	3878.05
245.44663	4173.25
249.70755	4404.95
253.96539	4606.35
258.22014	4756.35
262.4718	4848.95
266.72039	4896.85
270.96589	4888.05
275.20832	4851.25
279.44768	4780.85
283.68397	4701.35
287.91719	4639.65
292.14735	4574.15
296.37445	4513.55
300.59849	4507.45
304.81948	4501.25
309.03742	4490.45
313.25231	4460.75
317.46415	4404.65
321.67296	4316.25
325.87872	4253.45
330.08145	4203.25
334.28114	4189.45
338.47781	4203.75
342.67145	4220.15
346.86207	4271.75
351.04966	4320.45
355.23424	4398.45
359.4158	4463.25
363.59435	4515.45
367.76989	4562.05
371.94243	4616.25
376.11196	4655.45
380.27849	4698.05
384.44203	4738.65
388.60257	4770.45
392.76012	4833.25
396.91468	4854.95
401.06626	4910.95
405.21485	4953.95
409.36047	4952.25
413.50311	4932.05
417.64277	4894.35
421.77947	4881.45
425.9132	4885.05
430.04396	4898.25
434.17176	4925.25
438.2966	4941.85
442.41849	4981.35
446.53742	5030.95
450.6534	5072.45
454.76644	5136.05
458.87653	5163.85
462.98368	5166.55
467.08789	5148.95
471.18916	5158.15
475.2875	5168.25
479.38291	5200.35
483.4754	5273.35
487.56496	5384.25
491.6516	5508.95
495.73531	5612.65
499.81612	5650.75
503.89401	5582.85
507.96899	5490.25
512.04106	5425.55
516.11023	5378.15
520.1765	5395.05
524.23987	5427.55
528.30034	5441.45
532.35792	5476.05
536.41261	5449.05
540.46441	5385.25
544.51333	5289.05
548.55936	5231.55
552.60252	5194.65
556.64279	5184.05
560.6802	5203.95
564.71473	5195.85
568.7464	5235.05
572.7752	5289.35
576.80114	5307.75
580.82422	5340.25
584.84444	5442.95
588.86181	5591.15
592.87633	5679.75
596.888	5689.45
600.89682	5640.45
604.9028	5680.05
608.90594	5950.95
612.90624	6355.15
616.90371	6396.05
620.89834	6094.75
624.89015	6165.85
628.87913	6555.45
632.86528	7093.65
636.84862	7432.95
640.82913	7447.95
644.80683	7115.75
648.78172	6679.65
652.75379	6273.25
656.72306	5966.15
660.68952	5810.65
664.65319	5676.95
668.61405	5566.75
672.57211	5527.75
676.52738	5544.95
680.47986	5571.45
684.42955	5570.85
688.37646	5536.05
692.32058	5486.05
696.26192	5419.95
700.20048	5402.35
704.13626	5388.65
708.06928	5353.55
711.99952	5351.75
715.927	5338.05
719.85171	5385.35
723.77365	5440.45
727.69284	5485.05
731.60928	5465.75
735.52295	5367.95
739.43388	5296.55
743.34206	5280.05
747.24749	5283.15
751.15017	5272.75
755.05012	5286.35
758.94733	5346.75
762.8418	5441.15
766.73354	5619.25
770.62254	5788.45
774.50882	5849.55
778.39237	5750.85
782.27321	5552.75
786.15132	5353.15
790.02671	5242.35
793.89938	5209.25
797.76935	5222.95
801.6366	5281.65
805.50115	5446.15
809.36299	5651.75
813.22213	5779.45
817.07857	5748.35
820.93231	5610.45
824.78336	5395.85
828.63172	5236.15
832.47738	5130.95
836.32036	5056.35
840.16066	5037.25
843.99827	5020.45
847.8332	5025.65
851.66546	5010.55
855.49504	5012.65
859.32195	5028.85
863.1462	5060.15
866.96777	5123.75
870.78668	5188.95
874.60293	5303.15
878.41652	5428.25
882.22745	5573.05
886.03573	5694.95
889.84136	5740.95
893.64433	5671.35
897.44466	5485.15
901.24235	5307.15
905.0374	5127.45
908.8298	4996.75
912.61957	4931.95
916.40671	4903.85
920.19121	4886.15
923.97308	4884.15
927.75233	4882.35
931.52895	4877.45
935.30295	4845.55
939.07433	4840.35
942.84309	4786.35
946.60924	4760.05
950.37278	4737.45
954.13371	4735.95
957.89203	4731.95
961.64774	4711.95
965.40086	4703.95
969.15137	4687.65
972.89929	4672.55
976.64461	4669.25
980.38733	4671.65
984.12747	4660.95
987.86502	4681.05
991.59999	4700.35
995.33237	4742.55
999.06217	4798.35
1002.78939	4885.65
1006.51404	4949.15
1010.23611	5028.45
1013.95561	5075.45
1017.67255	5132.65
1021.38692	5132.25
1025.09872	5077.55
1028.80796	5031.35
1032.51465	4971.75
1036.21877	4907.25
1039.92035	4852.85
1043.61937	4840.45
1047.31584	4804.45
1051.00976	4816.85
1054.70114	4816.05
1058.38998	4855.45
1062.07627	4898.95
1065.76003	4945.95
1069.44126	5017.55
1073.11995	5101.65
1076.79611	5148.35
1080.46974	5139.15
1084.14085	5094.95
1087.80943	5020.45
1091.47549	4971.25
1095.13903	4945.45
1098.80005	4888.05
1102.45857	4856.45
1106.11456	4865.45
1109.76805	4893.75
1113.41903	4999.95
1117.06751	5215.95
1120.71348	5506.95
1124.35696	5935.95
1127.99793	6416.15
1131.63641	6863.35
1135.2724	7035.55
1138.90589	6981.95
1142.5369	6722.15
1146.16542	6343.05
1149.79145	5914.95
1153.415	5571.35
1157.03607	5302.25
1160.65467	5128.45
1164.27079	5056.45
1167.88443	5072.65
1171.49561	5134.35
1175.10432	5299.25
1178.71056	5487.35
1182.31434	5691.55
1185.91565	5806.85
1189.51451	5849.35
1193.11091	5869.35
1196.70485	5893.95
1200.29634	5958.75
1203.88538	6001.75
1207.47197	5966.85
1211.05612	5874.35
1214.63782	5738.95
1218.21708	5577.65
1221.79391	5422.15
1225.36829	5305.15
1228.94024	5204.65
1232.50976	5146.25
1236.07685	5086.75
1239.6415	5095.65
1243.20374	5092.75
1246.76355	5139.85
1250.32093	5194.95
1253.8759	5242.75
1257.42845	5312.05
1260.97859	5369.15
1264.52631	5427.75
1268.07163	5478.35
1271.61453	5493.05
1275.15503	5499.85
1278.69312	5476.45
1282.22882	5454.65
1285.76211	5493.45
1289.29301	5551.85
1292.82151	5600.05
1296.34761	5696.15
1299.87133	5808.45
1303.39266	5977.85
1306.9116	6188.65
1310.42815	6408.35
1313.94233	6563.75
1317.45412	6578.75
1320.96354	6511.15
1324.47058	6434.55
1327.97525	6332.35
1331.47754	6264.25
1334.97747	6260.05
1338.47502	6277.05
1341.97022	6329.25
1345.46305	6419.15
1348.95352	6526.85
1352.44163	6722.45
1355.92738	6970.35
1359.41078	7260.15
1362.89183	7582.35
1366.37053	7595.55
1369.84688	7239.05
1373.32088	6812.95
1376.79254	6475.85
1380.26186	6301.25
1383.72883	6164.05
1387.19347	6044.05
1390.65578	5916.15
1394.11575	5772.85
1397.57339	5678.75
1401.0287	5600.25
1404.48168	5554.65
1407.93234	5476.35
1411.38068	5372.75
1414.82669	5265.65
1418.27039	5134.25
1421.71177	5038.65
1425.15083	4934.85
1428.58758	4875.45
1432.02203	4844.25
1435.45416	4829.35
1438.88399	4844.15
1442.31151	4847.05
1445.73673	4853.45
1449.15965	4861.75
1452.58027	4853.15
1455.9986	4842.55
1459.41463	4843.05
1462.82837	4867.85
1466.23982	4902.85
1469.64898	4957.65
1473.05586	4980.85
1476.46045	5000.95
1479.86276	5019.85
1483.26279	5051.05
1486.66054	5106.15
1490.05602	5125.95
1493.44922	5228.75
1496.84016	5370.15
1500.22882	5515.35
1503.61521	5732.35
1506.99934	5968.05
1510.38121	6163.55
1513.76081	6217.25
1517.13816	6089.25
1520.51324	5835.05
1523.88607	5609.85
1527.25665	5502.65
1530.62498	5433.05
1533.99105	5460.55
1537.35488	5483.35
1540.71647	5501.05
1544.07581	5531.35
1547.4329	5517.25
1550.78776	5538.75
1554.14038	5531.85
1557.49077	5532.65
1560.83892	5536.65
1564.18484	5556.35
1567.52853	5597.55
1570.86999	5641.85
1574.20922	5667.05
1577.54624	5691.45
1580.88103	5645.95
1584.2136	5570.05
1587.54395	5517.25
1590.87208	5504.25
1594.19801	5580.45
1597.52172	5683.65
1600.84321	5718.25
1604.16251	5669.75
1607.47959	5571.75
1610.79447	5437.85
1614.10715	5336.45
1617.41763	5261.75
1620.7259	5239.95
1624.03199	5218.15
1627.33587	5253.85
1630.63757	5340.15
1633.93707	5449.25
1637.23439	5671.55
1640.52951	5934.95
1643.82246	6242.35
1647.11321	6568.95
1650.40179	6767.75
1653.68819	6717.45
1656.97241	6454.85
1660.25446	6098.55
1663.53433	5846.55
1666.81203	5674.35
1670.08756	5575.35
1673.36092	5468.05
1676.63211	5420.35
1679.90115	5373.25
1683.16801	5329.35
1686.43272	5297.85
1689.69527	5214.25
1692.95567	5146.45
1696.2139	5095.15
1699.46999	5048.75
1702.72392	4937.05
1705.97571	4746.95
1709.22535	4546.75
1712.47284	4385.05
1715.71819	4269.25
1718.96139	4171.05
1722.20246	4080.65
1725.44139	4026.15
1728.67818	3959.35
1731.91284	3907.15
1735.14537	3860.85
1738.37576	3827.75
1741.60403	3819.25
1744.83017	3788.75
1748.05418	3781.15
1751.27607	3786.75
1754.49584	3794.85
1757.71349	3838.65
1760.92903	3830.15
1764.14244	3811.05
1767.35375	3800.15
1770.56294	3777.45
1773.77002	3756.35
1776.97499	3732.25
1780.17785	3675.05
1783.37861	3647.45
1786.57727	3619.75
1789.77382	3599.35
1792.96828	3582.05
1796.16064	3584.65
1799.3509	3557.35
1802.53907	3552.15
1805.72514	3528.85
1808.90913	3529.05
1812.09102	3510.15
1815.27083	3501.75
1818.44856	3500.15
1821.6242	3494.55
1824.79776	3478.35
1827.96924	3454.95
1831.13864	3474.95
1834.30597	3473.05
1837.47122	3465.15
1840.6344	3451.45
1843.7955	3455.05
1846.95454	3445.85
1850.11151	3433.45
1853.26642	3435.45
1856.41926	3419.55
1859.57004	3414.05
1862.71876	3413.95
1865.86542	3417.95
1869.01003	3415.25
1872.15258	3402.85
1875.29308	3391.05
1878.43152	3390.95
1881.56792	3384.45
1884.70227	3381.45
1887.83457	3367.15
1890.96482	3364.55
1894.09304	3336.15
1897.21921	3339.15
1900.34335	3335.25
1903.46544	3341.55
1906.58551	3344.65
1909.70353	3346.85
1912.81953	3332.35
1915.93349	3325.95
1919.04543	3319.65
1922.15534	3297.05
1925.26322	3310.05
1928.36908	3299.45
1931.47292	3285.65
1934.57473	3271.65
1937.67453	3270.85
1940.77232	3253.75
1943.86808	3246.85
1946.96184	3242.95
1950.05358	3230.25
1953.14331	3222.65
1956.23103	3200.45
1959.31675	3192.95
1962.40046	3191.55
1965.48217	3171.35
1968.56188	3164.65
1971.63959	3146.95
1974.7153	3130.05
1977.78901	3141.95
1980.86073	3124.25
1983.93046	3126.15
1986.99819	3110.35
1990.06394	3104.85
1993.1277	3109.05
1996.18947	3083.05
1999.24925	3069.65
2002.30706	3060.55
2005.36288	3054.25
2008.41672	3045.35
2011.46859	3039.95
2014.51848	3027.55
2017.56639	3012.65
2020.61233	3010.75
2023.6563	2997.75
2026.6983	2988.15
2029.73833	2980.75
2032.7764	2981.85
2035.8125	2963.55
2038.84664	2951.05
2041.87881	2959.85
2044.90903	2950.45
2047.93729	2955.25
2050.96359	2946.55
2053.98794	2940.95
2057.01034	2924.65
2060.03078	2928.15
2063.04927	2920.85
2066.06582	2927.55
2069.08042	2920.65
2072.09307	2927.45
2075.10378	2912.35
2078.11255	2912.85
2081.11938	2911.75
2084.12426	2904.25
2087.12722	2911.75
2090.12824	2906.95
2093.12732	2912.75
2096.12447	2916.85
2099.11969	2907.95
2102.11299	2909.55
2105.10435	2902.85
2108.09379	2908.35
2111.08131	2904.15
2114.0669	2911.95
2117.05057	2901.05
2120.03233	2911.55
2123.01216	2909.75
2125.99008	2913.75
2128.96609	2914.25
2131.94018	2901.55
2134.91236	2921.25
2137.88263	2910.95
2140.851	2917.25
2143.81746	2912.95
2146.78201	2912.55
2149.74466	2911.75
2152.7054	2927.45
2155.66425	2906.95
2158.6212	2910.15
2161.57625	2912.75
2164.52941	2914.05
2167.48067	2902.15
2170.43004	2916.15
2173.37752	2896.85
2176.32311	2887.45
2179.26681	2887.85
2182.20863	2875.45
2185.14856	2890.35
2188.08661	2904.05
2191.02278	2886.45
2193.95707	2879.65
2196.88948	2875.25
2199.82001	2873.55
2202.74867	2868.35
2205.67545	2873.65
2208.60037	2859.05
2211.52341	2847.95
2214.44458	2849.25
2217.36388	2825.85
2220.28132	2842.65
2223.1969	2811.95
2226.11061	2820.45
2229.02246	2814.85
2231.93245	2815.35
2234.84058	2796.55
2237.74686	2802.65
2240.65128	2791.85
2243.55385	2792.55
2246.45456	2780.25
2249.35343	2783.15
2252.25044	2775.65
2255.14561	2757.75
2258.03893	2777.45
2260.93041	2778.45
2263.82004	2773.05
2266.70783	2760.35
2269.59378	2740.05
2272.4779	2725.75
2275.36017	2723.45
2278.24061	2712.95
2281.11922	2708.95
2283.996	2689.75
2286.87094	2702.35
2289.74405	2685.55
2292.61534	2687.05
2295.4848	2682.95
2298.35243	2685.35
2301.21824	2676.55
2304.08223	2680.95
2306.94439	2679.35
2309.80474	2666.85
2312.66327	2677.65
2315.51999	2665.95
2318.37489	2671.35
2321.22797	2656.45
2324.07925	2650.25
2326.92871	2653.95
2329.77637	2633.75
2332.62222	2639.35
2335.46626	2636.15
2338.3085	2617.85
2341.14893	2619.85
2343.98756	2625.85
2346.8244	2616.55
2349.65943	2605.75
2352.49267	2609.25
2355.32411	2612.75
2358.15376	2606.45
2360.98161	2595.95
2363.80768	2586.95
2366.63195	2590.65
2369.45444	2583.05
2372.27514	2585.45
2375.09405	2585.05
2377.91118	2571.95
2380.72652	2562.55
2383.54009	2570.05
2386.35187	2561.35
2389.16188	2566.35
2391.97011	2547.75
2394.77657	2538.15
2397.58125	2530.95
2400.38416	2546.35
2403.18529	2532.05
2405.98466	2528.75
2408.78226	2521.65
2411.57809	2520.45
2414.37216	2506.05
2417.16446	2521.55
2419.955	2498.55
2422.74378	2501.95
2425.5308	2491.65
2428.31606	2494.15
2431.09956	2467.75
2433.88131	2471.85
2436.6613	2484.85
2439.43954	2471.55
2442.21603	2472.45
2444.99077	2468.55
2447.76377	2465.65
2450.53501	2462.75
2453.30451	2456.35
2456.07226	2457.15
2458.83827	2443.95
2461.60254	2444.35
2464.36507	2447.05
2467.12586	2432.25
2469.88492	2445.35
2472.64224	2434.25
2475.39782	2451.25
2478.15167	2447.25
2480.90379	2439.05
2483.65417	2433.45
2486.40283	2427.85
2489.14976	2422.55
2491.89497	2420.05
2494.63845	2437.05
2497.3802	2422.85
2500.12024	2416.55
2502.85855	2409.55
2505.59514	2415.35
2508.33002	2397.65
2511.06318	2405.45
2513.79462	2399.95
2516.52435	2398.55
2519.25237	2380.95
2521.97867	2374.15
2524.70327	2388.05
2527.42616	2378.45
2530.14734	2367.85
2532.86681	2366.45
2535.58458	2368.55
2538.30065	2361.15
2541.01501	2358.05
2543.72768	2340.15
2546.43864	2339.95
2549.14791	2331.55
2551.85548	2347.15
2554.56136	2334.55
2557.26554	2321.75
2559.96803	2318.45
2562.66883	2315.65
2565.36794	2311.35
2568.06536	2304.15
2570.7611	2306.85
2573.45514	2306.15
2576.14751	2293.45
2578.83819	2286.15
2581.52719	2287.45
2584.21451	2284.25
2586.90015	2276.45
2589.58411	2263.75
2592.2664	2263.15
2594.94701	2253.85
2597.62594	2258.45
2600.30321	2250.05
2602.9788	2250.55
2605.65273	2256.65
2608.32498	2245.05
2610.99557	2241.95
2613.66449	2231.25
2616.33175	2220.05
2618.99734	2227.35
2621.66128	2226.85
2624.32355	2214.35
2626.98416	2219.25
2629.64311	2217.55
2632.30041	2211.55
2634.95605	2209.15
2637.61004	2205.85
2640.26238	2202.55
2642.91306	2197.45
2645.56209	2200.35
2648.20948	2203.15
2650.85521	2189.45
2653.4993	2192.05
2656.14175	2187.35
2658.78255	2180.85
2661.42171	2185.05
2664.05923	2179.75
2666.6951	2176.85
2669.32934	2179.55
2671.96194	2175.95
2674.59291	2180.75
2677.22224	2172.45
2679.84993	2181.35
2682.476	2184.55
2685.10043	2175.05
2687.72324	2176.95
2690.34441	2173.45
2692.96396	2169.15
2695.58188	2188.55
2698.19818	2176.25
2700.81285	2179.25
2703.4259	2232.75
2706.03733	2272.45
2708.64714	2217.05
2711.25533	2201.75
2713.86191	2197.35
2716.46687	2198.85
2719.07021	2190.35
2721.67194	2179.65
2724.27206	2165.65
2726.87057	2180.65
2729.46747	2177.25
2732.06276	2181.65
2734.65644	2178.75
2737.24852	2169.35
2739.83899	2169.65
2742.42786	2166.35
2745.01513	2161.85
2747.60079	2162.65
2750.18486	2163.45
2752.76733	2157.45
2755.3482	2143.85
2757.92747	2157.25
2760.50515	2155.75
2763.08123	2141.45
2765.65573	2130.55
2768.22863	2135.05
2770.79994	2127.35
2773.36967	2136.45
2775.9378	2128.05
2778.50435	2122.35
2781.06932	2115.15
2783.6327	2108.15
2786.1945	2120.15
2788.75471	2107.05
2791.31335	2112.55
2793.87041	2096.65
2796.42589	2089.65
2798.97979	2099.45
2801.53212	2085.35
2804.08288	2076.55
2806.63206	2073.75
2809.17967	2073.35
2811.72571	2060.75
2814.27018	2061.45
2816.81308	2059.75
2819.35442	2058.55
2821.89419	2056.35
2824.43239	2056.35
2826.96904	2055.35
2829.50412	2052.05
2832.03763	2058.95
2834.56959	2045.25
2837.1	2047.45
2839.62884	2043.75
2842.15613	2043.15
2844.68186	2047.85
2847.20604	2055.25
2849.72867	2054.65
2852.24974	2054.85
2854.76927	2055.85
2857.28724	2071.35
2859.80367	2065.75
2862.31855	2042.85
2864.83189	2046.85
2867.34368	2036.85
2869.85393	2039.15
2872.36264	2039.75
2874.8698	2049.05
2877.37543	2047.45
2879.87952	2050.35
2882.38207	2042.65
2884.88308	2042.45
2887.38256	2052.55
2889.88051	2060.85
2892.37692	2050.85
2894.8718	2031.05
2897.36515	2058.25
2899.85698	2056.05
2902.34727	2060.75
2904.83604	2058.55
2907.32328	2075.55
2909.809	2066.05
2912.29319	2064.95
2914.77587	2078.85
2917.25702	2072.85
2919.73665	2063.45
2922.21476	2076.85
2924.69136	2071.85
2927.16644	2084.35
2929.64	2071.25
2932.11205	2081.75
2934.58258	2079.35
2937.05161	2082.05
2939.51912	2085.25
2941.98513	2073.15
2944.44962	2060.55
2946.91261	2062.05
2949.37409	2070.55
2951.83407	2070.45
2954.29254	2060.85
2956.74951	2052.75
2959.20498	2044.35
2961.65895	2052.75
2964.11142	2041.55
2966.56239	2037.05
2969.01186	2038.65
2971.45984	2028.75
2973.90632	2024.75
2976.35131	2017.65
2978.7948	2022.05
2981.23681	1998.55
2983.67732	2001.95
2986.11635	2000.15
2988.55388	2000.45
2990.98993	1995.95
2993.4245	1990.15
2995.85758	1980.85
2998.28917	1991.25
3000.71928	1980.15
3003.14791	1985.55
3005.57506	1975.15
3008.00073	1982.45
3010.42493	1987.05
3012.84764	1977.25
3015.26888	1981.65
3017.68865	1971.85
3020.10694	1976.75
3022.52376	1983.65
3024.9391	1986.55
3027.35298	1982.25
3029.76539	1977.35
3032.17632	1981.95
3034.5858	1969.15
3036.9938	1979.05
3039.40034	1973.95
3041.80542	1975.25
3044.20903	1972.95
3046.61118	1980.85
3049.01187	1968.15
3051.4111	1979.75
3053.80888	1982.95
3056.20519	1972.55
3058.60005	1975.25
3060.99345	1970.95
3063.3854	1976.65
3065.7759	1971.15
3068.16494	1975.35
3070.55254	1977.75
3072.93868	1965.25
3075.32338	1970.75
3077.70662	1979.85
3080.08842	1972.55
3082.46878	1973.55
3084.84769	1980.95
3087.22515	1976.45
3089.60118	1987.75
3091.97576	1984.65
3094.3489	1999.85
3096.72061	2002.65
3099.09087	2001.35
3101.4597	2001.35
3103.82709	1997.45
3106.19305	2007.15
3108.55757	2015.45
3110.92066	2008.85
3113.28232	2014.55
3115.64255	2012.05
3118.00134	2006.55
3120.35871	2016.45
3122.71466	2018.85
3125.06917	2019.65
3127.42226	2011.55
3129.77393	2029.75
3132.12417	2028.15
3134.47299	2031.75
3136.82039	2045.85
3139.16636	2044.35
3141.51092	2059.15
3143.85406	2059.45
3146.19579	2070.35
3148.53609	2075.55
3150.87499	2080.15
3153.21246	2092.15
3155.54853	2091.85
3157.88318	2103.85
3160.21642	2120.35
3162.54826	2125.75
3164.87868	2117.15
3167.2077	2113.75
3169.5353	2116.85
3171.86151	2127.15
3174.18631	2126.85
3176.5097	2123.65
3178.83169	2128.45
3181.15228	2143.35
3183.47147	2140.65
3185.78926	2141.85
3188.10565	2153.75
3190.42065	2162.75
3192.73424	2160.95
3195.04645	2155.55
3197.35725	2166.75
3199.66667	2162.95
3201.97469	2173.85
3204.28132	2181.15
3206.58656	2182.95
3208.8904	2183.25
3211.19287	2195.55
3213.49394	2191.05
3215.79363	2200.75
3218.09193	2211.55
3220.38884	2217.95
3222.68438	2236.55
3224.97853	2207.95
3227.2713	2226.65
3229.56269	2202.25
3231.8527	2214.15
3234.14133	2197.15
3236.42858	2201.75
3238.71446	2187.95
3240.99896	2196.05
3243.28209	2190.15
3245.56384	2198.65
3247.84423	2202.45
3250.12324	2196.95
3252.40088	2195.95
3254.67715	2196.05
3256.95205	2192.35
3259.22558	2190.05
3261.49775	2188.45
3263.76855	2183.45
3266.03799	2176.45
3268.30606	2177.45
3270.57277	2168.65
3272.83812	2169.25
3275.10211	2170.15
3277.36474	2180.45
3279.62601	2172.35
3281.88593	2169.55
3284.14448	2171.55
3286.40168	2169.15
3288.65753	2154.65
3290.91202	2154.15
3293.16516	2154.25
3295.41695	2136.95
3297.66738	2131.85
3299.91647	2120.95
3302.16421	2119.25
3304.4106	2112.25
3306.65564	2107.05
3308.89933	2085.45
3311.14169	2087.75
3313.38269	2072.45
3315.62236	2062.15
3317.86068	2045.35
3320.09766	2026.85
3322.3333	2013.75
3324.5676	2017.25
3326.80056	1991.15
3329.03219	1973.95
3331.26248	-0.05
3333.49143	0.05
3335.71905	-1.15
