Data from AgNPs_FTO_APTES_UA_0.1mM_CRN_200uM_NaF_0.1M_Addition_RamanShift__22__14-20-27-738.txt Node

Date: Mon Dec 20 14:20:27 GMT 2021
User: TCL
Spectrometer: QEP01345
Trigger mode: 4
Integration Time (sec): 7.000000E0
Scans to average: 10
Electric dark correction enabled: true
Nonlinearity correction enabled: false
Boxcar width: 0
XAxis mode: Raman Shifts
Number of Pixels in Spectrum: 1044
>>>>>Begin Spectral Data<<<<<
46.04893	-0.05
50.45542	0.25
54.85868	-1.05
59.25871	0.45
63.6555	24.85
68.04907	28.75
72.43941	29.85
76.82654	29.35
81.21044	29.35
85.59113	36.45
89.96862	31.35
94.34289	36.75
98.71396	37.25
103.08183	36.45
107.4465	42.15
111.80798	40.15
116.16626	40.75
120.52136	42.75
124.87327	44.85
129.222	45.35
133.56755	47.35
137.90993	46.65
142.24913	52.15
146.58517	53.55
150.91804	65.45
155.24774	73.35
159.57429	88.35
163.89768	111.05
168.21792	141.55
172.53501	179.55
176.84895	250.65
181.15975	338.45
185.46741	475.25
189.77193	655.75
194.07331	879.95
198.37157	1147.85
202.6667	1428.25
206.9587	1727.35
211.24758	1991.25
215.53334	2279.05
219.81599	2585.05
224.09553	2880.75
228.37195	3205.75
232.64527	3545.15
236.91549	3874.85
241.18261	4214.95
245.44663	4526.55
249.70755	4778.25
253.96539	4999.95
258.22014	5168.65
262.4718	5304.05
266.72039	5377.85
270.96589	5376.25
275.20832	5333.85
279.44768	5255.15
283.68397	5160.05
287.91719	5084.15
292.14735	5024.25
296.37445	4973.55
300.59849	4958.85
304.81948	4938.65
309.03742	4903.05
313.25231	4863.45
317.46415	4785.75
321.67296	4704.05
325.87872	4636.85
330.08145	4598.95
334.28114	4597.15
338.47781	4619.15
342.67145	4637.65
346.86207	4688.35
351.04966	4752.25
355.23424	4840.55
359.4158	4923.05
363.59435	4963.15
367.76989	5021.05
371.94243	5090.45
376.11196	5118.35
380.27849	5169.05
384.44203	5206.45
388.60257	5256.85
392.76012	5311.15
396.91468	5338.85
401.06626	5402.75
405.21485	5444.25
409.36047	5451.55
413.50311	5425.85
417.64277	5389.15
421.77947	5361.35
425.9132	5363.75
430.04396	5364.45
434.17176	5389.05
438.2966	5410.55
442.41849	5465.55
446.53742	5527.35
450.6534	5585.25
454.76644	5646.65
458.87653	5669.25
462.98368	5688.95
467.08789	5691.15
471.18916	5696.65
475.2875	5715.55
479.38291	5757.95
483.4754	5815.35
487.56496	5895.75
491.6516	5982.95
495.73531	6048.25
499.81612	5996.95
503.89401	5970.35
507.96899	5883.25
512.04106	5834.15
516.11023	5808.55
520.1765	5827.95
524.23987	5840.45
528.30034	5874.85
532.35792	5891.95
536.41261	5844.65
540.46441	5775.25
544.51333	5696.05
548.55936	5647.95
552.60252	5623.45
556.64279	5625.15
560.6802	5658.85
564.71473	5695.05
568.7464	5736.35
572.7752	5796.45
576.80114	5813.45
580.82422	5846.45
584.84444	5883.85
588.86181	5981.45
592.87633	6048.35
596.888	6042.85
600.89682	6024.35
604.9028	6102.35
608.90594	6355.75
612.90624	6745.15
616.90371	6818.15
620.89834	6546.95
624.89015	6603.95
628.87913	6962.65
632.86528	7394.95
636.84862	7643.35
640.82913	7568.05
644.80683	7259.35
648.78172	6845.55
652.75379	6519.35
656.72306	6303.25
660.68952	6263.95
664.65319	6222.85
668.61405	6208.35
672.57211	6284.05
676.52738	6345.45
680.47986	6385.85
684.42955	6383.95
688.37646	6340.55
692.32058	6277.55
696.26192	6175.75
700.20048	6114.95
704.13626	6031.35
708.06928	5984.25
711.99952	5875.85
715.927	5825.95
719.85171	5803.25
723.77365	5807.65
727.69284	5825.25
731.60928	5778.75
735.52295	5700.95
739.43388	5653.65
743.34206	5656.75
747.24749	5648.75
751.15017	5661.55
755.05012	5687.05
758.94733	5725.95
762.8418	5836.55
766.73354	6011.05
770.62254	6168.65
774.50882	6246.25
778.39237	6146.55
782.27321	5913.25
786.15132	5734.35
790.02671	5660.85
793.89938	5655.45
797.76935	5677.55
801.6366	5766.55
805.50115	5899.65
809.36299	6096.35
813.22213	6176.45
817.07857	6090.95
820.93231	5915.25
824.78336	5701.85
828.63172	5516.05
832.47738	5403.25
836.32036	5351.75
840.16066	5323.65
843.99827	5318.45
847.8332	5288.05
851.66546	5282.05
855.49504	5269.85
859.32195	5294.05
863.1462	5318.15
866.96777	5374.65
870.78668	5444.15
874.60293	5548.25
878.41652	5657.85
882.22745	5776.45
886.03573	5880.15
889.84136	5876.25
893.64433	5774.45
897.44466	5606.85
901.24235	5428.85
905.0374	5271.25
908.8298	5166.55
912.61957	5114.95
916.40671	5084.95
920.19121	5075.75
923.97308	5071.45
927.75233	5067.75
931.52895	5066.35
935.30295	5066.95
939.07433	5039.15
942.84309	4997.35
946.60924	4990.95
950.37278	4979.95
954.13371	4965.95
957.89203	4940.35
961.64774	4920.05
965.40086	4891.15
969.15137	4879.15
972.89929	4842.35
976.64461	4830.35
980.38733	4810.45
984.12747	4813.95
987.86502	4816.05
991.59999	4842.25
995.33237	4865.75
999.06217	4932.55
1002.78939	4992.35
1006.51404	5079.95
1010.23611	5144.75
1013.95561	5208.35
1017.67255	5247.85
1021.38692	5193.25
1025.09872	5138.55
1028.80796	5058.15
1032.51465	4983.25
1036.21877	4920.55
1039.92035	4891.05
1043.61937	4897.15
1047.31584	4885.45
1051.00976	4876.65
1054.70114	4901.15
1058.38998	4928.45
1062.07627	4987.15
1065.76003	5042.85
1069.44126	5098.25
1073.11995	5125.15
1076.79611	5144.05
1080.46974	5111.05
1084.14085	5053.85
1087.80943	5007.05
1091.47549	4943.85
1095.13903	4912.85
1098.80005	4869.95
1102.45857	4826.05
1106.11456	4828.75
1109.76805	4849.55
1113.41903	4912.25
1117.06751	5059.25
1120.71348	5255.45
1124.35696	5552.65
1127.99793	5913.25
1131.63641	6304.95
1135.2724	6528.85
1138.90589	6553.35
1142.5369	6390.65
1146.16542	6071.95
1149.79145	5752.95
1153.415	5438.65
1157.03607	5236.15
1160.65467	5090.35
1164.27079	5067.55
1167.88443	5095.95
1171.49561	5168.25
1175.10432	5332.15
1178.71056	5516.05
1182.31434	5741.15
1185.91565	5819.15
1189.51451	5871.25
1193.11091	5884.85
1196.70485	5937.45
1200.29634	5999.95
1203.88538	6022.35
1207.47197	5969.55
1211.05612	5841.55
1214.63782	5648.15
1218.21708	5454.45
1221.79391	5299.05
1225.36829	5171.45
1228.94024	5097.45
1232.50976	5026.45
1236.07685	4992.25
1239.6415	4983.35
1243.20374	4994.05
1246.76355	5025.95
1250.32093	5052.85
1253.8759	5078.75
1257.42845	5135.05
1260.97859	5171.15
1264.52631	5207.25
1268.07163	5234.95
1271.61453	5226.35
1275.15503	5276.75
1278.69312	5276.75
1282.22882	5265.35
1285.76211	5295.15
1289.29301	5361.55
1292.82151	5458.35
1296.34761	5576.55
1299.87133	5724.35
1303.39266	5924.55
1306.9116	6160.75
1310.42815	6379.35
1313.94233	6538.35
1317.45412	6606.95
1320.96354	6547.85
1324.47058	6483.45
1327.97525	6434.75
1331.47754	6394.95
1334.97747	6425.65
1338.47502	6486.75
1341.97022	6564.35
1345.46305	6618.25
1348.95352	6727.05
1352.44163	6843.85
1355.92738	7018.45
1359.41078	7259.05
1362.89183	7506.85
1366.37053	7490.45
1369.84688	7125.15
1373.32088	6669.25
1376.79254	6356.35
1380.26186	6153.75
1383.72883	6044.35
1387.19347	5948.45
1390.65578	5873.85
1394.11575	5786.25
1397.57339	5753.35
1401.0287	5742.75
1404.48168	5703.45
1407.93234	5636.95
1411.38068	5553.05
1414.82669	5406.15
1418.27039	5273.75
1421.71177	5117.75
1425.15083	4969.75
1428.58758	4870.55
1432.02203	4800.15
1435.45416	4779.35
1438.88399	4770.45
1442.31151	4755.25
1445.73673	4761.95
1449.15965	4769.35
1452.58027	4786.75
1455.9986	4789.35
1459.41463	4810.35
1462.82837	4837.85
1466.23982	4876.55
1469.64898	4934.15
1473.05586	4948.05
1476.46045	4963.05
1479.86276	4938.75
1483.26279	4939.05
1486.66054	4962.05
1490.05602	4976.45
1493.44922	5017.75
1496.84016	5119.75
1500.22882	5224.95
1503.61521	5401.35
1506.99934	5640.25
1510.38121	5842.35
1513.76081	5886.55
1517.13816	5772.45
1520.51324	5545.25
1523.88607	5340.05
1527.25665	5196.55
1530.62498	5152.45
1533.99105	5162.35
1537.35488	5186.35
1540.71647	5192.45
1544.07581	5217.05
1547.4329	5231.95
1550.78776	5251.15
1554.14038	5243.15
1557.49077	5263.75
1560.83892	5301.45
1564.18484	5336.65
1567.52853	5356.95
1570.86999	5403.65
1574.20922	5443.35
1577.54624	5498.15
1580.88103	5482.75
1584.2136	5435.05
1587.54395	5400.35
1590.87208	5425.15
1594.19801	5471.85
1597.52172	5576.95
1600.84321	5643.45
1604.16251	5603.55
1607.47959	5487.65
1610.79447	5370.55
1614.10715	5259.55
1617.41763	5158.65
1620.7259	5094.45
1624.03199	5043.65
1627.33587	5036.85
1630.63757	5064.15
1633.93707	5148.65
1637.23439	5304.65
1640.52951	5479.65
1643.82246	5751.05
1647.11321	6002.15
1650.40179	6188.65
1653.68819	6140.65
1656.97241	5892.75
1660.25446	5578.65
1663.53433	5331.35
1666.81203	5160.85
1670.08756	5057.45
1673.36092	4987.75
1676.63211	4943.55
1679.90115	4911.65
1683.16801	4863.65
1686.43272	4776.45
1689.69527	4680.45
1692.95567	4586.65
1696.2139	4514.35
1699.46999	4379.25
1702.72392	4264.95
1705.97571	4137.35
1709.22535	4038.45
1712.47284	3971.85
1715.71819	3900.75
1718.96139	3844.55
1722.20246	3798.05
1725.44139	3766.55
1728.67818	3725.85
1731.91284	3677.25
1735.14537	3649.15
1738.37576	3612.15
1741.60403	3584.05
1744.83017	3561.15
1748.05418	3573.85
1751.27607	3564.05
1754.49584	3565.65
1757.71349	3560.95
1760.92903	3551.55
1764.14244	3523.15
1767.35375	3501.45
1770.56294	3469.95
1773.77002	3422.95
1776.97499	3388.45
1780.17785	3354.15
1783.37861	3323.35
1786.57727	3298.65
1789.77382	3253.95
1792.96828	3233.75
1796.16064	3203.25
1799.3509	3196.65
1802.53907	3171.55
1805.72514	3148.85
1808.90913	3147.05
1812.09102	3131.55
1815.27083	3113.55
1818.44856	3101.85
1821.6242	3105.25
1824.79776	3098.45
1827.96924	3079.65
1831.13864	3077.55
1834.30597	3067.55
1837.47122	3060.65
1840.6344	3057.15
1843.7955	3049.55
1846.95454	3048.25
1850.11151	3031.95
1853.26642	3034.15
1856.41926	3018.65
1859.57004	3021.95
1862.71876	3029.55
1865.86542	3014.95
1869.01003	3003.65
1872.15258	2990.15
1875.29308	2981.75
1878.43152	2985.45
1881.56792	2973.75
1884.70227	2972.95
1887.83457	2963.85
1890.96482	2952.55
1894.09304	2947.55
1897.21921	2951.55
1900.34335	2943.95
1903.46544	2933.45
1906.58551	2923.85
1909.70353	2930.35
1912.81953	2926.75
1915.93349	2908.65
1919.04543	2897.75
1922.15534	2887.35
1925.26322	2883.65
1928.36908	2873.95
1931.47292	2869.95
1934.57473	2864.15
1937.67453	2848.05
1940.77232	2831.25
1943.86808	2844.05
1946.96184	2828.85
1950.05358	2815.65
1953.14331	2794.55
1956.23103	2800.75
1959.31675	2805.15
1962.40046	2769.45
1965.48217	2763.65
1968.56188	2766.05
1971.63959	2752.95
1974.7153	2739.35
1977.78901	2727.25
1980.86073	2713.05
1983.93046	2711.15
1986.99819	2689.05
1990.06394	2686.75
1993.1277	2687.35
1996.18947	2668.75
1999.24925	2666.25
2002.30706	2664.65
2005.36288	2641.85
2008.41672	2632.75
2011.46859	2636.25
2014.51848	2619.45
2017.56639	2603.85
2020.61233	2595.05
2023.6563	2595.95
2026.6983	2580.05
2029.73833	2582.15
2032.7764	2572.95
2035.8125	2568.55
2038.84664	2556.25
2041.87881	2568.45
2044.90903	2546.55
2047.93729	2546.15
2050.96359	2527.35
2053.98794	2528.65
2057.01034	2523.05
2060.03078	2524.05
2063.04927	2520.35
2066.06582	2526.05
2069.08042	2499.75
2072.09307	2514.55
2075.10378	2505.35
2078.11255	2512.05
2081.11938	2497.25
2084.12426	2499.15
2087.12722	2494.95
2090.12824	2493.95
2093.12732	2504.75
2096.12447	2502.85
2099.11969	2494.25
2102.11299	2488.85
2105.10435	2504.55
2108.09379	2483.35
2111.08131	2488.05
2114.0669	2480.35
2117.05057	2486.85
2120.03233	2485.85
2123.01216	2500.85
2125.99008	2496.65
2128.96609	2488.35
2131.94018	2488.75
2134.91236	2498.75
2137.88263	2484.15
2140.851	2485.95
2143.81746	2487.95
2146.78201	2489.05
2149.74466	2492.85
2152.7054	2482.75
2155.66425	2490.45
2158.6212	2487.75
2161.57625	2487.65
2164.52941	2481.85
2167.48067	2479.55
2170.43004	2478.15
2173.37752	2471.65
2176.32311	2476.95
2179.26681	2476.15
2182.20863	2463.35
2185.14856	2468.95
2188.08661	2466.25
2191.02278	2460.35
2193.95707	2449.15
2196.88948	2444.65
2199.82001	2439.95
2202.74867	2436.35
2205.67545	2434.85
2208.60037	2438.65
2211.52341	2417.55
2214.44458	2417.55
2217.36388	2411.75
2220.28132	2406.45
2223.1969	2387.15
2226.11061	2391.55
2229.02246	2384.75
2231.93245	2369.75
2234.84058	2363.75
2237.74686	2363.15
2240.65128	2364.25
2243.55385	2367.35
2246.45456	2349.45
2249.35343	2349.35
2252.25044	2338.25
2255.14561	2342.45
2258.03893	2343.15
2260.93041	2341.05
2263.82004	2329.05
2266.70783	2317.75
2269.59378	2320.25
2272.4779	2298.65
2275.36017	2290.65
2278.24061	2288.85
2281.11922	2282.75
2283.996	2277.95
2286.87094	2271.25
2289.74405	2273.45
2292.61534	2267.25
2295.4848	2261.85
2298.35243	2263.45
2301.21824	2283.45
2304.08223	2260.45
2306.94439	2258.95
2309.80474	2235.85
2312.66327	2235.65
2315.51999	2252.05
2318.37489	2239.05
2321.22797	2229.05
2324.07925	2222.05
2326.92871	2227.75
2329.77637	2213.85
2332.62222	2210.95
2335.46626	2208.65
2338.3085	2206.65
2341.14893	2196.75
2343.98756	2182.45
2346.8244	2189.55
2349.65943	2188.15
2352.49267	2194.95
2355.32411	2190.05
2358.15376	2182.75
2360.98161	2175.25
2363.80768	2169.75
2366.63195	2181.15
2369.45444	2171.65
2372.27514	2168.35
2375.09405	2168.65
2377.91118	2174.75
2380.72652	2171.25
2383.54009	2148.55
2386.35187	2145.35
2389.16188	2139.65
2391.97011	2133.35
2394.77657	2130.25
2397.58125	2117.55
2400.38416	2118.15
2403.18529	2111.85
2405.98466	2115.05
2408.78226	2111.65
2411.57809	2102.45
2414.37216	2089.35
2417.16446	2096.65
2419.955	2083.65
2422.74378	2090.15
2425.5308	2074.55
2428.31606	2091.55
2431.09956	2074.25
2433.88131	2076.65
2436.6613	2059.15
2439.43954	2068.75
2442.21603	2060.35
2444.99077	2049.65
2447.76377	2054.65
2450.53501	2046.35
2453.30451	2046.75
2456.07226	2043.65
2458.83827	2049.95
2461.60254	2025.35
2464.36507	2027.25
2467.12586	2034.75
2469.88492	2027.85
2472.64224	2026.45
2475.39782	2028.65
2478.15167	2023.45
2480.90379	2013.75
2483.65417	2014.95
2486.40283	2011.05
2489.14976	2011.75
2491.89497	2014.25
2494.63845	2014.55
2497.3802	2009.95
2500.12024	1998.35
2502.85855	2011.95
2505.59514	1993.55
2508.33002	1995.45
2511.06318	1991.95
2513.79462	1982.05
2516.52435	1978.75
2519.25237	1977.75
2521.97867	1972.15
2524.70327	1964.35
2527.42616	1969.25
2530.14734	1958.95
2532.86681	1954.05
2535.58458	1962.75
2538.30065	1957.55
2541.01501	1948.45
2543.72768	1935.05
2546.43864	1927.25
2549.14791	1939.85
2551.85548	1934.45
2554.56136	1925.05
2557.26554	1921.05
2559.96803	1907.55
2562.66883	1911.45
2565.36794	1909.85
2568.06536	1907.85
2570.7611	1909.75
2573.45514	1909.85
2576.14751	1899.75
2578.83819	1889.15
2581.52719	1887.25
2584.21451	1882.95
2586.90015	1884.95
2589.58411	1875.95
2592.2664	1874.95
2594.94701	1866.55
2597.62594	1861.45
2600.30321	1861.25
2602.9788	1849.25
2605.65273	1851.85
2608.32498	1847.45
2610.99557	1845.65
2613.66449	1845.25
2616.33175	1845.45
2618.99734	1834.05
2621.66128	1835.75
2624.32355	1825.55
2626.98416	1827.85
2629.64311	1826.15
2632.30041	1821.05
2634.95605	1821.85
2637.61004	1814.35
2640.26238	1812.55
2642.91306	1807.25
2645.56209	1813.65
2648.20948	1807.35
2650.85521	1804.25
2653.4993	1801.45
2656.14175	1796.65
2658.78255	1812.15
2661.42171	1802.65
2664.05923	1795.05
2666.6951	1792.65
2669.32934	1804.15
2671.96194	1799.85
2674.59291	1799.25
2677.22224	1791.35
2679.84993	1796.15
2682.476	1803.35
2685.10043	1792.35
2687.72324	1802.75
2690.34441	1786.95
2692.96396	1792.55
2695.58188	1791.45
2698.19818	1793.85
2700.81285	1791.95
2703.4259	1801.85
2706.03733	1828.65
2708.64714	1814.35
2711.25533	1812.05
2713.86191	1798.65
2716.46687	1797.25
2719.07021	1799.85
2721.67194	1793.35
2724.27206	1788.75
2726.87057	1794.35
2729.46747	1790.95
2732.06276	1784.75
2734.65644	1791.65
2737.24852	1794.75
2739.83899	1780.35
2742.42786	1785.55
2745.01513	1779.35
2747.60079	1770.15
2750.18486	1770.55
2752.76733	1766.75
2755.3482	1768.25
2757.92747	1761.85
2760.50515	1757.75
2763.08123	1749.25
2765.65573	1756.55
2768.22863	1794.45
2770.79994	1755.75
2773.36967	1749.35
2775.9378	1745.65
2778.50435	1734.65
2781.06932	1741.45
2783.6327	1740.45
2786.1945	1744.55
2788.75471	1747.35
2791.31335	1736.15
2793.87041	1734.95
2796.42589	1719.45
2798.97979	1721.85
2801.53212	1709.85
2804.08288	1716.45
2806.63206	1711.55
2809.17967	1710.45
2811.72571	1709.85
2814.27018	1705.75
2816.81308	1701.25
2819.35442	1700.15
2821.89419	1700.85
2824.43239	1703.65
2826.96904	1691.85
2829.50412	1685.85
2832.03763	1697.35
2834.56959	1701.15
2837.1	1688.05
2839.62884	1686.95
2842.15613	1686.25
2844.68186	1695.55
2847.20604	1686.05
2849.72867	1690.35
2852.24974	1687.95
2854.76927	1698.05
2857.28724	1694.75
2859.80367	1686.35
2862.31855	1685.75
2864.83189	1688.75
2867.34368	1671.55
2869.85393	1684.85
2872.36264	1693.55
2874.8698	1689.75
2877.37543	1686.55
2879.87952	1691.85
2882.38207	1692.65
2884.88308	1689.15
2887.38256	1693.55
2889.88051	1699.35
2892.37692	1696.65
2894.8718	1711.05
2897.36515	1704.15
2899.85698	1717.85
2902.34727	1721.45
2904.83604	1718.75
2907.32328	1726.05
2909.809	1728.75
2912.29319	1736.45
2914.77587	1736.85
2917.25702	1733.85
2919.73665	1741.45
2922.21476	1746.75
2924.69136	1747.85
2927.16644	1750.15
2929.64	1740.55
2932.11205	1753.95
2934.58258	1745.95
2937.05161	1754.35
2939.51912	1754.35
2941.98513	1746.55
2944.44962	1742.15
2946.91261	1738.65
2949.37409	1746.35
2951.83407	1754.35
2954.29254	1746.85
2956.74951	1739.65
2959.20498	1738.95
2961.65895	1733.15
2964.11142	1728.95
2966.56239	1713.15
2969.01186	1708.65
2971.45984	1698.75
2973.90632	1688.45
2976.35131	1682.35
2978.7948	1682.35
2981.23681	1684.95
2983.67732	1672.55
2986.11635	1678.55
2988.55388	1664.45
2990.98993	1669.25
2993.4245	1664.15
2995.85758	1661.95
2998.28917	1656.35
3000.71928	1654.55
3003.14791	1660.95
3005.57506	1658.85
3008.00073	1659.45
3010.42493	1658.75
3012.84764	1651.05
3015.26888	1660.15
3017.68865	1666.55
3020.10694	1647.35
3022.52376	1656.15
3024.9391	1658.55
3027.35298	1655.85
3029.76539	1651.15
3032.17632	1654.95
3034.5858	1650.35
3036.9938	1657.65
3039.40034	1653.85
3041.80542	1650.65
3044.20903	1643.95
3046.61118	1648.25
3049.01187	1648.85
3051.4111	1652.15
3053.80888	1653.45
3056.20519	1652.05
3058.60005	1645.65
3060.99345	1651.45
3063.3854	1643.35
3065.7759	1650.55
3068.16494	1642.35
3070.55254	1646.15
3072.93868	1640.95
3075.32338	1652.85
3077.70662	1643.35
3080.08842	1647.35
3082.46878	1656.15
3084.84769	1642.15
3087.22515	1660.15
3089.60118	1662.55
3091.97576	1669.15
3094.3489	1666.45
3096.72061	1675.15
3099.09087	1683.15
3101.4597	1693.35
3103.82709	1678.75
3106.19305	1688.85
3108.55757	1696.25
3110.92066	1695.25
3113.28232	1691.45
3115.64255	1693.95
3118.00134	1701.35
3120.35871	1705.15
3122.71466	1717.05
3125.06917	1713.25
3127.42226	1710.95
3129.77393	1724.35
3132.12417	1732.15
3134.47299	1736.65
3136.82039	1732.85
3139.16636	1747.45
3141.51092	1751.85
3143.85406	1764.45
3146.19579	1760.45
3148.53609	1776.65
3150.87499	1774.35
3153.21246	1787.55
3155.54853	1802.35
3157.88318	1819.05
3160.21642	1818.25
3162.54826	1825.95
3164.87868	1818.95
3167.2077	1837.35
3169.5353	1840.85
3171.86151	1832.05
3174.18631	1844.75
3176.5097	1849.35
3178.83169	1847.25
3181.15228	1847.15
3183.47147	1877.25
3185.78926	1865.55
3188.10565	1878.35
3190.42065	1886.45
3192.73424	1879.25
3195.04645	1883.95
3197.35725	1884.65
3199.66667	1897.15
3201.97469	1895.65
3204.28132	1914.65
3206.58656	1913.75
3208.8904	1921.45
3211.19287	1933.95
3213.49394	1924.25
3215.79363	1931.85
3218.09193	1940.85
3220.38884	1944.35
3222.68438	1944.65
3224.97853	1938.55
3227.2713	1946.15
3229.56269	1953.45
3231.8527	1952.35
3234.14133	1948.35
3236.42858	1939.95
3238.71446	1940.35
3240.99896	1946.85
3243.28209	1940.35
3245.56384	1930.65
3247.84423	1934.15
3250.12324	1942.85
3252.40088	1944.05
3254.67715	1941.85
3256.95205	1938.25
3259.22558	1954.05
3261.49775	1949.35
3263.76855	1943.85
3266.03799	1945.55
3268.30606	1940.55
3270.57277	1936.15
3272.83812	1931.45
3275.10211	1935.05
3277.36474	1924.25
3279.62601	1935.35
3281.88593	1943.75
3284.14448	1931.05
3286.40168	1929.75
3288.65753	1924.85
3290.91202	1930.55
3293.16516	1918.45
3295.41695	1908.75
3297.66738	1894.25
3299.91647	1902.55
3302.16421	1885.95
3304.4106	1876.25
3306.65564	1877.65
3308.89933	1865.45
3311.14169	1859.85
3313.38269	1848.05
3315.62236	1842.15
3317.86068	1819.05
3320.09766	1802.25
3322.3333	1790.95
3324.5676	1799.25
3326.80056	1780.45
3329.03219	1757.85
3331.26248	1.35
3333.49143	-0.05
3335.71905	-0.85
