Data from AgNPs_FTO_APTES_UA_0.1mM_CRN_10uM_NaF_0.1M_Addition_RamanShift__17__11-38-17-555.txt Node

Date: Mon Dec 20 11:38:17 GMT 2021
User: TCL
Spectrometer: QEP01345
Trigger mode: 4
Integration Time (sec): 7.000000E0
Scans to average: 10
Electric dark correction enabled: true
Nonlinearity correction enabled: false
Boxcar width: 0
XAxis mode: Raman Shifts
Number of Pixels in Spectrum: 1044
>>>>>Begin Spectral Data<<<<<
46.04893	1.15
50.45542	0.35
54.85868	-2.65
59.25871	0.95
63.6555	33.35
68.04907	36.15
72.43941	36.15
76.82654	40.65
81.21044	41.35
85.59113	47.15
89.96862	45.05
94.34289	48.85
98.71396	46.65
103.08183	46.35
107.4465	48.25
111.80798	53.05
116.16626	52.35
120.52136	51.65
124.87327	56.15
129.222	59.65
133.56755	58.95
137.90993	62.95
142.24913	68.95
146.58517	70.25
150.91804	87.35
155.24774	97.25
159.57429	116.25
163.89768	155.25
168.21792	201.65
172.53501	251.95
176.84895	352.35
181.15975	491.35
185.46741	682.15
189.77193	932.95
194.07331	1251.55
198.37157	1630.25
202.6667	2022.25
206.9587	2417.25
211.24758	2812.95
215.53334	3210.35
219.81599	3627.25
224.09553	4074.25
228.37195	4551.95
232.64527	5084.25
236.91549	5620.85
241.18261	6167.35
245.44663	6660.15
249.70755	7089.15
253.96539	7437.25
258.22014	7730.15
262.4718	7917.95
266.72039	8040.65
270.96589	8052.85
275.20832	8045.95
279.44768	7916.05
283.68397	7765.05
287.91719	7652.65
292.14735	7541.35
296.37445	7490.75
300.59849	7450.65
304.81948	7440.15
309.03742	7417.45
313.25231	7340.75
317.46415	7224.75
321.67296	7068.15
325.87872	6947.85
330.08145	6888.95
334.28114	6861.35
338.47781	6905.85
342.67145	6951.25
346.86207	7053.95
351.04966	7166.45
355.23424	7308.55
359.4158	7400.05
363.59435	7511.55
367.76989	7600.55
371.94243	7699.55
376.11196	7751.55
380.27849	7815.45
384.44203	7871.15
388.60257	7941.95
392.76012	8014.55
396.91468	8075.85
401.06626	8163.65
405.21485	8216.45
409.36047	8226.35
413.50311	8138.95
417.64277	8044.65
421.77947	8011.25
425.9132	8004.35
430.04396	8019.35
434.17176	8061.75
438.2966	8111.35
442.41849	8184.45
446.53742	8266.15
450.6534	8390.45
454.76644	8510.25
458.87653	8559.15
462.98368	8587.25
467.08789	8551.05
471.18916	8554.05
475.2875	8559.95
479.38291	8593.75
483.4754	8629.15
487.56496	8714.95
491.6516	8788.55
495.73531	8853.95
499.81612	8852.65
503.89401	8830.35
507.96899	8768.45
512.04106	8719.75
516.11023	8665.55
520.1765	8642.75
524.23987	8652.65
528.30034	8648.35
532.35792	8644.55
536.41261	8567.55
540.46441	8527.45
544.51333	8446.45
548.55936	8418.25
552.60252	8456.15
556.64279	8470.15
560.6802	8521.45
564.71473	8560.75
568.7464	8602.95
572.7752	8678.05
576.80114	8710.05
580.82422	8760.15
584.84444	8848.85
588.86181	8999.45
592.87633	9063.55
596.888	9063.25
600.89682	9053.95
604.9028	9196.55
608.90594	9758.05
612.90624	10482.55
616.90371	10399.35
620.89834	9478.15
624.89015	9183.25
628.87913	9453.65
632.86528	9850.75
636.84862	10141.95
640.82913	10163.65
644.80683	9884.75
648.78172	9510.65
652.75379	9234.45
656.72306	9071.95
660.68952	9039.05
664.65319	8979.35
668.61405	8897.85
672.57211	8908.55
676.52738	8988.15
680.47986	9016.25
684.42955	9056.25
688.37646	9045.05
692.32058	8995.95
696.26192	8886.15
700.20048	8770.65
704.13626	8702.95
708.06928	8656.85
711.99952	8554.55
715.927	8502.55
719.85171	8483.15
723.77365	8459.55
727.69284	8470.45
731.60928	8435.15
735.52295	8350.05
739.43388	8337.55
743.34206	8339.25
747.24749	8363.05
751.15017	8365.55
755.05012	8387.95
758.94733	8487.65
762.8418	8713.85
766.73354	9093.25
770.62254	9517.05
774.50882	9763.95
778.39237	9570.35
782.27321	9063.75
786.15132	8667.35
790.02671	8437.35
793.89938	8339.65
797.76935	8314.75
801.6366	8327.75
805.50115	8433.35
809.36299	8570.75
813.22213	8627.45
817.07857	8538.95
820.93231	8379.15
824.78336	8193.05
828.63172	8049.35
832.47738	7997.05
836.32036	7940.35
840.16066	7914.75
843.99827	7920.25
847.8332	7897.45
851.66546	7885.45
855.49504	7885.45
859.32195	7908.45
863.1462	7924.75
866.96777	7974.35
870.78668	8013.35
874.60293	8120.35
878.41652	8199.05
882.22745	8290.55
886.03573	8363.45
889.84136	8355.65
893.64433	8256.45
897.44466	8127.25
901.24235	7979.85
905.0374	7853.25
908.8298	7768.55
912.61957	7738.65
916.40671	7698.85
920.19121	7705.45
923.97308	7727.15
927.75233	7726.35
931.52895	7705.85
935.30295	7667.45
939.07433	7611.45
942.84309	7525.55
946.60924	7508.65
950.37278	7482.65
954.13371	7480.15
957.89203	7453.15
961.64774	7443.45
965.40086	7408.95
969.15137	7388.25
972.89929	7359.25
976.64461	7330.55
980.38733	7302.45
984.12747	7312.25
987.86502	7317.75
991.59999	7346.15
995.33237	7407.25
999.06217	7475.35
1002.78939	7577.95
1006.51404	7653.85
1010.23611	7733.95
1013.95561	7827.65
1017.67255	7827.95
1021.38692	7799.25
1025.09872	7728.45
1028.80796	7647.75
1032.51465	7592.35
1036.21877	7580.95
1039.92035	7571.45
1043.61937	7548.45
1047.31584	7549.45
1051.00976	7523.95
1054.70114	7532.85
1058.38998	7553.15
1062.07627	7612.95
1065.76003	7672.65
1069.44126	7718.75
1073.11995	7788.45
1076.79611	7832.05
1080.46974	7823.75
1084.14085	7822.65
1087.80943	7812.05
1091.47549	7812.45
1095.13903	7775.95
1098.80005	7696.45
1102.45857	7620.45
1106.11456	7590.45
1109.76805	7596.75
1113.41903	7709.35
1117.06751	7841.35
1120.71348	8112.65
1124.35696	8430.05
1127.99793	8864.65
1131.63641	9238.15
1135.2724	9408.35
1138.90589	9390.05
1142.5369	9196.55
1146.16542	8911.45
1149.79145	8574.05
1153.415	8291.55
1157.03607	8078.75
1160.65467	7980.95
1164.27079	8013.65
1167.88443	8117.85
1171.49561	8328.95
1175.10432	8644.55
1178.71056	9081.45
1182.31434	9476.45
1185.91565	9688.35
1189.51451	9698.15
1193.11091	9597.25
1196.70485	9513.95
1200.29634	9381.45
1203.88538	9301.85
1207.47197	9179.95
1211.05612	8987.35
1214.63782	8806.45
1218.21708	8614.55
1221.79391	8452.95
1225.36829	8312.25
1228.94024	8230.95
1232.50976	8124.05
1236.07685	8076.25
1239.6415	8050.75
1243.20374	8053.45
1246.76355	8089.35
1250.32093	8129.95
1253.8759	8235.85
1257.42845	8322.85
1260.97859	8435.55
1264.52631	8564.45
1268.07163	8673.35
1271.61453	8786.25
1275.15503	8893.25
1278.69312	8984.65
1282.22882	9036.55
1285.76211	9169.85
1289.29301	9289.45
1292.82151	9534.25
1296.34761	9804.15
1299.87133	10134.65
1303.39266	10488.05
1306.9116	10912.45
1310.42815	11366.35
1313.94233	11653.65
1317.45412	11665.65
1320.96354	11507.05
1324.47058	11272.85
1327.97525	11091.85
1331.47754	10918.55
1334.97747	10859.85
1338.47502	10864.75
1341.97022	10925.35
1345.46305	11015.05
1348.95352	11152.75
1352.44163	11406.55
1355.92738	11764.35
1359.41078	12235.35
1362.89183	12750.55
1366.37053	12654.75
1369.84688	11857.05
1373.32088	10911.95
1376.79254	10217.45
1380.26186	9910.95
1383.72883	9770.85
1387.19347	9692.85
1390.65578	9531.95
1394.11575	9400.55
1397.57339	9341.25
1401.0287	9304.25
1404.48168	9298.55
1407.93234	9182.95
1411.38068	9028.35
1414.82669	8842.95
1418.27039	8603.65
1421.71177	8372.25
1425.15083	8175.75
1428.58758	8028.25
1432.02203	8002.55
1435.45416	8048.65
1438.88399	8123.85
1442.31151	8183.35
1445.73673	8267.75
1449.15965	8340.25
1452.58027	8383.05
1455.9986	8438.35
1459.41463	8486.75
1462.82837	8554.25
1466.23982	8667.75
1469.64898	8756.65
1473.05586	8820.35
1476.46045	8828.45
1479.86276	8832.45
1483.26279	8802.75
1486.66054	8801.85
1490.05602	8840.15
1493.44922	8923.45
1496.84016	9071.55
1500.22882	9329.45
1503.61521	9695.85
1506.99934	10099.85
1510.38121	10487.15
1513.76081	10611.65
1517.13816	10349.55
1520.51324	9892.65
1523.88607	9422.25
1527.25665	9189.15
1530.62498	9056.15
1533.99105	8979.55
1537.35488	8973.05
1540.71647	8947.55
1544.07581	8915.95
1547.4329	8891.65
1550.78776	8863.25
1554.14038	8843.75
1557.49077	8914.15
1560.83892	8942.25
1564.18484	9016.35
1567.52853	9073.95
1570.86999	9151.75
1574.20922	9221.85
1577.54624	9269.45
1580.88103	9181.05
1584.2136	9056.55
1587.54395	9035.15
1590.87208	9102.85
1594.19801	9326.55
1597.52172	9590.95
1600.84321	9731.35
1604.16251	9582.95
1607.47959	9308.35
1610.79447	8996.25
1614.10715	8682.05
1617.41763	8403.95
1620.7259	8218.85
1624.03199	8108.95
1627.33587	8105.25
1630.63757	8222.95
1633.93707	8448.95
1637.23439	8803.35
1640.52951	9318.95
1643.82246	9929.95
1647.11321	10531.15
1650.40179	10817.45
1653.68819	10607.85
1656.97241	9928.85
1660.25446	9163.65
1663.53433	8588.25
1666.81203	8205.85
1670.08756	7926.05
1673.36092	7772.35
1676.63211	7670.55
1679.90115	7547.15
1683.16801	7417.35
1686.43272	7270.65
1689.69527	7144.15
1692.95567	7008.55
1696.2139	6874.55
1699.46999	6744.95
1702.72392	6631.05
1705.97571	6535.85
1709.22535	6447.65
1712.47284	6394.25
1715.71819	6343.75
1718.96139	6279.45
1722.20246	6245.15
1725.44139	6152.05
1728.67818	6106.65
1731.91284	6025.05
1735.14537	5962.75
1738.37576	5919.55
1741.60403	5857.45
1744.83017	5839.05
1748.05418	5806.35
1751.27607	5788.45
1754.49584	5789.15
1757.71349	5776.45
1760.92903	5755.95
1764.14244	5746.95
1767.35375	5727.95
1770.56294	5699.95
1773.77002	5669.95
1776.97499	5663.05
1780.17785	5615.65
1783.37861	5600.95
1786.57727	5575.45
1789.77382	5535.35
1792.96828	5538.45
1796.16064	5514.05
1799.3509	5500.05
1802.53907	5497.55
1805.72514	5454.05
1808.90913	5439.55
1812.09102	5425.85
1815.27083	5433.95
1818.44856	5400.15
1821.6242	5407.15
1824.79776	5378.35
1827.96924	5381.85
1831.13864	5358.25
1834.30597	5358.55
1837.47122	5349.05
1840.6344	5343.85
1843.7955	5343.15
1846.95454	5337.35
1850.11151	5342.15
1853.26642	5330.95
1856.41926	5311.75
1859.57004	5301.75
1862.71876	5294.25
1865.86542	5295.85
1869.01003	5287.45
1872.15258	5293.25
1875.29308	5270.35
1878.43152	5255.25
1881.56792	5244.05
1884.70227	5268.65
1887.83457	5240.85
1890.96482	5240.15
1894.09304	5223.15
1897.21921	5211.65
1900.34335	5203.05
1903.46544	5204.65
1906.58551	5194.95
1909.70353	5182.25
1912.81953	5185.35
1915.93349	5168.65
1919.04543	5159.15
1922.15534	5144.15
1925.26322	5139.05
1928.36908	5124.45
1931.47292	5121.15
1934.57473	5112.35
1937.67453	5081.95
1940.77232	5086.65
1943.86808	5059.05
1946.96184	5041.05
1950.05358	5034.45
1953.14331	5020.75
1956.23103	4999.85
1959.31675	4993.75
1962.40046	4975.45
1965.48217	4963.65
1968.56188	4950.85
1971.63959	4941.15
1974.7153	4917.65
1977.78901	4916.85
1980.86073	4898.45
1983.93046	4864.65
1986.99819	4854.25
1990.06394	4849.65
1993.1277	4832.95
1996.18947	4798.35
1999.24925	4788.25
2002.30706	4787.25
2005.36288	4786.15
2008.41672	4754.55
2011.46859	4739.65
2014.51848	4720.45
2017.56639	4706.95
2020.61233	4701.35
2023.6563	4695.95
2026.6983	4673.45
2029.73833	4662.75
2032.7764	4645.65
2035.8125	4639.35
2038.84664	4639.45
2041.87881	4626.25
2044.90903	4620.25
2047.93729	4604.55
2050.96359	4603.25
2053.98794	4595.65
2057.01034	4595.35
2060.03078	4575.55
2063.04927	4578.75
2066.06582	4582.45
2069.08042	4580.45
2072.09307	4568.75
2075.10378	4569.45
2078.11255	4546.75
2081.11938	4555.95
2084.12426	4556.75
2087.12722	4558.55
2090.12824	4555.75
2093.12732	4565.65
2096.12447	4551.25
2099.11969	4555.35
2102.11299	4564.35
2105.10435	4564.05
2108.09379	4560.45
2111.08131	4558.25
2114.0669	4557.75
2117.05057	4568.65
2120.03233	4572.65
2123.01216	4579.05
2125.99008	4569.35
2128.96609	4571.65
2131.94018	4568.15
2134.91236	4595.35
2137.88263	4598.05
2140.851	4591.15
2143.81746	4571.35
2146.78201	4585.65
2149.74466	4581.75
2152.7054	4589.95
2155.66425	4585.85
2158.6212	4592.25
2161.57625	4588.55
2164.52941	4566.75
2167.48067	4570.25
2170.43004	4569.15
2173.37752	4565.95
2176.32311	4546.55
2179.26681	4553.75
2182.20863	4561.55
2185.14856	4574.25
2188.08661	4555.15
2191.02278	4559.85
2193.95707	4544.95
2196.88948	4539.85
2199.82001	4542.65
2202.74867	4535.25
2205.67545	4518.75
2208.60037	4523.55
2211.52341	4505.65
2214.44458	4507.15
2217.36388	4485.05
2220.28132	4472.45
2223.1969	4468.45
2226.11061	4469.25
2229.02246	4476.05
2231.93245	4463.45
2234.84058	4445.65
2237.74686	4423.25
2240.65128	4429.65
2243.55385	4421.05
2246.45456	4416.95
2249.35343	4400.35
2252.25044	4391.25
2255.14561	4395.45
2258.03893	4403.75
2260.93041	4385.45
2263.82004	4393.25
2266.70783	4370.45
2269.59378	4358.35
2272.4779	4348.75
2275.36017	4344.55
2278.24061	4325.55
2281.11922	4316.15
2283.996	4312.95
2286.87094	4307.95
2289.74405	4294.95
2292.61534	4287.55
2295.4848	4268.45
2298.35243	4263.95
2301.21824	4259.75
2304.08223	4258.15
2306.94439	4256.55
2309.80474	4277.25
2312.66327	4252.15
2315.51999	4259.45
2318.37489	4244.45
2321.22797	4245.45
2324.07925	4249.05
2326.92871	4230.75
2329.77637	4235.95
2332.62222	4230.35
2335.46626	4220.25
2338.3085	4210.75
2341.14893	4201.95
2343.98756	4199.05
2346.8244	4180.45
2349.65943	4188.75
2352.49267	4197.95
2355.32411	4192.45
2358.15376	4185.45
2360.98161	4193.25
2363.80768	4174.85
2366.63195	4177.95
2369.45444	4181.35
2372.27514	4157.35
2375.09405	4158.05
2377.91118	4167.35
2380.72652	4135.45
2383.54009	4122.75
2386.35187	4144.95
2389.16188	4113.65
2391.97011	4108.65
2394.77657	4103.85
2397.58125	4079.15
2400.38416	4086.85
2403.18529	4065.55
2405.98466	4075.95
2408.78226	4074.35
2411.57809	4057.55
2414.37216	4053.05
2417.16446	4040.75
2419.955	4022.75
2422.74378	4036.85
2425.5308	4020.95
2428.31606	4028.15
2431.09956	4025.35
2433.88131	4020.75
2436.6613	4011.85
2439.43954	4015.25
2442.21603	4010.45
2444.99077	3998.45
2447.76377	3994.25
2450.53501	4011.35
2453.30451	3998.45
2456.07226	3985.65
2458.83827	3987.85
2461.60254	3978.35
2464.36507	3987.65
2467.12586	3973.55
2469.88492	3967.25
2472.64224	3954.95
2475.39782	3968.05
2478.15167	3977.95
2480.90379	3955.35
2483.65417	3960.65
2486.40283	3952.95
2489.14976	3969.85
2491.89497	3964.75
2494.63845	3966.75
2497.3802	3949.65
2500.12024	3938.35
2502.85855	3927.15
2505.59514	3937.85
2508.33002	3929.55
2511.06318	3936.65
2513.79462	3918.95
2516.52435	3933.25
2519.25237	3912.75
2521.97867	3905.75
2524.70327	3900.95
2527.42616	3896.05
2530.14734	3894.15
2532.86681	3878.35
2535.58458	3887.75
2538.30065	3857.75
2541.01501	3863.55
2543.72768	3855.35
2546.43864	3857.95
2549.14791	3858.65
2551.85548	3838.55
2554.56136	3833.35
2557.26554	3833.15
2559.96803	3829.35
2562.66883	3822.75
2565.36794	3809.45
2568.06536	3814.35
2570.7611	3812.65
2573.45514	3793.25
2576.14751	3791.85
2578.83819	3799.05
2581.52719	3789.95
2584.21451	3783.25
2586.90015	3770.85
2589.58411	3770.05
2592.2664	3759.35
2594.94701	3755.25
2597.62594	3746.55
2600.30321	3736.05
2602.9788	3731.55
2605.65273	3720.05
2608.32498	3726.45
2610.99557	3725.35
2613.66449	3737.15
2616.33175	3715.45
2618.99734	3710.55
2621.66128	3706.55
2624.32355	3699.85
2626.98416	3702.35
2629.64311	3698.75
2632.30041	3707.65
2634.95605	3710.95
2637.61004	3682.65
2640.26238	3682.65
2642.91306	3684.65
2645.56209	3681.35
2648.20948	3676.75
2650.85521	3682.95
2653.4993	3668.15
2656.14175	3670.65
2658.78255	3663.15
2661.42171	3665.15
2664.05923	3676.45
2666.6951	3658.35
2669.32934	3668.05
2671.96194	3668.15
2674.59291	3669.85
2677.22224	3660.25
2679.84993	3658.05
2682.476	3668.25
2685.10043	3666.65
2687.72324	3671.45
2690.34441	3666.15
2692.96396	3656.95
2695.58188	3676.55
2698.19818	3674.75
2700.81285	3674.35
2703.4259	3675.75
2706.03733	3698.75
2708.64714	3672.45
2711.25533	3676.15
2713.86191	3675.15
2716.46687	3687.85
2719.07021	3677.95
2721.67194	3685.15
2724.27206	3672.75
2726.87057	3670.45
2729.46747	3666.55
2732.06276	3671.45
2734.65644	3659.95
2737.24852	3669.55
2739.83899	3662.45
2742.42786	3665.85
2745.01513	3656.35
2747.60079	3659.55
2750.18486	3645.85
2752.76733	3647.95
2755.3482	3641.75
2757.92747	3644.05
2760.50515	3640.15
2763.08123	3639.45
2765.65573	3628.65
2768.22863	3625.65
2770.79994	3619.95
2773.36967	3624.55
2775.9378	3614.65
2778.50435	3615.55
2781.06932	3615.65
2783.6327	3610.05
2786.1945	3591.85
2788.75471	3595.15
2791.31335	3584.85
2793.87041	3579.85
2796.42589	3557.45
2798.97979	3570.75
2801.53212	3563.05
2804.08288	3563.05
2806.63206	3556.95
2809.17967	3541.15
2811.72571	3524.95
2814.27018	3545.55
2816.81308	3529.25
2819.35442	3529.95
2821.89419	3518.95
2824.43239	3514.35
2826.96904	3519.75
2829.50412	3495.55
2832.03763	3498.45
2834.56959	3511.75
2837.1	3501.85
2839.62884	3495.05
2842.15613	3495.65
2844.68186	3502.65
2847.20604	3506.05
2849.72867	3496.25
2852.24974	3509.05
2854.76927	3496.95
2857.28724	3482.55
2859.80367	3498.95
2862.31855	3483.85
2864.83189	3486.35
2867.34368	3475.55
2869.85393	3476.35
2872.36264	3488.45
2874.8698	3496.85
2877.37543	3489.25
2879.87952	3484.95
2882.38207	3495.05
2884.88308	3494.75
2887.38256	3495.25
2889.88051	3501.25
2892.37692	3503.65
2894.8718	3503.95
2897.36515	3507.65
2899.85698	3507.95
2902.34727	3509.85
2904.83604	3512.95
2907.32328	3515.95
2909.809	3512.35
2912.29319	3520.05
2914.77587	3534.25
2917.25702	3523.15
2919.73665	3513.35
2922.21476	3528.55
2924.69136	3524.85
2927.16644	3545.05
2929.64	3530.55
2932.11205	3523.75
2934.58258	3518.25
2937.05161	3519.15
2939.51912	3533.55
2941.98513	3522.65
2944.44962	3516.45
2946.91261	3521.05
2949.37409	3513.25
2951.83407	3507.05
2954.29254	3518.05
2956.74951	3502.15
2959.20498	3489.35
2961.65895	3488.05
2964.11142	3497.75
2966.56239	3477.95
2969.01186	3470.55
2971.45984	3460.15
2973.90632	3462.95
2976.35131	3444.85
2978.7948	3445.55
2981.23681	3448.35
2983.67732	3431.05
2986.11635	3444.65
2988.55388	3422.25
2990.98993	3422.05
2993.4245	3399.75
2995.85758	3410.75
2998.28917	3417.75
3000.71928	3407.05
3003.14791	3407.75
3005.57506	3403.85
3008.00073	3396.15
3010.42493	3402.45
3012.84764	3391.75
3015.26888	3401.55
3017.68865	3381.35
3020.10694	3391.45
3022.52376	3383.65
3024.9391	3385.95
3027.35298	3376.85
3029.76539	3373.55
3032.17632	3364.55
3034.5858	3372.35
3036.9938	3360.25
3039.40034	3359.15
3041.80542	3372.95
3044.20903	3370.05
3046.61118	3375.95
3049.01187	3343.65
3051.4111	3356.95
3053.80888	3347.65
3056.20519	3358.65
3058.60005	3334.75
3060.99345	3331.55
3063.3854	3332.25
3065.7759	3332.55
3068.16494	3327.45
3070.55254	3326.35
3072.93868	3320.75
3075.32338	3341.15
3077.70662	3339.35
3080.08842	3317.05
3082.46878	3331.55
3084.84769	3329.85
3087.22515	3332.85
3089.60118	3342.65
3091.97576	3344.35
3094.3489	3353.75
3096.72061	3350.85
3099.09087	3357.85
3101.4597	3351.45
3103.82709	3360.65
3106.19305	3357.15
3108.55757	3359.05
3110.92066	3364.15
3113.28232	3366.25
3115.64255	3350.55
3118.00134	3340.75
3120.35871	3343.15
3122.71466	3335.65
3125.06917	3345.55
3127.42226	3350.45
3129.77393	3359.35
3132.12417	3375.45
3134.47299	3354.95
3136.82039	3373.15
3139.16636	3378.35
3141.51092	3383.45
3143.85406	3384.55
3146.19579	3391.15
3148.53609	3401.85
3150.87499	3408.35
3153.21246	3394.95
3155.54853	3420.05
3157.88318	3415.45
3160.21642	3423.25
3162.54826	3422.15
3164.87868	3447.35
3167.2077	3438.85
3169.5353	3444.45
3171.86151	3444.75
3174.18631	3451.95
3176.5097	3452.75
3178.83169	3440.05
3181.15228	3455.15
3183.47147	3457.15
3185.78926	3456.95
3188.10565	3454.05
3190.42065	3460.75
3192.73424	3469.65
3195.04645	3477.05
3197.35725	3479.65
3199.66667	3484.75
3201.97469	3507.05
3204.28132	3509.45
3206.58656	3508.15
3208.8904	3518.75
3211.19287	3519.25
3213.49394	3529.65
3215.79363	3538.05
3218.09193	3529.55
3220.38884	3539.25
3222.68438	3549.45
3224.97853	3537.35
3227.2713	3535.35
3229.56269	3530.75
3231.8527	3524.15
3234.14133	3511.15
3236.42858	3518.35
3238.71446	3511.65
3240.99896	3512.25
3243.28209	3511.55
3245.56384	3502.75
3247.84423	3523.85
3250.12324	3510.25
3252.40088	3515.65
3254.67715	3508.15
3256.95205	3498.85
3259.22558	3512.05
3261.49775	3511.45
3263.76855	3505.15
3266.03799	3493.75
3268.30606	3491.95
3270.57277	3485.35
3272.83812	3479.85
3275.10211	3470.85
3277.36474	3464.05
3279.62601	3482.55
3281.88593	3466.65
3284.14448	3475.05
3286.40168	3474.55
3288.65753	3465.85
3290.91202	3458.85
3293.16516	3448.55
3295.41695	3452.15
3297.66738	3424.95
3299.91647	3408.75
3302.16421	3382.45
3304.4106	3383.45
3306.65564	3369.55
3308.89933	3346.85
3311.14169	3327.95
3313.38269	3308.05
3315.62236	3297.75
3317.86068	3259.65
3320.09766	3242.85
3322.3333	3220.35
3324.5676	3211.25
3326.80056	3170.65
3329.03219	3160.25
3331.26248	0.05
3333.49143	1.15
3335.71905	-0.55
