Data from AgNPs_FTO_APTES_UA_0.1mM_CRN_100uM_NaF_0.1M_Addition_RamanShift__1__13-17-27-667.txt Node

Date: Mon Dec 20 13:17:27 GMT 2021
User: TCL
Spectrometer: QEP01345
Trigger mode: 4
Integration Time (sec): 7.000000E0
Scans to average: 10
Electric dark correction enabled: true
Nonlinearity correction enabled: false
Boxcar width: 0
XAxis mode: Raman Shifts
Number of Pixels in Spectrum: 1044
>>>>>Begin Spectral Data<<<<<
46.04893	1.05
50.45542	-0.15
54.85868	-1.55
59.25871	0.15
63.6555	33.75
68.04907	32.35
72.43941	38.15
76.82654	37.65
81.21044	38.45
85.59113	45.35
89.96862	40.75
94.34289	42.55
98.71396	46.55
103.08183	45.25
107.4465	50.35
111.80798	48.15
116.16626	50.05
120.52136	55.25
124.87327	56.45
129.222	56.45
133.56755	55.05
137.90993	64.15
142.24913	65.45
146.58517	71.15
150.91804	81.05
155.24774	97.95
159.57429	112.75
163.89768	147.95
168.21792	184.55
172.53501	246.65
176.84895	333.55
181.15975	461.45
185.46741	642.05
189.77193	885.45
194.07331	1177.75
198.37157	1529.45
202.6667	1892.35
206.9587	2267.05
211.24758	2634.25
215.53334	3003.65
219.81599	3395.45
224.09553	3821.65
228.37195	4292.25
232.64527	4822.95
236.91549	5373.25
241.18261	5882.55
245.44663	6388.85
249.70755	6780.45
253.96539	7130.65
258.22014	7369.75
262.4718	7570.25
266.72039	7695.75
270.96589	7715.45
275.20832	7691.05
279.44768	7598.45
283.68397	7472.05
287.91719	7386.85
292.14735	7268.95
296.37445	7222.85
300.59849	7200.25
304.81948	7183.95
309.03742	7154.15
313.25231	7096.95
317.46415	7021.45
321.67296	6915.95
325.87872	6834.35
330.08145	6775.85
334.28114	6777.25
338.47781	6802.95
342.67145	6851.75
346.86207	6927.35
351.04966	7002.75
355.23424	7106.05
359.4158	7190.75
363.59435	7286.65
367.76989	7378.65
371.94243	7455.75
376.11196	7527.05
380.27849	7599.85
384.44203	7669.75
388.60257	7740.95
392.76012	7789.15
396.91468	7869.55
401.06626	7944.45
405.21485	8042.75
409.36047	7998.35
413.50311	7981.45
417.64277	7932.95
421.77947	7909.25
425.9132	7894.85
430.04396	7895.95
434.17176	7969.55
438.2966	8021.25
442.41849	8076.65
446.53742	8183.85
450.6534	8295.55
454.76644	8372.95
458.87653	8402.85
462.98368	8428.05
467.08789	8437.15
471.18916	8429.45
475.2875	8442.65
479.38291	8482.35
483.4754	8540.65
487.56496	8671.55
491.6516	8853.95
495.73531	8934.95
499.81612	8968.05
503.89401	8914.95
507.96899	8814.25
512.04106	8716.95
516.11023	8688.85
520.1765	8690.25
524.23987	8742.15
528.30034	8778.05
532.35792	8800.35
536.41261	8780.15
540.46441	8690.05
544.51333	8587.55
548.55936	8521.05
552.60252	8495.65
556.64279	8504.05
560.6802	8519.25
564.71473	8521.45
568.7464	8582.05
572.7752	8627.35
576.80114	8689.15
580.82422	8758.15
584.84444	8896.85
588.86181	9079.35
592.87633	9211.95
596.888	9231.85
600.89682	9167.95
604.9028	9244.05
608.90594	9606.85
612.90624	10157.25
616.90371	10132.05
620.89834	9687.45
624.89015	9744.45
628.87913	10265.45
632.86528	10892.35
636.84862	11332.45
640.82913	11284.85
644.80683	10884.35
648.78172	10346.85
652.75379	9833.85
656.72306	9480.35
660.68952	9293.95
664.65319	9119.65
668.61405	8960.85
672.57211	8904.35
676.52738	8945.25
680.47986	8993.05
684.42955	8991.75
688.37646	8922.85
692.32058	8867.35
696.26192	8848.75
700.20048	8810.95
704.13626	8792.15
708.06928	8770.05
711.99952	8733.05
715.927	8747.05
719.85171	8841.15
723.77365	8917.25
727.69284	8998.75
731.60928	8941.05
735.52295	8821.55
739.43388	8730.45
743.34206	8715.85
747.24749	8710.25
751.15017	8749.35
755.05012	8760.05
758.94733	8810.95
762.8418	8990.95
766.73354	9216.15
770.62254	9480.55
774.50882	9582.75
778.39237	9447.75
782.27321	9141.95
786.15132	8863.35
790.02671	8713.45
793.89938	8650.25
797.76935	8652.25
801.6366	8774.35
805.50115	8931.35
809.36299	9199.35
813.22213	9386.55
817.07857	9365.35
820.93231	9192.75
824.78336	8943.45
828.63172	8710.75
832.47738	8550.65
836.32036	8470.65
840.16066	8466.05
843.99827	8491.95
847.8332	8466.35
851.66546	8463.65
855.49504	8454.95
859.32195	8485.75
863.1462	8514.35
866.96777	8589.95
870.78668	8685.35
874.60293	8813.05
878.41652	8994.15
882.22745	9188.75
886.03573	9319.05
889.84136	9407.15
893.64433	9311.85
897.44466	9120.95
901.24235	8874.35
905.0374	8648.75
908.8298	8463.95
912.61957	8389.05
916.40671	8351.85
920.19121	8352.65
923.97308	8369.45
927.75233	8353.05
931.52895	8323.55
935.30295	8322.65
939.07433	8265.75
942.84309	8194.45
946.60924	8156.15
950.37278	8167.25
954.13371	8152.15
957.89203	8127.05
961.64774	8095.85
965.40086	8094.15
969.15137	8072.15
972.89929	8057.65
976.64461	8035.15
980.38733	8053.25
984.12747	8066.85
987.86502	8113.15
991.59999	8154.85
995.33237	8225.75
999.06217	8311.25
1002.78939	8442.45
1006.51404	8535.25
1010.23611	8639.65
1013.95561	8707.35
1017.67255	8759.35
1021.38692	8765.35
1025.09872	8732.75
1028.80796	8658.95
1032.51465	8590.25
1036.21877	8557.25
1039.92035	8499.25
1043.61937	8455.55
1047.31584	8428.75
1051.00976	8360.15
1054.70114	8365.55
1058.38998	8403.45
1062.07627	8456.75
1065.76003	8554.05
1069.44126	8664.65
1073.11995	8737.95
1076.79611	8805.35
1080.46974	8810.75
1084.14085	8782.95
1087.80943	8688.45
1091.47549	8645.35
1095.13903	8605.05
1098.80005	8535.15
1102.45857	8498.55
1106.11456	8486.95
1109.76805	8528.65
1113.41903	8665.95
1117.06751	8910.25
1120.71348	9306.05
1124.35696	9831.55
1127.99793	10431.35
1131.63641	10966.65
1135.2724	11211.45
1138.90589	11169.25
1142.5369	10834.95
1146.16542	10351.75
1149.79145	9846.75
1153.415	9375.45
1157.03607	9033.75
1160.65467	8832.05
1164.27079	8795.85
1167.88443	8819.45
1171.49561	8931.05
1175.10432	9152.75
1178.71056	9474.95
1182.31434	9765.35
1185.91565	9967.05
1189.51451	10024.25
1193.11091	10043.45
1196.70485	10076.95
1200.29634	10139.75
1203.88538	10147.95
1207.47197	10123.85
1211.05612	10026.15
1214.63782	9800.05
1218.21708	9603.15
1221.79391	9359.35
1225.36829	9174.85
1228.94024	9063.35
1232.50976	8961.15
1236.07685	8877.05
1239.6415	8885.55
1243.20374	8885.95
1246.76355	8963.85
1250.32093	9016.75
1253.8759	9116.55
1257.42845	9243.65
1260.97859	9346.85
1264.52631	9416.45
1268.07163	9485.75
1271.61453	9540.95
1275.15503	9598.05
1278.69312	9627.45
1282.22882	9662.45
1285.76211	9674.15
1289.29301	9761.55
1292.82151	9882.15
1296.34761	10065.85
1299.87133	10253.65
1303.39266	10524.45
1306.9116	10833.05
1310.42815	11139.75
1313.94233	11321.15
1317.45412	11314.85
1320.96354	11226.75
1324.47058	11058.65
1327.97525	10935.25
1331.47754	10826.65
1334.97747	10832.65
1338.47502	10837.05
1341.97022	10929.25
1345.46305	11034.05
1348.95352	11244.95
1352.44163	11474.35
1355.92738	11759.95
1359.41078	12163.75
1362.89183	12525.45
1366.37053	12477.45
1369.84688	11928.45
1373.32088	11271.85
1376.79254	10800.75
1380.26186	10502.15
1383.72883	10339.35
1387.19347	10190.35
1390.65578	10001.35
1394.11575	9836.05
1397.57339	9757.05
1401.0287	9674.45
1404.48168	9577.35
1407.93234	9493.85
1411.38068	9346.25
1414.82669	9205.05
1418.27039	9027.25
1421.71177	8884.25
1425.15083	8713.05
1428.58758	8627.25
1432.02203	8629.25
1435.45416	8619.95
1438.88399	8650.55
1442.31151	8632.25
1445.73673	8680.45
1449.15965	8700.85
1452.58027	8693.75
1455.9986	8685.25
1459.41463	8726.15
1462.82837	8749.15
1466.23982	8789.75
1469.64898	8882.95
1473.05586	8971.05
1476.46045	8985.55
1479.86276	8988.45
1483.26279	9031.35
1486.66054	9084.35
1490.05602	9149.15
1493.44922	9267.85
1496.84016	9442.15
1500.22882	9664.55
1503.61521	9962.05
1506.99934	10262.95
1510.38121	10533.35
1513.76081	10584.75
1517.13816	10404.25
1520.51324	10095.55
1523.88607	9820.15
1527.25665	9644.95
1530.62498	9619.05
1533.99105	9611.55
1537.35488	9633.55
1540.71647	9649.65
1544.07581	9658.95
1547.4329	9653.05
1550.78776	9641.35
1554.14038	9636.75
1557.49077	9598.65
1560.83892	9634.45
1564.18484	9643.65
1567.52853	9668.95
1570.86999	9738.05
1574.20922	9772.95
1577.54624	9807.35
1580.88103	9775.35
1584.2136	9683.15
1587.54395	9639.65
1590.87208	9687.25
1594.19801	9806.45
1597.52172	9989.25
1600.84321	10085.35
1604.16251	9992.25
1607.47959	9786.35
1610.79447	9570.05
1614.10715	9339.25
1617.41763	9207.75
1620.7259	9103.65
1624.03199	9080.65
1627.33587	9082.05
1630.63757	9174.05
1633.93707	9336.45
1637.23439	9606.55
1640.52951	9991.15
1643.82246	10445.65
1647.11321	10897.15
1650.40179	11103.65
1653.68819	10903.55
1656.97241	10446.35
1660.25446	9935.25
1663.53433	9545.55
1666.81203	9317.55
1670.08756	9209.55
1673.36092	9100.25
1676.63211	9083.55
1679.90115	9032.75
1683.16801	8996.65
1686.43272	8942.55
1689.69527	8835.95
1692.95567	8719.25
1696.2139	8649.35
1699.46999	8520.55
1702.72392	8373.55
1705.97571	8205.85
1709.22535	8004.45
1712.47284	7848.45
1715.71819	7702.85
1718.96139	7593.25
1722.20246	7488.15
1725.44139	7408.85
1728.67818	7353.65
1731.91284	7273.95
1735.14537	7220.95
1738.37576	7190.35
1741.60403	7148.95
1744.83017	7113.25
1748.05418	7099.15
1751.27607	7074.05
1754.49584	7060.25
1757.71349	7072.85
1760.92903	7045.45
1764.14244	7037.15
1767.35375	7041.25
1770.56294	7022.95
1773.77002	6986.75
1776.97499	6965.65
1780.17785	6952.85
1783.37861	6944.45
1786.57727	6946.65
1789.77382	6915.95
1792.96828	6899.05
1796.16064	6886.15
1799.3509	6873.45
1802.53907	6875.15
1805.72514	6825.35
1808.90913	6820.35
1812.09102	6816.65
1815.27083	6803.55
1818.44856	6788.15
1821.6242	6773.55
1824.79776	6750.85
1827.96924	6759.15
1831.13864	6745.95
1834.30597	6738.65
1837.47122	6738.75
1840.6344	6726.85
1843.7955	6725.65
1846.95454	6743.45
1850.11151	6723.35
1853.26642	6701.25
1856.41926	6708.05
1859.57004	6685.75
1862.71876	6705.05
1865.86542	6687.75
1869.01003	6677.85
1872.15258	6664.45
1875.29308	6673.05
1878.43152	6667.05
1881.56792	6651.35
1884.70227	6643.95
1887.83457	6619.15
1890.96482	6625.05
1894.09304	6611.25
1897.21921	6595.45
1900.34335	6603.75
1903.46544	6604.45
1906.58551	6582.15
1909.70353	6592.25
1912.81953	6573.95
1915.93349	6568.55
1919.04543	6552.15
1922.15534	6532.55
1925.26322	6538.35
1928.36908	6533.65
1931.47292	6517.55
1934.57473	6483.05
1937.67453	6478.35
1940.77232	6464.05
1943.86808	6450.75
1946.96184	6438.55
1950.05358	6417.55
1953.14331	6395.55
1956.23103	6372.25
1959.31675	6361.45
1962.40046	6347.45
1965.48217	6346.85
1968.56188	6326.95
1971.63959	6290.15
1974.7153	6266.15
1977.78901	6263.05
1980.86073	6240.75
1983.93046	6229.65
1986.99819	6211.75
1990.06394	6182.85
1993.1277	6178.85
1996.18947	6172.65
1999.24925	6161.35
2002.30706	6139.05
2005.36288	6118.65
2008.41672	6087.05
2011.46859	6074.95
2014.51848	6058.85
2017.56639	6051.85
2020.61233	6028.35
2023.6563	6030.35
2026.6983	6005.75
2029.73833	5993.55
2032.7764	5980.85
2035.8125	5971.45
2038.84664	5949.75
2041.87881	5960.05
2044.90903	5928.95
2047.93729	5917.65
2050.96359	5930.15
2053.98794	5921.25
2057.01034	5924.45
2060.03078	5916.75
2063.04927	5898.25
2066.06582	5901.25
2069.08042	5888.05
2072.09307	5886.45
2075.10378	5894.75
2078.11255	5875.65
2081.11938	5883.65
2084.12426	5880.55
2087.12722	5901.45
2090.12824	5899.05
2093.12732	5872.75
2096.12447	5903.45
2099.11969	5888.85
2102.11299	5895.35
2105.10435	5903.75
2108.09379	5896.15
2111.08131	5912.25
2114.0669	5912.15
2117.05057	5920.65
2120.03233	5913.25
2123.01216	5916.55
2125.99008	5939.55
2128.96609	5926.45
2131.94018	5927.95
2134.91236	5943.35
2137.88263	5947.05
2140.851	5946.35
2143.81746	5944.55
2146.78201	5961.75
2149.74466	5957.45
2152.7054	5964.05
2155.66425	5958.15
2158.6212	5959.75
2161.57625	5953.35
2164.52941	5957.25
2167.48067	5959.85
2170.43004	5942.45
2173.37752	5944.45
2176.32311	5954.05
2179.26681	5939.15
2182.20863	5949.95
2185.14856	5934.35
2188.08661	5947.55
2191.02278	5939.45
2193.95707	5937.35
2196.88948	5940.05
2199.82001	5931.35
2202.74867	5913.45
2205.67545	5905.15
2208.60037	5906.75
2211.52341	5895.85
2214.44458	5886.45
2217.36388	5883.75
2220.28132	5866.95
2223.1969	5833.55
2226.11061	5846.25
2229.02246	5824.35
2231.93245	5817.15
2234.84058	5819.65
2237.74686	5799.25
2240.65128	5808.25
2243.55385	5792.75
2246.45456	5790.85
2249.35343	5775.25
2252.25044	5758.45
2255.14561	5750.05
2258.03893	5756.85
2260.93041	5746.85
2263.82004	5741.85
2266.70783	5706.95
2269.59378	5709.25
2272.4779	5671.85
2275.36017	5677.35
2278.24061	5676.15
2281.11922	5671.55
2283.996	5648.35
2286.87094	5645.45
2289.74405	5648.25
2292.61534	5636.35
2295.4848	5633.15
2298.35243	5619.35
2301.21824	5620.25
2304.08223	5618.85
2306.94439	5608.75
2309.80474	5602.55
2312.66327	5586.45
2315.51999	5613.05
2318.37489	5583.85
2321.22797	5574.55
2324.07925	5576.05
2326.92871	5570.65
2329.77637	5550.35
2332.62222	5540.55
2335.46626	5535.25
2338.3085	5517.75
2341.14893	5527.55
2343.98756	5515.95
2346.8244	5529.75
2349.65943	5513.25
2352.49267	5502.15
2355.32411	5513.55
2358.15376	5508.35
2360.98161	5508.95
2363.80768	5490.95
2366.63195	5500.05
2369.45444	5491.75
2372.27514	5466.45
2375.09405	5482.75
2377.91118	5462.25
2380.72652	5442.55
2383.54009	5434.35
2386.35187	5439.65
2389.16188	5415.95
2391.97011	5409.25
2394.77657	5402.95
2397.58125	5391.55
2400.38416	5389.35
2403.18529	5390.45
2405.98466	5377.55
2408.78226	5371.95
2411.57809	5360.45
2414.37216	5334.75
2417.16446	5347.35
2419.955	5341.95
2422.74378	5341.15
2425.5308	5333.35
2428.31606	5324.25
2431.09956	5304.05
2433.88131	5278.95
2436.6613	5305.65
2439.43954	5280.05
2442.21603	5292.85
2444.99077	5280.35
2447.76377	5292.35
2450.53501	5277.65
2453.30451	5270.25
2456.07226	5252.15
2458.83827	5260.25
2461.60254	5265.55
2464.36507	5239.05
2467.12586	5255.65
2469.88492	5251.75
2472.64224	5229.65
2475.39782	5232.95
2478.15167	5245.75
2480.90379	5245.75
2483.65417	5231.55
2486.40283	5215.45
2489.14976	5233.05
2491.89497	5219.55
2494.63845	5233.35
2497.3802	5222.75
2500.12024	5221.45
2502.85855	5215.05
2505.59514	5184.55
2508.33002	5192.35
2511.06318	5197.55
2513.79462	5187.65
2516.52435	5180.75
2519.25237	5199.05
2521.97867	5170.05
2524.70327	5145.25
2527.42616	5150.35
2530.14734	5144.75
2532.86681	5125.25
2535.58458	5148.55
2538.30065	5119.55
2541.01501	5119.05
2543.72768	5111.45
2546.43864	5089.75
2549.14791	5079.25
2551.85548	5076.65
2554.56136	5057.75
2557.26554	5070.55
2559.96803	5051.15
2562.66883	5056.75
2565.36794	5039.15
2568.06536	5023.25
2570.7611	5021.75
2573.45514	5008.65
2576.14751	5023.05
2578.83819	4990.35
2581.52719	5001.65
2584.21451	4977.45
2586.90015	4991.45
2589.58411	4982.35
2592.2664	4974.25
2594.94701	4971.15
2597.62594	4928.75
2600.30321	4942.25
2602.9788	4918.45
2605.65273	4935.15
2608.32498	4911.65
2610.99557	4906.85
2613.66449	4892.85
2616.33175	4901.85
2618.99734	4895.15
2621.66128	4906.25
2624.32355	4880.15
2626.98416	4888.35
2629.64311	4855.95
2632.30041	4876.45
2634.95605	4857.35
2637.61004	4847.05
2640.26238	4851.15
2642.91306	4826.15
2645.56209	4836.85
2648.20948	4831.95
2650.85521	4828.25
2653.4993	4833.65
2656.14175	4815.15
2658.78255	4838.75
2661.42171	4834.65
2664.05923	4822.15
2666.6951	4827.15
2669.32934	4828.95
2671.96194	4819.65
2674.59291	4827.05
2677.22224	4825.25
2679.84993	4827.75
2682.476	4821.45
2685.10043	4827.45
2687.72324	4820.15
2690.34441	4828.35
2692.96396	4801.65
2695.58188	4827.05
2698.19818	4822.15
2700.81285	4817.55
2703.4259	4841.85
2706.03733	4871.25
2708.64714	4842.65
2711.25533	4845.15
2713.86191	4831.15
2716.46687	4832.45
2719.07021	4828.95
2721.67194	4833.55
2724.27206	4831.75
2726.87057	4826.25
2729.46747	4806.35
2732.06276	4819.05
2734.65644	4817.05
2737.24852	4816.85
2739.83899	4812.45
2742.42786	4796.25
2745.01513	4809.65
2747.60079	4803.45
2750.18486	4782.05
2752.76733	4788.35
2755.3482	4778.55
2757.92747	4781.15
2760.50515	4777.45
2763.08123	4757.75
2765.65573	4768.55
2768.22863	4766.15
2770.79994	4747.85
2773.36967	4754.35
2775.9378	4747.55
2778.50435	4728.55
2781.06932	4716.65
2783.6327	4715.65
2786.1945	4723.55
2788.75471	4715.05
2791.31335	4699.15
2793.87041	4695.75
2796.42589	4670.05
2798.97979	4662.25
2801.53212	4650.25
2804.08288	4662.45
2806.63206	4637.75
2809.17967	4643.05
2811.72571	4628.65
2814.27018	4624.95
2816.81308	4609.35
2819.35442	4615.85
2821.89419	4602.85
2824.43239	4595.55
2826.96904	4573.35
2829.50412	4593.25
2832.03763	4584.55
2834.56959	4581.55
2837.1	4574.15
2839.62884	4576.85
2842.15613	4565.45
2844.68186	4579.15
2847.20604	4554.15
2849.72867	4581.35
2852.24974	4569.25
2854.76927	4563.65
2857.28724	4557.55
2859.80367	4543.75
2862.31855	4547.75
2864.83189	4541.95
2867.34368	4548.05
2869.85393	4544.65
2872.36264	4542.15
2874.8698	4536.95
2877.37543	4537.35
2879.87952	4531.35
2882.38207	4547.75
2884.88308	4559.85
2887.38256	4533.25
2889.88051	4533.85
2892.37692	4557.45
2894.8718	4537.45
2897.36515	4537.95
2899.85698	4536.45
2902.34727	4554.55
2904.83604	4541.15
2907.32328	4541.25
2909.809	4550.15
2912.29319	4559.45
2914.77587	4553.85
2917.25702	4570.95
2919.73665	4553.85
2922.21476	4572.65
2924.69136	4566.85
2927.16644	4570.25
2929.64	4570.85
2932.11205	4578.65
2934.58258	4561.15
2937.05161	4545.85
2939.51912	4558.65
2941.98513	4548.75
2944.44962	4557.15
2946.91261	4545.85
2949.37409	4556.85
2951.83407	4557.85
2954.29254	4535.15
2956.74951	4547.95
2959.20498	4532.45
2961.65895	4531.35
2964.11142	4526.85
2966.56239	4514.75
2969.01186	4503.65
2971.45984	4502.15
2973.90632	4491.35
2976.35131	4493.25
2978.7948	4488.25
2981.23681	4474.45
2983.67732	4487.55
2986.11635	4462.15
2988.55388	4444.55
2990.98993	4452.15
2993.4245	4442.45
2995.85758	4446.25
2998.28917	4435.55
3000.71928	4432.45
3003.14791	4442.55
3005.57506	4423.25
3008.00073	4424.25
3010.42493	4420.85
3012.84764	4419.85
3015.26888	4442.95
3017.68865	4416.25
3020.10694	4410.15
3022.52376	4410.45
3024.9391	4407.85
3027.35298	4412.95
3029.76539	4402.75
3032.17632	4390.75
3034.5858	4409.25
3036.9938	4389.85
3039.40034	4395.85
3041.80542	4388.15
3044.20903	4376.65
3046.61118	4390.15
3049.01187	4383.85
3051.4111	4385.95
3053.80888	4376.35
3056.20519	4352.55
3058.60005	4356.85
3060.99345	4371.85
3063.3854	4350.15
3065.7759	4340.55
3068.16494	4339.15
3070.55254	4356.65
3072.93868	4339.85
3075.32338	4349.85
3077.70662	4329.05
3080.08842	4338.25
3082.46878	4343.95
3084.84769	4343.25
3087.22515	4349.25
3089.60118	4337.35
3091.97576	4349.65
3094.3489	4349.35
3096.72061	4364.55
3099.09087	4358.95
3101.4597	4365.65
3103.82709	4353.85
3106.19305	4368.55
3108.55757	4367.45
3110.92066	4349.75
3113.28232	4342.95
3115.64255	4347.15
3118.00134	4341.95
3120.35871	4354.55
3122.71466	4355.95
3125.06917	4346.05
3127.42226	4339.25
3129.77393	4340.35
3132.12417	4348.35
3134.47299	4357.05
3136.82039	4354.35
3139.16636	4370.75
3141.51092	4378.55
3143.85406	4399.05
3146.19579	4414.55
3148.53609	4399.45
3150.87499	4419.15
3153.21246	4416.45
3155.54853	4450.75
3157.88318	4441.35
3160.21642	4458.65
3162.54826	4450.15
3164.87868	4445.55
3167.2077	4456.95
3169.5353	4471.45
3171.86151	4450.05
3174.18631	4451.45
3176.5097	4445.15
3178.83169	4450.45
3181.15228	4460.15
3183.47147	4463.15
3185.78926	4462.35
3188.10565	4456.85
3190.42065	4463.15
3192.73424	4462.85
3195.04645	4468.85
3197.35725	4464.05
3199.66667	4473.25
3201.97469	4494.05
3204.28132	4494.25
3206.58656	4501.25
3208.8904	4493.45
3211.19287	4518.15
3213.49394	4504.35
3215.79363	4513.45
3218.09193	4543.35
3220.38884	4517.65
3222.68438	4529.05
3224.97853	4529.95
3227.2713	4522.85
3229.56269	4513.05
3231.8527	4509.15
3234.14133	4502.85
3236.42858	4494.85
3238.71446	4490.05
3240.99896	4477.95
3243.28209	4488.55
3245.56384	4482.85
3247.84423	4477.75
3250.12324	4482.15
3252.40088	4476.45
3254.67715	4478.15
3256.95205	4472.15
3259.22558	4470.95
3261.49775	4475.85
3263.76855	4469.95
3266.03799	4456.85
3268.30606	4464.75
3270.57277	4439.45
3272.83812	4437.35
3275.10211	4432.75
3277.36474	4431.65
3279.62601	4440.65
3281.88593	4433.75
3284.14448	4441.45
3286.40168	4426.15
3288.65753	4417.05
3290.91202	4400.95
3293.16516	4385.85
3295.41695	4380.45
3297.66738	4347.25
3299.91647	4341.75
3302.16421	4324.95
3304.4106	4313.35
3306.65564	4284.05
3308.89933	4264.35
3311.14169	4225.15
3313.38269	4217.75
3315.62236	4184.55
3317.86068	4166.55
3320.09766	4107.45
3322.3333	4079.35
3324.5676	4094.85
3326.80056	4034.75
3329.03219	4009.95
3331.26248	1.75
3333.49143	0.65
3335.71905	-1.05
