Data from AgNPs_FTO_APTES_UA_0.1mM_CRN_50uM_NaF_0.1M_Addition_RamanShift__21__13-01-07-649.txt Node

Date: Mon Dec 20 13:01:07 GMT 2021
User: TCL
Spectrometer: QEP01345
Trigger mode: 4
Integration Time (sec): 7.000000E0
Scans to average: 10
Electric dark correction enabled: true
Nonlinearity correction enabled: false
Boxcar width: 0
XAxis mode: Raman Shifts
Number of Pixels in Spectrum: 1044
>>>>>Begin Spectral Data<<<<<
46.04893	0.45
50.45542	0.15
54.85868	-2.15
59.25871	-0.15
63.6555	35.15
68.04907	32.95
72.43941	37.05
76.82654	38.75
81.21044	41.35
85.59113	44.85
89.96862	41.35
94.34289	44.85
98.71396	41.85
103.08183	42.75
107.4465	48.75
111.80798	48.45
116.16626	50.35
120.52136	54.45
124.87327	55.25
129.222	50.65
133.56755	57.65
137.90993	58.75
142.24913	67.25
146.58517	71.75
150.91804	84.45
155.24774	95.65
159.57429	115.85
163.89768	147.45
168.21792	187.75
172.53501	252.15
176.84895	344.45
181.15975	479.15
185.46741	669.65
189.77193	925.85
194.07331	1246.05
198.37157	1617.45
202.6667	2013.95
206.9587	2419.45
211.24758	2804.45
215.53334	3193.65
219.81599	3598.85
224.09553	4026.45
228.37195	4473.75
232.64527	4976.25
236.91549	5492.15
241.18261	6028.35
245.44663	6497.45
249.70755	6914.65
253.96539	7296.05
258.22014	7577.25
262.4718	7790.85
266.72039	7940.75
270.96589	7979.25
275.20832	7965.65
279.44768	7857.45
283.68397	7737.45
287.91719	7621.05
292.14735	7520.75
296.37445	7481.15
300.59849	7467.45
304.81948	7493.85
309.03742	7489.65
313.25231	7418.25
317.46415	7297.85
321.67296	7145.65
325.87872	7021.85
330.08145	6950.85
334.28114	6953.15
338.47781	6987.95
342.67145	7067.55
346.86207	7148.95
351.04966	7295.05
355.23424	7449.25
359.4158	7579.65
363.59435	7691.85
367.76989	7778.05
371.94243	7839.95
376.11196	7878.45
380.27849	7943.25
384.44203	8016.45
388.60257	8083.55
392.76012	8102.95
396.91468	8186.65
401.06626	8277.45
405.21485	8331.75
409.36047	8321.95
413.50311	8227.35
417.64277	8147.85
421.77947	8096.55
425.9132	8090.35
430.04396	8091.95
434.17176	8131.45
438.2966	8200.15
442.41849	8283.35
446.53742	8364.05
450.6534	8467.55
454.76644	8528.85
458.87653	8592.65
462.98368	8596.05
467.08789	8568.25
471.18916	8587.95
475.2875	8597.25
479.38291	8609.65
483.4754	8669.75
487.56496	8764.95
491.6516	8880.25
495.73531	8919.75
499.81612	8908.45
503.89401	8854.75
507.96899	8776.35
512.04106	8728.75
516.11023	8724.75
520.1765	8749.75
524.23987	8776.75
528.30034	8799.95
532.35792	8786.35
536.41261	8751.65
540.46441	8632.55
544.51333	8548.85
548.55936	8486.95
552.60252	8508.85
556.64279	8526.75
560.6802	8544.35
564.71473	8561.55
568.7464	8659.65
572.7752	8721.35
576.80114	8717.75
580.82422	8706.85
584.84444	8808.65
588.86181	8904.45
592.87633	8993.25
596.888	8998.75
600.89682	9008.35
604.9028	9174.45
608.90594	9775.55
612.90624	10625.35
616.90371	10614.85
620.89834	9792.65
624.89015	9614.35
628.87913	9936.45
632.86528	10388.65
636.84862	10723.35
640.82913	10624.45
644.80683	10257.35
648.78172	9790.35
652.75379	9414.35
656.72306	9219.65
660.68952	9177.55
664.65319	9118.85
668.61405	9044.95
672.57211	9040.15
676.52738	9091.75
680.47986	9104.45
684.42955	9087.25
688.37646	9046.75
692.32058	8975.55
696.26192	8890.05
700.20048	8860.05
704.13626	8800.65
708.06928	8724.95
711.99952	8666.85
715.927	8617.15
719.85171	8606.45
723.77365	8620.25
727.69284	8615.25
731.60928	8564.15
735.52295	8474.15
739.43388	8446.85
743.34206	8453.55
747.24749	8453.75
751.15017	8473.75
755.05012	8503.05
758.94733	8581.75
762.8418	8782.85
766.73354	9135.85
770.62254	9525.25
774.50882	9709.65
778.39237	9541.15
782.27321	9132.35
786.15132	8717.15
790.02671	8516.15
793.89938	8432.55
797.76935	8426.85
801.6366	8486.95
805.50115	8661.25
809.36299	8860.05
813.22213	8960.05
817.07857	8857.75
820.93231	8630.75
824.78336	8397.95
828.63172	8244.25
832.47738	8122.45
836.32036	8068.75
840.16066	8075.15
843.99827	8035.95
847.8332	8030.05
851.66546	7995.95
855.49504	8004.25
859.32195	8023.75
863.1462	8050.25
866.96777	8082.95
870.78668	8176.95
874.60293	8296.15
878.41652	8432.15
882.22745	8563.55
886.03573	8637.25
889.84136	8639.25
893.64433	8506.15
897.44466	8320.75
901.24235	8114.45
905.0374	7963.85
908.8298	7846.05
912.61957	7790.75
916.40671	7747.85
920.19121	7753.15
923.97308	7740.85
927.75233	7725.45
931.52895	7745.45
935.30295	7692.75
939.07433	7666.75
942.84309	7600.35
946.60924	7568.45
950.37278	7555.85
954.13371	7531.65
957.89203	7486.25
961.64774	7474.25
965.40086	7449.75
969.15137	7421.65
972.89929	7382.65
976.64461	7355.15
980.38733	7346.15
984.12747	7336.55
987.86502	7370.75
991.59999	7403.05
995.33237	7457.35
999.06217	7516.75
1002.78939	7608.05
1006.51404	7706.25
1010.23611	7785.75
1013.95561	7870.35
1017.67255	7889.25
1021.38692	7839.15
1025.09872	7757.85
1028.80796	7679.15
1032.51465	7605.05
1036.21877	7558.15
1039.92035	7508.55
1043.61937	7503.55
1047.31584	7480.95
1051.00976	7483.35
1054.70114	7480.15
1058.38998	7503.35
1062.07627	7578.35
1065.76003	7631.65
1069.44126	7676.25
1073.11995	7732.25
1076.79611	7756.75
1080.46974	7756.05
1084.14085	7715.75
1087.80943	7678.35
1091.47549	7642.85
1095.13903	7583.55
1098.80005	7508.85
1102.45857	7456.95
1106.11456	7429.95
1109.76805	7464.45
1113.41903	7560.35
1117.06751	7751.35
1120.71348	8003.75
1124.35696	8382.25
1127.99793	8830.25
1131.63641	9246.05
1135.2724	9456.75
1138.90589	9415.25
1142.5369	9215.35
1146.16542	8841.05
1149.79145	8428.85
1153.415	8084.45
1157.03607	7832.65
1160.65467	7723.55
1164.27079	7685.75
1167.88443	7769.65
1171.49561	7928.05
1175.10432	8195.35
1178.71056	8576.85
1182.31434	8951.05
1185.91565	9139.15
1189.51451	9148.75
1193.11091	9075.55
1196.70485	9040.45
1200.29634	9028.45
1203.88538	9014.65
1207.47197	8848.35
1211.05612	8639.35
1214.63782	8411.35
1218.21708	8168.95
1221.79391	8005.05
1225.36829	7868.15
1228.94024	7767.75
1232.50976	7698.05
1236.07685	7645.55
1239.6415	7634.35
1243.20374	7652.35
1246.76355	7665.85
1250.32093	7724.55
1253.8759	7780.15
1257.42845	7851.95
1260.97859	7927.55
1264.52631	8025.45
1268.07163	8085.65
1271.61453	8102.05
1275.15503	8181.05
1278.69312	8197.35
1282.22882	8213.05
1285.76211	8297.55
1289.29301	8383.15
1292.82151	8527.35
1296.34761	8733.85
1299.87133	8964.75
1303.39266	9299.05
1306.9116	9714.95
1310.42815	10160.75
1313.94233	10450.65
1317.45412	10433.45
1320.96354	10205.35
1324.47058	10015.75
1327.97525	9790.95
1331.47754	9673.85
1334.97747	9645.75
1338.47502	9735.95
1341.97022	9801.05
1345.46305	9947.55
1348.95352	10121.95
1352.44163	10392.05
1355.92738	10754.45
1359.41078	11289.25
1362.89183	11825.15
1366.37053	11753.05
1369.84688	10922.05
1373.32088	10045.75
1376.79254	9472.45
1380.26186	9129.95
1383.72883	8935.15
1387.19347	8825.35
1390.65578	8671.75
1394.11575	8548.85
1397.57339	8508.05
1401.0287	8419.65
1404.48168	8401.05
1407.93234	8332.05
1411.38068	8227.65
1414.82669	8095.95
1418.27039	7889.55
1421.71177	7693.45
1425.15083	7546.95
1428.58758	7408.25
1432.02203	7344.25
1435.45416	7344.65
1438.88399	7355.15
1442.31151	7403.45
1445.73673	7403.05
1449.15965	7433.35
1452.58027	7467.85
1455.9986	7489.05
1459.41463	7489.15
1462.82837	7562.45
1466.23982	7617.05
1469.64898	7718.45
1473.05586	7741.05
1476.46045	7778.45
1479.86276	7787.95
1483.26279	7783.45
1486.66054	7838.35
1490.05602	7907.95
1493.44922	7996.65
1496.84016	8169.35
1500.22882	8422.45
1503.61521	8823.45
1506.99934	9305.25
1510.38121	9706.55
1513.76081	9827.05
1517.13816	9547.95
1520.51324	9025.95
1523.88607	8538.35
1527.25665	8223.45
1530.62498	8072.95
1533.99105	8041.85
1537.35488	8017.15
1540.71647	8019.15
1544.07581	8042.75
1547.4329	8055.05
1550.78776	8084.45
1554.14038	8077.95
1557.49077	8134.35
1560.83892	8189.95
1564.18484	8255.55
1567.52853	8331.65
1570.86999	8404.95
1574.20922	8474.35
1577.54624	8476.15
1580.88103	8425.85
1584.2136	8263.25
1587.54395	8172.55
1590.87208	8220.65
1594.19801	8366.65
1597.52172	8575.55
1600.84321	8693.75
1604.16251	8599.75
1607.47959	8399.55
1610.79447	8215.95
1614.10715	8002.35
1617.41763	7812.05
1620.7259	7685.15
1624.03199	7626.05
1627.33587	7609.75
1630.63757	7697.95
1633.93707	7830.45
1637.23439	8087.95
1640.52951	8428.85
1643.82246	8920.95
1647.11321	9395.75
1650.40179	9747.25
1653.68819	9623.95
1656.97241	9069.65
1660.25446	8464.25
1663.53433	7976.85
1666.81203	7666.15
1670.08756	7462.45
1673.36092	7313.95
1676.63211	7210.85
1679.90115	7130.15
1683.16801	7032.25
1686.43272	6926.05
1689.69527	6802.85
1692.95567	6706.15
1696.2139	6571.75
1699.46999	6448.35
1702.72392	6339.85
1705.97571	6200.25
1709.22535	6122.35
1712.47284	6044.05
1715.71819	5999.45
1718.96139	5942.65
1722.20246	5886.25
1725.44139	5848.25
1728.67818	5774.75
1731.91284	5722.65
1735.14537	5673.35
1738.37576	5639.75
1741.60403	5593.95
1744.83017	5581.35
1748.05418	5571.35
1751.27607	5553.55
1754.49584	5552.75
1757.71349	5533.95
1760.92903	5512.55
1764.14244	5511.65
1767.35375	5485.85
1770.56294	5460.95
1773.77002	5426.55
1776.97499	5393.25
1780.17785	5361.15
1783.37861	5333.65
1786.57727	5301.75
1789.77382	5274.55
1792.96828	5246.65
1796.16064	5234.35
1799.3509	5209.95
1802.53907	5193.85
1805.72514	5170.35
1808.90913	5158.15
1812.09102	5141.95
1815.27083	5123.45
1818.44856	5118.75
1821.6242	5092.45
1824.79776	5079.35
1827.96924	5077.25
1831.13864	5073.95
1834.30597	5065.75
1837.47122	5063.95
1840.6344	5052.75
1843.7955	5035.35
1846.95454	5028.95
1850.11151	5044.75
1853.26642	5030.45
1856.41926	5020.25
1859.57004	5010.35
1862.71876	5001.85
1865.86542	5002.85
1869.01003	4981.35
1872.15258	4975.75
1875.29308	4979.55
1878.43152	4975.05
1881.56792	4951.15
1884.70227	4944.95
1887.83457	4945.15
1890.96482	4923.55
1894.09304	4908.85
1897.21921	4900.65
1900.34335	4903.75
1903.46544	4896.65
1906.58551	4892.45
1909.70353	4882.85
1912.81953	4873.25
1915.93349	4858.15
1919.04543	4852.25
1922.15534	4850.45
1925.26322	4846.15
1928.36908	4826.55
1931.47292	4817.95
1934.57473	4784.05
1937.67453	4785.85
1940.77232	4753.75
1943.86808	4747.45
1946.96184	4757.15
1950.05358	4713.55
1953.14331	4719.05
1956.23103	4686.65
1959.31675	4690.75
1962.40046	4695.25
1965.48217	4660.95
1968.56188	4632.15
1971.63959	4617.55
1974.7153	4628.75
1977.78901	4610.25
1980.86073	4598.55
1983.93046	4578.75
1986.99819	4557.15
1990.06394	4534.25
1993.1277	4519.15
1996.18947	4519.15
1999.24925	4503.75
2002.30706	4487.95
2005.36288	4479.35
2008.41672	4458.35
2011.46859	4434.85
2014.51848	4429.35
2017.56639	4423.05
2020.61233	4400.45
2023.6563	4378.85
2026.6983	4384.55
2029.73833	4372.15
2032.7764	4353.55
2035.8125	4340.85
2038.84664	4330.75
2041.87881	4339.85
2044.90903	4320.25
2047.93729	4314.85
2050.96359	4310.15
2053.98794	4295.95
2057.01034	4303.85
2060.03078	4283.75
2063.04927	4287.35
2066.06582	4281.65
2069.08042	4270.85
2072.09307	4267.35
2075.10378	4258.45
2078.11255	4255.25
2081.11938	4248.95
2084.12426	4242.75
2087.12722	4272.55
2090.12824	4257.95
2093.12732	4256.05
2096.12447	4260.95
2099.11969	4243.15
2102.11299	4238.85
2105.10435	4245.45
2108.09379	4244.35
2111.08131	4245.95
2114.0669	4244.95
2117.05057	4243.95
2120.03233	4273.55
2123.01216	4273.05
2125.99008	4261.35
2128.96609	4269.75
2131.94018	4263.15
2134.91236	4272.35
2137.88263	4262.35
2140.851	4263.05
2143.81746	4278.15
2146.78201	4282.45
2149.74466	4274.45
2152.7054	4280.85
2155.66425	4270.15
2158.6212	4275.95
2161.57625	4266.65
2164.52941	4271.05
2167.48067	4258.65
2170.43004	4254.65
2173.37752	4258.35
2176.32311	4253.75
2179.26681	4241.45
2182.20863	4258.45
2185.14856	4252.85
2188.08661	4233.95
2191.02278	4243.95
2193.95707	4226.55
2196.88948	4222.25
2199.82001	4221.55
2202.74867	4220.95
2205.67545	4195.65
2208.60037	4184.85
2211.52341	4188.25
2214.44458	4195.75
2217.36388	4187.05
2220.28132	4174.65
2223.1969	4159.15
2226.11061	4157.55
2229.02246	4129.55
2231.93245	4141.65
2234.84058	4133.35
2237.74686	4120.05
2240.65128	4118.15
2243.55385	4115.95
2246.45456	4098.95
2249.35343	4094.75
2252.25044	4085.55
2255.14561	4079.75
2258.03893	4080.05
2260.93041	4074.35
2263.82004	4056.75
2266.70783	4041.85
2269.59378	4032.45
2272.4779	4044.25
2275.36017	4026.55
2278.24061	4016.35
2281.11922	4005.35
2283.996	3997.05
2286.87094	3978.35
2289.74405	3983.45
2292.61534	3971.65
2295.4848	3969.65
2298.35243	3968.35
2301.21824	3947.65
2304.08223	3952.95
2306.94439	3957.45
2309.80474	3918.85
2312.66327	3938.55
2315.51999	3928.45
2318.37489	3928.25
2321.22797	3929.15
2324.07925	3934.25
2326.92871	3915.95
2329.77637	3911.85
2332.62222	3899.15
2335.46626	3883.65
2338.3085	3878.15
2341.14893	3877.15
2343.98756	3890.15
2346.8244	3866.95
2349.65943	3870.35
2352.49267	3864.15
2355.32411	3853.55
2358.15376	3860.15
2360.98161	3858.75
2363.80768	3851.35
2366.63195	3864.25
2369.45444	3847.15
2372.27514	3848.35
2375.09405	3831.05
2377.91118	3829.65
2380.72652	3814.15
2383.54009	3818.75
2386.35187	3814.35
2389.16188	3787.65
2391.97011	3799.35
2394.77657	3787.15
2397.58125	3770.25
2400.38416	3772.95
2403.18529	3767.35
2405.98466	3759.85
2408.78226	3757.55
2411.57809	3742.15
2414.37216	3745.75
2417.16446	3737.15
2419.955	3737.15
2422.74378	3727.45
2425.5308	3710.75
2428.31606	3712.65
2431.09956	3698.85
2433.88131	3697.35
2436.6613	3694.65
2439.43954	3682.95
2442.21603	3684.25
2444.99077	3678.95
2447.76377	3690.25
2450.53501	3676.55
2453.30451	3670.85
2456.07226	3682.05
2458.83827	3667.45
2461.60254	3674.65
2464.36507	3660.85
2467.12586	3647.75
2469.88492	3663.95
2472.64224	3648.05
2475.39782	3641.05
2478.15167	3651.75
2480.90379	3646.55
2483.65417	3636.45
2486.40283	3644.45
2489.14976	3647.85
2491.89497	3621.45
2494.63845	3652.35
2497.3802	3629.35
2500.12024	3624.55
2502.85855	3625.35
2505.59514	3605.45
2508.33002	3613.25
2511.06318	3607.55
2513.79462	3588.65
2516.52435	3591.65
2519.25237	3581.25
2521.97867	3583.85
2524.70327	3579.45
2527.42616	3578.75
2530.14734	3565.55
2532.86681	3553.95
2535.58458	3550.85
2538.30065	3529.75
2541.01501	3544.35
2543.72768	3535.15
2546.43864	3527.25
2549.14791	3524.35
2551.85548	3522.55
2554.56136	3488.25
2557.26554	3502.65
2559.96803	3492.85
2562.66883	3492.55
2565.36794	3480.95
2568.06536	3478.45
2570.7611	3479.35
2573.45514	3483.65
2576.14751	3466.05
2578.83819	3452.45
2581.52719	3460.55
2584.21451	3436.55
2586.90015	3449.95
2589.58411	3446.15
2592.2664	3427.05
2594.94701	3425.35
2597.62594	3411.85
2600.30321	3395.55
2602.9788	3392.85
2605.65273	3392.45
2608.32498	3388.45
2610.99557	3389.55
2613.66449	3387.25
2616.33175	3380.45
2618.99734	3368.55
2621.66128	3370.95
2624.32355	3365.15
2626.98416	3355.95
2629.64311	3358.85
2632.30041	3357.15
2634.95605	3341.95
2637.61004	3336.85
2640.26238	3332.15
2642.91306	3337.75
2645.56209	3331.55
2648.20948	3326.65
2650.85521	3330.85
2653.4993	3321.75
2656.14175	3319.45
2658.78255	3331.65
2661.42171	3306.25
2664.05923	3333.05
2666.6951	3344.65
2669.32934	3317.75
2671.96194	3318.95
2674.59291	3310.25
2677.22224	3324.35
2679.84993	3318.35
2682.476	3311.75
2685.10043	3321.75
2687.72324	3310.15
2690.34441	3327.85
2692.96396	3310.15
2695.58188	3319.85
2698.19818	3312.65
2700.81285	3308.65
2703.4259	3328.95
2706.03733	3350.95
2708.64714	3340.25
2711.25533	3323.95
2713.86191	3321.55
2716.46687	3315.95
2719.07021	3309.65
2721.67194	3323.85
2724.27206	3305.95
2726.87057	3334.55
2729.46747	3312.35
2732.06276	3327.85
2734.65644	3313.95
2737.24852	3311.45
2739.83899	3321.25
2742.42786	3301.95
2745.01513	3286.25
2747.60079	3294.15
2750.18486	3286.75
2752.76733	3283.15
2755.3482	3280.45
2757.92747	3292.65
2760.50515	3270.85
2763.08123	3271.15
2765.65573	3269.25
2768.22863	3279.55
2770.79994	3260.85
2773.36967	3266.65
2775.9378	3260.95
2778.50435	3241.25
2781.06932	3236.95
2783.6327	3243.75
2786.1945	3239.35
2788.75471	3232.95
2791.31335	3222.65
2793.87041	3218.85
2796.42589	3213.15
2798.97979	3200.85
2801.53212	3198.55
2804.08288	3201.05
2806.63206	3200.65
2809.17967	3182.85
2811.72571	3176.45
2814.27018	3181.45
2816.81308	3168.45
2819.35442	3166.45
2821.89419	3160.05
2824.43239	3166.95
2826.96904	3139.65
2829.50412	3163.05
2832.03763	3148.95
2834.56959	3147.55
2837.1	3138.85
2839.62884	3139.35
2842.15613	3150.55
2844.68186	3148.55
2847.20604	3146.85
2849.72867	3154.95
2852.24974	3149.45
2854.76927	3153.45
2857.28724	3148.25
2859.80367	3139.05
2862.31855	3125.25
2864.83189	3134.85
2867.34368	3123.55
2869.85393	3130.45
2872.36264	3126.25
2874.8698	3131.95
2877.37543	3123.25
2879.87952	3131.35
2882.38207	3118.95
2884.88308	3137.15
2887.38256	3137.05
2889.88051	3136.05
2892.37692	3128.55
2894.8718	3128.35
2897.36515	3123.05
2899.85698	3137.95
2902.34727	3145.45
2904.83604	3149.35
2907.32328	3155.55
2909.809	3156.95
2912.29319	3158.95
2914.77587	3144.25
2917.25702	3155.65
2919.73665	3154.35
2922.21476	3166.35
2924.69136	3150.05
2927.16644	3146.35
2929.64	3155.55
2932.11205	3164.05
2934.58258	3155.55
2937.05161	3165.45
2939.51912	3172.85
2941.98513	3161.05
2944.44962	3157.55
2946.91261	3147.05
2949.37409	3149.55
2951.83407	3148.95
2954.29254	3136.75
2956.74951	3135.05
2959.20498	3122.45
2961.65895	3118.95
2964.11142	3123.95
2966.56239	3124.85
2969.01186	3118.55
2971.45984	3108.35
2973.90632	3095.05
2976.35131	3080.45
2978.7948	3093.55
2981.23681	3072.15
2983.67732	3080.05
2986.11635	3079.25
2988.55388	3055.65
2990.98993	3045.05
2993.4245	3056.55
2995.85758	3049.15
2998.28917	3048.15
3000.71928	3042.35
3003.14791	3055.15
3005.57506	3035.25
3008.00073	3031.55
3010.42493	3029.05
3012.84764	3039.05
3015.26888	3025.45
3017.68865	3033.95
3020.10694	3042.35
3022.52376	3023.45
3024.9391	3025.15
3027.35298	3013.85
3029.76539	3013.15
3032.17632	3007.05
3034.5858	3009.55
3036.9938	3022.55
3039.40034	3014.05
3041.80542	3014.45
3044.20903	3006.15
3046.61118	2999.35
3049.01187	2993.25
3051.4111	2999.95
3053.80888	2984.55
3056.20519	3002.35
3058.60005	2985.95
3060.99345	2982.65
3063.3854	2978.55
3065.7759	2981.65
3068.16494	2967.85
3070.55254	2973.55
3072.93868	2970.95
3075.32338	2975.85
3077.70662	2969.25
3080.08842	2972.05
3082.46878	2967.55
3084.84769	2976.85
3087.22515	2984.05
3089.60118	2980.65
3091.97576	2992.25
3094.3489	2986.75
3096.72061	2989.45
3099.09087	3005.95
3101.4597	3000.65
3103.82709	3001.05
3106.19305	3012.25
3108.55757	3010.35
3110.92066	2998.05
3113.28232	3008.95
3115.64255	2991.85
3118.00134	2994.85
3120.35871	2999.85
3122.71466	3001.85
3125.06917	3010.35
3127.42226	2998.05
3129.77393	3012.95
3132.12417	3006.35
3134.47299	2999.85
3136.82039	3016.45
3139.16636	3027.25
3141.51092	3030.75
3143.85406	3040.65
3146.19579	3049.35
3148.53609	3062.95
3150.87499	3069.45
3153.21246	3078.55
3155.54853	3101.25
3157.88318	3086.05
3160.21642	3097.95
3162.54826	3096.05
3164.87868	3101.35
3167.2077	3106.85
3169.5353	3114.95
3171.86151	3126.95
3174.18631	3122.65
3176.5097	3120.65
3178.83169	3114.45
3181.15228	3123.55
3183.47147	3120.25
3185.78926	3121.25
3188.10565	3116.15
3190.42065	3142.05
3192.73424	3135.05
3195.04645	3136.85
3197.35725	3150.25
3199.66667	3147.75
3201.97469	3155.25
3204.28132	3182.95
3206.58656	3175.85
3208.8904	3174.75
3211.19287	3177.95
3213.49394	3194.45
3215.79363	3200.55
3218.09193	3198.55
3220.38884	3195.75
3222.68438	3207.85
3224.97853	3194.25
3227.2713	3199.45
3229.56269	3184.75
3231.8527	3199.95
3234.14133	3173.95
3236.42858	3186.85
3238.71446	3183.85
3240.99896	3180.25
3243.28209	3185.85
3245.56384	3183.75
3247.84423	3176.25
3250.12324	3176.65
3252.40088	3183.55
3254.67715	3169.65
3256.95205	3177.25
3259.22558	3189.15
3261.49775	3179.85
3263.76855	3172.15
3266.03799	3159.35
3268.30606	3168.75
3270.57277	3156.15
3272.83812	3143.75
3275.10211	3138.65
3277.36474	3153.85
3279.62601	3150.85
3281.88593	3146.25
3284.14448	3154.75
3286.40168	3148.15
3288.65753	3131.05
3290.91202	3141.35
3293.16516	3121.45
3295.41695	3115.65
3297.66738	3100.15
3299.91647	3087.75
3302.16421	3075.95
3304.4106	3054.05
3306.65564	3054.85
3308.89933	3043.05
3311.14169	3018.15
3313.38269	3004.45
3315.62236	2992.25
3317.86068	2961.25
3320.09766	2944.75
3322.3333	2915.45
3324.5676	2927.45
3326.80056	2866.75
3329.03219	2849.15
3331.26248	1.15
3333.49143	0.75
3335.71905	-0.75
