Data from AgNPs_FTO_APTES_UA_0.1mM_CRN_20uM_NaF_0.1M_Addition_RamanShift__12__12-10-57-592.txt Node

Date: Mon Dec 20 12:10:57 GMT 2021
User: TCL
Spectrometer: QEP01345
Trigger mode: 4
Integration Time (sec): 7.000000E0
Scans to average: 10
Electric dark correction enabled: true
Nonlinearity correction enabled: false
Boxcar width: 0
XAxis mode: Raman Shifts
Number of Pixels in Spectrum: 1044
>>>>>Begin Spectral Data<<<<<
46.04893	0.55
50.45542	-0.75
54.85868	-1.25
59.25871	-0.85
63.6555	32.95
68.04907	33.55
72.43941	36.75
76.82654	36.55
81.21044	33.45
85.59113	41.75
89.96862	38.75
94.34289	41.95
98.71396	41.75
103.08183	42.45
107.4465	46.95
111.80798	47.25
116.16626	48.75
120.52136	50.35
124.87327	52.25
129.222	51.55
133.56755	56.45
137.90993	57.15
142.24913	60.75
146.58517	63.75
150.91804	77.95
155.24774	93.25
159.57429	110.85
163.89768	138.15
168.21792	187.85
172.53501	245.75
176.84895	338.35
181.15975	474.15
185.46741	658.05
189.77193	916.05
194.07331	1228.45
198.37157	1590.55
202.6667	1978.15
206.9587	2352.35
211.24758	2734.35
215.53334	3112.35
219.81599	3532.85
224.09553	3942.05
228.37195	4432.55
232.64527	4990.05
236.91549	5568.45
241.18261	6182.75
245.44663	6764.95
249.70755	7273.15
253.96539	7704.35
258.22014	7981.25
262.4718	8132.55
266.72039	8143.25
270.96589	8058.45
275.20832	7875.85
279.44768	7641.45
283.68397	7377.45
287.91719	7165.75
292.14735	6941.55
296.37445	6796.65
300.59849	6698.35
304.81948	6631.85
309.03742	6547.15
313.25231	6516.55
317.46415	6412.55
321.67296	6343.95
325.87872	6294.85
330.08145	6249.15
334.28114	6249.05
338.47781	6242.05
342.67145	6286.05
346.86207	6336.75
351.04966	6387.05
355.23424	6456.65
359.4158	6508.95
363.59435	6583.15
367.76989	6626.55
371.94243	6684.85
376.11196	6727.25
380.27849	6769.05
384.44203	6834.55
388.60257	6890.65
392.76012	6977.95
396.91468	7108.35
401.06626	7253.95
405.21485	7344.85
409.36047	7404.15
413.50311	7382.35
417.64277	7352.05
421.77947	7318.15
425.9132	7280.75
430.04396	7306.05
434.17176	7295.65
438.2966	7320.65
442.41849	7305.25
446.53742	7349.65
450.6534	7399.95
454.76644	7446.05
458.87653	7468.35
462.98368	7493.55
467.08789	7503.65
471.18916	7523.45
475.2875	7549.05
479.38291	7574.25
483.4754	7625.95
487.56496	7708.75
491.6516	7764.55
495.73531	7849.15
499.81612	7890.25
503.89401	7951.15
507.96899	7960.95
512.04106	7968.25
516.11023	7894.75
520.1765	7827.35
524.23987	7728.15
528.30034	7644.75
532.35792	7589.65
536.41261	7530.35
540.46441	7512.15
544.51333	7480.45
548.55936	7493.15
552.60252	7543.45
556.64279	7587.45
560.6802	7632.15
564.71473	7637.55
568.7464	7661.75
572.7752	7716.75
576.80114	7731.35
580.82422	7757.45
584.84444	7814.55
588.86181	7870.95
592.87633	7912.95
596.888	7923.05
600.89682	7978.85
604.9028	8102.45
608.90594	8447.65
612.90624	8833.95
616.90371	8757.35
620.89834	8286.75
624.89015	8040.65
628.87913	8066.15
632.86528	8166.55
636.84862	8306.15
640.82913	8339.85
644.80683	8320.95
648.78172	8263.55
652.75379	8196.45
656.72306	8179.05
660.68952	8211.65
664.65319	8230.75
668.61405	8237.55
672.57211	8286.05
676.52738	8315.15
680.47986	8309.35
684.42955	8267.65
688.37646	8250.25
692.32058	8232.25
696.26192	8233.85
700.20048	8210.05
704.13626	8175.55
708.06928	8074.65
711.99952	7972.35
715.927	7859.85
719.85171	7801.95
723.77365	7771.55
727.69284	7732.25
731.60928	7720.95
735.52295	7688.05
739.43388	7734.95
743.34206	7766.05
747.24749	7831.15
751.15017	7880.85
755.05012	7945.25
758.94733	8032.35
762.8418	8137.55
766.73354	8293.95
770.62254	8438.25
774.50882	8526.35
778.39237	8415.25
782.27321	8192.65
786.15132	7970.15
790.02671	7818.65
793.89938	7766.55
797.76935	7756.85
801.6366	7784.05
805.50115	7850.45
809.36299	7922.05
813.22213	7969.05
817.07857	7910.05
820.93231	7799.45
824.78336	7689.05
828.63172	7582.35
832.47738	7525.65
836.32036	7488.35
840.16066	7480.55
843.99827	7472.85
847.8332	7471.25
851.66546	7480.35
855.49504	7486.95
859.32195	7494.55
863.1462	7479.55
866.96777	7501.15
870.78668	7519.55
874.60293	7556.15
878.41652	7570.75
882.22745	7593.95
886.03573	7662.15
889.84136	7665.05
893.64433	7661.55
897.44466	7641.15
901.24235	7633.15
905.0374	7584.85
908.8298	7539.15
912.61957	7528.75
916.40671	7519.75
920.19121	7503.15
923.97308	7494.55
927.75233	7464.25
931.52895	7444.05
935.30295	7403.25
939.07433	7361.65
942.84309	7316.05
946.60924	7277.65
950.37278	7277.25
954.13371	7262.85
957.89203	7268.95
961.64774	7249.15
965.40086	7247.65
969.15137	7242.05
972.89929	7206.05
976.64461	7225.15
980.38733	7203.35
984.12747	7220.95
987.86502	7213.65
991.59999	7243.55
995.33237	7252.35
999.06217	7275.45
1002.78939	7307.15
1006.51404	7322.05
1010.23611	7374.35
1013.95561	7394.25
1017.67255	7416.45
1021.38692	7438.45
1025.09872	7407.05
1028.80796	7408.25
1032.51465	7372.95
1036.21877	7340.35
1039.92035	7350.85
1043.61937	7385.45
1047.31584	7369.05
1051.00976	7392.55
1054.70114	7426.95
1058.38998	7412.85
1062.07627	7438.45
1065.76003	7457.45
1069.44126	7489.55
1073.11995	7500.95
1076.79611	7527.95
1080.46974	7533.35
1084.14085	7539.45
1087.80943	7500.45
1091.47549	7520.85
1095.13903	7516.15
1098.80005	7479.25
1102.45857	7466.55
1106.11456	7435.05
1109.76805	7430.05
1113.41903	7464.95
1117.06751	7548.15
1120.71348	7668.35
1124.35696	7801.45
1127.99793	7958.35
1131.63641	8107.95
1135.2724	8169.75
1138.90589	8198.25
1142.5369	8171.55
1146.16542	8093.85
1149.79145	7975.75
1153.415	7873.25
1157.03607	7711.15
1160.65467	7662.75
1164.27079	7620.05
1167.88443	7633.65
1171.49561	7698.95
1175.10432	7821.65
1178.71056	8010.15
1182.31434	8206.95
1185.91565	8288.95
1189.51451	8341.45
1193.11091	8336.55
1196.70485	8310.25
1200.29634	8252.85
1203.88538	8229.55
1207.47197	8195.15
1211.05612	8152.85
1214.63782	8150.65
1218.21708	8156.05
1221.79391	8112.75
1225.36829	8030.25
1228.94024	8016.15
1232.50976	7958.75
1236.07685	7900.45
1239.6415	7874.35
1243.20374	7859.35
1246.76355	7865.35
1250.32093	7889.15
1253.8759	7927.15
1257.42845	7988.35
1260.97859	8053.65
1264.52631	8087.45
1268.07163	8090.75
1271.61453	8149.15
1275.15503	8132.85
1278.69312	8164.25
1282.22882	8162.95
1285.76211	8176.65
1289.29301	8220.55
1292.82151	8310.35
1296.34761	8402.15
1299.87133	8551.75
1303.39266	8725.45
1306.9116	8895.05
1310.42815	9087.95
1313.94233	9211.55
1317.45412	9240.95
1320.96354	9225.75
1324.47058	9166.95
1327.97525	9139.55
1331.47754	9103.95
1334.97747	9073.15
1338.47502	9149.55
1341.97022	9228.75
1345.46305	9317.05
1348.95352	9455.05
1352.44163	9547.45
1355.92738	9662.35
1359.41078	9809.45
1362.89183	9976.25
1366.37053	9921.45
1369.84688	9557.45
1373.32088	9127.85
1376.79254	8826.95
1380.26186	8635.75
1383.72883	8546.35
1387.19347	8483.95
1390.65578	8394.05
1394.11575	8302.35
1397.57339	8243.85
1401.0287	8183.35
1404.48168	8099.45
1407.93234	8050.55
1411.38068	7988.75
1414.82669	7876.95
1418.27039	7761.35
1421.71177	7668.25
1425.15083	7562.05
1428.58758	7470.45
1432.02203	7424.35
1435.45416	7406.25
1438.88399	7389.25
1442.31151	7376.35
1445.73673	7396.45
1449.15965	7388.05
1452.58027	7423.75
1455.9986	7411.65
1459.41463	7444.45
1462.82837	7510.85
1466.23982	7550.95
1469.64898	7616.85
1473.05586	7669.05
1476.46045	7710.35
1479.86276	7749.45
1483.26279	7757.35
1486.66054	7800.35
1490.05602	7826.95
1493.44922	7907.15
1496.84016	8019.75
1500.22882	8197.35
1503.61521	8425.55
1506.99934	8670.75
1510.38121	8795.45
1513.76081	8840.05
1517.13816	8730.55
1520.51324	8532.05
1523.88607	8348.55
1527.25665	8274.55
1530.62498	8234.55
1533.99105	8204.35
1537.35488	8235.65
1540.71647	8227.95
1544.07581	8280.05
1547.4329	8286.15
1550.78776	8336.35
1554.14038	8366.15
1557.49077	8422.35
1560.83892	8460.85
1564.18484	8525.65
1567.52853	8572.85
1570.86999	8623.05
1574.20922	8631.45
1577.54624	8675.95
1580.88103	8658.25
1584.2136	8562.95
1587.54395	8527.25
1590.87208	8520.45
1594.19801	8541.35
1597.52172	8610.45
1600.84321	8631.25
1604.16251	8563.25
1607.47959	8441.75
1610.79447	8286.25
1614.10715	8127.75
1617.41763	7988.25
1620.7259	7862.75
1624.03199	7776.65
1627.33587	7753.55
1630.63757	7703.05
1633.93707	7789.45
1637.23439	7883.35
1640.52951	8068.15
1643.82246	8295.55
1647.11321	8547.25
1650.40179	8692.95
1653.68819	8658.95
1656.97241	8387.25
1660.25446	8065.45
1663.53433	7805.75
1666.81203	7582.65
1670.08756	7436.95
1673.36092	7309.85
1676.63211	7202.85
1679.90115	7138.15
1683.16801	7026.45
1686.43272	6910.65
1689.69527	6829.35
1692.95567	6700.35
1696.2139	6656.35
1699.46999	6581.55
1702.72392	6510.65
1705.97571	6467.95
1709.22535	6421.35
1712.47284	6386.85
1715.71819	6341.85
1718.96139	6305.85
1722.20246	6264.95
1725.44139	6229.25
1728.67818	6165.45
1731.91284	6101.65
1735.14537	6047.85
1738.37576	5992.95
1741.60403	5945.55
1744.83017	5922.55
1748.05418	5889.05
1751.27607	5864.35
1754.49584	5839.25
1757.71349	5833.15
1760.92903	5824.85
1764.14244	5805.05
1767.35375	5796.95
1770.56294	5762.85
1773.77002	5742.35
1776.97499	5716.15
1780.17785	5692.45
1783.37861	5672.05
1786.57727	5660.85
1789.77382	5630.65
1792.96828	5619.95
1796.16064	5589.15
1799.3509	5561.45
1802.53907	5563.45
1805.72514	5536.25
1808.90913	5501.95
1812.09102	5500.45
1815.27083	5502.25
1818.44856	5484.45
1821.6242	5458.35
1824.79776	5450.75
1827.96924	5434.15
1831.13864	5413.35
1834.30597	5415.15
1837.47122	5407.55
1840.6344	5386.45
1843.7955	5386.05
1846.95454	5378.95
1850.11151	5379.95
1853.26642	5366.25
1856.41926	5355.65
1859.57004	5354.75
1862.71876	5343.05
1865.86542	5336.15
1869.01003	5340.95
1872.15258	5328.45
1875.29308	5305.85
1878.43152	5282.45
1881.56792	5279.25
1884.70227	5270.55
1887.83457	5245.95
1890.96482	5258.35
1894.09304	5232.25
1897.21921	5235.35
1900.34335	5245.85
1903.46544	5219.35
1906.58551	5213.95
1909.70353	5204.75
1912.81953	5186.25
1915.93349	5162.75
1919.04543	5155.25
1922.15534	5141.85
1925.26322	5145.65
1928.36908	5134.05
1931.47292	5127.35
1934.57473	5080.75
1937.67453	5081.45
1940.77232	5069.95
1943.86808	5051.35
1946.96184	5031.15
1950.05358	5021.55
1953.14331	5009.75
1956.23103	4997.15
1959.31675	4988.15
1962.40046	4967.35
1965.48217	4949.45
1968.56188	4936.15
1971.63959	4926.35
1974.7153	4896.55
1977.78901	4881.55
1980.86073	4860.95
1983.93046	4835.45
1986.99819	4821.85
1990.06394	4800.25
1993.1277	4788.95
1996.18947	4770.05
1999.24925	4780.95
2002.30706	4733.95
2005.36288	4738.05
2008.41672	4716.45
2011.46859	4702.95
2014.51848	4689.05
2017.56639	4668.75
2020.61233	4645.55
2023.6563	4641.15
2026.6983	4617.85
2029.73833	4615.65
2032.7764	4587.75
2035.8125	4585.85
2038.84664	4567.05
2041.87881	4567.25
2044.90903	4542.15
2047.93729	4533.95
2050.96359	4530.95
2053.98794	4521.15
2057.01034	4518.15
2060.03078	4500.15
2063.04927	4513.95
2066.06582	4523.75
2069.08042	4496.85
2072.09307	4484.15
2075.10378	4499.85
2078.11255	4490.95
2081.11938	4473.85
2084.12426	4474.05
2087.12722	4475.45
2090.12824	4466.95
2093.12732	4458.65
2096.12447	4461.15
2099.11969	4443.75
2102.11299	4456.15
2105.10435	4457.05
2108.09379	4459.95
2111.08131	4455.15
2114.0669	4459.45
2117.05057	4475.95
2120.03233	4465.05
2123.01216	4445.15
2125.99008	4452.45
2128.96609	4457.75
2131.94018	4470.25
2134.91236	4485.75
2137.88263	4453.55
2140.851	4455.45
2143.81746	4467.45
2146.78201	4473.25
2149.74466	4468.45
2152.7054	4457.75
2155.66425	4460.65
2158.6212	4471.95
2161.57625	4445.75
2164.52941	4451.95
2167.48067	4436.75
2170.43004	4443.35
2173.37752	4446.65
2176.32311	4425.15
2179.26681	4424.05
2182.20863	4416.45
2185.14856	4429.65
2188.08661	4427.45
2191.02278	4423.25
2193.95707	4410.75
2196.88948	4405.15
2199.82001	4415.15
2202.74867	4399.05
2205.67545	4383.65
2208.60037	4370.25
2211.52341	4347.45
2214.44458	4355.65
2217.36388	4359.85
2220.28132	4331.85
2223.1969	4311.55
2226.11061	4320.15
2229.02246	4299.65
2231.93245	4289.65
2234.84058	4285.15
2237.74686	4282.05
2240.65128	4261.05
2243.55385	4256.95
2246.45456	4243.05
2249.35343	4243.85
2252.25044	4228.65
2255.14561	4228.85
2258.03893	4218.85
2260.93041	4209.35
2263.82004	4196.65
2266.70783	4189.35
2269.59378	4183.25
2272.4779	4169.25
2275.36017	4132.55
2278.24061	4142.65
2281.11922	4134.85
2283.996	4129.25
2286.87094	4127.85
2289.74405	4114.95
2292.61534	4095.55
2295.4848	4078.25
2298.35243	4081.25
2301.21824	4061.35
2304.08223	4070.55
2306.94439	4067.85
2309.80474	4050.85
2312.66327	4050.35
2315.51999	4043.85
2318.37489	4036.55
2321.22797	4038.65
2324.07925	4028.85
2326.92871	4012.65
2329.77637	4005.75
2332.62222	3991.75
2335.46626	3990.25
2338.3085	3976.65
2341.14893	3968.75
2343.98756	3963.95
2346.8244	3966.35
2349.65943	3954.35
2352.49267	3954.35
2355.32411	3963.85
2358.15376	3951.25
2360.98161	3932.65
2363.80768	3913.85
2366.63195	3914.75
2369.45444	3932.65
2372.27514	3915.55
2375.09405	3916.05
2377.91118	3904.65
2380.72652	3886.85
2383.54009	3880.45
2386.35187	3872.25
2389.16188	3862.15
2391.97011	3860.95
2394.77657	3844.25
2397.58125	3832.85
2400.38416	3819.55
2403.18529	3802.65
2405.98466	3814.65
2408.78226	3809.75
2411.57809	3788.25
2414.37216	3795.05
2417.16446	3778.05
2419.955	3767.65
2422.74378	3769.55
2425.5308	3753.45
2428.31606	3741.95
2431.09956	3745.35
2433.88131	3732.95
2436.6613	3742.05
2439.43954	3735.05
2442.21603	3718.05
2444.99077	3716.15
2447.76377	3712.15
2450.53501	3725.35
2453.30451	3712.45
2456.07226	3697.15
2458.83827	3704.75
2461.60254	3698.65
2464.36507	3687.85
2467.12586	3675.55
2469.88492	3671.55
2472.64224	3680.25
2475.39782	3674.15
2478.15167	3667.95
2480.90379	3650.25
2483.65417	3647.95
2486.40283	3638.25
2489.14976	3642.85
2491.89497	3637.15
2494.63845	3638.55
2497.3802	3615.65
2500.12024	3619.25
2502.85855	3608.55
2505.59514	3604.95
2508.33002	3591.95
2511.06318	3587.85
2513.79462	3580.95
2516.52435	3582.45
2519.25237	3573.85
2521.97867	3577.25
2524.70327	3568.95
2527.42616	3559.45
2530.14734	3553.05
2532.86681	3539.55
2535.58458	3532.75
2538.30065	3536.55
2541.01501	3530.65
2543.72768	3524.05
2546.43864	3514.05
2549.14791	3499.45
2551.85548	3504.65
2554.56136	3489.35
2557.26554	3464.55
2559.96803	3460.15
2562.66883	3477.45
2565.36794	3449.35
2568.06536	3453.55
2570.7611	3443.65
2573.45514	3439.15
2576.14751	3433.55
2578.83819	3420.85
2581.52719	3420.45
2584.21451	3395.25
2586.90015	3395.45
2589.58411	3389.85
2592.2664	3388.35
2594.94701	3376.75
2597.62594	3374.05
2600.30321	3354.65
2602.9788	3357.95
2605.65273	3355.85
2608.32498	3342.95
2610.99557	3323.25
2613.66449	3329.45
2616.33175	3334.05
2618.99734	3312.55
2621.66128	3323.35
2624.32355	3304.95
2626.98416	3305.35
2629.64311	3304.25
2632.30041	3275.15
2634.95605	3285.85
2637.61004	3270.35
2640.26238	3263.35
2642.91306	3271.95
2645.56209	3263.55
2648.20948	3266.25
2650.85521	3253.65
2653.4993	3245.05
2656.14175	3243.05
2658.78255	3242.15
2661.42171	3239.15
2664.05923	3232.45
2666.6951	3240.65
2669.32934	3233.55
2671.96194	3229.75
2674.59291	3227.35
2677.22224	3234.75
2679.84993	3221.95
2682.476	3226.95
2685.10043	3228.25
2687.72324	3213.25
2690.34441	3205.15
2692.96396	3217.55
2695.58188	3214.25
2698.19818	3223.75
2700.81285	3228.65
2703.4259	3223.75
2706.03733	3239.45
2708.64714	3236.85
2711.25533	3227.45
2713.86191	3204.15
2716.46687	3198.75
2719.07021	3217.65
2721.67194	3205.25
2724.27206	3204.05
2726.87057	3200.65
2729.46747	3195.95
2732.06276	3180.25
2734.65644	3189.55
2737.24852	3196.75
2739.83899	3177.05
2742.42786	3175.45
2745.01513	3160.55
2747.60079	3170.05
2750.18486	3156.05
2752.76733	3149.85
2755.3482	3161.65
2757.92747	3143.75
2760.50515	3132.75
2763.08123	3139.05
2765.65573	3128.25
2768.22863	3121.85
2770.79994	3120.75
2773.36967	3112.75
2775.9378	3115.65
2778.50435	3092.35
2781.06932	3088.25
2783.6327	3082.35
2786.1945	3086.75
2788.75471	3076.65
2791.31335	3073.55
2793.87041	3058.35
2796.42589	3046.85
2798.97979	3038.95
2801.53212	3022.05
2804.08288	3020.45
2806.63206	3018.75
2809.17967	3022.05
2811.72571	3002.95
2814.27018	3004.35
2816.81308	2980.05
2819.35442	2982.05
2821.89419	2975.15
2824.43239	2965.45
2826.96904	2965.75
2829.50412	2979.35
2832.03763	2959.75
2834.56959	2960.85
2837.1	2965.65
2839.62884	2954.95
2842.15613	2947.75
2844.68186	2946.85
2847.20604	2947.45
2849.72867	2955.55
2852.24974	2943.45
2854.76927	2948.75
2857.28724	2947.85
2859.80367	2943.25
2862.31855	2914.65
2864.83189	2936.55
2867.34368	2926.25
2869.85393	2925.25
2872.36264	2911.75
2874.8698	2925.65
2877.37543	2903.05
2879.87952	2906.15
2882.38207	2913.05
2884.88308	2900.35
2887.38256	2909.85
2889.88051	2901.65
2892.37692	2911.85
2894.8718	2895.85
2897.36515	2907.55
2899.85698	2912.65
2902.34727	2899.25
2904.83604	2900.75
2907.32328	2907.25
2909.809	2909.75
2912.29319	2906.25
2914.77587	2897.45
2917.25702	2901.65
2919.73665	2882.55
2922.21476	2890.05
2924.69136	2895.25
2927.16644	2888.55
2929.64	2882.95
2932.11205	2900.05
2934.58258	2880.15
2937.05161	2876.65
2939.51912	2889.25
2941.98513	2869.65
2944.44962	2863.15
2946.91261	2852.25
2949.37409	2871.75
2951.83407	2874.15
2954.29254	2857.55
2956.74951	2862.15
2959.20498	2857.25
2961.65895	2854.45
2964.11142	2848.95
2966.56239	2845.85
2969.01186	2843.35
2971.45984	2837.45
2973.90632	2821.55
2976.35131	2819.95
2978.7948	2826.05
2981.23681	2810.45
2983.67732	2802.35
2986.11635	2805.15
2988.55388	2799.25
2990.98993	2814.25
2993.4245	2799.35
2995.85758	2778.05
2998.28917	2767.95
3000.71928	2781.85
3003.14791	2778.05
3005.57506	2773.95
3008.00073	2769.95
3010.42493	2760.15
3012.84764	2754.55
3015.26888	2759.95
3017.68865	2738.75
3020.10694	2749.05
3022.52376	2750.45
3024.9391	2743.85
3027.35298	2736.25
3029.76539	2740.15
3032.17632	2736.65
3034.5858	2729.65
3036.9938	2725.45
3039.40034	2714.05
3041.80542	2733.85
3044.20903	2715.25
3046.61118	2715.15
3049.01187	2707.65
3051.4111	2702.85
3053.80888	2708.95
3056.20519	2708.75
3058.60005	2691.35
3060.99345	2705.65
3063.3854	2695.45
3065.7759	2702.55
3068.16494	2697.15
3070.55254	2691.15
3072.93868	2676.15
3075.32338	2679.45
3077.70662	2693.85
3080.08842	2690.95
3082.46878	2682.15
3084.84769	2680.55
3087.22515	2686.75
3089.60118	2690.35
3091.97576	2688.25
3094.3489	2683.55
3096.72061	2707.65
3099.09087	2700.55
3101.4597	2704.15
3103.82709	2701.15
3106.19305	2692.05
3108.55757	2690.55
3110.92066	2684.75
3113.28232	2695.15
3115.64255	2688.25
3118.00134	2683.65
3120.35871	2680.15
3122.71466	2698.45
3125.06917	2689.55
3127.42226	2671.35
3129.77393	2693.95
3132.12417	2690.55
3134.47299	2701.85
3136.82039	2700.55
3139.16636	2696.15
3141.51092	2713.25
3143.85406	2711.35
3146.19579	2714.85
3148.53609	2714.15
3150.87499	2733.55
3153.21246	2729.95
3155.54853	2744.75
3157.88318	2739.25
3160.21642	2740.35
3162.54826	2749.35
3164.87868	2751.05
3167.2077	2746.05
3169.5353	2758.55
3171.86151	2759.75
3174.18631	2764.05
3176.5097	2755.45
3178.83169	2761.75
3181.15228	2749.65
3183.47147	2753.95
3185.78926	2757.05
3188.10565	2768.05
3190.42065	2762.25
3192.73424	2770.15
3195.04645	2770.85
3197.35725	2779.45
3199.66667	2771.35
3201.97469	2781.45
3204.28132	2789.05
3206.58656	2788.15
3208.8904	2777.75
3211.19287	2795.95
3213.49394	2796.75
3215.79363	2789.45
3218.09193	2793.75
3220.38884	2790.05
3222.68438	2810.85
3224.97853	2807.15
3227.2713	2798.75
3229.56269	2785.85
3231.8527	2788.75
3234.14133	2776.35
3236.42858	2772.65
3238.71446	2778.35
3240.99896	2773.15
3243.28209	2765.15
3245.56384	2770.55
3247.84423	2771.75
3250.12324	2754.25
3252.40088	2765.85
3254.67715	2754.75
3256.95205	2751.65
3259.22558	2762.95
3261.49775	2755.75
3263.76855	2747.65
3266.03799	2734.95
3268.30606	2726.85
3270.57277	2737.05
3272.83812	2727.25
3275.10211	2725.15
3277.36474	2727.45
3279.62601	2726.65
3281.88593	2724.15
3284.14448	2724.35
3286.40168	2719.35
3288.65753	2722.05
3290.91202	2704.05
3293.16516	2696.65
3295.41695	2693.35
3297.66738	2677.45
3299.91647	2669.05
3302.16421	2642.55
3304.4106	2654.35
3306.65564	2629.35
3308.89933	2622.55
3311.14169	2609.45
3313.38269	2591.95
3315.62236	2575.55
3317.86068	2546.05
3320.09766	2526.05
3322.3333	2515.05
3324.5676	2515.05
3326.80056	2470.05
3329.03219	2473.75
3331.26248	2.05
3333.49143	1.65
3335.71905	-1.25
