Data from AgNPs_FTO_APTES_UA_0.1mM_CRN_500uM_NaF_0.1M_Addition_RamanShift__26__15-04-47-787.txt Node

Date: Mon Dec 20 15:04:47 GMT 2021
User: TCL
Spectrometer: QEP01345
Trigger mode: 4
Integration Time (sec): 7.000000E0
Scans to average: 10
Electric dark correction enabled: true
Nonlinearity correction enabled: false
Boxcar width: 0
XAxis mode: Raman Shifts
Number of Pixels in Spectrum: 1044
>>>>>Begin Spectral Data<<<<<
46.04893	1.65
50.45542	0.55
54.85868	-1.85
59.25871	-0.25
63.6555	25.25
68.04907	25.75
72.43941	30.25
76.82654	29.35
81.21044	33.15
85.59113	32.95
89.96862	31.35
94.34289	35.65
98.71396	34.75
103.08183	33.75
107.4465	36.65
111.80798	41.45
116.16626	41.15
120.52136	43.05
124.87327	41.45
129.222	42.25
133.56755	42.45
137.90993	44.25
142.24913	44.55
146.58517	44.25
150.91804	52.55
155.24774	64.55
159.57429	72.25
163.89768	86.05
168.21792	110.95
172.53501	137.15
176.84895	184.25
181.15975	250.75
185.46741	343.35
189.77193	467.95
194.07331	634.15
198.37157	827.75
202.6667	1026.05
206.9587	1223.75
211.24758	1421.35
215.53334	1616.25
219.81599	1805.35
224.09553	1998.15
228.37195	2200.35
232.64527	2412.85
236.91549	2632.05
241.18261	2853.45
245.44663	3059.35
249.70755	3226.25
253.96539	3380.15
258.22014	3478.25
262.4718	3557.75
266.72039	3602.75
270.96589	3579.45
275.20832	3567.25
279.44768	3506.35
283.68397	3463.75
287.91719	3394.95
292.14735	3368.95
296.37445	3323.55
300.59849	3317.55
304.81948	3305.25
309.03742	3271.75
313.25231	3246.65
317.46415	3190.75
321.67296	3128.05
325.87872	3096.65
330.08145	3060.05
334.28114	3042.85
338.47781	3046.35
342.67145	3075.65
346.86207	3094.25
351.04966	3140.15
355.23424	3189.85
359.4158	3236.45
363.59435	3291.55
367.76989	3334.85
371.94243	3365.15
376.11196	3416.05
380.27849	3467.05
384.44203	3509.15
388.60257	3535.55
392.76012	3579.65
396.91468	3608.05
401.06626	3656.45
405.21485	3681.75
409.36047	3685.45
413.50311	3651.55
417.64277	3628.75
421.77947	3611.05
425.9132	3607.05
430.04396	3611.95
434.17176	3614.65
438.2966	3633.85
442.41849	3658.85
446.53742	3718.05
450.6534	3760.05
454.76644	3785.15
458.87653	3821.05
462.98368	3802.55
467.08789	3796.95
471.18916	3807.55
475.2875	3837.75
479.38291	3862.55
483.4754	3939.15
487.56496	4064.25
491.6516	4169.25
495.73531	4218.65
499.81612	4176.15
503.89401	4087.75
507.96899	3992.75
512.04106	3934.75
516.11023	3966.75
520.1765	3985.75
524.23987	4062.65
528.30034	4115.45
532.35792	4123.05
536.41261	4056.75
540.46441	3975.95
544.51333	3869.75
548.55936	3799.95
552.60252	3771.45
556.64279	3776.55
560.6802	3782.45
564.71473	3800.85
568.7464	3830.65
572.7752	3891.55
576.80114	3899.45
580.82422	3934.15
584.84444	3994.95
588.86181	4080.55
592.87633	4142.15
596.888	4136.45
600.89682	4119.25
604.9028	4150.65
608.90594	4336.45
612.90624	4658.45
616.90371	4782.65
620.89834	4733.45
624.89015	4963.85
628.87913	5389.45
632.86528	5822.95
636.84862	6033.25
640.82913	5900.65
644.80683	5508.15
648.78172	5024.35
652.75379	4687.05
656.72306	4454.95
660.68952	4353.55
664.65319	4301.85
668.61405	4279.25
672.57211	4307.35
676.52738	4337.15
680.47986	4349.75
684.42955	4338.95
688.37646	4285.35
692.32058	4257.35
696.26192	4183.15
700.20048	4151.65
704.13626	4101.45
708.06928	4041.65
711.99952	4000.75
715.927	3954.35
719.85171	3965.05
723.77365	4014.95
727.69284	4016.75
731.60928	3942.95
735.52295	3887.45
739.43388	3838.55
743.34206	3816.35
747.24749	3846.65
751.15017	3844.55
755.05012	3863.65
758.94733	3891.25
762.8418	3969.65
766.73354	4077.55
770.62254	4161.65
774.50882	4213.95
778.39237	4147.85
782.27321	4040.75
786.15132	3941.65
790.02671	3921.65
793.89938	3955.55
797.76935	4012.35
801.6366	4128.15
805.50115	4361.35
809.36299	4610.05
813.22213	4720.85
817.07857	4603.65
820.93231	4327.95
824.78336	4055.35
828.63172	3827.15
832.47738	3727.95
836.32036	3669.35
840.16066	3626.35
843.99827	3609.15
847.8332	3609.65
851.66546	3573.35
855.49504	3573.65
859.32195	3588.45
863.1462	3623.65
866.96777	3676.65
870.78668	3762.35
874.60293	3902.45
878.41652	4044.85
882.22745	4223.05
886.03573	4326.55
889.84136	4331.65
893.64433	4198.55
897.44466	3973.35
901.24235	3741.75
905.0374	3594.35
908.8298	3483.55
912.61957	3428.35
916.40671	3389.85
920.19121	3389.25
923.97308	3376.15
927.75233	3359.65
931.52895	3366.65
935.30295	3358.65
939.07433	3338.85
942.84309	3333.25
946.60924	3332.75
950.37278	3325.15
954.13371	3329.55
957.89203	3305.15
961.64774	3299.45
965.40086	3266.75
969.15137	3256.95
972.89929	3232.95
976.64461	3206.95
980.38733	3206.25
984.12747	3194.15
987.86502	3197.95
991.59999	3232.35
995.33237	3260.65
999.06217	3334.75
1002.78939	3411.55
1006.51404	3529.35
1010.23611	3607.55
1013.95561	3683.05
1017.67255	3709.85
1021.38692	3674.35
1025.09872	3596.95
1028.80796	3480.95
1032.51465	3382.05
1036.21877	3326.05
1039.92035	3275.05
1043.61937	3265.25
1047.31584	3255.15
1051.00976	3262.55
1054.70114	3290.85
1058.38998	3317.35
1062.07627	3364.05
1065.76003	3398.65
1069.44126	3450.75
1073.11995	3449.35
1076.79611	3443.35
1080.46974	3408.95
1084.14085	3359.75
1087.80943	3282.35
1091.47549	3250.15
1095.13903	3203.45
1098.80005	3194.25
1102.45857	3177.55
1106.11456	3170.05
1109.76805	3210.25
1113.41903	3263.95
1117.06751	3394.15
1120.71348	3604.25
1124.35696	3885.35
1127.99793	4275.35
1131.63641	4654.05
1135.2724	4910.05
1138.90589	4959.75
1142.5369	4792.35
1146.16542	4473.55
1149.79145	4131.95
1153.415	3798.45
1157.03607	3549.75
1160.65467	3412.65
1164.27079	3336.75
1167.88443	3318.45
1171.49561	3373.35
1175.10432	3488.05
1178.71056	3618.05
1182.31434	3763.95
1185.91565	3869.05
1189.51451	3971.65
1193.11091	4073.95
1196.70485	4238.75
1200.29634	4406.25
1203.88538	4484.75
1207.47197	4429.45
1211.05612	4268.35
1214.63782	4044.45
1218.21708	3818.95
1221.79391	3631.65
1225.36829	3510.95
1228.94024	3394.05
1232.50976	3323.75
1236.07685	3290.85
1239.6415	3286.65
1243.20374	3298.05
1246.76355	3314.85
1250.32093	3339.35
1253.8759	3369.75
1257.42845	3386.15
1260.97859	3402.45
1264.52631	3399.75
1268.07163	3415.85
1271.61453	3412.85
1275.15503	3403.35
1278.69312	3376.05
1282.22882	3366.75
1285.76211	3386.35
1289.29301	3424.45
1292.82151	3491.65
1296.34761	3555.85
1299.87133	3658.65
1303.39266	3783.95
1306.9116	3956.05
1310.42815	4147.15
1313.94233	4296.75
1317.45412	4363.85
1320.96354	4345.55
1324.47058	4307.95
1327.97525	4292.95
1331.47754	4299.45
1334.97747	4330.95
1338.47502	4409.95
1341.97022	4463.25
1345.46305	4549.65
1348.95352	4628.75
1352.44163	4767.55
1355.92738	4902.55
1359.41078	5095.15
1362.89183	5276.15
1366.37053	5238.45
1369.84688	4999.25
1373.32088	4672.25
1376.79254	4440.35
1380.26186	4268.45
1383.72883	4164.55
1387.19347	4096.45
1390.65578	4011.35
1394.11575	3963.55
1397.57339	3919.05
1401.0287	3898.55
1404.48168	3847.05
1407.93234	3803.85
1411.38068	3718.85
1414.82669	3599.35
1418.27039	3459.15
1421.71177	3336.65
1425.15083	3217.05
1428.58758	3153.65
1432.02203	3096.65
1435.45416	3061.25
1438.88399	3042.35
1442.31151	3034.45
1445.73673	3035.75
1449.15965	3031.75
1452.58027	3029.85
1455.9986	3020.15
1459.41463	3013.55
1462.82837	3029.55
1466.23982	3054.95
1469.64898	3085.95
1473.05586	3105.25
1476.46045	3100.65
1479.86276	3120.55
1483.26279	3118.25
1486.66054	3142.95
1490.05602	3181.35
1493.44922	3227.15
1496.84016	3280.55
1500.22882	3366.05
1503.61521	3483.15
1506.99934	3611.05
1510.38121	3741.25
1513.76081	3765.25
1517.13816	3685.65
1520.51324	3530.35
1523.88607	3398.75
1527.25665	3314.15
1530.62498	3307.65
1533.99105	3333.75
1537.35488	3352.95
1540.71647	3392.15
1544.07581	3428.55
1547.4329	3474.35
1550.78776	3502.45
1554.14038	3505.45
1557.49077	3517.95
1560.83892	3518.35
1564.18484	3529.75
1567.52853	3541.55
1570.86999	3560.25
1574.20922	3596.85
1577.54624	3624.55
1580.88103	3635.95
1584.2136	3607.85
1587.54395	3579.15
1590.87208	3613.95
1594.19801	3672.15
1597.52172	3755.65
1600.84321	3829.75
1604.16251	3835.75
1607.47959	3802.15
1610.79447	3728.65
1614.10715	3679.55
1617.41763	3615.95
1620.7259	3578.15
1624.03199	3564.45
1627.33587	3550.75
1630.63757	3579.15
1633.93707	3624.45
1637.23439	3701.65
1640.52951	3827.75
1643.82246	4012.35
1647.11321	4199.85
1650.40179	4322.15
1653.68819	4314.75
1656.97241	4139.85
1660.25446	3947.95
1663.53433	3781.75
1666.81203	3649.25
1670.08756	3569.65
1673.36092	3495.25
1676.63211	3418.45
1679.90115	3365.95
1683.16801	3299.35
1686.43272	3236.55
1689.69527	3193.65
1692.95567	3118.15
1696.2139	3061.95
1699.46999	2978.05
1702.72392	2870.95
1705.97571	2765.25
1709.22535	2664.45
1712.47284	2588.75
1715.71819	2537.35
1718.96139	2488.95
1722.20246	2457.95
1725.44139	2409.55
1728.67818	2381.65
1731.91284	2336.15
1735.14537	2318.95
1738.37576	2299.15
1741.60403	2274.35
1744.83017	2262.05
1748.05418	2268.95
1751.27607	2268.75
1754.49584	2278.85
1757.71349	2276.95
1760.92903	2248.15
1764.14244	2223.35
1767.35375	2199.95
1770.56294	2173.55
1773.77002	2144.45
1776.97499	2123.25
1780.17785	2072.15
1783.37861	2047.25
1786.57727	2029.05
1789.77382	2002.55
1792.96828	1977.85
1796.16064	1966.45
1799.3509	1955.25
1802.53907	1926.55
1805.72514	1927.05
1808.90913	1914.45
1812.09102	1900.85
1815.27083	1895.85
1818.44856	1890.85
1821.6242	1883.15
1824.79776	1887.55
1827.96924	1877.15
1831.13864	1869.55
1834.30597	1861.95
1837.47122	1869.55
1840.6344	1858.05
1843.7955	1852.45
1846.95454	1841.65
1850.11151	1840.65
1853.26642	1830.05
1856.41926	1832.75
1859.57004	1820.55
1862.71876	1826.45
1865.86542	1824.65
1869.01003	1816.65
1872.15258	1812.15
1875.29308	1808.45
1878.43152	1800.35
1881.56792	1803.45
1884.70227	1785.95
1887.83457	1789.85
1890.96482	1782.95
1894.09304	1781.65
1897.21921	1773.75
1900.34335	1769.35
1903.46544	1764.25
1906.58551	1769.95
1909.70353	1760.55
1912.81953	1759.75
1915.93349	1744.55
1919.04543	1749.55
1922.15534	1735.45
1925.26322	1735.05
1928.36908	1733.35
1931.47292	1722.65
1934.57473	1713.55
1937.67453	1720.05
1940.77232	1702.25
1943.86808	1702.65
1946.96184	1701.55
1950.05358	1687.65
1953.14331	1674.05
1956.23103	1672.25
1959.31675	1664.95
1962.40046	1665.25
1965.48217	1659.55
1968.56188	1644.25
1971.63959	1649.15
1974.7153	1634.75
1977.78901	1628.85
1980.86073	1624.15
1983.93046	1613.45
1986.99819	1603.75
1990.06394	1605.15
1993.1277	1597.25
1996.18947	1589.15
1999.24925	1589.25
2002.30706	1575.85
2005.36288	1576.35
2008.41672	1571.55
2011.46859	1566.75
2014.51848	1554.85
2017.56639	1554.85
2020.61233	1549.55
2023.6563	1548.65
2026.6983	1533.85
2029.73833	1538.05
2032.7764	1522.85
2035.8125	1515.35
2038.84664	1510.15
2041.87881	1515.75
2044.90903	1521.45
2047.93729	1505.55
2050.96359	1505.45
2053.98794	1509.25
2057.01034	1500.15
2060.03078	1495.25
2063.04927	1489.45
2066.06582	1485.25
2069.08042	1488.65
2072.09307	1479.65
2075.10378	1485.65
2078.11255	1488.65
2081.11938	1491.05
2084.12426	1469.65
2087.12722	1478.85
2090.12824	1477.05
2093.12732	1474.55
2096.12447	1472.85
2099.11969	1466.25
2102.11299	1468.05
2105.10435	1469.25
2108.09379	1457.85
2111.08131	1454.45
2114.0669	1466.35
2117.05057	1458.95
2120.03233	1463.95
2123.01216	1463.65
2125.99008	1467.25
2128.96609	1466.05
2131.94018	1465.05
2134.91236	1468.15
2137.88263	1456.25
2140.851	1458.05
2143.81746	1463.15
2146.78201	1454.55
2149.74466	1459.75
2152.7054	1450.05
2155.66425	1444.45
2158.6212	1462.45
2161.57625	1451.55
2164.52941	1444.25
2167.48067	1442.15
2170.43004	1441.55
2173.37752	1443.85
2176.32311	1443.35
2179.26681	1441.45
2182.20863	1442.35
2185.14856	1429.65
2188.08661	1439.35
2191.02278	1430.25
2193.95707	1422.65
2196.88948	1418.55
2199.82001	1424.85
2202.74867	1421.25
2205.67545	1410.45
2208.60037	1415.35
2211.52341	1403.25
2214.44458	1400.55
2217.36388	1406.45
2220.28132	1393.45
2223.1969	1382.95
2226.11061	1380.95
2229.02246	1384.85
2231.93245	1381.55
2234.84058	1377.65
2237.74686	1361.65
2240.65128	1367.15
2243.55385	1365.95
2246.45456	1359.15
2249.35343	1366.25
2252.25044	1358.45
2255.14561	1347.95
2258.03893	1359.15
2260.93041	1352.65
2263.82004	1347.35
2266.70783	1342.25
2269.59378	1343.05
2272.4779	1327.45
2275.36017	1326.45
2278.24061	1317.45
2281.11922	1325.15
2283.996	1310.25
2286.87094	1313.05
2289.74405	1310.95
2292.61534	1300.95
2295.4848	1296.45
2298.35243	1301.55
2301.21824	1291.45
2304.08223	1293.25
2306.94439	1292.05
2309.80474	1288.15
2312.66327	1294.95
2315.51999	1280.05
2318.37489	1276.15
2321.22797	1274.65
2324.07925	1278.85
2326.92871	1271.65
2329.77637	1274.55
2332.62222	1276.45
2335.46626	1268.85
2338.3085	1259.75
2341.14893	1259.85
2343.98756	1251.05
2346.8244	1251.15
2349.65943	1246.85
2352.49267	1254.45
2355.32411	1240.15
2358.15376	1252.35
2360.98161	1248.45
2363.80768	1240.35
2366.63195	1234.15
2369.45444	1238.75
2372.27514	1236.15
2375.09405	1247.85
2377.91118	1227.15
2380.72652	1229.95
2383.54009	1226.35
2386.35187	1228.45
2389.16188	1221.25
2391.97011	1218.85
2394.77657	1215.55
2397.58125	1207.85
2400.38416	1209.05
2403.18529	1211.65
2405.98466	1203.35
2408.78226	1201.55
2411.57809	1201.25
2414.37216	1194.95
2417.16446	1186.75
2419.955	1188.25
2422.74378	1183.55
2425.5308	1185.45
2428.31606	1174.65
2431.09956	1168.75
2433.88131	1170.25
2436.6613	1169.25
2439.43954	1169.55
2442.21603	1154.75
2444.99077	1159.15
2447.76377	1158.35
2450.53501	1154.45
2453.30451	1157.05
2456.07226	1152.85
2458.83827	1145.95
2461.60254	1144.95
2464.36507	1148.55
2467.12586	1140.45
2469.88492	1136.55
2472.64224	1134.75
2475.39782	1141.85
2478.15167	1145.85
2480.90379	1138.25
2483.65417	1130.65
2486.40283	1134.75
2489.14976	1131.55
2491.89497	1131.55
2494.63845	1135.75
2497.3802	1133.75
2500.12024	1126.45
2502.85855	1126.05
2505.59514	1113.75
2508.33002	1121.95
2511.06318	1119.05
2513.79462	1121.35
2516.52435	1105.35
2519.25237	1104.85
2521.97867	1102.35
2524.70327	1106.85
2527.42616	1098.95
2530.14734	1100.65
2532.86681	1090.95
2535.58458	1086.35
2538.30065	1085.35
2541.01501	1079.35
2543.72768	1076.25
2546.43864	1082.05
2549.14791	1076.55
2551.85548	1072.25
2554.56136	1067.45
2557.26554	1067.45
2559.96803	1064.75
2562.66883	1057.95
2565.36794	1057.75
2568.06536	1062.95
2570.7611	1062.25
2573.45514	1052.75
2576.14751	1048.75
2578.83819	1039.55
2581.52719	1050.85
2584.21451	1042.65
2586.90015	1041.45
2589.58411	1037.05
2592.2664	1032.05
2594.94701	1030.95
2597.62594	1025.95
2600.30321	1021.05
2602.9788	1025.45
2605.65273	1025.95
2608.32498	1017.75
2610.99557	1017.75
2613.66449	1013.75
2616.33175	1008.45
2618.99734	1007.45
2621.66128	1008.35
2624.32355	1005.75
2626.98416	1008.65
2629.64311	1005.85
2632.30041	1009.75
2634.95605	1006.45
2637.61004	999.85
2640.26238	998.25
2642.91306	993.35
2645.56209	999.45
2648.20948	991.85
2650.85521	994.75
2653.4993	1001.35
2656.14175	989.25
2658.78255	993.95
2661.42171	988.75
2664.05923	988.25
2666.6951	990.25
2669.32934	989.45
2671.96194	983.75
2674.59291	992.95
2677.22224	989.35
2679.84993	985.15
2682.476	983.75
2685.10043	984.65
2687.72324	988.95
2690.34441	982.35
2692.96396	984.45
2695.58188	987.35
2698.19818	980.75
2700.81285	986.45
2703.4259	1004.75
2706.03733	1023.95
2708.64714	1011.55
2711.25533	997.55
2713.86191	997.05
2716.46687	988.45
2719.07021	994.55
2721.67194	988.25
2724.27206	985.35
2726.87057	990.95
2729.46747	992.65
2732.06276	990.05
2734.65644	985.45
2737.24852	981.85
2739.83899	980.55
2742.42786	976.35
2745.01513	972.25
2747.60079	979.45
2750.18486	975.15
2752.76733	964.45
2755.3482	963.45
2757.92747	967.05
2760.50515	966.25
2763.08123	961.25
2765.65573	958.55
2768.22863	964.35
2770.79994	954.05
2773.36967	963.55
2775.9378	955.35
2778.50435	944.95
2781.06932	952.35
2783.6327	951.75
2786.1945	956.25
2788.75471	952.65
2791.31335	945.95
2793.87041	945.75
2796.42589	942.65
2798.97979	941.15
2801.53212	936.15
2804.08288	941.95
2806.63206	943.55
2809.17967	934.05
2811.72571	936.85
2814.27018	935.65
2816.81308	930.35
2819.35442	928.95
2821.89419	935.85
2824.43239	934.35
2826.96904	928.25
2829.50412	925.45
2832.03763	930.55
2834.56959	931.45
2837.1	928.85
2839.62884	927.95
2842.15613	929.85
2844.68186	935.95
2847.20604	930.25
2849.72867	928.95
2852.24974	936.75
2854.76927	944.65
2857.28724	934.95
2859.80367	939.45
2862.31855	932.75
2864.83189	927.55
2867.34368	929.55
2869.85393	936.05
2872.36264	924.25
2874.8698	944.25
2877.37543	939.35
2879.87952	939.75
2882.38207	939.65
2884.88308	943.55
2887.38256	942.75
2889.88051	947.15
2892.37692	949.25
2894.8718	951.95
2897.36515	962.95
2899.85698	961.15
2902.34727	965.65
2904.83604	972.65
2907.32328	970.05
2909.809	976.55
2912.29319	975.45
2914.77587	982.85
2917.25702	985.85
2919.73665	989.45
2922.21476	986.65
2924.69136	992.75
2927.16644	990.85
2929.64	993.95
2932.11205	999.65
2934.58258	993.25
2937.05161	992.45
2939.51912	994.75
2941.98513	991.85
2944.44962	996.55
2946.91261	990.55
2949.37409	995.05
2951.83407	993.05
2954.29254	989.85
2956.74951	994.15
2959.20498	988.95
2961.65895	975.65
2964.11142	979.35
2966.56239	975.25
2969.01186	971.75
2971.45984	957.75
2973.90632	956.55
2976.35131	950.15
2978.7948	945.75
2981.23681	946.85
2983.67732	940.35
2986.11635	943.65
2988.55388	936.45
2990.98993	938.05
2993.4245	940.25
2995.85758	936.55
2998.28917	932.85
3000.71928	937.05
3003.14791	943.25
3005.57506	942.15
3008.00073	940.75
3010.42493	948.45
3012.84764	953.15
3015.26888	938.45
3017.68865	946.15
3020.10694	944.25
3022.52376	947.75
3024.9391	945.15
3027.35298	948.95
3029.76539	946.05
3032.17632	951.25
3034.5858	949.55
3036.9938	948.65
3039.40034	960.65
3041.80542	947.05
3044.20903	960.95
3046.61118	961.35
3049.01187	952.15
3051.4111	959.05
3053.80888	957.25
3056.20519	956.45
3058.60005	964.95
3060.99345	976.35
3063.3854	964.25
3065.7759	965.95
3068.16494	977.25
3070.55254	966.95
3072.93868	973.75
3075.32338	976.75
3077.70662	981.85
3080.08842	978.15
3082.46878	991.95
3084.84769	997.75
3087.22515	998.55
3089.60118	1001.75
3091.97576	1008.25
3094.3489	1008.05
3096.72061	1016.15
3099.09087	1022.95
3101.4597	1027.05
3103.82709	1028.45
3106.19305	1033.65
3108.55757	1049.85
3110.92066	1040.85
3113.28232	1045.85
3115.64255	1045.55
3118.00134	1050.15
3120.35871	1060.65
3122.71466	1067.15
3125.06917	1071.95
3127.42226	1073.95
3129.77393	1084.45
3132.12417	1087.05
3134.47299	1101.85
3136.82039	1106.05
3139.16636	1109.65
3141.51092	1118.15
3143.85406	1128.55
3146.19579	1136.95
3148.53609	1146.45
3150.87499	1150.85
3153.21246	1160.45
3155.54853	1161.15
3157.88318	1170.95
3160.21642	1181.15
3162.54826	1190.55
3164.87868	1195.45
3167.2077	1202.35
3169.5353	1206.95
3171.86151	1209.15
3174.18631	1217.35
3176.5097	1231.45
3178.83169	1231.95
3181.15228	1231.25
3183.47147	1248.15
3185.78926	1251.45
3188.10565	1250.05
3190.42065	1265.95
3192.73424	1272.35
3195.04645	1265.15
3197.35725	1272.75
3199.66667	1279.45
3201.97469	1300.95
3204.28132	1297.25
3206.58656	1300.55
3208.8904	1309.85
3211.19287	1318.85
3213.49394	1316.95
3215.79363	1317.95
3218.09193	1324.05
3220.38884	1337.05
3222.68438	1349.45
3224.97853	1342.85
3227.2713	1343.35
3229.56269	1345.25
3231.8527	1347.35
3234.14133	1333.75
3236.42858	1340.35
3238.71446	1341.65
3240.99896	1340.45
3243.28209	1342.25
3245.56384	1340.55
3247.84423	1352.25
3250.12324	1345.55
3252.40088	1350.35
3254.67715	1349.25
3256.95205	1347.95
3259.22558	1354.05
3261.49775	1345.55
3263.76855	1358.45
3266.03799	1340.75
3268.30606	1342.15
3270.57277	1346.15
3272.83812	1342.95
3275.10211	1345.05
3277.36474	1339.15
3279.62601	1349.25
3281.88593	1344.85
3284.14448	1357.15
3286.40168	1349.75
3288.65753	1337.75
3290.91202	1346.55
3293.16516	1335.85
3295.41695	1336.75
3297.66738	1335.45
3299.91647	1328.45
3302.16421	1314.95
3304.4106	1320.05
3306.65564	1308.95
3308.89933	1305.85
3311.14169	1304.05
3313.38269	1295.55
3315.62236	1286.85
3317.86068	1270.85
3320.09766	1259.15
3322.3333	1255.25
3324.5676	1265.95
3326.80056	1252.05
3329.03219	1239.15
3331.26248	0.75
3333.49143	-0.05
3335.71905	0.15
