Data from AgNPs_FTO_APTES_UA_0.1mM_CRN_20uM_NaF_0.1M_Addition_RamanShift__22__12-22-37-605.txt Node

Date: Mon Dec 20 12:22:37 GMT 2021
User: TCL
Spectrometer: QEP01345
Trigger mode: 4
Integration Time (sec): 7.000000E0
Scans to average: 10
Electric dark correction enabled: true
Nonlinearity correction enabled: false
Boxcar width: 0
XAxis mode: Raman Shifts
Number of Pixels in Spectrum: 1044
>>>>>Begin Spectral Data<<<<<
46.04893	0.75
50.45542	0.15
54.85868	-1.85
59.25871	0.25
63.6555	36.05
68.04907	36.15
72.43941	36.05
76.82654	40.25
81.21044	39.25
85.59113	47.05
89.96862	42.85
94.34289	46.15
98.71396	48.45
103.08183	45.85
107.4465	49.65
111.80798	48.75
116.16626	51.75
120.52136	53.15
124.87327	55.05
129.222	56.05
133.56755	59.85
137.90993	65.45
142.24913	68.35
146.58517	73.95
150.91804	86.95
155.24774	102.75
159.57429	117.75
163.89768	154.45
168.21792	201.75
172.53501	263.15
176.84895	365.75
181.15975	508.25
185.46741	704.95
189.77193	981.95
194.07331	1301.25
198.37157	1685.45
202.6667	2092.55
206.9587	2507.75
211.24758	2914.25
215.53334	3317.75
219.81599	3744.85
224.09553	4165.95
228.37195	4668.15
232.64527	5174.05
236.91549	5741.15
241.18261	6265.25
245.44663	6770.45
249.70755	7232.05
253.96539	7583.25
258.22014	7925.15
262.4718	8167.15
266.72039	8321.15
270.96589	8372.95
275.20832	8350.45
279.44768	8268.05
283.68397	8160.05
287.91719	8047.05
292.14735	7931.25
296.37445	7894.65
300.59849	7891.95
304.81948	7895.55
309.03742	7883.35
313.25231	7815.15
317.46415	7682.45
321.67296	7533.95
325.87872	7385.05
330.08145	7326.05
334.28114	7309.85
338.47781	7345.45
342.67145	7401.45
346.86207	7511.55
351.04966	7645.45
355.23424	7808.55
359.4158	7941.15
363.59435	8036.35
367.76989	8149.45
371.94243	8204.05
376.11196	8288.45
380.27849	8351.85
384.44203	8388.65
388.60257	8469.65
392.76012	8540.65
396.91468	8618.15
401.06626	8714.55
405.21485	8775.95
409.36047	8764.85
413.50311	8686.45
417.64277	8598.95
421.77947	8540.85
425.9132	8520.95
430.04396	8548.65
434.17176	8581.85
438.2966	8618.15
442.41849	8701.95
446.53742	8831.05
450.6534	8948.35
454.76644	9067.65
458.87653	9107.45
462.98368	9115.85
467.08789	9116.75
471.18916	9093.65
475.2875	9099.65
479.38291	9153.65
483.4754	9202.45
487.56496	9300.45
491.6516	9395.75
495.73531	9446.85
499.81612	9430.75
503.89401	9356.45
507.96899	9272.95
512.04106	9197.35
516.11023	9211.35
520.1765	9189.35
524.23987	9233.95
528.30034	9247.45
532.35792	9229.85
536.41261	9170.65
540.46441	9074.95
544.51333	8971.65
548.55936	8939.15
552.60252	8948.85
556.64279	9003.45
560.6802	9035.85
564.71473	9077.25
568.7464	9162.25
572.7752	9232.05
576.80114	9252.95
580.82422	9259.35
584.84444	9356.05
588.86181	9461.15
592.87633	9573.45
596.888	9587.75
600.89682	9584.25
604.9028	9736.85
608.90594	10358.35
612.90624	11207.95
616.90371	11177.25
620.89834	10278.15
624.89015	10073.35
628.87913	10441.35
632.86528	10903.35
636.84862	11233.45
640.82913	11154.35
644.80683	10745.75
648.78172	10218.45
652.75379	9852.85
656.72306	9648.75
660.68952	9625.35
664.65319	9528.55
668.61405	9441.55
672.57211	9460.75
676.52738	9513.15
680.47986	9504.35
684.42955	9519.35
688.37646	9458.15
692.32058	9404.85
696.26192	9323.75
700.20048	9279.15
704.13626	9218.35
708.06928	9121.55
711.99952	9061.85
715.927	8998.75
719.85171	9005.15
723.77365	9053.35
727.69284	9036.55
731.60928	8978.35
735.52295	8906.45
739.43388	8866.05
743.34206	8859.25
747.24749	8867.25
751.15017	8878.15
755.05012	8919.45
758.94733	9012.95
762.8418	9204.25
766.73354	9636.55
770.62254	10058.85
774.50882	10267.35
778.39237	10047.75
782.27321	9603.55
786.15132	9144.45
790.02671	8928.75
793.89938	8848.65
797.76935	8829.75
801.6366	8907.55
805.50115	9073.25
809.36299	9324.85
813.22213	9367.45
817.07857	9274.35
820.93231	9038.05
824.78336	8816.85
828.63172	8614.15
832.47738	8513.25
836.32036	8472.45
840.16066	8437.25
843.99827	8438.65
847.8332	8429.65
851.66546	8378.85
855.49504	8388.35
859.32195	8409.75
863.1462	8428.65
866.96777	8491.95
870.78668	8570.85
874.60293	8699.55
878.41652	8847.25
882.22745	8989.25
886.03573	9047.65
889.84136	9043.45
893.64433	8909.25
897.44466	8721.25
901.24235	8498.75
905.0374	8323.55
908.8298	8218.75
912.61957	8169.05
916.40671	8131.65
920.19121	8133.85
923.97308	8123.75
927.75233	8151.85
931.52895	8126.95
935.30295	8087.35
939.07433	8018.85
942.84309	7972.15
946.60924	7937.45
950.37278	7905.65
954.13371	7899.55
957.89203	7854.75
961.64774	7833.15
965.40086	7808.05
969.15137	7772.05
972.89929	7750.25
976.64461	7712.85
980.38733	7688.85
984.12747	7701.75
987.86502	7709.65
991.59999	7744.15
995.33237	7797.25
999.06217	7886.05
1002.78939	8007.25
1006.51404	8102.05
1010.23611	8241.45
1013.95561	8282.55
1017.67255	8315.75
1021.38692	8266.75
1025.09872	8187.65
1028.80796	8058.45
1032.51465	8016.95
1036.21877	7981.35
1039.92035	7941.95
1043.61937	7912.75
1047.31584	7897.25
1051.00976	7871.85
1054.70114	7920.15
1058.38998	7905.75
1062.07627	7953.25
1065.76003	8032.25
1069.44126	8104.55
1073.11995	8130.65
1076.79611	8158.05
1080.46974	8165.65
1084.14085	8129.15
1087.80943	8089.35
1091.47549	8065.45
1095.13903	8015.25
1098.80005	7932.25
1102.45857	7875.55
1106.11456	7875.35
1109.76805	7868.35
1113.41903	7965.05
1117.06751	8142.25
1120.71348	8453.35
1124.35696	8834.85
1127.99793	9301.75
1131.63641	9741.95
1135.2724	9968.45
1138.90589	9922.05
1142.5369	9712.55
1146.16542	9325.35
1149.79145	8936.05
1153.415	8580.25
1157.03607	8323.05
1160.65467	8212.95
1164.27079	8195.65
1167.88443	8315.05
1171.49561	8509.65
1175.10432	8794.65
1178.71056	9259.75
1182.31434	9677.05
1185.91565	9888.55
1189.51451	9918.65
1193.11091	9868.35
1196.70485	9813.35
1200.29634	9801.45
1203.88538	9745.35
1207.47197	9589.15
1211.05612	9355.15
1214.63782	9108.25
1218.21708	8857.65
1221.79391	8657.25
1225.36829	8497.85
1228.94024	8389.85
1232.50976	8277.65
1236.07685	8203.15
1239.6415	8177.35
1243.20374	8201.95
1246.76355	8242.15
1250.32093	8313.95
1253.8759	8368.95
1257.42845	8465.55
1260.97859	8553.85
1264.52631	8626.75
1268.07163	8731.35
1271.61453	8807.15
1275.15503	8882.05
1278.69312	8949.15
1282.22882	8981.35
1285.76211	9074.45
1289.29301	9219.65
1292.82151	9402.75
1296.34761	9680.85
1299.87133	10022.25
1303.39266	10398.65
1306.9116	10843.55
1310.42815	11331.55
1313.94233	11653.35
1317.45412	11662.55
1320.96354	11481.35
1324.47058	11235.85
1327.97525	11035.65
1331.47754	10886.45
1334.97747	10868.65
1338.47502	10919.05
1341.97022	10993.35
1345.46305	11137.75
1348.95352	11280.05
1352.44163	11499.85
1355.92738	11863.45
1359.41078	12406.65
1362.89183	12937.55
1366.37053	12823.45
1369.84688	11967.55
1373.32088	10983.35
1376.79254	10341.35
1380.26186	9954.55
1383.72883	9800.15
1387.19347	9693.35
1390.65578	9562.05
1394.11575	9453.45
1397.57339	9401.55
1401.0287	9389.55
1404.48168	9369.95
1407.93234	9325.85
1411.38068	9200.85
1414.82669	8990.25
1418.27039	8735.95
1421.71177	8466.85
1425.15083	8230.95
1428.58758	8087.45
1432.02203	8025.95
1435.45416	8040.45
1438.88399	8102.55
1442.31151	8161.65
1445.73673	8220.75
1449.15965	8251.35
1452.58027	8322.75
1455.9986	8346.25
1459.41463	8379.75
1462.82837	8446.95
1466.23982	8549.55
1469.64898	8613.25
1473.05586	8688.45
1476.46045	8703.55
1479.86276	8699.65
1483.26279	8685.85
1486.66054	8705.05
1490.05602	8754.95
1493.44922	8861.05
1496.84016	9020.35
1500.22882	9264.15
1503.61521	9659.55
1506.99934	10091.75
1510.38121	10498.95
1513.76081	10655.35
1517.13816	10369.65
1520.51324	9853.55
1523.88607	9356.65
1527.25665	9073.25
1530.62498	8920.85
1533.99105	8900.75
1537.35488	8899.65
1540.71647	8892.25
1544.07581	8867.25
1547.4329	8860.95
1550.78776	8853.75
1554.14038	8892.25
1557.49077	8919.85
1560.83892	8990.45
1564.18484	9036.45
1567.52853	9084.15
1570.86999	9183.25
1574.20922	9242.65
1577.54624	9269.35
1580.88103	9199.55
1584.2136	9084.75
1587.54395	9043.85
1590.87208	9140.45
1594.19801	9375.45
1597.52172	9616.85
1600.84321	9778.55
1604.16251	9643.85
1607.47959	9403.45
1610.79447	9068.15
1614.10715	8766.75
1617.41763	8535.35
1620.7259	8343.65
1624.03199	8261.95
1627.33587	8280.05
1630.63757	8343.45
1633.93707	8569.95
1637.23439	8884.95
1640.52951	9363.15
1643.82246	9966.45
1647.11321	10569.25
1650.40179	10908.15
1653.68819	10705.25
1656.97241	10047.65
1660.25446	9290.05
1663.53433	8687.75
1666.81203	8281.75
1670.08756	8009.65
1673.36092	7816.25
1676.63211	7697.95
1679.90115	7574.85
1683.16801	7471.95
1686.43272	7340.85
1689.69527	7218.95
1692.95567	7070.05
1696.2139	6943.95
1699.46999	6856.05
1702.72392	6726.15
1705.97571	6615.85
1709.22535	6493.95
1712.47284	6431.55
1715.71819	6361.25
1718.96139	6317.45
1722.20246	6233.25
1725.44139	6189.75
1728.67818	6118.05
1731.91284	6070.65
1735.14537	6008.35
1738.37576	5945.85
1741.60403	5935.05
1744.83017	5891.95
1748.05418	5864.35
1751.27607	5853.55
1754.49584	5857.55
1757.71349	5860.25
1760.92903	5841.35
1764.14244	5827.95
1767.35375	5808.75
1770.56294	5772.85
1773.77002	5737.45
1776.97499	5722.35
1780.17785	5686.95
1783.37861	5642.05
1786.57727	5633.75
1789.77382	5600.15
1792.96828	5590.35
1796.16064	5568.25
1799.3509	5525.05
1802.53907	5512.25
1805.72514	5489.75
1808.90913	5476.85
1812.09102	5460.35
1815.27083	5460.25
1818.44856	5445.55
1821.6242	5442.75
1824.79776	5407.65
1827.96924	5410.15
1831.13864	5409.05
1834.30597	5389.55
1837.47122	5402.75
1840.6344	5373.75
1843.7955	5377.95
1846.95454	5356.35
1850.11151	5370.65
1853.26642	5360.75
1856.41926	5341.05
1859.57004	5342.85
1862.71876	5345.25
1865.86542	5320.95
1869.01003	5312.55
1872.15258	5320.95
1875.29308	5311.55
1878.43152	5277.35
1881.56792	5294.75
1884.70227	5267.75
1887.83457	5269.75
1890.96482	5266.25
1894.09304	5251.55
1897.21921	5238.75
1900.34335	5243.95
1903.46544	5232.35
1906.58551	5224.35
1909.70353	5214.05
1912.81953	5208.45
1915.93349	5205.05
1919.04543	5172.75
1922.15534	5171.45
1925.26322	5161.55
1928.36908	5141.45
1931.47292	5138.75
1934.57473	5119.75
1937.67453	5109.55
1940.77232	5092.85
1943.86808	5075.85
1946.96184	5070.75
1950.05358	5029.35
1953.14331	5036.05
1956.23103	5024.05
1959.31675	5010.95
1962.40046	4992.45
1965.48217	4967.25
1968.56188	4981.65
1971.63959	4954.75
1974.7153	4923.95
1977.78901	4922.85
1980.86073	4917.25
1983.93046	4879.65
1986.99819	4851.35
1990.06394	4847.25
1993.1277	4842.35
1996.18947	4823.55
1999.24925	4802.35
2002.30706	4783.95
2005.36288	4765.65
2008.41672	4764.15
2011.46859	4763.55
2014.51848	4737.95
2017.56639	4702.85
2020.61233	4697.65
2023.6563	4694.25
2026.6983	4689.15
2029.73833	4666.75
2032.7764	4664.75
2035.8125	4649.15
2038.84664	4646.65
2041.87881	4630.45
2044.90903	4617.65
2047.93729	4596.75
2050.96359	4610.15
2053.98794	4611.85
2057.01034	4613.15
2060.03078	4596.25
2063.04927	4562.65
2066.06582	4582.05
2069.08042	4583.15
2072.09307	4569.15
2075.10378	4567.95
2078.11255	4560.45
2081.11938	4558.15
2084.12426	4564.55
2087.12722	4565.85
2090.12824	4572.75
2093.12732	4544.65
2096.12447	4548.45
2099.11969	4546.05
2102.11299	4556.95
2105.10435	4549.55
2108.09379	4559.05
2111.08131	4554.45
2114.0669	4538.15
2117.05057	4556.75
2120.03233	4557.25
2123.01216	4547.65
2125.99008	4561.55
2128.96609	4571.95
2131.94018	4554.55
2134.91236	4572.75
2137.88263	4579.45
2140.851	4568.45
2143.81746	4570.15
2146.78201	4577.85
2149.74466	4577.45
2152.7054	4567.95
2155.66425	4572.45
2158.6212	4580.95
2161.57625	4565.45
2164.52941	4568.05
2167.48067	4556.25
2170.43004	4555.75
2173.37752	4551.55
2176.32311	4563.35
2179.26681	4548.45
2182.20863	4556.55
2185.14856	4538.85
2188.08661	4540.15
2191.02278	4537.55
2193.95707	4532.35
2196.88948	4520.25
2199.82001	4517.75
2202.74867	4517.75
2205.67545	4497.15
2208.60037	4500.55
2211.52341	4505.85
2214.44458	4486.55
2217.36388	4471.75
2220.28132	4479.45
2223.1969	4437.85
2226.11061	4453.25
2229.02246	4426.75
2231.93245	4423.95
2234.84058	4417.25
2237.74686	4398.35
2240.65128	4403.45
2243.55385	4389.95
2246.45456	4391.75
2249.35343	4372.35
2252.25044	4368.55
2255.14561	4375.35
2258.03893	4353.25
2260.93041	4368.95
2263.82004	4357.65
2266.70783	4345.25
2269.59378	4325.05
2272.4779	4304.25
2275.36017	4310.85
2278.24061	4295.55
2281.11922	4277.15
2283.996	4277.15
2286.87094	4287.35
2289.74405	4261.05
2292.61534	4250.65
2295.4848	4258.55
2298.35243	4235.15
2301.21824	4236.65
2304.08223	4229.65
2306.94439	4241.85
2309.80474	4232.65
2312.66327	4213.45
2315.51999	4220.65
2318.37489	4229.95
2321.22797	4198.15
2324.07925	4210.25
2326.92871	4183.35
2329.77637	4177.05
2332.62222	4175.35
2335.46626	4165.65
2338.3085	4166.55
2341.14893	4178.05
2343.98756	4156.75
2346.8244	4164.65
2349.65943	4152.65
2352.49267	4148.55
2355.32411	4151.95
2358.15376	4158.15
2360.98161	4131.35
2363.80768	4130.15
2366.63195	4139.85
2369.45444	4125.45
2372.27514	4130.65
2375.09405	4125.35
2377.91118	4108.25
2380.72652	4100.95
2383.54009	4088.05
2386.35187	4094.35
2389.16188	4086.55
2391.97011	4085.95
2394.77657	4068.35
2397.58125	4053.35
2400.38416	4054.75
2403.18529	4033.25
2405.98466	4034.35
2408.78226	4020.05
2411.57809	4016.45
2414.37216	4003.35
2417.16446	4014.35
2419.955	3995.05
2422.74378	3994.85
2425.5308	3981.95
2428.31606	3979.45
2431.09956	3977.65
2433.88131	3973.55
2436.6613	3982.15
2439.43954	3960.95
2442.21603	3948.95
2444.99077	3942.45
2447.76377	3959.25
2450.53501	3946.25
2453.30451	3936.55
2456.07226	3939.85
2458.83827	3946.85
2461.60254	3931.55
2464.36507	3910.05
2467.12586	3915.85
2469.88492	3928.75
2472.64224	3927.65
2475.39782	3908.45
2478.15167	3899.65
2480.90379	3912.25
2483.65417	3904.35
2486.40283	3898.65
2489.14976	3905.25
2491.89497	3898.65
2494.63845	3901.45
2497.3802	3896.55
2500.12024	3879.15
2502.85855	3887.85
2505.59514	3868.45
2508.33002	3861.55
2511.06318	3868.45
2513.79462	3862.65
2516.52435	3854.45
2519.25237	3847.25
2521.97867	3863.55
2524.70327	3841.15
2527.42616	3823.45
2530.14734	3825.25
2532.86681	3811.05
2535.58458	3806.35
2538.30065	3816.05
2541.01501	3809.25
2543.72768	3806.65
2546.43864	3795.75
2549.14791	3789.35
2551.85548	3778.75
2554.56136	3778.05
2557.26554	3758.85
2559.96803	3755.55
2562.66883	3743.75
2565.36794	3752.85
2568.06536	3739.85
2570.7611	3732.75
2573.45514	3731.95
2576.14751	3714.15
2578.83819	3712.25
2581.52719	3715.25
2584.21451	3702.85
2586.90015	3706.85
2589.58411	3700.75
2592.2664	3680.55
2594.94701	3669.45
2597.62594	3685.15
2600.30321	3672.75
2602.9788	3665.45
2605.65273	3664.85
2608.32498	3642.55
2610.99557	3651.75
2613.66449	3648.05
2616.33175	3647.65
2618.99734	3642.75
2621.66128	3637.35
2624.32355	3640.65
2626.98416	3643.35
2629.64311	3630.55
2632.30041	3614.15
2634.95605	3611.35
2637.61004	3621.05
2640.26238	3614.55
2642.91306	3608.25
2645.56209	3592.75
2648.20948	3608.05
2650.85521	3594.65
2653.4993	3594.85
2656.14175	3591.85
2658.78255	3586.05
2661.42171	3581.65
2664.05923	3576.05
2666.6951	3582.85
2669.32934	3591.05
2671.96194	3577.55
2674.59291	3574.35
2677.22224	3587.25
2679.84993	3586.95
2682.476	3571.05
2685.10043	3574.65
2687.72324	3583.55
2690.34441	3590.65
2692.96396	3584.85
2695.58188	3584.55
2698.19818	3583.05
2700.81285	3596.65
2703.4259	3594.15
2706.03733	3609.45
2708.64714	3603.75
2711.25533	3598.45
2713.86191	3585.65
2716.46687	3604.65
2719.07021	3581.75
2721.67194	3595.85
2724.27206	3599.65
2726.87057	3602.25
2729.46747	3591.05
2732.06276	3590.55
2734.65644	3587.35
2737.24852	3579.55
2739.83899	3571.65
2742.42786	3574.65
2745.01513	3570.05
2747.60079	3568.55
2750.18486	3569.05
2752.76733	3545.75
2755.3482	3560.95
2757.92747	3559.65
2760.50515	3542.85
2763.08123	3542.55
2765.65573	3531.55
2768.22863	3560.85
2770.79994	3512.05
2773.36967	3532.15
2775.9378	3523.15
2778.50435	3519.85
2781.06932	3504.65
2783.6327	3519.15
2786.1945	3518.45
2788.75471	3504.05
2791.31335	3491.35
2793.87041	3481.95
2796.42589	3484.35
2798.97979	3467.05
2801.53212	3471.45
2804.08288	3452.75
2806.63206	3449.75
2809.17967	3441.45
2811.72571	3433.95
2814.27018	3444.05
2816.81308	3436.05
2819.35442	3425.35
2821.89419	3423.75
2824.43239	3421.75
2826.96904	3420.35
2829.50412	3401.15
2832.03763	3426.95
2834.56959	3417.55
2837.1	3397.25
2839.62884	3407.15
2842.15613	3402.25
2844.68186	3389.75
2847.20604	3409.65
2849.72867	3397.65
2852.24974	3415.15
2854.76927	3418.45
2857.28724	3417.15
2859.80367	3414.55
2862.31855	3400.95
2864.83189	3392.35
2867.34368	3380.35
2869.85393	3392.75
2872.36264	3379.35
2874.8698	3399.25
2877.37543	3395.95
2879.87952	3390.85
2882.38207	3395.95
2884.88308	3401.25
2887.38256	3396.15
2889.88051	3403.45
2892.37692	3410.65
2894.8718	3387.75
2897.36515	3406.85
2899.85698	3399.85
2902.34727	3412.85
2904.83604	3416.25
2907.32328	3415.95
2909.809	3421.35
2912.29319	3412.85
2914.77587	3428.05
2917.25702	3419.65
2919.73665	3419.05
2922.21476	3427.85
2924.69136	3424.45
2927.16644	3427.45
2929.64	3421.45
2932.11205	3424.25
2934.58258	3400.15
2937.05161	3422.05
2939.51912	3402.55
2941.98513	3409.35
2944.44962	3417.65
2946.91261	3394.75
2949.37409	3409.25
2951.83407	3399.25
2954.29254	3398.55
2956.74951	3396.15
2959.20498	3393.75
2961.65895	3378.95
2964.11142	3376.75
2966.56239	3369.75
2969.01186	3369.45
2971.45984	3360.65
2973.90632	3346.75
2976.35131	3343.15
2978.7948	3347.85
2981.23681	3324.85
2983.67732	3327.05
2986.11635	3325.25
2988.55388	3327.85
2990.98993	3302.25
2993.4245	3307.15
2995.85758	3302.55
2998.28917	3294.65
3000.71928	3292.45
3003.14791	3304.25
3005.57506	3298.35
3008.00073	3286.65
3010.42493	3281.55
3012.84764	3276.45
3015.26888	3278.25
3017.68865	3265.45
3020.10694	3266.65
3022.52376	3277.65
3024.9391	3277.25
3027.35298	3267.45
3029.76539	3266.65
3032.17632	3267.05
3034.5858	3241.05
3036.9938	3259.25
3039.40034	3263.75
3041.80542	3247.25
3044.20903	3243.65
3046.61118	3260.95
3049.01187	3246.35
3051.4111	3240.75
3053.80888	3252.85
3056.20519	3235.85
3058.60005	3223.85
3060.99345	3247.25
3063.3854	3235.85
3065.7759	3227.35
3068.16494	3222.15
3070.55254	3210.25
3072.93868	3212.75
3075.32338	3227.05
3077.70662	3214.55
3080.08842	3213.45
3082.46878	3213.05
3084.84769	3224.95
3087.22515	3216.95
3089.60118	3223.25
3091.97576	3237.15
3094.3489	3221.45
3096.72061	3238.65
3099.09087	3232.25
3101.4597	3244.25
3103.82709	3255.85
3106.19305	3239.95
3108.55757	3243.65
3110.92066	3226.85
3113.28232	3247.45
3115.64255	3235.55
3118.00134	3234.65
3120.35871	3234.75
3122.71466	3252.85
3125.06917	3241.65
3127.42226	3237.95
3129.77393	3227.35
3132.12417	3243.85
3134.47299	3253.25
3136.82039	3241.15
3139.16636	3262.25
3141.51092	3269.75
3143.85406	3277.45
3146.19579	3277.85
3148.53609	3306.45
3150.87499	3299.85
3153.21246	3307.05
3155.54853	3319.05
3157.88318	3294.85
3160.21642	3319.15
3162.54826	3323.65
3164.87868	3328.95
3167.2077	3322.15
3169.5353	3333.75
3171.86151	3329.55
3174.18631	3346.25
3176.5097	3346.05
3178.83169	3341.15
3181.15228	3341.45
3183.47147	3334.45
3185.78926	3362.65
3188.10565	3367.05
3190.42065	3353.85
3192.73424	3361.15
3195.04645	3363.25
3197.35725	3372.45
3199.66667	3373.65
3201.97469	3383.45
3204.28132	3393.95
3206.58656	3390.45
3208.8904	3402.45
3211.19287	3404.35
3213.49394	3408.35
3215.79363	3400.55
3218.09193	3424.65
3220.38884	3421.55
3222.68438	3443.65
3224.97853	3426.75
3227.2713	3422.05
3229.56269	3414.85
3231.8527	3411.55
3234.14133	3419.25
3236.42858	3410.05
3238.71446	3406.35
3240.99896	3400.45
3243.28209	3409.55
3245.56384	3395.45
3247.84423	3401.65
3250.12324	3392.15
3252.40088	3399.35
3254.67715	3393.65
3256.95205	3399.15
3259.22558	3382.15
3261.49775	3388.75
3263.76855	3371.45
3266.03799	3389.55
3268.30606	3381.55
3270.57277	3375.75
3272.83812	3354.85
3275.10211	3352.35
3277.36474	3351.85
3279.62601	3347.95
3281.88593	3360.95
3284.14448	3370.15
3286.40168	3364.85
3288.65753	3351.25
3290.91202	3347.75
3293.16516	3335.45
3295.41695	3339.45
3297.66738	3305.95
3299.91647	3296.95
3302.16421	3280.95
3304.4106	3270.45
3306.65564	3255.85
3308.89933	3245.65
3311.14169	3223.45
3313.38269	3198.45
3315.62236	3183.85
3317.86068	3153.35
3320.09766	3127.55
3322.3333	3117.55
3324.5676	3107.35
3326.80056	3068.35
3329.03219	3047.25
3331.26248	0.65
3333.49143	0.45
3335.71905	-0.35
