Data from AgNPs_FTO_APTES_UA_0.1mM_CRN_0uM_NaF_0.1M_Addition_RamanShift__38__10-46-57-496.txt Node

Date: Mon Dec 20 10:46:57 GMT 2021
User: TCL
Spectrometer: QEP01345
Trigger mode: 4
Integration Time (sec): 7.000000E0
Scans to average: 10
Electric dark correction enabled: true
Nonlinearity correction enabled: false
Boxcar width: 0
XAxis mode: Raman Shifts
Number of Pixels in Spectrum: 1044
>>>>>Begin Spectral Data<<<<<
46.04893	1.65
50.45542	-0.95
54.85868	-1.65
59.25871	1.75
63.6555	24.05
68.04907	24.15
72.43941	32.25
76.82654	30.25
81.21044	31.65
85.59113	36.05
89.96862	31.95
94.34289	35.55
98.71396	34.65
103.08183	34.35
107.4465	36.65
111.80798	38.35
116.16626	37.75
120.52136	39.45
124.87327	42.45
129.222	38.65
133.56755	42.75
137.90993	45.25
142.24913	46.25
146.58517	49.05
150.91804	53.95
155.24774	64.45
159.57429	75.15
163.89768	93.55
168.21792	120.15
172.53501	155.15
176.84895	208.15
181.15975	285.15
185.46741	385.65
189.77193	534.25
194.07331	711.55
198.37157	915.25
202.6667	1120.65
206.9587	1334.15
211.24758	1544.65
215.53334	1774.45
219.81599	2001.35
224.09553	2251.55
228.37195	2542.05
232.64527	2863.45
236.91549	3189.25
241.18261	3510.85
245.44663	3807.45
249.70755	4024.45
253.96539	4219.85
258.22014	4334.55
262.4718	4400.35
266.72039	4453.05
270.96589	4415.35
275.20832	4361.25
279.44768	4270.45
283.68397	4182.55
287.91719	4113.45
292.14735	4050.85
296.37445	4023.75
300.59849	4014.05
304.81948	4020.15
309.03742	4024.15
313.25231	4001.05
317.46415	3953.95
321.67296	3891.75
325.87872	3812.85
330.08145	3771.95
334.28114	3741.85
338.47781	3727.05
342.67145	3753.35
346.86207	3772.65
351.04966	3812.15
355.23424	3844.95
359.4158	3893.25
363.59435	3927.15
367.76989	3954.85
371.94243	3974.65
376.11196	4001.15
380.27849	4029.05
384.44203	4080.05
388.60257	4119.85
392.76012	4161.15
396.91468	4219.85
401.06626	4282.85
405.21485	4304.85
409.36047	4315.95
413.50311	4356.05
417.64277	4425.45
421.77947	4490.65
425.9132	4390.65
430.04396	4352.95
434.17176	4355.15
438.2966	4375.85
442.41849	4382.35
446.53742	4453.95
450.6534	4533.75
454.76644	4578.75
458.87653	4602.85
462.98368	4574.75
467.08789	4535.75
471.18916	4532.75
475.2875	4507.45
479.38291	4522.85
483.4754	4578.05
487.56496	4652.15
491.6516	4747.55
495.73531	4817.45
499.81612	4885.65
503.89401	4898.45
507.96899	4867.75
512.04106	4789.15
516.11023	4717.75
520.1765	4654.85
524.23987	4608.55
528.30034	4589.65
532.35792	4560.65
536.41261	4520.15
540.46441	4465.05
544.51333	4408.35
548.55936	4384.05
552.60252	4416.35
556.64279	4462.35
560.6802	4491.55
564.71473	4490.95
568.7464	4528.05
572.7752	4602.85
576.80114	4680.85
580.82422	4833.25
584.84444	5026.55
588.86181	5323.35
592.87633	5553.45
596.888	5535.15
600.89682	5293.35
604.9028	5090.85
608.90594	5211.25
612.90624	5439.15
616.90371	5363.25
620.89834	4985.65
624.89015	4940.75
628.87913	5175.95
632.86528	5540.35
636.84862	5796.15
640.82913	5841.35
644.80683	5711.15
648.78172	5465.65
652.75379	5216.65
656.72306	5029.45
660.68952	4889.35
664.65319	4730.95
668.61405	4615.25
672.57211	4541.35
676.52738	4561.15
680.47986	4558.45
684.42955	4540.95
688.37646	4504.15
692.32058	4480.15
696.26192	4433.55
700.20048	4426.55
704.13626	4405.15
708.06928	4419.75
711.99952	4408.85
715.927	4426.75
719.85171	4440.65
723.77365	4483.45
727.69284	4465.75
731.60928	4436.55
735.52295	4381.15
739.43388	4348.85
743.34206	4381.65
747.24749	4395.15
751.15017	4438.75
755.05012	4474.25
758.94733	4530.55
762.8418	4669.65
766.73354	4863.05
770.62254	5040.45
774.50882	5078.15
778.39237	4894.55
782.27321	4667.85
786.15132	4476.45
790.02671	4361.65
793.89938	4322.75
797.76935	4350.05
801.6366	4409.75
805.50115	4521.95
809.36299	4654.05
813.22213	4722.15
817.07857	4690.95
820.93231	4554.95
824.78336	4378.95
828.63172	4246.25
832.47738	4153.05
836.32036	4126.95
840.16066	4111.85
843.99827	4106.55
847.8332	4115.05
851.66546	4099.15
855.49504	4111.35
859.32195	4128.45
863.1462	4124.85
866.96777	4144.55
870.78668	4192.35
874.60293	4250.05
878.41652	4351.85
882.22745	4437.65
886.03573	4521.55
889.84136	4557.05
893.64433	4521.35
897.44466	4428.25
901.24235	4324.15
905.0374	4217.95
908.8298	4139.25
912.61957	4106.55
916.40671	4081.65
920.19121	4109.75
923.97308	4134.25
927.75233	4112.45
931.52895	4096.15
935.30295	4030.25
939.07433	3969.25
942.84309	3933.45
946.60924	3900.25
950.37278	3886.05
954.13371	3883.65
957.89203	3894.85
961.64774	3884.05
965.40086	3878.45
969.15137	3876.65
972.89929	3842.05
976.64461	3834.95
980.38733	3832.45
984.12747	3825.95
987.86502	3841.85
991.59999	3852.45
995.33237	3880.65
999.06217	3953.85
1002.78939	4010.85
1006.51404	4071.45
1010.23611	4160.85
1013.95561	4213.65
1017.67255	4240.85
1021.38692	4224.45
1025.09872	4198.65
1028.80796	4130.45
1032.51465	4075.25
1036.21877	4049.45
1039.92035	4017.25
1043.61937	4007.35
1047.31584	4002.65
1051.00976	3994.55
1054.70114	4023.65
1058.38998	4030.55
1062.07627	4071.35
1065.76003	4127.75
1069.44126	4161.15
1073.11995	4244.85
1076.79611	4316.15
1080.46974	4335.35
1084.14085	4332.25
1087.80943	4329.45
1091.47549	4323.65
1095.13903	4313.55
1098.80005	4253.55
1102.45857	4182.95
1106.11456	4132.95
1109.76805	4142.75
1113.41903	4236.45
1117.06751	4388.35
1120.71348	4635.05
1124.35696	4948.65
1127.99793	5302.35
1131.63641	5600.65
1135.2724	5757.55
1138.90589	5768.05
1142.5369	5633.25
1146.16542	5420.45
1149.79145	5164.45
1153.415	4917.65
1157.03607	4717.55
1160.65467	4619.35
1164.27079	4629.65
1167.88443	4680.15
1171.49561	4799.15
1175.10432	4983.15
1178.71056	5222.05
1182.31434	5461.05
1185.91565	5578.15
1189.51451	5538.05
1193.11091	5497.85
1196.70485	5496.45
1200.29634	5501.35
1203.88538	5528.55
1207.47197	5543.25
1211.05612	5503.15
1214.63782	5372.85
1218.21708	5242.85
1221.79391	5081.35
1225.36829	4951.95
1228.94024	4876.35
1232.50976	4784.85
1236.07685	4707.35
1239.6415	4659.95
1243.20374	4648.35
1246.76355	4664.35
1250.32093	4730.85
1253.8759	4794.45
1257.42845	4887.55
1260.97859	4976.45
1264.52631	5068.85
1268.07163	5110.15
1271.61453	5177.75
1275.15503	5234.55
1278.69312	5305.35
1282.22882	5417.45
1285.76211	5589.25
1289.29301	5755.25
1292.82151	5975.95
1296.34761	6230.65
1299.87133	6530.85
1303.39266	6813.45
1306.9116	7073.25
1310.42815	7263.05
1313.94233	7370.95
1317.45412	7331.95
1320.96354	7188.65
1324.47058	7034.65
1327.97525	6934.25
1331.47754	6832.15
1334.97747	6751.65
1338.47502	6692.75
1341.97022	6605.75
1345.46305	6599.85
1348.95352	6667.95
1352.44163	6863.85
1355.92738	7159.95
1359.41078	7573.55
1362.89183	7924.05
1366.37053	7948.45
1369.84688	7552.75
1373.32088	6917.35
1376.79254	6421.95
1380.26186	6247.95
1383.72883	6151.75
1387.19347	6091.25
1390.65578	5961.05
1394.11575	5873.35
1397.57339	5880.45
1401.0287	5869.85
1404.48168	5854.85
1407.93234	5771.55
1411.38068	5582.85
1414.82669	5381.35
1418.27039	5172.85
1421.71177	4997.85
1425.15083	4839.75
1428.58758	4753.25
1432.02203	4771.25
1435.45416	4834.05
1438.88399	4923.05
1442.31151	4973.75
1445.73673	5021.95
1449.15965	5026.25
1452.58027	5036.55
1455.9986	5022.85
1459.41463	5035.55
1462.82837	5063.05
1466.23982	5165.35
1469.64898	5260.45
1473.05586	5343.55
1476.46045	5348.25
1479.86276	5363.25
1483.26279	5348.45
1486.66054	5385.55
1490.05602	5391.25
1493.44922	5480.65
1496.84016	5566.35
1500.22882	5676.95
1503.61521	5828.45
1506.99934	6006.25
1510.38121	6151.55
1513.76081	6160.15
1517.13816	6039.65
1520.51324	5892.95
1523.88607	5798.35
1527.25665	5758.75
1530.62498	5791.65
1533.99105	5791.95
1537.35488	5751.05
1540.71647	5697.25
1544.07581	5632.05
1547.4329	5545.95
1550.78776	5465.65
1554.14038	5412.55
1557.49077	5371.15
1560.83892	5377.65
1564.18484	5382.25
1567.52853	5390.95
1570.86999	5449.85
1574.20922	5503.35
1577.54624	5539.35
1580.88103	5543.15
1584.2136	5522.05
1587.54395	5582.95
1590.87208	5770.85
1594.19801	5946.85
1597.52172	6171.95
1600.84321	6267.25
1604.16251	6111.35
1607.47959	5790.25
1610.79447	5447.45
1614.10715	5157.65
1617.41763	4972.45
1620.7259	4848.45
1624.03199	4809.65
1627.33587	4840.95
1630.63757	4933.35
1633.93707	5101.95
1637.23439	5410.35
1640.52951	5905.85
1643.82246	6502.25
1647.11321	7035.35
1650.40179	7227.85
1653.68819	6884.35
1656.97241	6264.35
1660.25446	5663.35
1663.53433	5235.65
1666.81203	4948.15
1670.08756	4774.45
1673.36092	4667.05
1676.63211	4608.45
1679.90115	4567.35
1683.16801	4516.35
1686.43272	4434.25
1689.69527	4366.55
1692.95567	4269.65
1696.2139	4182.95
1699.46999	4104.65
1702.72392	4019.65
1705.97571	3950.35
1709.22535	3815.95
1712.47284	3723.55
1715.71819	3628.95
1718.96139	3542.65
1722.20246	3483.95
1725.44139	3430.45
1728.67818	3370.75
1731.91284	3322.15
1735.14537	3268.75
1738.37576	3248.85
1741.60403	3238.15
1744.83017	3206.65
1748.05418	3180.05
1751.27607	3161.15
1754.49584	3154.15
1757.71349	3149.65
1760.92903	3133.85
1764.14244	3132.05
1767.35375	3122.25
1770.56294	3121.95
1773.77002	3096.85
1776.97499	3102.35
1780.17785	3099.45
1783.37861	3090.25
1786.57727	3082.95
1789.77382	3064.45
1792.96828	3049.35
1796.16064	3041.15
1799.3509	3031.25
1802.53907	3017.25
1805.72514	3017.45
1808.90913	2991.65
1812.09102	2995.95
1815.27083	2991.45
1818.44856	2969.25
1821.6242	2967.15
1824.79776	2957.05
1827.96924	2964.95
1831.13864	2954.35
1834.30597	2963.85
1837.47122	2957.45
1840.6344	2920.55
1843.7955	2934.25
1846.95454	2938.35
1850.11151	2935.55
1853.26642	2943.95
1856.41926	2929.25
1859.57004	2929.65
1862.71876	2928.15
1865.86542	2907.75
1869.01003	2909.05
1872.15258	2897.45
1875.29308	2917.35
1878.43152	2899.15
1881.56792	2888.45
1884.70227	2895.55
1887.83457	2891.35
1890.96482	2874.15
1894.09304	2876.45
1897.21921	2865.55
1900.34335	2875.95
1903.46544	2863.65
1906.58551	2879.55
1909.70353	2859.15
1912.81953	2862.85
1915.93349	2850.45
1919.04543	2851.45
1922.15534	2840.95
1925.26322	2819.35
1928.36908	2813.05
1931.47292	2828.15
1934.57473	2811.35
1937.67453	2795.65
1940.77232	2789.55
1943.86808	2779.75
1946.96184	2781.45
1950.05358	2764.15
1953.14331	2774.75
1956.23103	2738.95
1959.31675	2761.25
1962.40046	2733.15
1965.48217	2743.55
1968.56188	2725.45
1971.63959	2720.45
1974.7153	2714.25
1977.78901	2701.55
1980.86073	2686.85
1983.93046	2679.25
1986.99819	2676.55
1990.06394	2659.75
1993.1277	2653.25
1996.18947	2648.15
1999.24925	2652.55
2002.30706	2634.35
2005.36288	2629.65
2008.41672	2614.05
2011.46859	2613.15
2014.51848	2609.45
2017.56639	2601.25
2020.61233	2594.95
2023.6563	2582.25
2026.6983	2571.55
2029.73833	2566.25
2032.7764	2555.35
2035.8125	2545.35
2038.84664	2550.05
2041.87881	2537.15
2044.90903	2548.75
2047.93729	2528.25
2050.96359	2532.65
2053.98794	2528.05
2057.01034	2529.95
2060.03078	2523.95
2063.04927	2530.75
2066.06582	2526.85
2069.08042	2527.45
2072.09307	2525.85
2075.10378	2515.35
2078.11255	2521.95
2081.11938	2514.25
2084.12426	2518.45
2087.12722	2515.45
2090.12824	2520.85
2093.12732	2522.25
2096.12447	2509.75
2099.11969	2505.05
2102.11299	2513.45
2105.10435	2523.15
2108.09379	2510.35
2111.08131	2509.95
2114.0669	2523.55
2117.05057	2503.15
2120.03233	2512.35
2123.01216	2522.75
2125.99008	2523.55
2128.96609	2524.95
2131.94018	2527.25
2134.91236	2517.45
2137.88263	2516.05
2140.851	2520.55
2143.81746	2511.65
2146.78201	2524.55
2149.74466	2519.45
2152.7054	2515.35
2155.66425	2512.85
2158.6212	2504.95
2161.57625	2505.25
2164.52941	2512.25
2167.48067	2516.95
2170.43004	2508.35
2173.37752	2499.55
2176.32311	2507.65
2179.26681	2497.25
2182.20863	2504.05
2185.14856	2496.35
2188.08661	2495.85
2191.02278	2489.75
2193.95707	2501.25
2196.88948	2494.25
2199.82001	2499.95
2202.74867	2467.15
2205.67545	2480.85
2208.60037	2472.45
2211.52341	2467.45
2214.44458	2457.75
2217.36388	2453.95
2220.28132	2447.65
2223.1969	2450.25
2226.11061	2444.85
2229.02246	2431.85
2231.93245	2433.95
2234.84058	2436.95
2237.74686	2427.65
2240.65128	2425.25
2243.55385	2413.85
2246.45456	2413.65
2249.35343	2403.75
2252.25044	2398.75
2255.14561	2392.95
2258.03893	2389.45
2260.93041	2391.55
2263.82004	2381.45
2266.70783	2371.25
2269.59378	2362.35
2272.4779	2366.35
2275.36017	2363.95
2278.24061	2349.15
2281.11922	2343.65
2283.996	2355.65
2286.87094	2351.45
2289.74405	2332.05
2292.61534	2346.05
2295.4848	2320.35
2298.35243	2331.65
2301.21824	2316.75
2304.08223	2317.25
2306.94439	2315.05
2309.80474	2306.55
2312.66327	2306.45
2315.51999	2318.45
2318.37489	2307.15
2321.22797	2305.95
2324.07925	2298.85
2326.92871	2300.65
2329.77637	2297.05
2332.62222	2290.95
2335.46626	2273.95
2338.3085	2276.15
2341.14893	2286.65
2343.98756	2275.85
2346.8244	2262.85
2349.65943	2255.05
2352.49267	2272.45
2355.32411	2258.55
2358.15376	2264.25
2360.98161	2246.65
2363.80768	2250.95
2366.63195	2261.05
2369.45444	2256.25
2372.27514	2251.55
2375.09405	2251.35
2377.91118	2254.65
2380.72652	2239.45
2383.54009	2231.25
2386.35187	2227.95
2389.16188	2231.85
2391.97011	2220.15
2394.77657	2219.75
2397.58125	2210.05
2400.38416	2210.55
2403.18529	2205.25
2405.98466	2215.35
2408.78226	2201.55
2411.57809	2194.25
2414.37216	2187.85
2417.16446	2193.25
2419.955	2186.25
2422.74378	2186.55
2425.5308	2184.95
2428.31606	2185.65
2431.09956	2172.95
2433.88131	2170.55
2436.6613	2160.85
2439.43954	2164.25
2442.21603	2154.25
2444.99077	2162.85
2447.76377	2168.05
2450.53501	2176.75
2453.30451	2163.65
2456.07226	2152.85
2458.83827	2144.95
2461.60254	2137.25
2464.36507	2147.15
2467.12586	2143.35
2469.88492	2143.05
2472.64224	2146.55
2475.39782	2142.95
2478.15167	2143.55
2480.90379	2129.95
2483.65417	2145.05
2486.40283	2135.95
2489.14976	2135.05
2491.89497	2133.55
2494.63845	2135.15
2497.3802	2130.95
2500.12024	2114.55
2502.85855	2128.55
2505.59514	2120.95
2508.33002	2118.55
2511.06318	2123.75
2513.79462	2110.55
2516.52435	2107.25
2519.25237	2103.75
2521.97867	2102.35
2524.70327	2099.65
2527.42616	2090.35
2530.14734	2093.25
2532.86681	2089.55
2535.58458	2085.65
2538.30065	2082.55
2541.01501	2080.75
2543.72768	2071.15
2546.43864	2084.95
2549.14791	2059.05
2551.85548	2062.25
2554.56136	2048.65
2557.26554	2057.05
2559.96803	2061.35
2562.66883	2058.15
2565.36794	2058.35
2568.06536	2046.95
2570.7611	2047.45
2573.45514	2040.05
2576.14751	2043.45
2578.83819	2036.55
2581.52719	2038.95
2584.21451	2023.95
2586.90015	2028.75
2589.58411	2018.45
2592.2664	2013.85
2594.94701	2008.75
2597.62594	2020.05
2600.30321	2003.05
2602.9788	1999.05
2605.65273	2000.35
2608.32498	2005.45
2610.99557	2004.55
2613.66449	2004.35
2616.33175	1994.45
2618.99734	2000.15
2621.66128	1992.85
2624.32355	1984.55
2626.98416	1994.05
2629.64311	1984.75
2632.30041	1983.05
2634.95605	1978.85
2637.61004	1967.05
2640.26238	1976.75
2642.91306	1974.15
2645.56209	1973.95
2648.20948	1971.95
2650.85521	1965.95
2653.4993	1971.35
2656.14175	1965.65
2658.78255	1968.25
2661.42171	1961.05
2664.05923	1960.05
2666.6951	1969.55
2669.32934	1954.25
2671.96194	1964.25
2674.59291	1967.65
2677.22224	1964.25
2679.84993	1972.35
2682.476	1951.75
2685.10043	1957.05
2687.72324	1967.35
2690.34441	1963.15
2692.96396	1960.85
2695.58188	1959.05
2698.19818	1957.55
2700.81285	1969.75
2703.4259	1957.15
2706.03733	1980.15
2708.64714	1980.65
2711.25533	1968.35
2713.86191	1966.25
2716.46687	1973.15
2719.07021	1966.85
2721.67194	1966.95
2724.27206	1967.85
2726.87057	1961.55
2729.46747	1966.95
2732.06276	1971.85
2734.65644	1962.95
2737.24852	1951.85
2739.83899	1967.05
2742.42786	1959.65
2745.01513	1946.05
2747.60079	1964.45
2750.18486	1946.45
2752.76733	1965.35
2755.3482	1955.05
2757.92747	1948.95
2760.50515	1947.35
2763.08123	1958.45
2765.65573	1943.35
2768.22863	1939.55
2770.79994	1950.15
2773.36967	1937.15
2775.9378	1924.65
2778.50435	1930.15
2781.06932	1923.65
2783.6327	1931.35
2786.1945	1925.35
2788.75471	1916.65
2791.31335	1918.75
2793.87041	1918.95
2796.42589	1900.65
2798.97979	1907.45
2801.53212	1902.75
2804.08288	1902.75
2806.63206	1892.15
2809.17967	1898.85
2811.72571	1897.95
2814.27018	1887.35
2816.81308	1881.45
2819.35442	1875.75
2821.89419	1872.95
2824.43239	1877.35
2826.96904	1882.85
2829.50412	1866.65
2832.03763	1870.55
2834.56959	1883.85
2837.1	1872.05
2839.62884	1885.55
2842.15613	1876.95
2844.68186	1869.45
2847.20604	1878.95
2849.72867	1881.95
2852.24974	1880.05
2854.76927	1886.95
2857.28724	1890.45
2859.80367	1874.75
2862.31855	1881.95
2864.83189	1881.75
2867.34368	1875.55
2869.85393	1871.45
2872.36264	1870.25
2874.8698	1889.45
2877.37543	1885.05
2879.87952	1892.05
2882.38207	1882.95
2884.88308	1883.25
2887.38256	1882.55
2889.88051	1893.75
2892.37692	1894.65
2894.8718	1893.95
2897.36515	1890.95
2899.85698	1906.35
2902.34727	1900.65
2904.83604	1908.85
2907.32328	1909.95
2909.809	1903.55
2912.29319	1897.95
2914.77587	1900.75
2917.25702	1898.15
2919.73665	1898.25
2922.21476	1897.95
2924.69136	1896.35
2927.16644	1896.75
2929.64	1902.25
2932.11205	1895.55
2934.58258	1892.35
2937.05161	1897.75
2939.51912	1892.65
2941.98513	1872.25
2944.44962	1884.35
2946.91261	1879.05
2949.37409	1880.05
2951.83407	1876.25
2954.29254	1875.75
2956.74951	1869.25
2959.20498	1868.25
2961.65895	1854.85
2964.11142	1864.75
2966.56239	1851.15
2969.01186	1846.65
2971.45984	1845.55
2973.90632	1847.55
2976.35131	1840.15
2978.7948	1842.85
2981.23681	1831.25
2983.67732	1822.25
2986.11635	1825.55
2988.55388	1816.25
2990.98993	1815.55
2993.4245	1813.15
2995.85758	1814.95
2998.28917	1811.55
3000.71928	1808.75
3003.14791	1807.15
3005.57506	1810.95
3008.00073	1805.45
3010.42493	1802.85
3012.84764	1806.65
3015.26888	1806.75
3017.68865	1804.65
3020.10694	1796.55
3022.52376	1801.05
3024.9391	1809.55
3027.35298	1795.65
3029.76539	1795.75
3032.17632	1801.05
3034.5858	1798.05
3036.9938	1796.75
3039.40034	1801.65
3041.80542	1795.25
3044.20903	1791.45
3046.61118	1810.85
3049.01187	1791.05
3051.4111	1802.45
3053.80888	1794.15
3056.20519	1801.05
3058.60005	1807.15
3060.99345	1810.85
3063.3854	1793.95
3065.7759	1799.95
3068.16494	1790.05
3070.55254	1785.05
3072.93868	1796.25
3075.32338	1786.35
3077.70662	1798.45
3080.08842	1792.15
3082.46878	1801.45
3084.84769	1798.15
3087.22515	1795.85
3089.60118	1804.05
3091.97576	1796.95
3094.3489	1800.85
3096.72061	1810.75
3099.09087	1815.35
3101.4597	1817.85
3103.82709	1821.05
3106.19305	1812.65
3108.55757	1829.05
3110.92066	1826.75
3113.28232	1828.25
3115.64255	1833.55
3118.00134	1831.15
3120.35871	1833.65
3122.71466	1832.45
3125.06917	1829.45
3127.42226	1826.95
3129.77393	1840.85
3132.12417	1845.05
3134.47299	1844.35
3136.82039	1843.55
3139.16636	1848.05
3141.51092	1859.75
3143.85406	1859.65
3146.19579	1866.85
3148.53609	1876.35
3150.87499	1879.55
3153.21246	1887.95
3155.54853	1890.65
3157.88318	1898.95
3160.21642	1910.65
3162.54826	1907.15
3164.87868	1901.95
3167.2077	1915.65
3169.5353	1924.45
3171.86151	1933.55
3174.18631	1928.95
3176.5097	1928.85
3178.83169	1933.25
3181.15228	1918.65
3183.47147	1936.35
3185.78926	1946.25
3188.10565	1937.25
3190.42065	1951.55
3192.73424	1950.75
3195.04645	1949.25
3197.35725	1947.65
3199.66667	1955.45
3201.97469	1966.95
3204.28132	1965.05
3206.58656	1962.55
3208.8904	1970.85
3211.19287	1973.15
3213.49394	1984.65
3215.79363	1981.75
3218.09193	1985.65
3220.38884	1991.95
3222.68438	1994.15
3224.97853	1988.75
3227.2713	1988.05
3229.56269	1987.25
3231.8527	1988.25
3234.14133	1986.75
3236.42858	1984.85
3238.71446	1978.55
3240.99896	1982.75
3243.28209	1976.25
3245.56384	1976.75
3247.84423	1983.85
3250.12324	1973.65
3252.40088	1979.35
3254.67715	1975.25
3256.95205	1963.85
3259.22558	1973.45
3261.49775	1970.15
3263.76855	1970.85
3266.03799	1967.55
3268.30606	1963.95
3270.57277	1948.25
3272.83812	1950.65
3275.10211	1951.15
3277.36474	1951.05
3279.62601	1953.25
3281.88593	1949.45
3284.14448	1958.25
3286.40168	1955.45
3288.65753	1942.65
3290.91202	1939.85
3293.16516	1931.55
3295.41695	1928.95
3297.66738	1916.05
3299.91647	1919.35
3302.16421	1903.45
3304.4106	1897.65
3306.65564	1878.05
3308.89933	1873.25
3311.14169	1867.15
3313.38269	1855.15
3315.62236	1846.65
3317.86068	1829.15
3320.09766	1811.55
3322.3333	1797.95
3324.5676	1809.25
3326.80056	1770.25
3329.03219	1759.95
3331.26248	-0.65
3333.49143	0.55
3335.71905	-0.05
