Data from AgNPs_FTO_APTES_UA_0.1mM_CRN_20uM_NaF_0.1M_Addition_RamanShift__21__12-21-27-604.txt Node

Date: Mon Dec 20 12:21:27 GMT 2021
User: TCL
Spectrometer: QEP01345
Trigger mode: 4
Integration Time (sec): 7.000000E0
Scans to average: 10
Electric dark correction enabled: true
Nonlinearity correction enabled: false
Boxcar width: 0
XAxis mode: Raman Shifts
Number of Pixels in Spectrum: 1044
>>>>>Begin Spectral Data<<<<<
46.04893	0.85
50.45542	-0.75
54.85868	-2.05
59.25871	1.35
63.6555	32.85
68.04907	36.75
72.43941	38.65
76.82654	40.15
81.21044	39.75
85.59113	45.25
89.96862	38.45
94.34289	46.55
98.71396	44.15
103.08183	45.35
107.4465	48.05
111.80798	49.75
116.16626	47.15
120.52136	54.35
124.87327	55.25
129.222	54.35
133.56755	58.05
137.90993	66.65
142.24913	69.35
146.58517	71.45
150.91804	88.95
155.24774	101.75
159.57429	120.15
163.89768	154.35
168.21792	204.15
172.53501	268.65
176.84895	368.45
181.15975	512.35
185.46741	707.95
189.77193	988.65
194.07331	1319.15
198.37157	1705.45
202.6667	2108.15
206.9587	2534.65
211.24758	2932.95
215.53334	3368.05
219.81599	3771.35
224.09553	4219.35
228.37195	4701.45
232.64527	5240.45
236.91549	5789.75
241.18261	6346.75
245.44663	6858.75
249.70755	7307.45
253.96539	7723.85
258.22014	8026.35
262.4718	8277.05
266.72039	8418.35
270.96589	8476.95
275.20832	8458.75
279.44768	8351.95
283.68397	8248.45
287.91719	8110.85
292.14735	8026.65
296.37445	7979.95
300.59849	7966.15
304.81948	8006.85
309.03742	7976.75
313.25231	7895.85
317.46415	7776.15
321.67296	7587.95
325.87872	7463.05
330.08145	7386.95
334.28114	7386.55
338.47781	7414.85
342.67145	7498.95
346.86207	7612.35
351.04966	7733.45
355.23424	7917.25
359.4158	8024.75
363.59435	8144.45
367.76989	8247.45
371.94243	8311.55
376.11196	8365.05
380.27849	8440.05
384.44203	8520.25
388.60257	8572.45
392.76012	8633.15
396.91468	8703.95
401.06626	8794.35
405.21485	8879.55
409.36047	8860.05
413.50311	8777.95
417.64277	8669.65
421.77947	8625.45
425.9132	8618.55
430.04396	8639.85
434.17176	8681.65
438.2966	8729.45
442.41849	8805.95
446.53742	8920.25
450.6534	9031.45
454.76644	9160.65
458.87653	9209.05
462.98368	9228.55
467.08789	9202.15
471.18916	9190.35
475.2875	9187.75
479.38291	9216.65
483.4754	9284.35
487.56496	9381.65
491.6516	9465.65
495.73531	9504.85
499.81612	9494.05
503.89401	9425.85
507.96899	9375.35
512.04106	9286.45
516.11023	9276.55
520.1765	9299.05
524.23987	9318.55
528.30034	9341.95
532.35792	9319.45
536.41261	9252.85
540.46441	9147.25
544.51333	9065.75
548.55936	9021.95
552.60252	9030.65
556.64279	9089.25
560.6802	9118.15
564.71473	9157.45
568.7464	9241.95
572.7752	9319.95
576.80114	9348.95
580.82422	9348.35
584.84444	9409.75
588.86181	9531.65
592.87633	9626.45
596.888	9649.55
600.89682	9658.95
604.9028	9866.25
608.90594	10473.55
612.90624	11349.25
616.90371	11324.75
620.89834	10355.95
624.89015	10116.15
628.87913	10455.15
632.86528	10905.75
636.84862	11230.65
640.82913	11168.55
644.80683	10774.95
648.78172	10265.55
652.75379	9915.05
656.72306	9745.75
660.68952	9695.85
664.65319	9668.55
668.61405	9563.05
672.57211	9563.05
676.52738	9608.15
680.47986	9620.35
684.42955	9583.25
688.37646	9585.95
692.32058	9503.35
696.26192	9440.75
700.20048	9374.15
704.13626	9323.25
708.06928	9247.95
711.99952	9138.15
715.927	9100.05
719.85171	9082.85
723.77365	9137.55
727.69284	9140.35
731.60928	9062.85
735.52295	9010.75
739.43388	8953.65
743.34206	8955.65
747.24749	8979.55
751.15017	8998.45
755.05012	9015.15
758.94733	9091.55
762.8418	9349.85
766.73354	9742.65
770.62254	10192.35
774.50882	10387.95
778.39237	10180.85
782.27321	9721.75
786.15132	9283.65
790.02671	9035.65
793.89938	8966.85
797.76935	8914.35
801.6366	8995.55
805.50115	9170.05
809.36299	9356.55
813.22213	9435.75
817.07857	9348.75
820.93231	9133.75
824.78336	8892.45
828.63172	8702.65
832.47738	8616.95
836.32036	8589.65
840.16066	8548.05
843.99827	8520.15
847.8332	8505.55
851.66546	8513.05
855.49504	8494.55
859.32195	8517.15
863.1462	8540.05
866.96777	8590.45
870.78668	8671.15
874.60293	8791.05
878.41652	8931.85
882.22745	9044.15
886.03573	9131.15
889.84136	9109.95
893.64433	8999.15
897.44466	8782.15
901.24235	8600.25
905.0374	8428.85
908.8298	8318.75
912.61957	8269.55
916.40671	8239.85
920.19121	8225.05
923.97308	8245.65
927.75233	8240.05
931.52895	8242.75
935.30295	8197.15
939.07433	8113.45
942.84309	8069.45
946.60924	8054.55
950.37278	8012.85
954.13371	8017.05
957.89203	7967.75
961.64774	7949.65
965.40086	7909.45
969.15137	7874.55
972.89929	7844.25
976.64461	7832.85
980.38733	7798.65
984.12747	7796.65
987.86502	7817.15
991.59999	7854.95
995.33237	7898.25
999.06217	8003.45
1002.78939	8114.35
1006.51404	8208.45
1010.23611	8313.75
1013.95561	8390.95
1017.67255	8431.85
1021.38692	8358.95
1025.09872	8244.05
1028.80796	8153.45
1032.51465	8107.15
1036.21877	8104.05
1039.92035	8050.55
1043.61937	8026.35
1047.31584	8004.15
1051.00976	7980.65
1054.70114	7998.85
1058.38998	8039.15
1062.07627	8076.55
1065.76003	8148.85
1069.44126	8200.15
1073.11995	8248.15
1076.79611	8286.05
1080.46974	8266.55
1084.14085	8250.25
1087.80943	8227.75
1091.47549	8195.85
1095.13903	8136.75
1098.80005	8063.65
1102.45857	8002.95
1106.11456	7974.05
1109.76805	7999.35
1113.41903	8084.65
1117.06751	8262.55
1120.71348	8554.65
1124.35696	8944.45
1127.99793	9393.15
1131.63641	9798.65
1135.2724	9994.95
1138.90589	9981.45
1142.5369	9760.55
1146.16542	9406.15
1149.79145	9022.85
1153.415	8655.15
1157.03607	8443.75
1160.65467	8298.85
1164.27079	8318.55
1167.88443	8409.85
1171.49561	8606.85
1175.10432	8920.85
1178.71056	9365.85
1182.31434	9811.15
1185.91565	10026.05
1189.51451	10056.25
1193.11091	9982.45
1196.70485	9923.75
1200.29634	9869.15
1203.88538	9810.35
1207.47197	9649.15
1211.05612	9429.35
1214.63782	9179.05
1218.21708	8951.15
1221.79391	8733.45
1225.36829	8601.15
1228.94024	8490.25
1232.50976	8400.55
1236.07685	8326.45
1239.6415	8293.95
1243.20374	8331.95
1246.76355	8358.85
1250.32093	8422.05
1253.8759	8467.25
1257.42845	8599.45
1260.97859	8673.55
1264.52631	8749.05
1268.07163	8852.55
1271.61453	8935.95
1275.15503	9000.05
1278.69312	9073.95
1282.22882	9122.85
1285.76211	9176.25
1289.29301	9336.15
1292.82151	9548.85
1296.34761	9770.85
1299.87133	10121.35
1303.39266	10519.95
1306.9116	10958.55
1310.42815	11445.55
1313.94233	11752.45
1317.45412	11769.65
1320.96354	11580.95
1324.47058	11336.35
1327.97525	11107.15
1331.47754	10960.55
1334.97747	10916.05
1338.47502	10973.45
1341.97022	11082.05
1345.46305	11212.55
1348.95352	11362.85
1352.44163	11584.65
1355.92738	11963.25
1359.41078	12530.25
1362.89183	13084.55
1366.37053	12961.55
1369.84688	12092.25
1373.32088	11089.05
1376.79254	10403.05
1380.26186	10044.05
1383.72883	9886.45
1387.19347	9772.65
1390.65578	9639.15
1394.11575	9537.45
1397.57339	9473.05
1401.0287	9461.85
1404.48168	9429.85
1407.93234	9373.95
1411.38068	9245.85
1414.82669	9032.05
1418.27039	8818.85
1421.71177	8562.95
1425.15083	8328.75
1428.58758	8215.15
1432.02203	8143.55
1435.45416	8159.15
1438.88399	8210.15
1442.31151	8227.45
1445.73673	8304.85
1449.15965	8342.95
1452.58027	8420.55
1455.9986	8445.15
1459.41463	8486.85
1462.82837	8546.45
1466.23982	8634.25
1469.64898	8731.95
1473.05586	8793.35
1476.46045	8800.75
1479.86276	8805.15
1483.26279	8807.85
1486.66054	8821.25
1490.05602	8890.05
1493.44922	8990.25
1496.84016	9161.35
1500.22882	9416.85
1503.61521	9809.75
1506.99934	10285.65
1510.38121	10676.75
1513.76081	10817.55
1517.13816	10563.15
1520.51324	10062.35
1523.88607	9518.85
1527.25665	9207.75
1530.62498	9063.85
1533.99105	9005.95
1537.35488	8993.85
1540.71647	8987.25
1544.07581	9011.05
1547.4329	9000.15
1550.78776	8984.75
1554.14038	9003.15
1557.49077	9053.05
1560.83892	9097.35
1564.18484	9149.75
1567.52853	9236.25
1570.86999	9285.65
1574.20922	9366.65
1577.54624	9392.65
1580.88103	9318.95
1584.2136	9183.15
1587.54395	9190.15
1590.87208	9228.55
1594.19801	9449.55
1597.52172	9707.05
1600.84321	9827.55
1604.16251	9735.75
1607.47959	9469.65
1610.79447	9174.45
1614.10715	8877.25
1617.41763	8646.15
1620.7259	8457.55
1624.03199	8378.45
1627.33587	8368.15
1630.63757	8448.85
1633.93707	8671.75
1637.23439	8995.15
1640.52951	9443.05
1643.82246	10055.15
1647.11321	10653.55
1650.40179	10985.35
1653.68819	10819.05
1656.97241	10124.15
1660.25446	9394.05
1663.53433	8789.45
1666.81203	8391.65
1670.08756	8132.65
1673.36092	7953.55
1676.63211	7805.75
1679.90115	7700.75
1683.16801	7584.45
1686.43272	7457.55
1689.69527	7324.45
1692.95567	7204.35
1696.2139	7063.95
1699.46999	6946.95
1702.72392	6802.95
1705.97571	6710.35
1709.22535	6641.65
1712.47284	6555.15
1715.71819	6512.35
1718.96139	6443.95
1722.20246	6373.55
1725.44139	6318.35
1728.67818	6243.65
1731.91284	6187.75
1735.14537	6137.05
1738.37576	6090.15
1741.60403	6062.25
1744.83017	6013.85
1748.05418	6003.35
1751.27607	5998.85
1754.49584	6006.35
1757.71349	5996.15
1760.92903	5961.25
1764.14244	5954.25
1767.35375	5912.35
1770.56294	5911.05
1773.77002	5880.25
1776.97499	5842.45
1780.17785	5808.55
1783.37861	5794.15
1786.57727	5758.85
1789.77382	5729.75
1792.96828	5701.35
1796.16064	5691.15
1799.3509	5660.65
1802.53907	5656.75
1805.72514	5629.15
1808.90913	5610.65
1812.09102	5622.45
1815.27083	5575.05
1818.44856	5584.75
1821.6242	5568.65
1824.79776	5541.05
1827.96924	5553.65
1831.13864	5521.95
1834.30597	5533.55
1837.47122	5513.35
1840.6344	5492.65
1843.7955	5492.85
1846.95454	5493.75
1850.11151	5516.15
1853.26642	5496.55
1856.41926	5470.35
1859.57004	5476.85
1862.71876	5469.65
1865.86542	5483.15
1869.01003	5463.25
1872.15258	5451.05
1875.29308	5443.55
1878.43152	5434.15
1881.56792	5421.55
1884.70227	5402.45
1887.83457	5409.05
1890.96482	5375.65
1894.09304	5387.65
1897.21921	5385.45
1900.34335	5380.35
1903.46544	5363.95
1906.58551	5372.35
1909.70353	5361.95
1912.81953	5344.25
1915.93349	5321.65
1919.04543	5318.15
1922.15534	5306.75
1925.26322	5304.85
1928.36908	5302.35
1931.47292	5268.15
1934.57473	5234.35
1937.67453	5248.55
1940.77232	5227.05
1943.86808	5205.55
1946.96184	5186.45
1950.05358	5183.35
1953.14331	5173.85
1956.23103	5157.85
1959.31675	5141.65
1962.40046	5131.25
1965.48217	5112.95
1968.56188	5110.55
1971.63959	5075.45
1974.7153	5062.35
1977.78901	5048.05
1980.86073	5029.25
1983.93046	5021.65
1986.99819	5008.95
1990.06394	4979.95
1993.1277	4964.45
1996.18947	4949.65
1999.24925	4937.45
2002.30706	4937.55
2005.36288	4909.85
2008.41672	4877.65
2011.46859	4884.65
2014.51848	4854.45
2017.56639	4859.45
2020.61233	4844.85
2023.6563	4821.65
2026.6983	4804.05
2029.73833	4801.05
2032.7764	4784.45
2035.8125	4792.95
2038.84664	4767.05
2041.87881	4763.95
2044.90903	4741.95
2047.93729	4731.25
2050.96359	4724.55
2053.98794	4745.35
2057.01034	4729.65
2060.03078	4715.45
2063.04927	4708.95
2066.06582	4719.75
2069.08042	4704.25
2072.09307	4704.15
2075.10378	4701.25
2078.11255	4697.65
2081.11938	4683.75
2084.12426	4683.35
2087.12722	4684.35
2090.12824	4684.85
2093.12732	4685.25
2096.12447	4692.25
2099.11969	4671.55
2102.11299	4670.85
2105.10435	4675.95
2108.09379	4688.75
2111.08131	4669.25
2114.0669	4684.15
2117.05057	4683.35
2120.03233	4680.65
2123.01216	4694.85
2125.99008	4692.55
2128.96609	4681.85
2131.94018	4703.45
2134.91236	4697.65
2137.88263	4700.45
2140.851	4696.05
2143.81746	4697.15
2146.78201	4707.55
2149.74466	4709.25
2152.7054	4697.05
2155.66425	4698.65
2158.6212	4716.95
2161.57625	4710.65
2164.52941	4700.25
2167.48067	4702.35
2170.43004	4689.05
2173.37752	4689.05
2176.32311	4684.25
2179.26681	4674.15
2182.20863	4674.45
2185.14856	4680.95
2188.08661	4673.95
2191.02278	4673.65
2193.95707	4658.65
2196.88948	4650.25
2199.82001	4656.05
2202.74867	4645.95
2205.67545	4648.55
2208.60037	4643.25
2211.52341	4629.05
2214.44458	4619.85
2217.36388	4612.65
2220.28132	4576.85
2223.1969	4576.25
2226.11061	4569.35
2229.02246	4591.65
2231.93245	4564.75
2234.84058	4562.35
2237.74686	4539.55
2240.65128	4535.85
2243.55385	4546.35
2246.45456	4530.15
2249.35343	4502.85
2252.25044	4515.85
2255.14561	4493.65
2258.03893	4504.65
2260.93041	4492.95
2263.82004	4488.95
2266.70783	4470.45
2269.59378	4464.75
2272.4779	4453.15
2275.36017	4445.45
2278.24061	4422.55
2281.11922	4414.35
2283.996	4414.05
2286.87094	4409.35
2289.74405	4397.25
2292.61534	4395.35
2295.4848	4383.05
2298.35243	4380.65
2301.21824	4378.25
2304.08223	4359.85
2306.94439	4374.25
2309.80474	4369.15
2312.66327	4365.35
2315.51999	4338.65
2318.37489	4344.25
2321.22797	4345.75
2324.07925	4312.05
2326.92871	4330.55
2329.77637	4327.95
2332.62222	4328.05
2335.46626	4305.85
2338.3085	4298.25
2341.14893	4304.95
2343.98756	4298.25
2346.8244	4316.75
2349.65943	4268.45
2352.49267	4282.65
2355.32411	4291.85
2358.15376	4288.75
2360.98161	4268.55
2363.80768	4253.25
2366.63195	4276.55
2369.45444	4272.95
2372.27514	4251.35
2375.09405	4262.25
2377.91118	4255.65
2380.72652	4232.25
2383.54009	4225.15
2386.35187	4241.25
2389.16188	4214.15
2391.97011	4209.35
2394.77657	4215.45
2397.58125	4193.55
2400.38416	4182.05
2403.18529	4174.65
2405.98466	4168.45
2408.78226	4151.45
2411.57809	4142.35
2414.37216	4137.65
2417.16446	4133.95
2419.955	4126.15
2422.74378	4121.05
2425.5308	4107.95
2428.31606	4109.35
2431.09956	4098.85
2433.88131	4100.85
2436.6613	4117.45
2439.43954	4101.15
2442.21603	4083.65
2444.99077	4081.85
2447.76377	4081.15
2450.53501	4070.25
2453.30451	4091.35
2456.07226	4077.35
2458.83827	4077.55
2461.60254	4060.25
2464.36507	4055.85
2467.12586	4046.25
2469.88492	4050.35
2472.64224	4037.15
2475.39782	4035.95
2478.15167	4046.55
2480.90379	4037.25
2483.65417	4031.55
2486.40283	4030.75
2489.14976	4038.55
2491.89497	4019.15
2494.63845	4039.95
2497.3802	4036.15
2500.12024	4018.45
2502.85855	4024.15
2505.59514	4008.05
2508.33002	4007.85
2511.06318	4011.85
2513.79462	4007.45
2516.52435	3981.95
2519.25237	3991.35
2521.97867	3989.85
2524.70327	3970.75
2527.42616	3963.35
2530.14734	3971.65
2532.86681	3942.15
2535.58458	3953.65
2538.30065	3948.45
2541.01501	3940.15
2543.72768	3929.25
2546.43864	3931.85
2549.14791	3911.45
2551.85548	3914.55
2554.56136	3895.65
2557.26554	3884.65
2559.96803	3888.65
2562.66883	3885.25
2565.36794	3881.75
2568.06536	3872.15
2570.7611	3861.45
2573.45514	3851.05
2576.14751	3869.45
2578.83819	3847.55
2581.52719	3858.85
2584.21451	3836.75
2586.90015	3847.95
2589.58411	3823.65
2592.2664	3832.95
2594.94701	3821.45
2597.62594	3809.45
2600.30321	3778.35
2602.9788	3794.25
2605.65273	3793.65
2608.32498	3791.35
2610.99557	3787.85
2613.66449	3778.65
2616.33175	3774.95
2618.99734	3767.05
2621.66128	3773.55
2624.32355	3773.05
2626.98416	3771.65
2629.64311	3763.65
2632.30041	3756.65
2634.95605	3751.45
2637.61004	3739.15
2640.26238	3743.55
2642.91306	3735.05
2645.56209	3742.25
2648.20948	3733.75
2650.85521	3720.75
2653.4993	3715.95
2656.14175	3730.65
2658.78255	3713.05
2661.42171	3713.25
2664.05923	3716.45
2666.6951	3721.15
2669.32934	3712.05
2671.96194	3716.75
2674.59291	3713.95
2677.22224	3716.85
2679.84993	3729.95
2682.476	3728.45
2685.10043	3722.65
2687.72324	3702.15
2690.34441	3720.25
2692.96396	3711.35
2695.58188	3722.05
2698.19818	3698.75
2700.81285	3711.75
2703.4259	3723.05
2706.03733	3744.05
2708.64714	3735.15
2711.25533	3738.35
2713.86191	3721.55
2716.46687	3749.05
2719.07021	3719.45
2721.67194	3741.45
2724.27206	3720.45
2726.87057	3730.45
2729.46747	3731.35
2732.06276	3723.25
2734.65644	3713.35
2737.24852	3715.15
2739.83899	3706.85
2742.42786	3710.05
2745.01513	3701.55
2747.60079	3705.25
2750.18486	3688.45
2752.76733	3683.95
2755.3482	3692.65
2757.92747	3687.15
2760.50515	3680.15
2763.08123	3672.35
2765.65573	3678.55
2768.22863	3670.05
2770.79994	3672.15
2773.36967	3667.75
2775.9378	3645.25
2778.50435	3651.55
2781.06932	3639.05
2783.6327	3649.35
2786.1945	3635.75
2788.75471	3626.05
2791.31335	3614.25
2793.87041	3618.55
2796.42589	3589.35
2798.97979	3594.95
2801.53212	3594.85
2804.08288	3592.65
2806.63206	3584.45
2809.17967	3581.35
2811.72571	3564.45
2814.27018	3564.65
2816.81308	3553.65
2819.35442	3550.05
2821.89419	3529.75
2824.43239	3546.25
2826.96904	3547.75
2829.50412	3548.85
2832.03763	3538.75
2834.56959	3550.15
2837.1	3530.65
2839.62884	3543.75
2842.15613	3554.05
2844.68186	3538.95
2847.20604	3545.05
2849.72867	3532.65
2852.24974	3534.95
2854.76927	3543.75
2857.28724	3534.75
2859.80367	3527.35
2862.31855	3526.35
2864.83189	3532.65
2867.34368	3525.25
2869.85393	3527.95
2872.36264	3518.35
2874.8698	3520.15
2877.37543	3522.25
2879.87952	3529.05
2882.38207	3520.95
2884.88308	3519.45
2887.38256	3523.55
2889.88051	3532.55
2892.37692	3532.15
2894.8718	3535.95
2897.36515	3539.05
2899.85698	3533.15
2902.34727	3538.05
2904.83604	3536.25
2907.32328	3554.65
2909.809	3545.45
2912.29319	3544.65
2914.77587	3558.25
2917.25702	3548.75
2919.73665	3546.15
2922.21476	3551.25
2924.69136	3538.55
2927.16644	3557.35
2929.64	3548.15
2932.11205	3549.85
2934.58258	3542.45
2937.05161	3553.85
2939.51912	3544.65
2941.98513	3540.15
2944.44962	3534.55
2946.91261	3525.15
2949.37409	3543.45
2951.83407	3523.65
2954.29254	3533.85
2956.74951	3527.05
2959.20498	3509.45
2961.65895	3505.45
2964.11142	3511.45
2966.56239	3504.55
2969.01186	3499.05
2971.45984	3476.55
2973.90632	3492.35
2976.35131	3458.55
2978.7948	3467.15
2981.23681	3466.15
2983.67732	3450.55
2986.11635	3456.05
2988.55388	3442.45
2990.98993	3444.55
2993.4245	3445.85
2995.85758	3431.05
2998.28917	3414.05
3000.71928	3421.35
3003.14791	3436.95
3005.57506	3431.55
3008.00073	3414.05
3010.42493	3430.45
3012.84764	3403.85
3015.26888	3414.45
3017.68865	3402.05
3020.10694	3400.25
3022.52376	3386.05
3024.9391	3391.05
3027.35298	3392.05
3029.76539	3387.85
3032.17632	3383.45
3034.5858	3378.25
3036.9938	3376.25
3039.40034	3377.75
3041.80542	3375.45
3044.20903	3369.95
3046.61118	3379.95
3049.01187	3379.45
3051.4111	3369.55
3053.80888	3371.95
3056.20519	3365.85
3058.60005	3359.25
3060.99345	3350.85
3063.3854	3336.15
3065.7759	3344.55
3068.16494	3351.05
3070.55254	3336.75
3072.93868	3351.55
3075.32338	3332.85
3077.70662	3343.75
3080.08842	3338.65
3082.46878	3339.65
3084.84769	3335.85
3087.22515	3343.55
3089.60118	3348.25
3091.97576	3346.45
3094.3489	3340.25
3096.72061	3361.75
3099.09087	3351.45
3101.4597	3352.85
3103.82709	3356.85
3106.19305	3357.15
3108.55757	3360.95
3110.92066	3350.85
3113.28232	3340.65
3115.64255	3352.65
3118.00134	3350.95
3120.35871	3350.35
3122.71466	3347.95
3125.06917	3355.85
3127.42226	3346.05
3129.77393	3354.15
3132.12417	3355.15
3134.47299	3384.65
3136.82039	3383.15
3139.16636	3366.05
3141.51092	3377.55
3143.85406	3402.75
3146.19579	3401.45
3148.53609	3405.95
3150.87499	3409.85
3153.21246	3408.75
3155.54853	3431.15
3157.88318	3425.75
3160.21642	3430.25
3162.54826	3448.15
3164.87868	3450.55
3167.2077	3445.15
3169.5353	3458.55
3171.86151	3458.65
3174.18631	3462.75
3176.5097	3456.55
3178.83169	3458.05
3181.15228	3446.95
3183.47147	3459.25
3185.78926	3470.15
3188.10565	3470.05
3190.42065	3486.85
3192.73424	3475.75
3195.04645	3470.95
3197.35725	3473.35
3199.66667	3480.65
3201.97469	3504.65
3204.28132	3504.65
3206.58656	3516.85
3208.8904	3508.45
3211.19287	3500.95
3213.49394	3512.95
3215.79363	3524.45
3218.09193	3540.25
3220.38884	3541.95
3222.68438	3539.85
3224.97853	3527.85
3227.2713	3518.15
3229.56269	3524.25
3231.8527	3520.75
3234.14133	3519.05
3236.42858	3511.05
3238.71446	3513.75
3240.99896	3492.25
3243.28209	3515.65
3245.56384	3524.05
3247.84423	3507.45
3250.12324	3510.25
3252.40088	3512.55
3254.67715	3506.05
3256.95205	3486.35
3259.22558	3500.25
3261.49775	3493.75
3263.76855	3496.05
3266.03799	3498.75
3268.30606	3488.95
3270.57277	3482.15
3272.83812	3481.65
3275.10211	3475.35
3277.36474	3468.65
3279.62601	3467.55
3281.88593	3472.55
3284.14448	3465.15
3286.40168	3472.65
3288.65753	3462.85
3290.91202	3459.45
3293.16516	3441.45
3295.41695	3431.15
3297.66738	3419.95
3299.91647	3410.55
3302.16421	3381.55
3304.4106	3368.45
3306.65564	3365.05
3308.89933	3343.95
3311.14169	3325.45
3313.38269	3317.05
3315.62236	3289.45
3317.86068	3255.65
3320.09766	3225.65
3322.3333	3209.15
3324.5676	3223.15
3326.80056	3149.95
3329.03219	3140.25
3331.26248	-0.25
3333.49143	0.75
3335.71905	-0.95
