Data from AgNPs_FTO_APTES_UA_0.1mM_CRN_50uM_NaF_0.1M_Addition_RamanShift__27__13-08-07-657.txt Node

Date: Mon Dec 20 13:08:07 GMT 2021
User: TCL
Spectrometer: QEP01345
Trigger mode: 4
Integration Time (sec): 7.000000E0
Scans to average: 10
Electric dark correction enabled: true
Nonlinearity correction enabled: false
Boxcar width: 0
XAxis mode: Raman Shifts
Number of Pixels in Spectrum: 1044
>>>>>Begin Spectral Data<<<<<
46.04893	0.45
50.45542	-0.15
54.85868	-2.25
59.25871	1.15
63.6555	31.55
68.04907	32.05
72.43941	36.95
76.82654	35.25
81.21044	37.65
85.59113	40.75
89.96862	40.65
94.34289	42.35
98.71396	44.75
103.08183	44.95
107.4465	49.05
111.80798	47.15
116.16626	46.25
120.52136	53.75
124.87327	54.65
129.222	54.95
133.56755	57.45
137.90993	59.55
142.24913	63.65
146.58517	70.35
150.91804	84.45
155.24774	93.45
159.57429	111.25
163.89768	145.85
168.21792	188.75
172.53501	248.75
176.84895	342.35
181.15975	475.35
185.46741	661.05
189.77193	911.85
194.07331	1220.45
198.37157	1594.45
202.6667	1971.15
206.9587	2355.45
211.24758	2743.85
215.53334	3121.15
219.81599	3516.85
224.09553	3954.15
228.37195	4386.35
232.64527	4872.95
236.91549	5360.35
241.18261	5835.95
245.44663	6275.05
249.70755	6666.75
253.96539	7004.55
258.22014	7293.85
262.4718	7498.85
266.72039	7614.65
270.96589	7672.95
275.20832	7630.15
279.44768	7530.95
283.68397	7433.35
287.91719	7308.25
292.14735	7254.75
296.37445	7240.15
300.59849	7294.25
304.81948	7360.55
309.03742	7407.65
313.25231	7350.65
317.46415	7220.55
321.67296	6967.45
325.87872	6781.15
330.08145	6674.55
334.28114	6631.85
338.47781	6687.55
342.67145	6768.55
346.86207	6875.45
351.04966	7045.65
355.23424	7274.95
359.4158	7446.25
363.59435	7557.75
367.76989	7639.45
371.94243	7696.95
376.11196	7730.85
380.27849	7791.25
384.44203	7815.75
388.60257	7860.15
392.76012	7894.45
396.91468	7973.55
401.06626	8072.45
405.21485	8126.35
409.36047	8079.15
413.50311	7930.65
417.64277	7776.55
421.77947	7688.95
425.9132	7657.35
430.04396	7667.05
434.17176	7709.75
438.2966	7734.15
442.41849	7844.35
446.53742	7962.85
450.6534	8082.45
454.76644	8166.15
458.87653	8181.45
462.98368	8147.55
467.08789	8134.65
471.18916	8111.85
475.2875	8115.95
479.38291	8141.55
483.4754	8206.85
487.56496	8336.35
491.6516	8439.55
495.73531	8494.45
499.81612	8451.85
503.89401	8351.15
507.96899	8250.65
512.04106	8211.05
516.11023	8266.05
520.1765	8336.15
524.23987	8400.25
528.30034	8471.35
532.35792	8464.95
536.41261	8363.25
540.46441	8183.15
544.51333	8060.95
548.55936	7967.75
552.60252	7977.35
556.64279	8021.75
560.6802	8050.55
564.71473	8099.75
568.7464	8235.75
572.7752	8327.75
576.80114	8287.75
580.82422	8239.25
584.84444	8285.15
588.86181	8405.55
592.87633	8514.15
596.888	8539.65
600.89682	8568.15
604.9028	8796.45
608.90594	9637.55
612.90624	10905.15
616.90371	10991.45
620.89834	9894.05
624.89015	9628.25
628.87913	10135.15
632.86528	10685.35
636.84862	11003.75
640.82913	10810.85
644.80683	10204.25
648.78172	9496.45
652.75379	8981.75
656.72306	8721.85
660.68952	8660.75
664.65319	8542.25
668.61405	8396.15
672.57211	8320.05
676.52738	8338.55
680.47986	8323.55
684.42955	8305.15
688.37646	8284.15
692.32058	8256.35
696.26192	8236.95
700.20048	8176.85
704.13626	8160.25
708.06928	8079.05
711.99952	8031.85
715.927	8005.45
719.85171	8048.45
723.77365	8105.75
727.69284	8096.65
731.60928	8025.95
735.52295	7934.45
739.43388	7843.05
743.34206	7859.95
747.24749	7886.45
751.15017	7890.55
755.05012	7919.15
758.94733	8032.25
762.8418	8334.25
766.73354	8825.15
770.62254	9311.55
774.50882	9573.05
778.39237	9354.55
782.27321	8789.55
786.15132	8312.45
790.02671	8035.85
793.89938	7963.85
797.76935	7987.95
801.6366	8130.65
805.50115	8411.55
809.36299	8774.65
813.22213	8945.85
817.07857	8800.75
820.93231	8458.65
824.78336	8099.95
828.63172	7837.75
832.47738	7680.95
836.32036	7587.45
840.16066	7546.75
843.99827	7496.35
847.8332	7480.05
851.66546	7457.95
855.49504	7451.95
859.32195	7451.65
863.1462	7473.05
866.96777	7571.75
870.78668	7689.95
874.60293	7891.65
878.41652	8124.95
882.22745	8345.35
886.03573	8497.25
889.84136	8479.25
893.64433	8274.15
897.44466	7992.85
901.24235	7685.75
905.0374	7442.35
908.8298	7284.35
912.61957	7189.75
916.40671	7164.45
920.19121	7122.45
923.97308	7138.35
927.75233	7132.65
931.52895	7144.55
935.30295	7105.05
939.07433	7060.45
942.84309	6988.15
946.60924	6955.05
950.37278	6933.05
954.13371	6923.95
957.89203	6874.65
961.64774	6868.45
965.40086	6832.95
969.15137	6807.05
972.89929	6780.85
976.64461	6761.75
980.38733	6737.25
984.12747	6757.25
987.86502	6748.95
991.59999	6792.45
995.33237	6865.25
999.06217	6987.45
1002.78939	7120.55
1006.51404	7293.45
1010.23611	7423.55
1013.95561	7554.65
1017.67255	7568.85
1021.38692	7532.75
1025.09872	7386.45
1028.80796	7228.25
1032.51465	7111.45
1036.21877	7021.05
1039.92035	6955.35
1043.61937	6926.75
1047.31584	6916.05
1051.00976	6880.35
1054.70114	6923.65
1058.38998	6957.05
1062.07627	7027.35
1065.76003	7117.85
1069.44126	7154.05
1073.11995	7200.35
1076.79611	7224.35
1080.46974	7208.95
1084.14085	7170.25
1087.80943	7136.35
1091.47549	7093.25
1095.13903	7009.45
1098.80005	6913.05
1102.45857	6854.35
1106.11456	6839.75
1109.76805	6903.15
1113.41903	7020.25
1117.06751	7251.35
1120.71348	7590.85
1124.35696	8088.75
1127.99793	8682.65
1131.63641	9215.75
1135.2724	9442.15
1138.90589	9432.35
1142.5369	9142.85
1146.16542	8684.75
1149.79145	8155.45
1153.415	7710.35
1157.03607	7372.75
1160.65467	7186.25
1164.27079	7183.15
1167.88443	7236.65
1171.49561	7453.35
1175.10432	7789.65
1178.71056	8298.15
1182.31434	8776.95
1185.91565	9023.95
1189.51451	9040.75
1193.11091	9039.05
1196.70485	9075.65
1200.29634	9171.75
1203.88538	9192.35
1207.47197	9019.45
1211.05612	8679.35
1214.63782	8289.55
1218.21708	7943.25
1221.79391	7642.95
1225.36829	7431.85
1228.94024	7276.75
1232.50976	7174.05
1236.07685	7101.15
1239.6415	7103.25
1243.20374	7122.55
1246.76355	7141.65
1250.32093	7229.05
1253.8759	7294.25
1257.42845	7354.05
1260.97859	7428.95
1264.52631	7517.45
1268.07163	7580.65
1271.61453	7628.65
1275.15503	7675.05
1278.69312	7682.05
1282.22882	7684.95
1285.76211	7776.75
1289.29301	7890.55
1292.82151	8082.65
1296.34761	8293.85
1299.87133	8608.25
1303.39266	9045.25
1306.9116	9622.45
1310.42815	10251.25
1313.94233	10646.55
1317.45412	10567.85
1320.96354	10242.75
1324.47058	9893.55
1327.97525	9607.45
1331.47754	9462.35
1334.97747	9485.75
1338.47502	9571.95
1341.97022	9699.15
1345.46305	9924.95
1348.95352	10208.25
1352.44163	10552.65
1355.92738	11089.15
1359.41078	11879.35
1362.89183	12625.35
1366.37053	12446.45
1369.84688	11318.45
1373.32088	10146.55
1376.79254	9402.95
1380.26186	8982.95
1383.72883	8784.85
1387.19347	8602.75
1390.65578	8439.75
1394.11575	8318.95
1397.57339	8284.15
1401.0287	8241.45
1404.48168	8238.25
1407.93234	8171.45
1411.38068	8037.35
1414.82669	7860.75
1418.27039	7605.85
1421.71177	7359.65
1425.15083	7140.25
1428.58758	7008.65
1432.02203	6944.15
1435.45416	6956.05
1438.88399	6969.55
1442.31151	6974.85
1445.73673	7000.65
1449.15965	7043.95
1452.58027	7067.15
1455.9986	7043.75
1459.41463	7052.55
1462.82837	7103.55
1466.23982	7160.35
1469.64898	7282.05
1473.05586	7326.55
1476.46045	7345.45
1479.86276	7362.75
1483.26279	7394.05
1486.66054	7493.05
1490.05602	7574.85
1493.44922	7713.95
1496.84016	7957.15
1500.22882	8341.45
1503.61521	8880.45
1506.99934	9563.15
1510.38121	10153.05
1513.76081	10289.55
1517.13816	9843.35
1520.51324	9079.25
1523.88607	8372.15
1527.25665	7959.75
1530.62498	7764.15
1533.99105	7702.25
1537.35488	7708.55
1540.71647	7743.35
1544.07581	7750.75
1547.4329	7780.35
1550.78776	7834.95
1554.14038	7829.45
1557.49077	7857.35
1560.83892	7908.35
1564.18484	7988.75
1567.52853	8070.25
1570.86999	8163.65
1574.20922	8243.05
1577.54624	8272.55
1580.88103	8166.35
1584.2136	7987.55
1587.54395	7902.35
1590.87208	7950.05
1594.19801	8151.05
1597.52172	8442.85
1600.84321	8623.05
1604.16251	8557.05
1607.47959	8320.15
1610.79447	8060.95
1614.10715	7779.65
1617.41763	7568.85
1620.7259	7418.75
1624.03199	7376.65
1627.33587	7360.55
1630.63757	7449.45
1633.93707	7611.75
1637.23439	7891.35
1640.52951	8322.15
1643.82246	8928.05
1647.11321	9548.15
1650.40179	10019.45
1653.68819	9873.15
1656.97241	9132.25
1660.25446	8327.85
1663.53433	7715.05
1666.81203	7299.65
1670.08756	7024.45
1673.36092	6824.55
1676.63211	6687.65
1679.90115	6587.65
1683.16801	6487.15
1686.43272	6395.55
1689.69527	6292.25
1692.95567	6195.95
1696.2139	6116.95
1699.46999	5999.25
1702.72392	5867.85
1705.97571	5736.95
1709.22535	5610.05
1712.47284	5544.45
1715.71819	5451.55
1718.96139	5395.15
1722.20246	5340.25
1725.44139	5271.85
1728.67818	5221.25
1731.91284	5170.75
1735.14537	5100.95
1738.37576	5071.25
1741.60403	5054.05
1744.83017	5050.05
1748.05418	5019.45
1751.27607	5006.15
1754.49584	4967.85
1757.71349	4976.35
1760.92903	4950.05
1764.14244	4930.85
1767.35375	4915.45
1770.56294	4879.35
1773.77002	4869.65
1776.97499	4823.55
1780.17785	4781.85
1783.37861	4761.35
1786.57727	4748.25
1789.77382	4714.75
1792.96828	4694.15
1796.16064	4665.35
1799.3509	4645.35
1802.53907	4630.15
1805.72514	4617.15
1808.90913	4604.45
1812.09102	4588.85
1815.27083	4580.85
1818.44856	4562.95
1821.6242	4548.65
1824.79776	4539.95
1827.96924	4534.45
1831.13864	4510.65
1834.30597	4528.45
1837.47122	4510.35
1840.6344	4491.05
1843.7955	4498.85
1846.95454	4484.35
1850.11151	4472.15
1853.26642	4468.55
1856.41926	4474.15
1859.57004	4444.95
1862.71876	4464.15
1865.86542	4449.85
1869.01003	4428.75
1872.15258	4417.45
1875.29308	4418.75
1878.43152	4417.95
1881.56792	4402.65
1884.70227	4395.65
1887.83457	4386.85
1890.96482	4387.25
1894.09304	4367.35
1897.21921	4354.45
1900.34335	4347.15
1903.46544	4334.55
1906.58551	4344.35
1909.70353	4332.85
1912.81953	4334.95
1915.93349	4317.65
1919.04543	4314.75
1922.15534	4302.35
1925.26322	4292.85
1928.36908	4291.65
1931.47292	4277.35
1934.57473	4266.75
1937.67453	4250.25
1940.77232	4235.85
1943.86808	4222.75
1946.96184	4205.45
1950.05358	4188.05
1953.14331	4167.85
1956.23103	4159.15
1959.31675	4155.75
1962.40046	4135.35
1965.48217	4139.95
1968.56188	4107.85
1971.63959	4092.65
1974.7153	4082.35
1977.78901	4072.25
1980.86073	4063.35
1983.93046	4034.55
1986.99819	4030.65
1990.06394	4024.35
1993.1277	3990.65
1996.18947	3980.45
1999.24925	3979.85
2002.30706	3969.55
2005.36288	3959.05
2008.41672	3923.85
2011.46859	3930.35
2014.51848	3908.55
2017.56639	3884.35
2020.61233	3871.25
2023.6563	3872.15
2026.6983	3854.25
2029.73833	3836.85
2032.7764	3844.85
2035.8125	3832.75
2038.84664	3816.55
2041.87881	3818.75
2044.90903	3811.05
2047.93729	3801.65
2050.96359	3785.25
2053.98794	3801.45
2057.01034	3779.55
2060.03078	3792.25
2063.04927	3778.35
2066.06582	3776.35
2069.08042	3772.45
2072.09307	3754.85
2075.10378	3752.85
2078.11255	3751.85
2081.11938	3745.75
2084.12426	3751.45
2087.12722	3736.35
2090.12824	3745.75
2093.12732	3752.35
2096.12447	3733.95
2099.11969	3739.15
2102.11299	3739.25
2105.10435	3731.75
2108.09379	3726.05
2111.08131	3743.35
2114.0669	3742.65
2117.05057	3737.55
2120.03233	3736.25
2123.01216	3747.35
2125.99008	3744.85
2128.96609	3742.75
2131.94018	3735.75
2134.91236	3741.85
2137.88263	3740.65
2140.851	3753.15
2143.81746	3744.55
2146.78201	3740.25
2149.74466	3743.65
2152.7054	3747.65
2155.66425	3738.15
2158.6212	3729.85
2161.57625	3725.55
2164.52941	3744.75
2167.48067	3725.55
2170.43004	3710.05
2173.37752	3710.45
2176.32311	3717.95
2179.26681	3708.55
2182.20863	3696.75
2185.14856	3700.65
2188.08661	3708.75
2191.02278	3703.15
2193.95707	3690.75
2196.88948	3686.35
2199.82001	3683.35
2202.74867	3662.05
2205.67545	3673.55
2208.60037	3670.15
2211.52341	3651.65
2214.44458	3663.25
2217.36388	3640.55
2220.28132	3626.35
2223.1969	3620.95
2226.11061	3620.15
2229.02246	3598.05
2231.93245	3600.65
2234.84058	3584.05
2237.74686	3597.55
2240.65128	3571.35
2243.55385	3579.25
2246.45456	3557.55
2249.35343	3559.45
2252.25044	3545.75
2255.14561	3537.05
2258.03893	3539.45
2260.93041	3538.45
2263.82004	3527.15
2266.70783	3532.35
2269.59378	3516.55
2272.4779	3502.55
2275.36017	3484.55
2278.24061	3488.85
2281.11922	3477.25
2283.996	3464.75
2286.87094	3461.25
2289.74405	3448.45
2292.61534	3443.05
2295.4848	3429.15
2298.35243	3444.85
2301.21824	3436.85
2304.08223	3465.75
2306.94439	3483.35
2309.80474	3432.35
2312.66327	3420.05
2315.51999	3409.95
2318.37489	3398.25
2321.22797	3395.95
2324.07925	3397.85
2326.92871	3397.65
2329.77637	3374.45
2332.62222	3373.85
2335.46626	3376.45
2338.3085	3359.95
2341.14893	3362.05
2343.98756	3356.95
2346.8244	3349.35
2349.65943	3352.15
2352.49267	3354.95
2355.32411	3346.55
2358.15376	3357.05
2360.98161	3329.65
2363.80768	3331.35
2366.63195	3333.05
2369.45444	3324.75
2372.27514	3314.65
2375.09405	3320.35
2377.91118	3305.05
2380.72652	3306.05
2383.54009	3291.05
2386.35187	3303.45
2389.16188	3296.55
2391.97011	3285.15
2394.77657	3269.05
2397.58125	3250.65
2400.38416	3263.95
2403.18529	3252.55
2405.98466	3233.85
2408.78226	3230.75
2411.57809	3238.55
2414.37216	3218.45
2417.16446	3213.45
2419.955	3208.35
2422.74378	3208.05
2425.5308	3189.95
2428.31606	3191.55
2431.09956	3174.95
2433.88131	3179.75
2436.6613	3193.75
2439.43954	3173.25
2442.21603	3166.85
2444.99077	3155.55
2447.76377	3155.05
2450.53501	3155.75
2453.30451	3162.65
2456.07226	3150.55
2458.83827	3146.65
2461.60254	3145.45
2464.36507	3132.15
2467.12586	3127.45
2469.88492	3124.85
2472.64224	3127.85
2475.39782	3136.65
2478.15167	3128.15
2480.90379	3121.65
2483.65417	3119.25
2486.40283	3113.75
2489.14976	3116.65
2491.89497	3105.65
2494.63845	3109.15
2497.3802	3112.15
2500.12024	3109.85
2502.85855	3104.95
2505.59514	3087.45
2508.33002	3092.85
2511.06318	3086.45
2513.79462	3085.65
2516.52435	3070.65
2519.25237	3059.85
2521.97867	3073.05
2524.70327	3055.15
2527.42616	3051.15
2530.14734	3042.85
2532.86681	3026.05
2535.58458	3032.25
2538.30065	3020.15
2541.01501	3020.25
2543.72768	3025.55
2546.43864	2999.55
2549.14791	3016.55
2551.85548	3000.55
2554.56136	2992.35
2557.26554	2989.55
2559.96803	2980.65
2562.66883	2976.25
2565.36794	2974.25
2568.06536	2962.95
2570.7611	2951.45
2573.45514	2955.35
2576.14751	2944.95
2578.83819	2935.65
2581.52719	2931.35
2584.21451	2933.75
2586.90015	2930.05
2589.58411	2917.05
2592.2664	2925.75
2594.94701	2904.25
2597.62594	2906.85
2600.30321	2885.95
2602.9788	2888.35
2605.65273	2886.55
2608.32498	2883.75
2610.99557	2881.45
2613.66449	2883.35
2616.33175	2879.65
2618.99734	2881.45
2621.66128	2864.85
2624.32355	2853.55
2626.98416	2856.05
2629.64311	2855.25
2632.30041	2845.75
2634.95605	2847.45
2637.61004	2843.65
2640.26238	2842.05
2642.91306	2834.15
2645.56209	2825.35
2648.20948	2809.25
2650.85521	2819.45
2653.4993	2817.25
2656.14175	2818.15
2658.78255	2816.65
2661.42171	2816.65
2664.05923	2810.55
2666.6951	2819.75
2669.32934	2819.75
2671.96194	2803.35
2674.59291	2811.05
2677.22224	2799.45
2679.84993	2814.05
2682.476	2822.75
2685.10043	2811.15
2687.72324	2801.45
2690.34441	2807.25
2692.96396	2811.35
2695.58188	2800.35
2698.19818	2800.95
2700.81285	2800.35
2703.4259	2822.35
2706.03733	2831.45
2708.64714	2836.35
2711.25533	2816.35
2713.86191	2817.75
2716.46687	2813.65
2719.07021	2812.75
2721.67194	2814.15
2724.27206	2805.75
2726.87057	2811.45
2729.46747	2803.25
2732.06276	2816.45
2734.65644	2815.35
2737.24852	2795.85
2739.83899	2805.65
2742.42786	2786.45
2745.01513	2781.55
2747.60079	2787.55
2750.18486	2784.45
2752.76733	2778.25
2755.3482	2775.75
2757.92747	2778.55
2760.50515	2779.25
2763.08123	2762.45
2765.65573	2752.55
2768.22863	2761.35
2770.79994	2755.55
2773.36967	2753.65
2775.9378	2744.05
2778.50435	2733.95
2781.06932	2733.15
2783.6327	2741.95
2786.1945	2745.15
2788.75471	2739.75
2791.31335	2722.75
2793.87041	2708.35
2796.42589	2707.85
2798.97979	2701.95
2801.53212	2712.25
2804.08288	2693.25
2806.63206	2693.15
2809.17967	2684.25
2811.72571	2670.65
2814.27018	2685.85
2816.81308	2679.65
2819.35442	2678.35
2821.89419	2651.35
2824.43239	2672.55
2826.96904	2670.15
2829.50412	2665.65
2832.03763	2667.75
2834.56959	2654.85
2837.1	2665.05
2839.62884	2667.95
2842.15613	2648.65
2844.68186	2677.05
2847.20604	2652.65
2849.72867	2674.15
2852.24974	2668.35
2854.76927	2673.05
2857.28724	2668.45
2859.80367	2647.95
2862.31855	2668.05
2864.83189	2650.45
2867.34368	2652.05
2869.85393	2655.25
2872.36264	2645.05
2874.8698	2654.95
2877.37543	2658.35
2879.87952	2662.85
2882.38207	2652.15
2884.88308	2653.45
2887.38256	2642.35
2889.88051	2662.15
2892.37692	2664.75
2894.8718	2655.95
2897.36515	2657.75
2899.85698	2664.65
2902.34727	2681.75
2904.83604	2673.25
2907.32328	2673.15
2909.809	2662.75
2912.29319	2681.65
2914.77587	2677.45
2917.25702	2663.65
2919.73665	2665.45
2922.21476	2665.45
2924.69136	2667.95
2927.16644	2671.65
2929.64	2663.65
2932.11205	2669.85
2934.58258	2662.85
2937.05161	2660.35
2939.51912	2656.55
2941.98513	2668.95
2944.44962	2658.25
2946.91261	2650.25
2949.37409	2638.15
2951.83407	2644.05
2954.29254	2647.85
2956.74951	2646.75
2959.20498	2639.55
2961.65895	2638.25
2964.11142	2624.15
2966.56239	2627.75
2969.01186	2622.15
2971.45984	2608.05
2973.90632	2617.25
2976.35131	2594.75
2978.7948	2599.65
2981.23681	2589.25
2983.67732	2589.85
2986.11635	2590.25
2988.55388	2572.65
2990.98993	2569.45
2993.4245	2566.45
2995.85758	2576.75
2998.28917	2570.35
3000.71928	2567.25
3003.14791	2573.95
3005.57506	2562.25
3008.00073	2564.35
3010.42493	2568.85
3012.84764	2564.95
3015.26888	2568.45
3017.68865	2558.55
3020.10694	2564.65
3022.52376	2553.15
3024.9391	2551.25
3027.35298	2548.45
3029.76539	2556.65
3032.17632	2551.05
3034.5858	2540.45
3036.9938	2548.15
3039.40034	2549.85
3041.80542	2541.15
3044.20903	2536.35
3046.61118	2548.65
3049.01187	2541.25
3051.4111	2539.65
3053.80888	2541.45
3056.20519	2547.35
3058.60005	2534.75
3060.99345	2548.75
3063.3854	2524.05
3065.7759	2531.35
3068.16494	2528.65
3070.55254	2539.75
3072.93868	2535.45
3075.32338	2531.65
3077.70662	2530.65
3080.08842	2532.95
3082.46878	2538.45
3084.84769	2538.05
3087.22515	2552.05
3089.60118	2552.55
3091.97576	2555.35
3094.3489	2556.25
3096.72061	2563.35
3099.09087	2557.65
3101.4597	2574.75
3103.82709	2571.55
3106.19305	2577.35
3108.55757	2568.35
3110.92066	2568.15
3113.28232	2577.05
3115.64255	2571.85
3118.00134	2573.65
3120.35871	2575.55
3122.71466	2579.95
3125.06917	2574.05
3127.42226	2582.95
3129.77393	2587.75
3132.12417	2604.05
3134.47299	2597.85
3136.82039	2610.05
3139.16636	2616.45
3141.51092	2632.45
3143.85406	2641.05
3146.19579	2639.75
3148.53609	2636.55
3150.87499	2660.15
3153.21246	2674.25
3155.54853	2684.85
3157.88318	2683.25
3160.21642	2686.75
3162.54826	2690.35
3164.87868	2695.25
3167.2077	2706.85
3169.5353	2709.25
3171.86151	2717.45
3174.18631	2718.15
3176.5097	2719.95
3178.83169	2720.65
3181.15228	2727.55
3183.47147	2734.25
3185.78926	2732.65
3188.10565	2738.85
3190.42065	2740.65
3192.73424	2742.25
3195.04645	2750.55
3197.35725	2749.35
3199.66667	2759.95
3201.97469	2778.65
3204.28132	2780.35
3206.58656	2792.55
3208.8904	2792.45
3211.19287	2806.85
3213.49394	2811.65
3215.79363	2804.65
3218.09193	2820.45
3220.38884	2823.95
3222.68438	2825.75
3224.97853	2827.65
3227.2713	2815.55
3229.56269	2812.65
3231.8527	2819.95
3234.14133	2815.15
3236.42858	2815.25
3238.71446	2804.55
3240.99896	2816.35
3243.28209	2825.65
3245.56384	2814.85
3247.84423	2807.65
3250.12324	2805.65
3252.40088	2817.15
3254.67715	2819.55
3256.95205	2814.85
3259.22558	2837.45
3261.49775	2804.85
3263.76855	2809.05
3266.03799	2807.95
3268.30606	2807.85
3270.57277	2798.05
3272.83812	2789.15
3275.10211	2785.35
3277.36474	2782.05
3279.62601	2781.95
3281.88593	2798.85
3284.14448	2797.85
3286.40168	2778.75
3288.65753	2786.35
3290.91202	2784.05
3293.16516	2770.55
3295.41695	2756.95
3297.66738	2747.35
3299.91647	2735.65
3302.16421	2711.25
3304.4106	2698.25
3306.65564	2702.75
3308.89933	2701.95
3311.14169	2678.45
3313.38269	2643.85
3315.62236	2645.85
3317.86068	2604.65
3320.09766	2589.25
3322.3333	2568.45
3324.5676	2579.15
3326.80056	2532.45
3329.03219	2521.65
3331.26248	-0.05
3333.49143	0.25
3335.71905	0.25
