Data from AgNPs_FTO_APTES_UA_0.1mM_CRN_0uM_NaF_0.1M_Addition_RamanShift__4__10-07-17-451.txt Node

Date: Mon Dec 20 10:07:17 GMT 2021
User: TCL
Spectrometer: QEP01345
Trigger mode: 4
Integration Time (sec): 7.000000E0
Scans to average: 10
Electric dark correction enabled: true
Nonlinearity correction enabled: false
Boxcar width: 0
XAxis mode: Raman Shifts
Number of Pixels in Spectrum: 1044
>>>>>Begin Spectral Data<<<<<
46.04893	0.35
50.45542	0.25
54.85868	-0.95
59.25871	0.25
63.6555	20.75
68.04907	20.85
72.43941	28.85
76.82654	24.35
81.21044	25.45
85.59113	33.15
89.96862	29.75
94.34289	31.65
98.71396	31.05
103.08183	30.05
107.4465	30.95
111.80798	36.65
116.16626	34.15
120.52136	33.25
124.87327	38.65
129.222	34.35
133.56755	33.85
137.90993	38.65
142.24913	38.15
146.58517	31.55
150.91804	41.05
155.24774	44.15
159.57429	50.85
163.89768	60.95
168.21792	76.45
172.53501	87.95
176.84895	118.35
181.15975	158.25
185.46741	208.45
189.77193	290.05
194.07331	383.35
198.37157	500.55
202.6667	622.65
206.9587	749.75
211.24758	869.45
215.53334	1008.65
219.81599	1148.85
224.09553	1301.65
228.37195	1462.75
232.64527	1639.75
236.91549	1831.05
241.18261	1994.05
245.44663	2154.85
249.70755	2294.25
253.96539	2385.85
258.22014	2461.55
262.4718	2502.15
266.72039	2522.95
270.96589	2498.35
275.20832	2467.05
279.44768	2413.65
283.68397	2325.95
287.91719	2245.95
292.14735	2172.45
296.37445	2115.15
300.59849	2070.95
304.81948	2012.75
309.03742	1978.55
313.25231	1929.45
317.46415	1898.95
321.67296	1859.85
325.87872	1829.15
330.08145	1805.45
334.28114	1796.45
338.47781	1804.55
342.67145	1798.65
346.86207	1793.55
351.04966	1818.25
355.23424	1827.15
359.4158	1836.55
363.59435	1845.05
367.76989	1847.85
371.94243	1856.45
376.11196	1842.55
380.27849	1850.85
384.44203	1861.05
388.60257	1870.55
392.76012	1870.45
396.91468	1880.15
401.06626	1885.05
405.21485	1889.25
409.36047	1885.95
413.50311	1881.35
417.64277	1854.25
421.77947	1857.65
425.9132	1851.05
430.04396	1857.65
434.17176	1868.95
438.2966	1895.75
442.41849	1902.95
446.53742	1922.35
450.6534	1919.45
454.76644	1947.75
458.87653	1963.15
462.98368	1963.55
467.08789	1961.65
471.18916	1969.05
475.2875	1974.05
479.38291	1969.65
483.4754	1976.95
487.56496	1990.35
491.6516	2017.55
495.73531	2049.65
499.81612	2053.55
503.89401	2049.05
507.96899	2028.85
512.04106	2013.05
516.11023	1997.85
520.1765	1992.85
524.23987	1998.75
528.30034	1997.85
532.35792	1986.45
536.41261	1974.65
540.46441	1970.95
544.51333	1948.95
548.55936	1930.45
552.60252	1918.75
556.64279	1933.45
560.6802	1931.55
564.71473	1923.95
568.7464	1930.85
572.7752	1936.25
576.80114	1931.95
580.82422	1927.75
584.84444	1947.65
588.86181	1982.55
592.87633	1997.85
596.888	1979.05
600.89682	1993.05
604.9028	2014.85
608.90594	2106.25
612.90624	2270.25
616.90371	2311.45
620.89834	2192.45
624.89015	2174.85
628.87913	2264.05
632.86528	2372.85
636.84862	2460.55
640.82913	2460.15
644.80683	2391.65
648.78172	2285.65
652.75379	2193.25
656.72306	2152.45
660.68952	2127.65
664.65319	2108.65
668.61405	2102.35
672.57211	2098.55
676.52738	2124.25
680.47986	2153.75
684.42955	2213.95
688.37646	2238.45
692.32058	2210.35
696.26192	2186.55
700.20048	2150.95
704.13626	2125.15
708.06928	2112.35
711.99952	2109.05
715.927	2095.45
719.85171	2094.35
723.77365	2097.05
727.69284	2097.65
731.60928	2095.25
735.52295	2072.15
739.43388	2046.15
743.34206	2043.55
747.24749	2036.15
751.15017	2014.25
755.05012	2028.75
758.94733	2043.35
762.8418	2071.85
766.73354	2123.75
770.62254	2189.95
774.50882	2232.75
778.39237	2223.95
782.27321	2162.35
786.15132	2108.35
790.02671	2082.05
793.89938	2110.15
797.76935	2137.85
801.6366	2183.65
805.50115	2229.05
809.36299	2277.45
813.22213	2300.65
817.07857	2264.65
820.93231	2202.95
824.78336	2143.75
828.63172	2071.75
832.47738	2042.85
836.32036	2013.65
840.16066	2015.75
843.99827	2009.85
847.8332	1996.75
851.66546	1978.35
855.49504	1962.65
859.32195	1957.75
863.1462	1953.75
866.96777	1955.15
870.78668	1955.55
874.60293	1987.25
878.41652	2017.85
882.22745	2068.75
886.03573	2107.05
889.84136	2155.65
893.64433	2183.35
897.44466	2177.25
901.24235	2158.45
905.0374	2121.05
908.8298	2120.95
912.61957	2167.95
916.40671	2224.55
920.19121	2301.65
923.97308	2383.55
927.75233	2418.75
931.52895	2434.75
935.30295	2406.85
939.07433	2351.85
942.84309	2308.85
946.60924	2263.35
950.37278	2242.15
954.13371	2221.25
957.89203	2173.45
961.64774	2142.25
965.40086	2105.75
969.15137	2059.25
972.89929	2030.95
976.64461	2011.45
980.38733	1986.95
984.12747	1974.65
987.86502	1969.75
991.59999	1973.85
995.33237	1994.85
999.06217	2009.15
1002.78939	2044.55
1006.51404	2075.05
1010.23611	2129.25
1013.95561	2177.05
1017.67255	2219.35
1021.38692	2236.55
1025.09872	2240.55
1028.80796	2224.05
1032.51465	2176.45
1036.21877	2135.75
1039.92035	2084.45
1043.61937	2056.75
1047.31584	2009.35
1051.00976	1984.35
1054.70114	1958.85
1058.38998	1970.35
1062.07627	1972.15
1065.76003	1964.35
1069.44126	1963.65
1073.11995	1967.05
1076.79611	1980.75
1080.46974	1969.55
1084.14085	1961.15
1087.80943	1948.65
1091.47549	1908.95
1095.13903	1901.05
1098.80005	1888.35
1102.45857	1883.65
1106.11456	1877.15
1109.76805	1878.55
1113.41903	1921.65
1117.06751	1983.25
1120.71348	2092.45
1124.35696	2219.05
1127.99793	2359.55
1131.63641	2467.25
1135.2724	2510.15
1138.90589	2471.35
1142.5369	2386.65
1146.16542	2275.35
1149.79145	2169.95
1153.415	2044.05
1157.03607	1976.65
1160.65467	1944.45
1164.27079	1912.25
1167.88443	1911.65
1171.49561	1917.35
1175.10432	1952.25
1178.71056	2026.85
1182.31434	2080.15
1185.91565	2087.15
1189.51451	2105.05
1193.11091	2109.55
1196.70485	2110.85
1200.29634	2131.15
1203.88538	2138.35
1207.47197	2110.65
1211.05612	2074.25
1214.63782	2045.45
1218.21708	2002.55
1221.79391	1972.55
1225.36829	1958.65
1228.94024	1947.35
1232.50976	1956.95
1236.07685	1948.35
1239.6415	1982.45
1243.20374	1982.65
1246.76355	1998.55
1250.32093	2026.35
1253.8759	2046.15
1257.42845	2075.45
1260.97859	2106.85
1264.52631	2136.55
1268.07163	2151.55
1271.61453	2168.05
1275.15503	2190.65
1278.69312	2188.45
1282.22882	2206.85
1285.76211	2238.25
1289.29301	2280.45
1292.82151	2324.55
1296.34761	2374.05
1299.87133	2435.85
1303.39266	2489.05
1306.9116	2552.25
1310.42815	2616.45
1313.94233	2665.95
1317.45412	2636.35
1320.96354	2589.25
1324.47058	2551.35
1327.97525	2511.75
1331.47754	2492.55
1334.97747	2507.25
1338.47502	2541.05
1341.97022	2606.05
1345.46305	2703.15
1348.95352	2830.35
1352.44163	2953.85
1355.92738	3128.35
1359.41078	3292.75
1362.89183	3461.15
1366.37053	3516.65
1369.84688	3432.25
1373.32088	3298.65
1376.79254	3178.95
1380.26186	3120.05
1383.72883	3090.55
1387.19347	3049.55
1390.65578	3038.15
1394.11575	3019.65
1397.57339	2997.15
1401.0287	2965.75
1404.48168	2929.85
1407.93234	2874.75
1411.38068	2842.75
1414.82669	2805.95
1418.27039	2766.15
1421.71177	2714.15
1425.15083	2640.65
1428.58758	2578.15
1432.02203	2503.55
1435.45416	2440.75
1438.88399	2385.55
1442.31151	2347.25
1445.73673	2313.05
1449.15965	2285.45
1452.58027	2257.15
1455.9986	2230.05
1459.41463	2226.15
1462.82837	2222.55
1466.23982	2230.65
1469.64898	2254.15
1473.05586	2266.85
1476.46045	2281.05
1479.86276	2289.05
1483.26279	2299.15
1486.66054	2327.15
1490.05602	2335.45
1493.44922	2345.65
1496.84016	2380.45
1500.22882	2407.45
1503.61521	2500.35
1506.99934	2585.25
1510.38121	2651.65
1513.76081	2667.65
1517.13816	2626.95
1520.51324	2505.55
1523.88607	2406.35
1527.25665	2330.05
1530.62498	2292.45
1533.99105	2275.35
1537.35488	2257.55
1540.71647	2260.65
1544.07581	2272.55
1547.4329	2263.85
1550.78776	2276.35
1554.14038	2279.65
1557.49077	2285.45
1560.83892	2278.15
1564.18484	2266.85
1567.52853	2263.85
1570.86999	2263.65
1574.20922	2250.15
1577.54624	2219.75
1580.88103	2172.95
1584.2136	2117.55
1587.54395	2067.95
1590.87208	2044.05
1594.19801	2023.75
1597.52172	2030.95
1600.84321	2029.05
1604.16251	2004.95
1607.47959	1991.75
1610.79447	1998.75
1614.10715	1977.55
1617.41763	1965.95
1620.7259	1964.85
1624.03199	1954.95
1627.33587	1957.55
1630.63757	1956.05
1633.93707	1962.55
1637.23439	1962.45
1640.52951	1972.15
1643.82246	1993.85
1647.11321	2045.55
1650.40179	2090.15
1653.68819	2086.65
1656.97241	2048.15
1660.25446	1969.95
1663.53433	1915.25
1666.81203	1880.35
1670.08756	1861.35
1673.36092	1850.55
1676.63211	1842.15
1679.90115	1853.45
1683.16801	1839.55
1686.43272	1824.65
1689.69527	1806.95
1692.95567	1787.45
1696.2139	1778.25
1699.46999	1748.45
1702.72392	1716.25
1705.97571	1670.25
1709.22535	1623.35
1712.47284	1577.15
1715.71819	1524.35
1718.96139	1480.95
1722.20246	1443.75
1725.44139	1396.25
1728.67818	1372.95
1731.91284	1338.05
1735.14537	1317.55
1738.37576	1298.25
1741.60403	1278.85
1744.83017	1258.15
1748.05418	1259.45
1751.27607	1229.65
1754.49584	1229.85
1757.71349	1230.95
1760.92903	1215.85
1764.14244	1203.45
1767.35375	1208.15
1770.56294	1197.05
1773.77002	1190.45
1776.97499	1192.35
1780.17785	1184.75
1783.37861	1179.25
1786.57727	1184.15
1789.77382	1182.35
1792.96828	1177.25
1796.16064	1161.15
1799.3509	1159.45
1802.53907	1154.05
1805.72514	1152.15
1808.90913	1136.95
1812.09102	1136.75
1815.27083	1134.25
1818.44856	1134.45
1821.6242	1128.75
1824.79776	1124.85
1827.96924	1118.15
1831.13864	1121.75
1834.30597	1114.05
1837.47122	1115.25
1840.6344	1107.05
1843.7955	1108.25
1846.95454	1103.25
1850.11151	1100.45
1853.26642	1096.55
1856.41926	1105.25
1859.57004	1092.15
1862.71876	1102.35
1865.86542	1094.85
1869.01003	1093.95
1872.15258	1091.15
1875.29308	1091.45
1878.43152	1088.55
1881.56792	1081.75
1884.70227	1079.65
1887.83457	1070.85
1890.96482	1075.95
1894.09304	1085.75
1897.21921	1077.55
1900.34335	1076.85
1903.46544	1073.65
1906.58551	1068.25
1909.70353	1067.15
1912.81953	1064.05
1915.93349	1057.25
1919.04543	1061.25
1922.15534	1058.05
1925.26322	1060.45
1928.36908	1057.75
1931.47292	1052.25
1934.57473	1045.45
1937.67453	1041.85
1940.77232	1033.25
1943.86808	1044.85
1946.96184	1036.05
1950.05358	1024.85
1953.14331	1039.35
1956.23103	1023.05
1959.31675	1016.35
1962.40046	1015.75
1965.48217	1016.65
1968.56188	1013.55
1971.63959	1015.95
1974.7153	1000.55
1977.78901	1004.25
1980.86073	995.45
1983.93046	995.25
1986.99819	986.45
1990.06394	983.75
1993.1277	992.15
1996.18947	978.25
1999.24925	976.45
2002.30706	979.45
2005.36288	965.75
2008.41672	969.65
2011.46859	964.15
2014.51848	959.05
2017.56639	958.15
2020.61233	957.95
2023.6563	957.15
2026.6983	953.75
2029.73833	950.25
2032.7764	953.45
2035.8125	948.85
2038.84664	942.95
2041.87881	953.75
2044.90903	937.15
2047.93729	948.05
2050.96359	942.25
2053.98794	946.45
2057.01034	946.65
2060.03078	951.15
2063.04927	945.55
2066.06582	953.15
2069.08042	956.45
2072.09307	959.05
2075.10378	964.95
2078.11255	965.35
2081.11938	975.45
2084.12426	982.15
2087.12722	984.15
2090.12824	992.05
2093.12732	994.05
2096.12447	1007.25
2099.11969	1007.25
2102.11299	1007.65
2105.10435	1016.05
2108.09379	1012.45
2111.08131	1016.75
2114.0669	1019.45
2117.05057	1007.15
2120.03233	1013.65
2123.01216	1017.95
2125.99008	1011.15
2128.96609	1009.85
2131.94018	1000.95
2134.91236	998.65
2137.88263	999.15
2140.851	999.95
2143.81746	991.95
2146.78201	970.05
2149.74466	977.15
2152.7054	966.05
2155.66425	957.85
2158.6212	951.05
2161.57625	943.35
2164.52941	934.45
2167.48067	931.95
2170.43004	929.75
2173.37752	909.75
2176.32311	924.95
2179.26681	911.95
2182.20863	912.25
2185.14856	909.95
2188.08661	917.85
2191.02278	908.75
2193.95707	905.55
2196.88948	895.35
2199.82001	900.05
2202.74867	902.15
2205.67545	894.85
2208.60037	900.45
2211.52341	891.25
2214.44458	891.75
2217.36388	893.15
2220.28132	887.55
2223.1969	883.85
2226.11061	884.45
2229.02246	875.55
2231.93245	870.15
2234.84058	872.35
2237.74686	869.75
2240.65128	865.85
2243.55385	874.55
2246.45456	862.15
2249.35343	855.15
2252.25044	861.65
2255.14561	859.45
2258.03893	856.25
2260.93041	855.65
2263.82004	849.85
2266.70783	848.55
2269.59378	854.55
2272.4779	844.45
2275.36017	845.35
2278.24061	843.45
2281.11922	836.75
2283.996	835.95
2286.87094	844.15
2289.74405	833.45
2292.61534	829.15
2295.4848	840.55
2298.35243	826.25
2301.21824	827.35
2304.08223	833.85
2306.94439	824.85
2309.80474	825.75
2312.66327	824.75
2315.51999	825.15
2318.37489	824.25
2321.22797	820.45
2324.07925	816.45
2326.92871	819.35
2329.77637	817.55
2332.62222	817.15
2335.46626	810.45
2338.3085	811.35
2341.14893	809.65
2343.98756	806.85
2346.8244	806.85
2349.65943	797.05
2352.49267	798.05
2355.32411	796.95
2358.15376	801.55
2360.98161	804.55
2363.80768	799.65
2366.63195	796.65
2369.45444	793.85
2372.27514	790.75
2375.09405	798.15
2377.91118	797.65
2380.72652	792.85
2383.54009	786.85
2386.35187	791.85
2389.16188	783.85
2391.97011	784.15
2394.77657	781.85
2397.58125	773.25
2400.38416	774.55
2403.18529	779.35
2405.98466	774.05
2408.78226	778.45
2411.57809	775.45
2414.37216	763.75
2417.16446	770.45
2419.955	767.05
2422.74378	761.25
2425.5308	763.05
2428.31606	760.45
2431.09956	759.15
2433.88131	755.25
2436.6613	763.95
2439.43954	758.05
2442.21603	757.65
2444.99077	752.85
2447.76377	749.85
2450.53501	753.65
2453.30451	758.75
2456.07226	749.05
2458.83827	744.45
2461.60254	740.65
2464.36507	745.55
2467.12586	745.65
2469.88492	745.75
2472.64224	745.75
2475.39782	745.85
2478.15167	747.95
2480.90379	743.55
2483.65417	739.95
2486.40283	740.95
2489.14976	737.85
2491.89497	743.45
2494.63845	735.45
2497.3802	737.75
2500.12024	730.45
2502.85855	737.45
2505.59514	735.05
2508.33002	732.25
2511.06318	730.45
2513.79462	725.25
2516.52435	724.15
2519.25237	722.75
2521.97867	725.25
2524.70327	716.55
2527.42616	720.35
2530.14734	719.85
2532.86681	713.45
2535.58458	717.75
2538.30065	716.15
2541.01501	709.25
2543.72768	711.95
2546.43864	708.35
2549.14791	704.55
2551.85548	709.85
2554.56136	704.65
2557.26554	704.95
2559.96803	702.95
2562.66883	699.45
2565.36794	700.15
2568.06536	698.25
2570.7611	699.25
2573.45514	699.35
2576.14751	702.15
2578.83819	690.15
2581.52719	697.45
2584.21451	693.05
2586.90015	686.05
2589.58411	687.05
2592.2664	689.25
2594.94701	685.45
2597.62594	690.65
2600.30321	685.95
2602.9788	681.65
2605.65273	680.95
2608.32498	679.35
2610.99557	675.15
2613.66449	677.95
2616.33175	678.05
2618.99734	682.05
2621.66128	672.55
2624.32355	672.55
2626.98416	678.25
2629.64311	676.75
2632.30041	677.05
2634.95605	676.65
2637.61004	671.45
2640.26238	677.05
2642.91306	673.65
2645.56209	666.25
2648.20948	669.75
2650.85521	672.55
2653.4993	665.75
2656.14175	667.15
2658.78255	670.15
2661.42171	675.65
2664.05923	665.85
2666.6951	673.75
2669.32934	673.65
2671.96194	672.95
2674.59291	673.55
2677.22224	674.25
2679.84993	668.65
2682.476	674.45
2685.10043	676.25
2687.72324	674.35
2690.34441	671.55
2692.96396	681.25
2695.58188	683.95
2698.19818	677.55
2700.81285	681.65
2703.4259	684.15
2706.03733	679.85
2708.64714	686.55
2711.25533	684.85
2713.86191	677.05
2716.46687	682.55
2719.07021	679.95
2721.67194	685.15
2724.27206	677.75
2726.87057	685.55
2729.46747	688.55
2732.06276	685.95
2734.65644	684.85
2737.24852	683.65
2739.83899	679.45
2742.42786	678.95
2745.01513	675.25
2747.60079	679.85
2750.18486	680.15
2752.76733	670.45
2755.3482	672.85
2757.92747	671.55
2760.50515	675.85
2763.08123	673.45
2765.65573	667.35
2768.22863	675.35
2770.79994	664.95
2773.36967	667.25
2775.9378	665.55
2778.50435	658.15
2781.06932	671.75
2783.6327	671.85
2786.1945	660.15
2788.75471	659.25
2791.31335	657.15
2793.87041	655.55
2796.42589	659.45
2798.97979	652.55
2801.53212	644.65
2804.08288	653.55
2806.63206	651.95
2809.17967	644.75
2811.72571	645.95
2814.27018	649.95
2816.81308	644.65
2819.35442	640.85
2821.89419	639.25
2824.43239	644.25
2826.96904	645.65
2829.50412	642.35
2832.03763	641.65
2834.56959	638.05
2837.1	638.85
2839.62884	643.85
2842.15613	637.85
2844.68186	643.65
2847.20604	642.45
2849.72867	650.25
2852.24974	640.75
2854.76927	650.05
2857.28724	640.65
2859.80367	644.55
2862.31855	643.05
2864.83189	648.25
2867.34368	645.35
2869.85393	645.65
2872.36264	648.55
2874.8698	656.65
2877.37543	656.35
2879.87952	651.85
2882.38207	659.45
2884.88308	662.45
2887.38256	665.35
2889.88051	671.15
2892.37692	673.85
2894.8718	685.05
2897.36515	680.75
2899.85698	686.85
2902.34727	697.15
2904.83604	704.65
2907.32328	710.25
2909.809	711.15
2912.29319	719.45
2914.77587	730.85
2917.25702	736.65
2919.73665	743.45
2922.21476	749.05
2924.69136	757.75
2927.16644	762.35
2929.64	770.65
2932.11205	768.95
2934.58258	777.95
2937.05161	770.55
2939.51912	767.25
2941.98513	760.45
2944.44962	763.05
2946.91261	754.75
2949.37409	753.35
2951.83407	743.45
2954.29254	725.95
2956.74951	726.25
2959.20498	724.85
2961.65895	704.85
2964.11142	699.35
2966.56239	692.55
2969.01186	693.15
2971.45984	678.55
2973.90632	676.75
2976.35131	677.15
2978.7948	680.95
2981.23681	669.25
2983.67732	666.95
2986.11635	667.25
2988.55388	663.55
2990.98993	662.95
2993.4245	661.25
2995.85758	655.55
2998.28917	655.45
3000.71928	652.45
3003.14791	659.15
3005.57506	653.95
3008.00073	659.15
3010.42493	653.15
3012.84764	656.35
3015.26888	655.25
3017.68865	658.95
3020.10694	654.95
3022.52376	658.15
3024.9391	659.15
3027.35298	658.45
3029.76539	653.75
3032.17632	656.55
3034.5858	659.75
3036.9938	664.05
3039.40034	659.35
3041.80542	661.75
3044.20903	655.75
3046.61118	663.55
3049.01187	662.85
3051.4111	664.75
3053.80888	678.45
3056.20519	672.55
3058.60005	671.25
3060.99345	671.15
3063.3854	677.95
3065.7759	674.95
3068.16494	672.35
3070.55254	680.15
3072.93868	682.65
3075.32338	691.55
3077.70662	686.85
3080.08842	697.55
3082.46878	695.65
3084.84769	695.85
3087.22515	703.25
3089.60118	704.45
3091.97576	712.15
3094.3489	719.85
3096.72061	718.55
3099.09087	726.65
3101.4597	729.45
3103.82709	732.95
3106.19305	730.45
3108.55757	739.25
3110.92066	737.55
3113.28232	743.35
3115.64255	743.55
3118.00134	755.35
3120.35871	754.45
3122.71466	758.95
3125.06917	754.35
3127.42226	761.15
3129.77393	769.05
3132.12417	772.75
3134.47299	785.75
3136.82039	786.05
3139.16636	792.35
3141.51092	792.55
3143.85406	803.05
3146.19579	808.45
3148.53609	816.25
3150.87499	819.35
3153.21246	832.65
3155.54853	837.35
3157.88318	844.45
3160.21642	848.45
3162.54826	856.25
3164.87868	860.55
3167.2077	861.95
3169.5353	862.55
3171.86151	874.05
3174.18631	874.25
3176.5097	882.55
3178.83169	881.85
3181.15228	891.35
3183.47147	891.35
3185.78926	899.15
3188.10565	898.15
3190.42065	912.45
3192.73424	917.35
3195.04645	914.65
3197.35725	919.25
3199.66667	922.75
3201.97469	936.05
3204.28132	935.15
3206.58656	942.65
3208.8904	940.65
3211.19287	945.75
3213.49394	954.25
3215.79363	943.25
3218.09193	950.55
3220.38884	958.05
3222.68438	956.75
3224.97853	961.05
3227.2713	962.25
3229.56269	961.35
3231.8527	962.75
3234.14133	959.65
3236.42858	956.75
3238.71446	967.65
3240.99896	963.65
3243.28209	975.45
3245.56384	959.95
3247.84423	968.55
3250.12324	967.05
3252.40088	976.05
3254.67715	972.75
3256.95205	967.35
3259.22558	978.25
3261.49775	973.05
3263.76855	976.45
3266.03799	976.65
3268.30606	966.65
3270.57277	969.15
3272.83812	969.55
3275.10211	963.25
3277.36474	970.25
3279.62601	963.65
3281.88593	968.85
3284.14448	973.15
3286.40168	970.65
3288.65753	961.45
3290.91202	972.05
3293.16516	958.55
3295.41695	956.95
3297.66738	958.15
3299.91647	959.15
3302.16421	947.65
3304.4106	954.25
3306.65564	947.75
3308.89933	940.85
3311.14169	933.35
3313.38269	929.75
3315.62236	926.45
3317.86068	923.15
3320.09766	917.45
3322.3333	910.75
3324.5676	914.15
3326.80056	895.45
3329.03219	888.85
3331.26248	0.15
3333.49143	-0.25
3335.71905	0.45
