Data from AgNPs_FTO_APTES_UA_0.1mM_CRN_50uM_NaF_0.1M_Addition_RamanShift__16__12-55-17-642.txt Node

Date: Mon Dec 20 12:55:17 GMT 2021
User: TCL
Spectrometer: QEP01345
Trigger mode: 4
Integration Time (sec): 7.000000E0
Scans to average: 10
Electric dark correction enabled: true
Nonlinearity correction enabled: false
Boxcar width: 0
XAxis mode: Raman Shifts
Number of Pixels in Spectrum: 1044
>>>>>Begin Spectral Data<<<<<
46.04893	0.95
50.45542	-0.85
54.85868	-1.75
59.25871	0.85
63.6555	30.05
68.04907	35.05
72.43941	36.95
76.82654	39.15
81.21044	37.95
85.59113	46.45
89.96862	40.15
94.34289	47.85
98.71396	45.35
103.08183	45.85
107.4465	48.05
111.80798	48.95
116.16626	50.45
120.52136	49.35
124.87327	52.95
129.222	54.15
133.56755	57.05
137.90993	61.95
142.24913	63.25
146.58517	67.45
150.91804	83.25
155.24774	95.85
159.57429	113.35
163.89768	144.95
168.21792	190.15
172.53501	249.55
176.84895	342.55
181.15975	477.35
185.46741	666.45
189.77193	918.05
194.07331	1233.65
198.37157	1598.45
202.6667	2009.45
206.9587	2402.65
211.24758	2786.15
215.53334	3186.55
219.81599	3610.55
224.09553	4049.95
228.37195	4517.05
232.64527	5050.45
236.91549	5565.35
241.18261	6100.95
245.44663	6567.15
249.70755	7002.65
253.96539	7366.75
258.22014	7619.15
262.4718	7819.45
266.72039	7924.85
270.96589	7931.15
275.20832	7863.25
279.44768	7757.05
283.68397	7585.65
287.91719	7448.95
292.14735	7338.85
296.37445	7234.85
300.59849	7237.05
304.81948	7202.15
309.03742	7185.75
313.25231	7124.75
317.46415	7012.35
321.67296	6867.85
325.87872	6774.65
330.08145	6722.75
334.28114	6719.05
338.47781	6764.75
342.67145	6809.85
346.86207	6881.25
351.04966	7016.25
355.23424	7115.65
359.4158	7240.05
363.59435	7349.25
367.76989	7420.65
371.94243	7512.55
376.11196	7561.75
380.27849	7637.35
384.44203	7706.15
388.60257	7755.25
392.76012	7790.95
396.91468	7871.25
401.06626	7943.25
405.21485	8031.15
409.36047	8015.35
413.50311	7947.85
417.64277	7875.55
421.77947	7837.25
425.9132	7840.55
430.04396	7837.75
434.17176	7882.85
438.2966	7912.75
442.41849	7977.35
446.53742	8077.75
450.6534	8148.45
454.76644	8222.35
458.87653	8292.15
462.98368	8295.75
467.08789	8293.85
471.18916	8301.85
475.2875	8296.45
479.38291	8335.95
483.4754	8402.55
487.56496	8443.05
491.6516	8509.95
495.73531	8586.25
499.81612	8602.55
503.89401	8595.75
507.96899	8586.85
512.04106	8511.45
516.11023	8482.75
520.1765	8494.25
524.23987	8486.15
528.30034	8474.05
532.35792	8465.65
536.41261	8416.55
540.46441	8357.95
544.51333	8286.85
548.55936	8276.25
552.60252	8271.05
556.64279	8306.65
560.6802	8353.25
564.71473	8344.15
568.7464	8410.65
572.7752	8483.05
576.80114	8472.15
580.82422	8494.05
584.84444	8544.75
588.86181	8638.85
592.87633	8702.65
596.888	8705.85
600.89682	8694.85
604.9028	8885.25
608.90594	9384.55
612.90624	10103.85
616.90371	10087.15
620.89834	9323.05
624.89015	9067.15
628.87913	9346.05
632.86528	9721.55
636.84862	9983.45
640.82913	10009.65
644.80683	9756.55
648.78172	9433.05
652.75379	9159.15
656.72306	9045.95
660.68952	9020.85
664.65319	8965.75
668.61405	8919.15
672.57211	8939.95
676.52738	9018.65
680.47986	9072.15
684.42955	9070.55
688.37646	9024.75
692.32058	8952.15
696.26192	8870.55
700.20048	8816.95
704.13626	8737.55
708.06928	8666.75
711.99952	8601.55
715.927	8514.85
719.85171	8480.45
723.77365	8477.25
727.69284	8473.25
731.60928	8434.65
735.52295	8383.95
739.43388	8343.35
743.34206	8350.45
747.24749	8383.95
751.15017	8354.55
755.05012	8398.55
758.94733	8483.55
762.8418	8667.45
766.73354	8973.55
770.62254	9271.85
774.50882	9472.35
778.39237	9313.75
782.27321	8955.15
786.15132	8615.35
790.02671	8410.35
793.89938	8322.25
797.76935	8339.85
801.6366	8361.35
805.50115	8457.85
809.36299	8577.65
813.22213	8648.65
817.07857	8578.55
820.93231	8414.65
824.78336	8265.85
828.63172	8145.75
832.47738	8053.55
836.32036	8015.75
840.16066	7985.05
843.99827	7974.15
847.8332	7953.05
851.66546	7938.05
855.49504	7956.25
859.32195	7963.85
863.1462	7996.95
866.96777	8040.45
870.78668	8107.25
874.60293	8170.05
878.41652	8260.35
882.22745	8341.15
886.03573	8400.95
889.84136	8421.35
893.64433	8321.15
897.44466	8206.75
901.24235	8070.85
905.0374	7969.65
908.8298	7865.95
912.61957	7847.95
916.40671	7811.65
920.19121	7818.35
923.97308	7809.05
927.75233	7825.35
931.52895	7795.15
935.30295	7769.85
939.07433	7719.35
942.84309	7678.25
946.60924	7632.75
950.37278	7639.75
954.13371	7607.85
957.89203	7563.45
961.64774	7541.95
965.40086	7535.45
969.15137	7514.35
972.89929	7491.75
976.64461	7470.95
980.38733	7452.35
984.12747	7460.75
987.86502	7470.05
991.59999	7483.85
995.33237	7533.15
999.06217	7607.15
1002.78939	7674.35
1006.51404	7744.45
1010.23611	7812.35
1013.95561	7883.15
1017.67255	7870.35
1021.38692	7845.45
1025.09872	7800.75
1028.80796	7729.65
1032.51465	7695.05
1036.21877	7674.75
1039.92035	7669.65
1043.61937	7667.05
1047.31584	7640.65
1051.00976	7639.85
1054.70114	7622.05
1058.38998	7659.15
1062.07627	7728.85
1065.76003	7777.15
1069.44126	7833.45
1073.11995	7884.55
1076.79611	7931.35
1080.46974	7928.15
1084.14085	7906.15
1087.80943	7885.25
1091.47549	7854.75
1095.13903	7806.35
1098.80005	7750.05
1102.45857	7703.25
1106.11456	7668.35
1109.76805	7700.15
1113.41903	7770.55
1117.06751	7924.45
1120.71348	8153.15
1124.35696	8497.15
1127.99793	8845.05
1131.63641	9180.85
1135.2724	9316.55
1138.90589	9302.45
1142.5369	9112.25
1146.16542	8837.95
1149.79145	8557.45
1153.415	8284.25
1157.03607	8072.55
1160.65467	7965.45
1164.27079	7929.25
1167.88443	7969.45
1171.49561	8118.55
1175.10432	8357.35
1178.71056	8671.05
1182.31434	8985.35
1185.91565	9142.95
1189.51451	9166.75
1193.11091	9104.15
1196.70485	9015.35
1200.29634	8941.45
1203.88538	8877.45
1207.47197	8752.75
1211.05612	8597.55
1214.63782	8447.65
1218.21708	8308.35
1221.79391	8186.85
1225.36829	8093.65
1228.94024	8032.55
1232.50976	7979.95
1236.07685	7922.55
1239.6415	7905.85
1243.20374	7928.15
1246.76355	7973.45
1250.32093	8019.25
1253.8759	8074.85
1257.42845	8139.45
1260.97859	8235.75
1264.52631	8295.65
1268.07163	8378.45
1271.61453	8420.25
1275.15503	8476.45
1278.69312	8520.45
1282.22882	8554.25
1285.76211	8577.75
1289.29301	8662.65
1292.82151	8794.95
1296.34761	8960.75
1299.87133	9174.55
1303.39266	9424.75
1306.9116	9751.55
1310.42815	10143.25
1313.94233	10385.65
1317.45412	10407.25
1320.96354	10270.05
1324.47058	10096.55
1327.97525	9903.55
1331.47754	9758.95
1334.97747	9703.75
1338.47502	9730.25
1341.97022	9829.55
1345.46305	9956.45
1348.95352	10140.55
1352.44163	10385.85
1355.92738	10718.05
1359.41078	11170.55
1362.89183	11626.85
1366.37053	11583.45
1369.84688	10900.95
1373.32088	10125.25
1376.79254	9624.65
1380.26186	9328.25
1383.72883	9166.25
1387.19347	9032.55
1390.65578	8892.85
1394.11575	8767.65
1397.57339	8691.55
1401.0287	8582.45
1404.48168	8526.75
1407.93234	8429.35
1411.38068	8332.45
1414.82669	8213.05
1418.27039	8066.75
1421.71177	7943.55
1425.15083	7809.35
1428.58758	7721.45
1432.02203	7651.55
1435.45416	7651.15
1438.88399	7657.25
1442.31151	7681.25
1445.73673	7693.15
1449.15965	7720.55
1452.58027	7771.85
1455.9986	7767.95
1459.41463	7805.15
1462.82837	7841.95
1466.23982	7927.05
1469.64898	8001.45
1473.05586	8096.75
1476.46045	8101.75
1479.86276	8110.45
1483.26279	8124.25
1486.66054	8127.25
1490.05602	8159.25
1493.44922	8252.55
1496.84016	8431.05
1500.22882	8661.35
1503.61521	9009.35
1506.99934	9432.35
1510.38121	9793.35
1513.76081	9924.05
1517.13816	9690.15
1520.51324	9246.05
1523.88607	8827.05
1527.25665	8550.35
1530.62498	8374.15
1533.99105	8356.75
1537.35488	8332.65
1540.71647	8336.25
1544.07581	8336.85
1547.4329	8360.25
1550.78776	8384.75
1554.14038	8385.55
1557.49077	8433.85
1560.83892	8454.75
1564.18484	8528.85
1567.52853	8597.65
1570.86999	8685.05
1574.20922	8752.95
1577.54624	8739.85
1580.88103	8699.05
1584.2136	8546.75
1587.54395	8466.75
1590.87208	8473.45
1594.19801	8551.75
1597.52172	8730.85
1600.84321	8834.45
1604.16251	8776.25
1607.47959	8562.95
1610.79447	8395.05
1614.10715	8256.65
1617.41763	8065.85
1620.7259	7939.95
1624.03199	7867.35
1627.33587	7877.85
1630.63757	7950.35
1633.93707	8074.05
1637.23439	8281.45
1640.52951	8611.15
1643.82246	9000.95
1647.11321	9424.65
1650.40179	9678.75
1653.68819	9573.95
1656.97241	9183.25
1660.25446	8649.75
1663.53433	8255.25
1666.81203	8032.85
1670.08756	7860.55
1673.36092	7762.25
1676.63211	7686.85
1679.90115	7609.25
1683.16801	7515.45
1686.43272	7400.85
1689.69527	7299.85
1692.95567	7141.35
1696.2139	7027.95
1699.46999	6937.85
1702.72392	6793.25
1705.97571	6732.15
1709.22535	6636.45
1712.47284	6573.55
1715.71819	6512.25
1718.96139	6488.65
1722.20246	6428.35
1725.44139	6360.95
1728.67818	6333.05
1731.91284	6266.65
1735.14537	6202.85
1738.37576	6167.55
1741.60403	6124.25
1744.83017	6091.65
1748.05418	6070.55
1751.27607	6060.95
1754.49584	6050.65
1757.71349	6052.35
1760.92903	6017.25
1764.14244	6008.05
1767.35375	5981.75
1770.56294	5949.65
1773.77002	5934.45
1776.97499	5906.15
1780.17785	5860.75
1783.37861	5845.25
1786.57727	5822.05
1789.77382	5786.95
1792.96828	5754.35
1796.16064	5748.15
1799.3509	5704.55
1802.53907	5722.85
1805.72514	5676.15
1808.90913	5660.05
1812.09102	5645.25
1815.27083	5637.55
1818.44856	5606.45
1821.6242	5601.75
1824.79776	5597.15
1827.96924	5577.55
1831.13864	5575.75
1834.30597	5593.45
1837.47122	5570.85
1840.6344	5553.05
1843.7955	5551.05
1846.95454	5540.15
1850.11151	5537.95
1853.26642	5524.95
1856.41926	5511.85
1859.57004	5533.55
1862.71876	5517.45
1865.86542	5519.75
1869.01003	5487.65
1872.15258	5474.45
1875.29308	5483.35
1878.43152	5451.35
1881.56792	5464.85
1884.70227	5463.05
1887.83457	5427.25
1890.96482	5436.15
1894.09304	5430.15
1897.21921	5410.55
1900.34335	5398.85
1903.46544	5403.75
1906.58551	5396.85
1909.70353	5381.95
1912.81953	5381.55
1915.93349	5373.15
1919.04543	5359.75
1922.15534	5348.75
1925.26322	5331.65
1928.36908	5325.15
1931.47292	5326.75
1934.57473	5301.05
1937.67453	5288.65
1940.77232	5274.45
1943.86808	5265.15
1946.96184	5262.05
1950.05358	5231.65
1953.14331	5214.75
1956.23103	5210.75
1959.31675	5212.25
1962.40046	5175.95
1965.48217	5147.65
1968.56188	5155.35
1971.63959	5118.55
1974.7153	5093.85
1977.78901	5111.85
1980.86073	5074.85
1983.93046	5068.35
1986.99819	5058.15
1990.06394	5021.55
1993.1277	5035.95
1996.18947	5023.45
1999.24925	4996.55
2002.30706	4973.55
2005.36288	4958.95
2008.41672	4945.75
2011.46859	4945.35
2014.51848	4930.95
2017.56639	4900.85
2020.61233	4880.65
2023.6563	4879.05
2026.6983	4861.45
2029.73833	4856.95
2032.7764	4855.45
2035.8125	4839.75
2038.84664	4823.65
2041.87881	4820.35
2044.90903	4803.85
2047.93729	4797.35
2050.96359	4790.75
2053.98794	4787.35
2057.01034	4778.15
2060.03078	4785.15
2063.04927	4756.55
2066.06582	4762.75
2069.08042	4760.25
2072.09307	4757.05
2075.10378	4759.05
2078.11255	4758.35
2081.11938	4754.65
2084.12426	4748.65
2087.12722	4740.25
2090.12824	4744.95
2093.12732	4750.45
2096.12447	4746.95
2099.11969	4746.65
2102.11299	4748.15
2105.10435	4744.25
2108.09379	4729.95
2111.08131	4742.65
2114.0669	4734.85
2117.05057	4764.15
2120.03233	4758.55
2123.01216	4756.45
2125.99008	4781.25
2128.96609	4759.85
2131.94018	4761.15
2134.91236	4766.45
2137.88263	4777.55
2140.851	4783.85
2143.81746	4773.15
2146.78201	4790.85
2149.74466	4783.85
2152.7054	4778.75
2155.66425	4789.45
2158.6212	4772.05
2161.57625	4781.25
2164.52941	4774.05
2167.48067	4763.85
2170.43004	4774.15
2173.37752	4775.75
2176.32311	4754.55
2179.26681	4764.35
2182.20863	4754.75
2185.14856	4746.75
2188.08661	4754.55
2191.02278	4752.05
2193.95707	4751.35
2196.88948	4760.45
2199.82001	4735.25
2202.74867	4740.25
2205.67545	4724.05
2208.60037	4718.15
2211.52341	4724.45
2214.44458	4711.15
2217.36388	4704.15
2220.28132	4687.75
2223.1969	4668.45
2226.11061	4659.45
2229.02246	4657.85
2231.93245	4647.65
2234.84058	4636.95
2237.74686	4622.05
2240.65128	4628.45
2243.55385	4637.05
2246.45456	4599.35
2249.35343	4587.85
2252.25044	4589.15
2255.14561	4583.15
2258.03893	4607.35
2260.93041	4597.55
2263.82004	4570.95
2266.70783	4545.85
2269.59378	4528.85
2272.4779	4533.95
2275.36017	4526.45
2278.24061	4507.65
2281.11922	4511.45
2283.996	4508.65
2286.87094	4488.35
2289.74405	4482.05
2292.61534	4475.35
2295.4848	4457.45
2298.35243	4456.25
2301.21824	4450.65
2304.08223	4462.15
2306.94439	4437.65
2309.80474	4448.05
2312.66327	4445.45
2315.51999	4438.35
2318.37489	4432.05
2321.22797	4427.05
2324.07925	4426.25
2326.92871	4415.05
2329.77637	4416.45
2332.62222	4398.85
2335.46626	4392.15
2338.3085	4402.65
2341.14893	4377.85
2343.98756	4367.55
2346.8244	4377.95
2349.65943	4368.35
2352.49267	4370.35
2355.32411	4364.95
2358.15376	4361.95
2360.98161	4350.45
2363.80768	4339.75
2366.63195	4356.75
2369.45444	4334.45
2372.27514	4327.05
2375.09405	4333.65
2377.91118	4319.85
2380.72652	4316.15
2383.54009	4306.55
2386.35187	4304.35
2389.16188	4285.45
2391.97011	4285.75
2394.77657	4272.85
2397.58125	4251.45
2400.38416	4265.55
2403.18529	4264.05
2405.98466	4256.95
2408.78226	4252.55
2411.57809	4238.15
2414.37216	4222.85
2417.16446	4236.15
2419.955	4225.15
2422.74378	4217.15
2425.5308	4208.55
2428.31606	4215.85
2431.09956	4208.45
2433.88131	4188.05
2436.6613	4198.55
2439.43954	4192.15
2442.21603	4168.75
2444.99077	4173.95
2447.76377	4184.15
2450.53501	4176.95
2453.30451	4161.05
2456.07226	4168.05
2458.83827	4159.45
2461.60254	4157.15
2464.36507	4157.15
2467.12586	4144.45
2469.88492	4144.85
2472.64224	4140.15
2475.39782	4147.95
2478.15167	4147.65
2480.90379	4133.25
2483.65417	4131.55
2486.40283	4132.25
2489.14976	4130.95
2491.89497	4132.85
2494.63845	4144.15
2497.3802	4119.85
2500.12024	4128.15
2502.85855	4099.25
2505.59514	4107.75
2508.33002	4089.25
2511.06318	4097.65
2513.79462	4072.55
2516.52435	4073.25
2519.25237	4079.95
2521.97867	4066.55
2524.70327	4070.75
2527.42616	4055.45
2530.14734	4047.85
2532.86681	4033.95
2535.58458	4042.75
2538.30065	4047.05
2541.01501	4043.75
2543.72768	4024.75
2546.43864	4010.55
2549.14791	4025.25
2551.85548	4011.75
2554.56136	4002.75
2557.26554	4009.05
2559.96803	3988.45
2562.66883	3986.95
2565.36794	3965.45
2568.06536	3966.85
2570.7611	3965.85
2573.45514	3952.05
2576.14751	3956.45
2578.83819	3951.75
2581.52719	3935.15
2584.21451	3932.35
2586.90015	3923.95
2589.58411	3906.15
2592.2664	3908.75
2594.94701	3884.75
2597.62594	3888.05
2600.30321	3879.65
2602.9788	3878.85
2605.65273	3873.25
2608.32498	3872.65
2610.99557	3870.45
2613.66449	3865.15
2616.33175	3848.95
2618.99734	3852.05
2621.66128	3849.45
2624.32355	3825.35
2626.98416	3837.15
2629.64311	3843.95
2632.30041	3837.35
2634.95605	3830.15
2637.61004	3815.85
2640.26238	3816.35
2642.91306	3819.65
2645.56209	3814.35
2648.20948	3799.25
2650.85521	3807.55
2653.4993	3803.45
2656.14175	3800.35
2658.78255	3812.65
2661.42171	3797.85
2664.05923	3794.15
2666.6951	3787.45
2669.32934	3791.95
2671.96194	3792.75
2674.59291	3795.55
2677.22224	3790.55
2679.84993	3791.25
2682.476	3786.45
2685.10043	3788.45
2687.72324	3791.25
2690.34441	3792.05
2692.96396	3788.75
2695.58188	3791.65
2698.19818	3806.55
2700.81285	3797.15
2703.4259	3812.05
2706.03733	3822.85
2708.64714	3831.05
2711.25533	3821.15
2713.86191	3790.25
2716.46687	3799.05
2719.07021	3816.45
2721.67194	3802.35
2724.27206	3787.55
2726.87057	3808.95
2729.46747	3804.15
2732.06276	3801.45
2734.65644	3803.15
2737.24852	3803.45
2739.83899	3782.05
2742.42786	3782.65
2745.01513	3773.85
2747.60079	3776.65
2750.18486	3767.55
2752.76733	3762.55
2755.3482	3756.15
2757.92747	3757.65
2760.50515	3757.85
2763.08123	3753.95
2765.65573	3750.55
2768.22863	3748.05
2770.79994	3752.55
2773.36967	3744.35
2775.9378	3731.55
2778.50435	3735.15
2781.06932	3728.35
2783.6327	3727.35
2786.1945	3719.35
2788.75471	3718.55
2791.31335	3701.35
2793.87041	3704.05
2796.42589	3680.15
2798.97979	3686.75
2801.53212	3672.35
2804.08288	3668.95
2806.63206	3667.05
2809.17967	3651.85
2811.72571	3646.35
2814.27018	3638.15
2816.81308	3635.05
2819.35442	3638.95
2821.89419	3627.55
2824.43239	3634.55
2826.96904	3618.95
2829.50412	3611.05
2832.03763	3624.15
2834.56959	3614.05
2837.1	3612.75
2839.62884	3606.95
2842.15613	3613.25
2844.68186	3606.25
2847.20604	3604.95
2849.72867	3617.65
2852.24974	3623.55
2854.76927	3607.85
2857.28724	3612.55
2859.80367	3598.05
2862.31855	3593.85
2864.83189	3604.55
2867.34368	3588.65
2869.85393	3604.55
2872.36264	3591.45
2874.8698	3595.85
2877.37543	3600.75
2879.87952	3599.85
2882.38207	3587.25
2884.88308	3601.45
2887.38256	3608.75
2889.88051	3603.25
2892.37692	3599.65
2894.8718	3587.95
2897.36515	3612.15
2899.85698	3604.25
2902.34727	3602.65
2904.83604	3605.55
2907.32328	3621.25
2909.809	3624.35
2912.29319	3617.35
2914.77587	3632.45
2917.25702	3641.15
2919.73665	3628.25
2922.21476	3623.85
2924.69136	3616.05
2927.16644	3627.25
2929.64	3635.55
2932.11205	3640.25
2934.58258	3638.75
2937.05161	3633.75
2939.51912	3636.55
2941.98513	3617.85
2944.44962	3627.45
2946.91261	3599.55
2949.37409	3634.65
2951.83407	3635.35
2954.29254	3626.75
2956.74951	3612.05
2959.20498	3623.45
2961.65895	3617.45
2964.11142	3604.05
2966.56239	3586.95
2969.01186	3601.75
2971.45984	3590.45
2973.90632	3570.25
2976.35131	3564.45
2978.7948	3573.25
2981.23681	3547.45
2983.67732	3548.25
2986.11635	3537.65
2988.55388	3534.15
2990.98993	3532.05
2993.4245	3531.05
2995.85758	3519.85
2998.28917	3528.05
3000.71928	3519.05
3003.14791	3517.45
3005.57506	3499.45
3008.00073	3507.25
3010.42493	3507.45
3012.84764	3496.85
3015.26888	3494.95
3017.68865	3512.45
3020.10694	3493.95
3022.52376	3480.75
3024.9391	3503.35
3027.35298	3487.25
3029.76539	3493.25
3032.17632	3484.75
3034.5858	3479.95
3036.9938	3472.55
3039.40034	3487.35
3041.80542	3483.35
3044.20903	3465.35
3046.61118	3473.95
3049.01187	3463.05
3051.4111	3463.15
3053.80888	3467.35
3056.20519	3458.45
3058.60005	3459.95
3060.99345	3460.15
3063.3854	3452.55
3065.7759	3441.65
3068.16494	3449.55
3070.55254	3436.65
3072.93868	3439.65
3075.32338	3447.45
3077.70662	3423.55
3080.08842	3437.25
3082.46878	3441.65
3084.84769	3429.65
3087.22515	3440.75
3089.60118	3437.75
3091.97576	3455.35
3094.3489	3459.25
3096.72061	3457.15
3099.09087	3470.95
3101.4597	3474.35
3103.82709	3467.45
3106.19305	3470.65
3108.55757	3467.35
3110.92066	3465.15
3113.28232	3476.55
3115.64255	3463.15
3118.00134	3457.15
3120.35871	3477.65
3122.71466	3451.65
3125.06917	3446.05
3127.42226	3453.25
3129.77393	3462.15
3132.12417	3474.55
3134.47299	3467.55
3136.82039	3485.15
3139.16636	3470.25
3141.51092	3495.95
3143.85406	3510.15
3146.19579	3500.95
3148.53609	3511.75
3150.87499	3520.35
3153.21246	3536.55
3155.54853	3537.05
3157.88318	3542.85
3160.21642	3558.75
3162.54826	3567.25
3164.87868	3556.25
3167.2077	3546.75
3169.5353	3572.55
3171.86151	3570.75
3174.18631	3569.45
3176.5097	3571.55
3178.83169	3581.45
3181.15228	3578.85
3183.47147	3576.65
3185.78926	3572.35
3188.10565	3588.95
3190.42065	3600.55
3192.73424	3588.95
3195.04645	3604.65
3197.35725	3600.75
3199.66667	3596.35
3201.97469	3613.05
3204.28132	3633.25
3206.58656	3631.15
3208.8904	3640.75
3211.19287	3630.55
3213.49394	3651.05
3215.79363	3663.15
3218.09193	3651.45
3220.38884	3659.85
3222.68438	3665.05
3224.97853	3644.75
3227.2713	3658.35
3229.56269	3640.55
3231.8527	3656.95
3234.14133	3650.85
3236.42858	3643.05
3238.71446	3637.35
3240.99896	3624.55
3243.28209	3637.45
3245.56384	3625.55
3247.84423	3636.65
3250.12324	3622.95
3252.40088	3631.95
3254.67715	3636.95
3256.95205	3627.25
3259.22558	3634.15
3261.49775	3626.35
3263.76855	3628.25
3266.03799	3623.15
3268.30606	3630.75
3270.57277	3616.65
3272.83812	3600.55
3275.10211	3597.05
3277.36474	3600.35
3279.62601	3588.65
3281.88593	3599.35
3284.14448	3612.05
3286.40168	3620.75
3288.65753	3611.95
3290.91202	3583.45
3293.16516	3565.05
3295.41695	3561.85
3297.66738	3542.95
3299.91647	3532.35
3302.16421	3515.75
3304.4106	3514.65
3306.65564	3493.35
3308.89933	3479.45
3311.14169	3475.95
3313.38269	3442.55
3315.62236	3413.65
3317.86068	3401.85
3320.09766	3371.45
3322.3333	3342.25
3324.5676	3350.55
3326.80056	3315.45
3329.03219	3283.45
3331.26248	1.05
3333.49143	-0.45
3335.71905	0.35
