Data from AgNPs_FTO_APTES_UA_0.1mM_CRN_500uM_NaF_0.1M_Addition_RamanShift__4__14-39-07-759.txt Node

Date: Mon Dec 20 14:39:07 GMT 2021
User: TCL
Spectrometer: QEP01345
Trigger mode: 4
Integration Time (sec): 7.000000E0
Scans to average: 10
Electric dark correction enabled: true
Nonlinearity correction enabled: false
Boxcar width: 0
XAxis mode: Raman Shifts
Number of Pixels in Spectrum: 1044
>>>>>Begin Spectral Data<<<<<
46.04893	0.85
50.45542	-0.45
54.85868	-0.35
59.25871	0.95
63.6555	26.85
68.04907	25.95
72.43941	28.35
76.82654	28.35
81.21044	32.15
85.59113	36.15
89.96862	32.65
94.34289	35.45
98.71396	35.55
103.08183	38.05
107.4465	37.55
111.80798	41.75
116.16626	41.05
120.52136	41.85
124.87327	43.15
129.222	39.25
133.56755	42.55
137.90993	43.85
142.24913	47.65
146.58517	49.05
150.91804	54.15
155.24774	61.25
159.57429	65.45
163.89768	84.65
168.21792	108.25
172.53501	128.55
176.84895	177.55
181.15975	236.65
185.46741	323.25
189.77193	442.95
194.07331	586.85
198.37157	758.25
202.6667	936.55
206.9587	1116.85
211.24758	1303.45
215.53334	1489.45
219.81599	1672.45
224.09553	1886.95
228.37195	2135.35
232.64527	2384.35
236.91549	2648.75
241.18261	2869.15
245.44663	3105.85
249.70755	3285.95
253.96539	3400.05
258.22014	3521.35
262.4718	3574.05
266.72039	3597.15
270.96589	3594.75
275.20832	3554.45
279.44768	3513.35
283.68397	3437.55
287.91719	3386.45
292.14735	3315.75
296.37445	3298.85
300.59849	3276.55
304.81948	3241.55
309.03742	3223.65
313.25231	3195.55
317.46415	3153.85
321.67296	3109.95
325.87872	3072.05
330.08145	3051.45
334.28114	3043.45
338.47781	3062.45
342.67145	3054.75
346.86207	3065.65
351.04966	3106.15
355.23424	3133.05
359.4158	3180.65
363.59435	3206.55
367.76989	3243.65
371.94243	3303.25
376.11196	3312.55
380.27849	3371.25
384.44203	3404.05
388.60257	3453.85
392.76012	3470.75
396.91468	3518.35
401.06626	3539.95
405.21485	3572.35
409.36047	3555.65
413.50311	3562.05
417.64277	3548.45
421.77947	3540.25
425.9132	3546.65
430.04396	3555.05
434.17176	3561.75
438.2966	3574.45
442.41849	3580.45
446.53742	3613.95
450.6534	3643.15
454.76644	3658.15
458.87653	3670.65
462.98368	3693.35
467.08789	3700.65
471.18916	3716.95
475.2875	3746.25
479.38291	3772.65
483.4754	3857.85
487.56496	3968.05
491.6516	4106.55
495.73531	4192.95
499.81612	4226.35
503.89401	4187.95
507.96899	4066.85
512.04106	3992.55
516.11023	3943.45
520.1765	3939.25
524.23987	3967.05
528.30034	3996.95
532.35792	4015.95
536.41261	4000.55
540.46441	3963.35
544.51333	3877.65
548.55936	3820.35
552.60252	3791.65
556.64279	3763.85
560.6802	3736.75
564.71473	3737.95
568.7464	3754.35
572.7752	3766.45
576.80114	3797.25
580.82422	3845.75
584.84444	3951.75
588.86181	4068.45
592.87633	4126.25
596.888	4115.05
600.89682	4051.55
604.9028	4047.95
608.90594	4157.15
612.90624	4338.95
616.90371	4419.05
620.89834	4425.05
624.89015	4619.45
628.87913	5024.35
632.86528	5477.75
636.84862	5785.05
640.82913	5812.85
644.80683	5544.55
648.78172	5162.25
652.75379	4790.25
656.72306	4520.55
660.68952	4353.65
664.65319	4226.85
668.61405	4147.35
672.57211	4110.05
676.52738	4139.75
680.47986	4146.25
684.42955	4157.55
688.37646	4118.25
692.32058	4046.55
696.26192	3979.65
700.20048	3919.35
704.13626	3896.75
708.06928	3874.25
711.99952	3844.25
715.927	3849.75
719.85171	3883.95
723.77365	3948.95
727.69284	4002.25
731.60928	3971.75
735.52295	3895.15
739.43388	3843.75
743.34206	3814.75
747.24749	3818.95
751.15017	3822.15
755.05012	3814.95
758.94733	3853.15
762.8418	3888.65
766.73354	3954.55
770.62254	4020.75
774.50882	4022.05
778.39237	3981.35
782.27321	3890.85
786.15132	3813.15
790.02671	3758.35
793.89938	3774.05
797.76935	3793.25
801.6366	3864.15
805.50115	3972.05
809.36299	4166.55
813.22213	4276.25
817.07857	4242.15
820.93231	4083.85
824.78336	3896.05
828.63172	3751.45
832.47738	3671.45
836.32036	3615.85
840.16066	3608.65
843.99827	3578.65
847.8332	3593.55
851.66546	3585.65
855.49504	3583.65
859.32195	3585.65
863.1462	3608.75
866.96777	3661.85
870.78668	3709.25
874.60293	3818.65
878.41652	3918.95
882.22745	4041.65
886.03573	4123.15
889.84136	4149.85
893.64433	4096.85
897.44466	3957.35
901.24235	3783.15
905.0374	3642.35
908.8298	3536.25
912.61957	3491.85
916.40671	3445.55
920.19121	3435.75
923.97308	3424.55
927.75233	3412.95
931.52895	3406.15
935.30295	3396.05
939.07433	3375.35
942.84309	3350.45
946.60924	3343.35
950.37278	3344.15
954.13371	3330.95
957.89203	3318.35
961.64774	3312.85
965.40086	3312.15
969.15137	3302.35
972.89929	3279.15
976.64461	3277.05
980.38733	3263.05
984.12747	3259.85
987.86502	3266.65
991.59999	3287.95
995.33237	3300.95
999.06217	3344.75
1002.78939	3394.65
1006.51404	3455.65
1010.23611	3510.35
1013.95561	3552.65
1017.67255	3567.25
1021.38692	3569.15
1025.09872	3546.55
1028.80796	3492.95
1032.51465	3446.15
1036.21877	3389.85
1039.92035	3355.65
1043.61937	3317.55
1047.31584	3308.45
1051.00976	3307.55
1054.70114	3328.15
1058.38998	3344.65
1062.07627	3378.85
1065.76003	3425.75
1069.44126	3472.45
1073.11995	3507.65
1076.79611	3548.15
1080.46974	3510.15
1084.14085	3475.05
1087.80943	3424.85
1091.47549	3364.75
1095.13903	3334.35
1098.80005	3303.15
1102.45857	3293.65
1106.11456	3289.25
1109.76805	3329.35
1113.41903	3422.35
1117.06751	3585.65
1120.71348	3823.45
1124.35696	4168.35
1127.99793	4580.15
1131.63641	4952.95
1135.2724	5145.25
1138.90589	5113.55
1142.5369	4895.45
1146.16542	4569.45
1149.79145	4189.55
1153.415	3895.65
1157.03607	3624.75
1160.65467	3473.15
1164.27079	3398.05
1167.88443	3370.55
1171.49561	3360.35
1175.10432	3414.15
1178.71056	3515.55
1182.31434	3582.85
1185.91565	3665.05
1189.51451	3724.35
1193.11091	3790.25
1196.70485	3882.45
1200.29634	3987.35
1203.88538	4045.35
1207.47197	4055.45
1211.05612	3971.15
1214.63782	3877.15
1218.21708	3741.95
1221.79391	3606.05
1225.36829	3487.45
1228.94024	3439.65
1232.50976	3384.65
1236.07685	3352.05
1239.6415	3350.05
1243.20374	3365.25
1246.76355	3374.75
1250.32093	3416.45
1253.8759	3443.15
1257.42845	3475.25
1260.97859	3505.95
1264.52631	3526.85
1268.07163	3547.75
1271.61453	3537.45
1275.15503	3526.35
1278.69312	3512.35
1282.22882	3480.95
1285.76211	3476.35
1289.29301	3467.15
1292.82151	3495.45
1296.34761	3515.85
1299.87133	3556.65
1303.39266	3635.15
1306.9116	3722.65
1310.42815	3828.85
1313.94233	3901.55
1317.45412	3929.05
1320.96354	3927.15
1324.47058	3903.05
1327.97525	3920.35
1331.47754	3896.65
1334.97747	3913.75
1338.47502	3949.25
1341.97022	4006.75
1345.46305	4069.45
1348.95352	4169.45
1352.44163	4260.75
1355.92738	4375.85
1359.41078	4542.65
1362.89183	4692.35
1366.37053	4701.55
1369.84688	4585.85
1373.32088	4375.75
1376.79254	4232.65
1380.26186	4112.35
1383.72883	4000.15
1387.19347	3902.95
1390.65578	3794.15
1394.11575	3723.85
1397.57339	3650.35
1401.0287	3577.25
1404.48168	3529.25
1407.93234	3477.65
1411.38068	3389.05
1414.82669	3306.25
1418.27039	3222.15
1421.71177	3165.45
1425.15083	3109.15
1428.58758	3066.85
1432.02203	3018.75
1435.45416	3005.55
1438.88399	3006.05
1442.31151	2989.05
1445.73673	2984.15
1449.15965	2987.65
1452.58027	2974.45
1455.9986	2981.05
1459.41463	2993.75
1462.82837	3001.45
1466.23982	3023.85
1469.64898	3049.25
1473.05586	3068.25
1476.46045	3069.95
1479.86276	3101.85
1483.26279	3118.45
1486.66054	3161.15
1490.05602	3211.15
1493.44922	3252.85
1496.84016	3340.75
1500.22882	3426.85
1503.61521	3534.05
1506.99934	3643.35
1510.38121	3736.55
1513.76081	3742.55
1517.13816	3663.95
1520.51324	3539.25
1523.88607	3444.65
1527.25665	3384.25
1530.62498	3369.45
1533.99105	3395.35
1537.35488	3428.25
1540.71647	3468.45
1544.07581	3484.85
1547.4329	3521.25
1550.78776	3554.75
1554.14038	3571.25
1557.49077	3582.95
1560.83892	3592.85
1564.18484	3616.75
1567.52853	3623.75
1570.86999	3627.45
1574.20922	3633.15
1577.54624	3629.25
1580.88103	3589.55
1584.2136	3527.85
1587.54395	3495.75
1590.87208	3458.45
1594.19801	3469.95
1597.52172	3507.65
1600.84321	3527.25
1604.16251	3534.05
1607.47959	3508.65
1610.79447	3499.05
1614.10715	3472.05
1617.41763	3485.85
1620.7259	3468.85
1624.03199	3488.15
1627.33587	3530.35
1630.63757	3593.75
1633.93707	3691.65
1637.23439	3803.65
1640.52951	3941.15
1643.82246	4106.55
1647.11321	4275.55
1650.40179	4385.55
1653.68819	4388.05
1656.97241	4263.05
1660.25446	4095.95
1663.53433	3963.25
1666.81203	3852.45
1670.08756	3780.15
1673.36092	3714.65
1676.63211	3676.55
1679.90115	3654.15
1683.16801	3608.85
1686.43272	3547.95
1689.69527	3498.15
1692.95567	3440.95
1696.2139	3373.75
1699.46999	3312.85
1702.72392	3246.55
1705.97571	3130.95
1709.22535	2995.65
1712.47284	2893.45
1715.71819	2785.55
1718.96139	2702.15
1722.20246	2630.15
1725.44139	2575.95
1728.67818	2511.45
1731.91284	2471.75
1735.14537	2439.15
1738.37576	2407.95
1741.60403	2388.75
1744.83017	2367.45
1748.05418	2355.65
1751.27607	2344.35
1754.49584	2346.75
1757.71349	2342.35
1760.92903	2332.15
1764.14244	2320.95
1767.35375	2319.75
1770.56294	2297.15
1773.77002	2285.55
1776.97499	2268.95
1780.17785	2255.35
1783.37861	2236.45
1786.57727	2225.25
1789.77382	2214.45
1792.96828	2200.15
1796.16064	2184.95
1799.3509	2178.55
1802.53907	2172.95
1805.72514	2153.65
1808.90913	2151.75
1812.09102	2142.55
1815.27083	2134.05
1818.44856	2128.65
1821.6242	2119.75
1824.79776	2116.45
1827.96924	2112.05
1831.13864	2101.35
1834.30597	2109.85
1837.47122	2104.25
1840.6344	2092.85
1843.7955	2087.25
1846.95454	2085.05
1850.11151	2080.75
1853.26642	2081.75
1856.41926	2076.55
1859.57004	2059.95
1862.71876	2074.75
1865.86542	2065.65
1869.01003	2053.45
1872.15258	2042.55
1875.29308	2046.75
1878.43152	2041.35
1881.56792	2031.35
1884.70227	2027.45
1887.83457	2026.15
1890.96482	2019.35
1894.09304	2022.25
1897.21921	2014.35
1900.34335	2000.35
1903.46544	1984.25
1906.58551	1997.95
1909.70353	1992.15
1912.81953	1991.15
1915.93349	1998.65
1919.04543	1977.05
1922.15534	1966.65
1925.26322	1975.25
1928.36908	1962.35
1931.47292	1962.75
1934.57473	1956.25
1937.67453	1952.95
1940.77232	1927.45
1943.86808	1938.55
1946.96184	1922.35
1950.05358	1914.95
1953.14331	1921.45
1956.23103	1899.45
1959.31675	1896.95
1962.40046	1893.35
1965.48217	1881.75
1968.56188	1878.75
1971.63959	1878.25
1974.7153	1858.45
1977.78901	1855.45
1980.86073	1848.75
1983.93046	1838.25
1986.99819	1837.05
1990.06394	1832.65
1993.1277	1822.75
1996.18947	1811.95
1999.24925	1810.85
2002.30706	1806.05
2005.36288	1794.35
2008.41672	1792.85
2011.46859	1791.65
2014.51848	1784.55
2017.56639	1769.85
2020.61233	1761.85
2023.6563	1771.25
2026.6983	1757.75
2029.73833	1749.95
2032.7764	1750.45
2035.8125	1743.45
2038.84664	1727.65
2041.87881	1730.25
2044.90903	1734.55
2047.93729	1721.95
2050.96359	1712.45
2053.98794	1715.15
2057.01034	1712.45
2060.03078	1709.05
2063.04927	1707.45
2066.06582	1707.15
2069.08042	1706.45
2072.09307	1705.65
2075.10378	1691.65
2078.11255	1700.15
2081.11938	1698.05
2084.12426	1698.35
2087.12722	1685.45
2090.12824	1690.65
2093.12732	1692.75
2096.12447	1697.85
2099.11969	1684.35
2102.11299	1688.75
2105.10435	1677.75
2108.09379	1684.75
2111.08131	1679.55
2114.0669	1683.45
2117.05057	1693.15
2120.03233	1681.45
2123.01216	1687.45
2125.99008	1684.65
2128.96609	1682.95
2131.94018	1680.95
2134.91236	1682.15
2137.88263	1678.35
2140.851	1679.15
2143.81746	1674.45
2146.78201	1675.95
2149.74466	1676.45
2152.7054	1681.75
2155.66425	1672.95
2158.6212	1677.75
2161.57625	1677.15
2164.52941	1667.55
2167.48067	1669.05
2170.43004	1665.05
2173.37752	1655.25
2176.32311	1658.35
2179.26681	1666.25
2182.20863	1649.05
2185.14856	1663.05
2188.08661	1648.35
2191.02278	1647.45
2193.95707	1642.25
2196.88948	1650.35
2199.82001	1647.35
2202.74867	1628.85
2205.67545	1625.45
2208.60037	1633.25
2211.52341	1626.75
2214.44458	1618.45
2217.36388	1618.65
2220.28132	1610.55
2223.1969	1611.75
2226.11061	1599.15
2229.02246	1585.95
2231.93245	1606.25
2234.84058	1588.05
2237.74686	1577.85
2240.65128	1578.95
2243.55385	1580.65
2246.45456	1580.35
2249.35343	1579.05
2252.25044	1568.15
2255.14561	1560.75
2258.03893	1577.85
2260.93041	1561.05
2263.82004	1569.85
2266.70783	1548.05
2269.59378	1546.25
2272.4779	1537.45
2275.36017	1527.25
2278.24061	1536.75
2281.11922	1528.35
2283.996	1526.05
2286.87094	1512.65
2289.74405	1516.55
2292.61534	1514.55
2295.4848	1511.45
2298.35243	1497.25
2301.21824	1508.85
2304.08223	1500.85
2306.94439	1500.35
2309.80474	1491.15
2312.66327	1492.05
2315.51999	1491.45
2318.37489	1491.65
2321.22797	1479.95
2324.07925	1483.05
2326.92871	1479.95
2329.77637	1481.95
2332.62222	1471.65
2335.46626	1466.95
2338.3085	1457.85
2341.14893	1456.85
2343.98756	1460.85
2346.8244	1461.85
2349.65943	1444.05
2352.49267	1449.15
2355.32411	1444.05
2358.15376	1448.15
2360.98161	1450.25
2363.80768	1441.15
2366.63195	1438.05
2369.45444	1434.55
2372.27514	1431.35
2375.09405	1434.25
2377.91118	1434.95
2380.72652	1432.25
2383.54009	1422.45
2386.35187	1425.65
2389.16188	1416.85
2391.97011	1421.65
2394.77657	1406.75
2397.58125	1407.45
2400.38416	1400.15
2403.18529	1400.65
2405.98466	1399.85
2408.78226	1404.35
2411.57809	1391.85
2414.37216	1385.15
2417.16446	1385.75
2419.955	1375.45
2422.74378	1371.05
2425.5308	1374.45
2428.31606	1368.55
2431.09956	1369.35
2433.88131	1364.25
2436.6613	1363.55
2439.43954	1354.65
2442.21603	1358.45
2444.99077	1359.85
2447.76377	1347.85
2450.53501	1356.85
2453.30451	1350.45
2456.07226	1350.55
2458.83827	1347.75
2461.60254	1339.45
2464.36507	1330.75
2467.12586	1339.65
2469.88492	1333.15
2472.64224	1330.05
2475.39782	1326.85
2478.15167	1331.45
2480.90379	1341.35
2483.65417	1327.35
2486.40283	1323.35
2489.14976	1324.05
2491.89497	1328.35
2494.63845	1328.55
2497.3802	1314.65
2500.12024	1314.35
2502.85855	1315.25
2505.59514	1314.35
2508.33002	1305.15
2511.06318	1311.15
2513.79462	1302.25
2516.52435	1303.75
2519.25237	1298.55
2521.97867	1293.55
2524.70327	1291.85
2527.42616	1291.55
2530.14734	1288.05
2532.86681	1291.75
2535.58458	1281.45
2538.30065	1282.75
2541.01501	1275.65
2543.72768	1265.85
2546.43864	1264.85
2549.14791	1268.55
2551.85548	1261.35
2554.56136	1262.05
2557.26554	1250.85
2559.96803	1254.95
2562.66883	1253.65
2565.36794	1241.15
2568.06536	1245.65
2570.7611	1245.65
2573.45514	1244.55
2576.14751	1243.35
2578.83819	1230.05
2581.52719	1233.95
2584.21451	1227.25
2586.90015	1227.35
2589.58411	1226.15
2592.2664	1226.35
2594.94701	1209.15
2597.62594	1212.45
2600.30321	1208.15
2602.9788	1203.95
2605.65273	1200.85
2608.32498	1198.95
2610.99557	1197.85
2613.66449	1196.65
2616.33175	1196.85
2618.99734	1197.85
2621.66128	1191.95
2624.32355	1180.95
2626.98416	1190.55
2629.64311	1187.45
2632.30041	1179.65
2634.95605	1190.55
2637.61004	1181.15
2640.26238	1178.15
2642.91306	1180.85
2645.56209	1174.75
2648.20948	1178.95
2650.85521	1177.15
2653.4993	1177.45
2656.14175	1169.25
2658.78255	1172.95
2661.42171	1165.15
2664.05923	1163.95
2666.6951	1161.35
2669.32934	1170.55
2671.96194	1160.45
2674.59291	1159.15
2677.22224	1165.75
2679.84993	1155.95
2682.476	1159.65
2685.10043	1163.35
2687.72324	1161.25
2690.34441	1158.15
2692.96396	1156.45
2695.58188	1176.75
2698.19818	1161.95
2700.81285	1164.55
2703.4259	1182.65
2706.03733	1197.85
2708.64714	1185.55
2711.25533	1170.95
2713.86191	1163.75
2716.46687	1162.35
2719.07021	1175.75
2721.67194	1167.45
2724.27206	1163.05
2726.87057	1166.65
2729.46747	1162.25
2732.06276	1159.45
2734.65644	1157.45
2737.24852	1154.55
2739.83899	1150.25
2742.42786	1152.95
2745.01513	1148.65
2747.60079	1148.35
2750.18486	1152.25
2752.76733	1138.65
2755.3482	1150.15
2757.92747	1141.05
2760.50515	1146.15
2763.08123	1137.75
2765.65573	1132.35
2768.22863	1134.45
2770.79994	1130.55
2773.36967	1129.25
2775.9378	1132.05
2778.50435	1126.85
2781.06932	1124.95
2783.6327	1118.75
2786.1945	1118.25
2788.75471	1120.75
2791.31335	1120.25
2793.87041	1114.85
2796.42589	1104.45
2798.97979	1105.15
2801.53212	1103.15
2804.08288	1107.15
2806.63206	1099.45
2809.17967	1095.45
2811.72571	1100.85
2814.27018	1096.35
2816.81308	1094.55
2819.35442	1091.55
2821.89419	1090.05
2824.43239	1094.05
2826.96904	1086.35
2829.50412	1089.85
2832.03763	1086.95
2834.56959	1086.15
2837.1	1077.05
2839.62884	1085.05
2842.15613	1080.95
2844.68186	1085.15
2847.20604	1088.05
2849.72867	1084.85
2852.24974	1092.85
2854.76927	1093.75
2857.28724	1092.85
2859.80367	1092.75
2862.31855	1088.35
2864.83189	1091.45
2867.34368	1080.95
2869.85393	1084.55
2872.36264	1087.35
2874.8698	1089.65
2877.37543	1093.15
2879.87952	1091.15
2882.38207	1095.25
2884.88308	1104.65
2887.38256	1097.95
2889.88051	1098.05
2892.37692	1093.55
2894.8718	1094.95
2897.36515	1102.45
2899.85698	1104.25
2902.34727	1108.85
2904.83604	1106.75
2907.32328	1109.65
2909.809	1114.45
2912.29319	1111.35
2914.77587	1116.95
2917.25702	1117.45
2919.73665	1107.05
2922.21476	1119.15
2924.69136	1116.95
2927.16644	1123.95
2929.64	1115.45
2932.11205	1127.25
2934.58258	1118.95
2937.05161	1126.75
2939.51912	1123.65
2941.98513	1122.15
2944.44962	1127.05
2946.91261	1115.45
2949.37409	1119.05
2951.83407	1119.55
2954.29254	1115.55
2956.74951	1115.05
2959.20498	1112.05
2961.65895	1111.75
2964.11142	1101.45
2966.56239	1106.45
2969.01186	1106.05
2971.45984	1103.05
2973.90632	1094.55
2976.35131	1090.95
2978.7948	1093.15
2981.23681	1091.75
2983.67732	1088.85
2986.11635	1085.75
2988.55388	1083.45
2990.98993	1089.85
2993.4245	1075.05
2995.85758	1073.85
2998.28917	1081.85
3000.71928	1079.85
3003.14791	1086.35
3005.57506	1086.25
3008.00073	1089.35
3010.42493	1087.05
3012.84764	1089.85
3015.26888	1089.25
3017.68865	1083.35
3020.10694	1094.15
3022.52376	1091.85
3024.9391	1090.45
3027.35298	1093.75
3029.76539	1090.95
3032.17632	1100.05
3034.5858	1097.15
3036.9938	1096.15
3039.40034	1101.75
3041.80542	1101.35
3044.20903	1102.25
3046.61118	1102.95
3049.01187	1107.05
3051.4111	1107.75
3053.80888	1106.65
3056.20519	1115.05
3058.60005	1105.95
3060.99345	1124.15
3063.3854	1117.15
3065.7759	1122.75
3068.16494	1115.35
3070.55254	1119.35
3072.93868	1119.35
3075.32338	1120.85
3077.70662	1130.55
3080.08842	1132.35
3082.46878	1142.05
3084.84769	1141.15
3087.22515	1147.15
3089.60118	1146.85
3091.97576	1153.15
3094.3489	1158.25
3096.72061	1165.45
3099.09087	1177.25
3101.4597	1177.75
3103.82709	1182.85
3106.19305	1180.95
3108.55757	1194.35
3110.92066	1188.05
3113.28232	1199.75
3115.64255	1194.95
3118.00134	1206.35
3120.35871	1209.25
3122.71466	1217.95
3125.06917	1211.45
3127.42226	1221.45
3129.77393	1232.15
3132.12417	1232.95
3134.47299	1239.95
3136.82039	1243.75
3139.16636	1252.25
3141.51092	1264.45
3143.85406	1273.25
3146.19579	1280.65
3148.53609	1288.75
3150.87499	1296.75
3153.21246	1301.65
3155.54853	1316.45
3157.88318	1322.95
3160.21642	1332.95
3162.54826	1324.55
3164.87868	1332.75
3167.2077	1342.55
3169.5353	1354.85
3171.86151	1360.15
3174.18631	1366.25
3176.5097	1365.65
3178.83169	1371.35
3181.15228	1374.95
3183.47147	1380.15
3185.78926	1394.05
3188.10565	1392.75
3190.42065	1401.15
3192.73424	1400.75
3195.04645	1404.25
3197.35725	1422.65
3199.66667	1416.35
3201.97469	1429.95
3204.28132	1430.85
3206.58656	1446.15
3208.8904	1446.55
3211.19287	1447.35
3213.49394	1450.35
3215.79363	1455.85
3218.09193	1454.65
3220.38884	1465.35
3222.68438	1474.25
3224.97853	1481.55
3227.2713	1473.25
3229.56269	1478.95
3231.8527	1481.15
3234.14133	1472.15
3236.42858	1463.15
3238.71446	1473.55
3240.99896	1466.25
3243.28209	1465.55
3245.56384	1472.95
3247.84423	1482.85
3250.12324	1470.45
3252.40088	1478.45
3254.67715	1481.05
3256.95205	1475.75
3259.22558	1473.35
3261.49775	1473.25
3263.76855	1482.45
3266.03799	1475.45
3268.30606	1476.55
3270.57277	1473.35
3272.83812	1461.15
3275.10211	1465.95
3277.36474	1470.25
3279.62601	1470.85
3281.88593	1469.45
3284.14448	1472.05
3286.40168	1468.65
3288.65753	1468.35
3290.91202	1457.95
3293.16516	1449.95
3295.41695	1452.55
3297.66738	1451.15
3299.91647	1442.65
3302.16421	1433.65
3304.4106	1429.95
3306.65564	1430.85
3308.89933	1414.55
3311.14169	1413.75
3313.38269	1402.75
3315.62236	1391.65
3317.86068	1379.75
3320.09766	1367.85
3322.3333	1354.65
3324.5676	1360.85
3326.80056	1353.75
3329.03219	1338.05
3331.26248	0.25
3333.49143	0.85
3335.71905	-1.35
