Data from AgNPs_FTO_APTES_UA_0.1mM_CRN_0uM_NaF_0.1M_Addition_RamanShift__32__10-39-57-488.txt Node

Date: Mon Dec 20 10:39:57 GMT 2021
User: TCL
Spectrometer: QEP01345
Trigger mode: 4
Integration Time (sec): 7.000000E0
Scans to average: 10
Electric dark correction enabled: true
Nonlinearity correction enabled: false
Boxcar width: 0
XAxis mode: Raman Shifts
Number of Pixels in Spectrum: 1044
>>>>>Begin Spectral Data<<<<<
46.04893	0.65
50.45542	0.55
54.85868	-1.55
59.25871	0.55
63.6555	26.85
68.04907	25.45
72.43941	29.05
76.82654	32.85
81.21044	33.85
85.59113	37.25
89.96862	31.25
94.34289	36.45
98.71396	39.45
103.08183	37.05
107.4465	41.95
111.80798	41.35
116.16626	40.85
120.52136	42.25
124.87327	44.65
129.222	46.05
133.56755	46.25
137.90993	44.95
142.24913	48.85
146.58517	50.25
150.91804	59.05
155.24774	64.35
159.57429	76.35
163.89768	97.75
168.21792	123.85
172.53501	151.95
176.84895	210.65
181.15975	284.75
185.46741	386.75
189.77193	538.65
194.07331	703.45
198.37157	907.95
202.6667	1101.15
206.9587	1324.45
211.24758	1522.55
215.53334	1737.35
219.81599	1963.45
224.09553	2206.35
228.37195	2481.05
232.64527	2780.05
236.91549	3092.55
241.18261	3392.45
245.44663	3633.95
249.70755	3858.65
253.96539	4025.65
258.22014	4153.95
262.4718	4227.55
266.72039	4273.65
270.96589	4275.45
275.20832	4249.05
279.44768	4178.95
283.68397	4087.05
287.91719	4018.25
292.14735	3967.25
296.37445	3943.35
300.59849	3934.35
304.81948	3962.75
309.03742	3949.85
313.25231	3956.15
317.46415	3915.95
321.67296	3843.75
325.87872	3816.75
330.08145	3780.15
334.28114	3753.15
338.47781	3756.55
342.67145	3759.25
346.86207	3773.55
351.04966	3803.25
355.23424	3840.65
359.4158	3884.95
363.59435	3921.85
367.76989	3945.85
371.94243	3993.95
376.11196	4035.45
380.27849	4067.35
384.44203	4109.65
388.60257	4147.65
392.76012	4178.55
396.91468	4206.25
401.06626	4247.55
405.21485	4276.35
409.36047	4276.85
413.50311	4248.15
417.64277	4233.35
421.77947	4255.35
425.9132	4244.55
430.04396	4255.85
434.17176	4305.95
438.2966	4341.85
442.41849	4412.45
446.53742	4547.45
450.6534	4686.65
454.76644	4763.25
458.87653	4733.85
462.98368	4657.25
467.08789	4583.05
471.18916	4506.55
475.2875	4451.95
479.38291	4459.35
483.4754	4499.65
487.56496	4589.95
491.6516	4745.35
495.73531	4864.35
499.81612	4938.85
503.89401	4935.95
507.96899	4882.75
512.04106	4772.65
516.11023	4698.75
520.1765	4646.65
524.23987	4674.15
528.30034	4690.25
532.35792	4690.85
536.41261	4642.35
540.46441	4532.75
544.51333	4444.05
548.55936	4401.25
552.60252	4402.55
556.64279	4451.35
560.6802	4490.95
564.71473	4468.95
568.7464	4448.65
572.7752	4481.85
576.80114	4515.75
580.82422	4627.55
584.84444	4835.55
588.86181	5200.45
592.87633	5598.35
596.888	5714.45
600.89682	5471.45
604.9028	5216.45
608.90594	5298.95
612.90624	5594.35
616.90371	5570.85
620.89834	5195.55
624.89015	5163.65
628.87913	5532.25
632.86528	5989.55
636.84862	6314.35
640.82913	6322.65
644.80683	6111.15
648.78172	5763.35
652.75379	5442.25
656.72306	5161.35
660.68952	4978.55
664.65319	4783.65
668.61405	4604.55
672.57211	4535.85
676.52738	4530.25
680.47986	4554.15
684.42955	4513.15
688.37646	4492.15
692.32058	4433.75
696.26192	4393.65
700.20048	4374.55
704.13626	4349.55
708.06928	4336.45
711.99952	4327.15
715.927	4337.65
719.85171	4392.95
723.77365	4465.85
727.69284	4475.15
731.60928	4428.85
735.52295	4374.85
739.43388	4352.25
743.34206	4358.75
747.24749	4385.15
751.15017	4384.55
755.05012	4417.65
758.94733	4478.25
762.8418	4608.25
766.73354	4812.65
770.62254	5041.75
774.50882	5120.35
778.39237	4975.35
782.27321	4687.45
786.15132	4447.95
790.02671	4326.35
793.89938	4285.15
797.76935	4315.95
801.6366	4381.55
805.50115	4537.15
809.36299	4713.35
813.22213	4797.35
817.07857	4740.85
820.93231	4561.95
824.78336	4377.95
828.63172	4229.45
832.47738	4127.25
836.32036	4105.25
840.16066	4093.35
843.99827	4078.65
847.8332	4069.95
851.66546	4067.15
855.49504	4057.25
859.32195	4080.65
863.1462	4071.15
866.96777	4126.85
870.78668	4183.95
874.60293	4277.45
878.41652	4400.55
882.22745	4542.95
886.03573	4648.85
889.84136	4685.95
893.64433	4605.55
897.44466	4476.35
901.24235	4307.45
905.0374	4185.65
908.8298	4092.65
912.61957	4017.25
916.40671	3999.85
920.19121	3997.65
923.97308	4009.55
927.75233	4005.95
931.52895	4003.95
935.30295	3938.95
939.07433	3885.25
942.84309	3838.95
946.60924	3837.25
950.37278	3807.25
954.13371	3818.25
957.89203	3803.75
961.64774	3776.55
965.40086	3782.65
969.15137	3778.85
972.89929	3749.15
976.64461	3743.75
980.38733	3735.25
984.12747	3740.85
987.86502	3757.65
991.59999	3789.45
995.33237	3830.45
999.06217	3934.35
1002.78939	4028.75
1006.51404	4096.25
1010.23611	4176.45
1013.95561	4256.55
1017.67255	4297.45
1021.38692	4266.55
1025.09872	4190.95
1028.80796	4110.85
1032.51465	4043.75
1036.21877	4007.25
1039.92035	3987.85
1043.61937	3954.35
1047.31584	3933.65
1051.00976	3910.05
1054.70114	3909.35
1058.38998	3926.65
1062.07627	3944.75
1065.76003	4014.55
1069.44126	4055.65
1073.11995	4121.45
1076.79611	4175.15
1080.46974	4201.35
1084.14085	4205.45
1087.80943	4176.75
1091.47549	4165.65
1095.13903	4133.35
1098.80005	4060.25
1102.45857	4014.35
1106.11456	3997.45
1109.76805	4047.95
1113.41903	4162.25
1117.06751	4342.75
1120.71348	4636.85
1124.35696	5021.85
1127.99793	5467.65
1131.63641	5853.95
1135.2724	6036.25
1138.90589	6029.05
1142.5369	5835.25
1146.16542	5529.85
1149.79145	5190.05
1153.415	4886.85
1157.03607	4603.15
1160.65467	4464.95
1164.27079	4422.05
1167.88443	4485.45
1171.49561	4609.85
1175.10432	4864.35
1178.71056	5210.25
1182.31434	5552.05
1185.91565	5668.75
1189.51451	5575.05
1193.11091	5451.15
1196.70485	5429.25
1200.29634	5441.45
1203.88538	5430.25
1207.47197	5418.15
1211.05612	5325.35
1214.63782	5220.45
1218.21708	5101.95
1221.79391	5014.75
1225.36829	4948.15
1228.94024	4883.15
1232.50976	4731.05
1236.07685	4597.25
1239.6415	4526.15
1243.20374	4514.55
1246.76355	4524.65
1250.32093	4581.35
1253.8759	4664.25
1257.42845	4739.05
1260.97859	4814.55
1264.52631	4893.05
1268.07163	4963.15
1271.61453	5000.65
1275.15503	5053.65
1278.69312	5089.35
1282.22882	5178.05
1285.76211	5338.35
1289.29301	5526.85
1292.82151	5736.85
1296.34761	5992.95
1299.87133	6292.65
1303.39266	6614.05
1306.9116	6961.95
1310.42815	7287.55
1313.94233	7567.45
1317.45412	7538.15
1320.96354	7310.45
1324.47058	6943.55
1327.97525	6634.05
1331.47754	6421.25
1334.97747	6316.05
1338.47502	6275.35
1341.97022	6214.25
1345.46305	6200.05
1348.95352	6327.35
1352.44163	6673.45
1355.92738	7211.65
1359.41078	7828.25
1362.89183	8347.55
1366.37053	8412.95
1369.84688	7856.65
1373.32088	7006.55
1376.79254	6422.65
1380.26186	6180.15
1383.72883	6106.45
1387.19347	5953.05
1390.65578	5795.35
1394.11575	5698.95
1397.57339	5684.55
1401.0287	5673.15
1404.48168	5666.65
1407.93234	5568.75
1411.38068	5418.55
1414.82669	5247.45
1418.27039	5083.75
1421.71177	4891.45
1425.15083	4769.75
1428.58758	4697.35
1432.02203	4721.55
1435.45416	4806.75
1438.88399	4887.25
1442.31151	4902.45
1445.73673	4922.35
1449.15965	4938.55
1452.58027	4889.45
1455.9986	4820.65
1459.41463	4778.55
1462.82837	4821.05
1466.23982	4923.95
1469.64898	5032.05
1473.05586	5122.25
1476.46045	5160.85
1479.86276	5197.15
1483.26279	5211.25
1486.66054	5203.05
1490.05602	5263.45
1493.44922	5310.95
1496.84016	5379.05
1500.22882	5455.15
1503.61521	5576.65
1506.99934	5764.55
1510.38121	5901.95
1513.76081	5959.05
1517.13816	5842.75
1520.51324	5654.45
1523.88607	5485.45
1527.25665	5438.45
1530.62498	5453.25
1533.99105	5462.75
1537.35488	5459.75
1540.71647	5447.95
1544.07581	5408.65
1547.4329	5360.45
1550.78776	5299.25
1554.14038	5242.85
1557.49077	5235.95
1560.83892	5207.95
1564.18484	5244.85
1567.52853	5240.85
1570.86999	5304.95
1574.20922	5323.65
1577.54624	5342.75
1580.88103	5306.65
1584.2136	5229.05
1587.54395	5290.25
1590.87208	5457.05
1594.19801	5726.75
1597.52172	6064.55
1600.84321	6280.05
1604.16251	6184.55
1607.47959	5842.65
1610.79447	5450.45
1614.10715	5110.55
1617.41763	4918.65
1620.7259	4830.45
1624.03199	4825.55
1627.33587	4856.85
1630.63757	4974.85
1633.93707	5175.75
1637.23439	5509.85
1640.52951	6020.15
1643.82246	6667.45
1647.11321	7232.75
1650.40179	7326.35
1653.68819	6908.85
1656.97241	6223.35
1660.25446	5577.15
1663.53433	5134.45
1666.81203	4865.45
1670.08756	4697.55
1673.36092	4586.65
1676.63211	4501.25
1679.90115	4444.55
1683.16801	4389.25
1686.43272	4306.25
1689.69527	4211.75
1692.95567	4102.05
1696.2139	4002.95
1699.46999	3916.05
1702.72392	3813.35
1705.97571	3687.75
1709.22535	3570.95
1712.47284	3451.95
1715.71819	3360.95
1718.96139	3267.45
1722.20246	3228.05
1725.44139	3160.25
1728.67818	3120.95
1731.91284	3071.15
1735.14537	3015.15
1738.37576	2999.05
1741.60403	2976.55
1744.83017	2966.55
1748.05418	2936.75
1751.27607	2916.35
1754.49584	2910.05
1757.71349	2908.35
1760.92903	2901.55
1764.14244	2882.65
1767.35375	2873.35
1770.56294	2870.65
1773.77002	2862.75
1776.97499	2848.25
1780.17785	2854.55
1783.37861	2847.05
1786.57727	2824.45
1789.77382	2816.05
1792.96828	2808.85
1796.16064	2793.35
1799.3509	2787.05
1802.53907	2791.35
1805.72514	2773.75
1808.90913	2767.65
1812.09102	2760.25
1815.27083	2748.55
1818.44856	2737.75
1821.6242	2728.45
1824.79776	2714.95
1827.96924	2712.75
1831.13864	2711.15
1834.30597	2710.75
1837.47122	2708.25
1840.6344	2686.55
1843.7955	2691.25
1846.95454	2691.05
1850.11151	2699.55
1853.26642	2683.35
1856.41926	2680.15
1859.57004	2680.15
1862.71876	2683.95
1865.86542	2673.75
1869.01003	2659.85
1872.15258	2659.95
1875.29308	2664.55
1878.43152	2644.95
1881.56792	2653.25
1884.70227	2650.35
1887.83457	2652.35
1890.96482	2649.25
1894.09304	2645.45
1897.21921	2618.45
1900.34335	2628.85
1903.46544	2632.05
1906.58551	2615.95
1909.70353	2618.95
1912.81953	2606.95
1915.93349	2595.25
1919.04543	2597.35
1922.15534	2588.05
1925.26322	2588.85
1928.36908	2572.85
1931.47292	2579.75
1934.57473	2564.85
1937.67453	2558.65
1940.77232	2553.75
1943.86808	2559.75
1946.96184	2533.75
1950.05358	2526.35
1953.14331	2526.45
1956.23103	2514.05
1959.31675	2508.75
1962.40046	2502.75
1965.48217	2485.35
1968.56188	2486.45
1971.63959	2476.45
1974.7153	2459.45
1977.78901	2459.05
1980.86073	2451.55
1983.93046	2435.75
1986.99819	2436.95
1990.06394	2428.75
1993.1277	2421.45
1996.18947	2419.55
1999.24925	2406.35
2002.30706	2401.55
2005.36288	2394.45
2008.41672	2388.05
2011.46859	2367.45
2014.51848	2360.85
2017.56639	2361.55
2020.61233	2361.05
2023.6563	2345.95
2026.6983	2337.35
2029.73833	2335.05
2032.7764	2335.35
2035.8125	2326.85
2038.84664	2308.35
2041.87881	2318.85
2044.90903	2313.75
2047.93729	2312.35
2050.96359	2296.25
2053.98794	2309.55
2057.01034	2297.35
2060.03078	2297.85
2063.04927	2282.25
2066.06582	2298.55
2069.08042	2289.15
2072.09307	2285.95
2075.10378	2287.85
2078.11255	2283.95
2081.11938	2288.65
2084.12426	2279.65
2087.12722	2286.15
2090.12824	2288.45
2093.12732	2277.05
2096.12447	2279.35
2099.11969	2271.15
2102.11299	2289.25
2105.10435	2283.45
2108.09379	2277.85
2111.08131	2278.55
2114.0669	2283.35
2117.05057	2276.15
2120.03233	2277.35
2123.01216	2276.05
2125.99008	2281.55
2128.96609	2278.55
2131.94018	2272.15
2134.91236	2276.35
2137.88263	2282.75
2140.851	2287.05
2143.81746	2285.15
2146.78201	2269.85
2149.74466	2281.65
2152.7054	2280.35
2155.66425	2264.75
2158.6212	2272.15
2161.57625	2275.45
2164.52941	2263.05
2167.48067	2263.45
2170.43004	2257.05
2173.37752	2262.45
2176.32311	2258.25
2179.26681	2253.85
2182.20863	2258.85
2185.14856	2250.75
2188.08661	2255.85
2191.02278	2261.35
2193.95707	2241.85
2196.88948	2245.35
2199.82001	2237.15
2202.74867	2234.95
2205.67545	2236.95
2208.60037	2229.55
2211.52341	2224.95
2214.44458	2211.85
2217.36388	2215.25
2220.28132	2205.95
2223.1969	2197.75
2226.11061	2197.75
2229.02246	2181.65
2231.93245	2188.55
2234.84058	2192.45
2237.74686	2185.45
2240.65128	2184.95
2243.55385	2181.45
2246.45456	2173.35
2249.35343	2162.75
2252.25044	2157.75
2255.14561	2149.85
2258.03893	2156.75
2260.93041	2148.65
2263.82004	2137.75
2266.70783	2139.95
2269.59378	2129.35
2272.4779	2119.05
2275.36017	2120.15
2278.24061	2111.45
2281.11922	2108.05
2283.996	2104.75
2286.87094	2109.95
2289.74405	2095.75
2292.61534	2092.75
2295.4848	2081.85
2298.35243	2087.05
2301.21824	2084.25
2304.08223	2074.15
2306.94439	2073.75
2309.80474	2071.55
2312.66327	2075.85
2315.51999	2061.05
2318.37489	2063.25
2321.22797	2064.15
2324.07925	2064.25
2326.92871	2053.65
2329.77637	2052.95
2332.62222	2046.55
2335.46626	2043.25
2338.3085	2047.35
2341.14893	2041.15
2343.98756	2030.95
2346.8244	2029.15
2349.65943	2017.05
2352.49267	2034.25
2355.32411	2033.55
2358.15376	2031.05
2360.98161	2024.45
2363.80768	2028.45
2366.63195	2011.35
2369.45444	2015.05
2372.27514	2008.85
2375.09405	2022.05
2377.91118	2014.15
2380.72652	2000.45
2383.54009	1996.15
2386.35187	1999.65
2389.16188	2001.55
2391.97011	1991.75
2394.77657	1968.55
2397.58125	1979.45
2400.38416	1971.15
2403.18529	1974.05
2405.98466	1979.15
2408.78226	1967.15
2411.57809	1961.15
2414.37216	1944.65
2417.16446	1954.05
2419.955	1941.35
2422.74378	1948.15
2425.5308	1937.95
2428.31606	1953.15
2431.09956	1938.35
2433.88131	1936.05
2436.6613	1934.05
2439.43954	1932.55
2442.21603	1921.15
2444.99077	1922.15
2447.76377	1921.75
2450.53501	1922.45
2453.30451	1924.75
2456.07226	1922.35
2458.83827	1917.35
2461.60254	1899.35
2464.36507	1911.55
2467.12586	1906.85
2469.88492	1907.95
2472.64224	1894.15
2475.39782	1905.85
2478.15167	1902.35
2480.90379	1899.95
2483.65417	1897.35
2486.40283	1891.55
2489.14976	1902.05
2491.89497	1902.15
2494.63845	1898.05
2497.3802	1904.45
2500.12024	1891.55
2502.85855	1879.95
2505.59514	1883.35
2508.33002	1888.15
2511.06318	1880.95
2513.79462	1884.65
2516.52435	1873.65
2519.25237	1872.75
2521.97867	1854.05
2524.70327	1870.85
2527.42616	1860.45
2530.14734	1864.85
2532.86681	1858.15
2535.58458	1844.55
2538.30065	1848.75
2541.01501	1842.75
2543.72768	1832.55
2546.43864	1836.95
2549.14791	1831.75
2551.85548	1823.45
2554.56136	1838.55
2557.26554	1825.65
2559.96803	1828.95
2562.66883	1826.05
2565.36794	1824.35
2568.06536	1821.65
2570.7611	1823.65
2573.45514	1819.05
2576.14751	1818.05
2578.83819	1804.75
2581.52719	1807.15
2584.21451	1793.35
2586.90015	1794.95
2589.58411	1796.85
2592.2664	1796.45
2594.94701	1788.25
2597.62594	1783.05
2600.30321	1781.15
2602.9788	1783.65
2605.65273	1774.75
2608.32498	1775.15
2610.99557	1768.55
2613.66449	1766.15
2616.33175	1771.85
2618.99734	1766.65
2621.66128	1764.85
2624.32355	1765.25
2626.98416	1765.95
2629.64311	1764.55
2632.30041	1763.85
2634.95605	1755.45
2637.61004	1753.95
2640.26238	1750.85
2642.91306	1744.95
2645.56209	1743.95
2648.20948	1752.05
2650.85521	1742.85
2653.4993	1740.05
2656.14175	1745.45
2658.78255	1741.85
2661.42171	1739.15
2664.05923	1736.65
2666.6951	1737.35
2669.32934	1743.65
2671.96194	1742.95
2674.59291	1746.55
2677.22224	1740.75
2679.84993	1748.95
2682.476	1743.75
2685.10043	1739.05
2687.72324	1745.35
2690.34441	1742.55
2692.96396	1741.25
2695.58188	1751.95
2698.19818	1740.25
2700.81285	1736.55
2703.4259	1750.65
2706.03733	1754.95
2708.64714	1757.85
2711.25533	1754.35
2713.86191	1751.75
2716.46687	1758.75
2719.07021	1753.35
2721.67194	1757.35
2724.27206	1756.65
2726.87057	1757.25
2729.46747	1762.25
2732.06276	1748.55
2734.65644	1755.65
2737.24852	1740.85
2739.83899	1748.55
2742.42786	1742.55
2745.01513	1741.25
2747.60079	1745.25
2750.18486	1748.75
2752.76733	1744.15
2755.3482	1740.15
2757.92747	1739.05
2760.50515	1729.05
2763.08123	1722.75
2765.65573	1729.75
2768.22863	1732.75
2770.79994	1718.65
2773.36967	1732.95
2775.9378	1723.65
2778.50435	1718.75
2781.06932	1722.35
2783.6327	1720.35
2786.1945	1715.45
2788.75471	1713.65
2791.31335	1712.85
2793.87041	1703.25
2796.42589	1709.65
2798.97979	1705.65
2801.53212	1697.25
2804.08288	1694.05
2806.63206	1687.75
2809.17967	1682.55
2811.72571	1686.75
2814.27018	1688.35
2816.81308	1683.15
2819.35442	1673.05
2821.89419	1676.25
2824.43239	1682.55
2826.96904	1679.95
2829.50412	1679.25
2832.03763	1676.35
2834.56959	1688.25
2837.1	1684.45
2839.62884	1690.85
2842.15613	1685.35
2844.68186	1700.75
2847.20604	1703.55
2849.72867	1707.65
2852.24974	1717.15
2854.76927	1713.95
2857.28724	1725.15
2859.80367	1714.65
2862.31855	1713.25
2864.83189	1723.85
2867.34368	1713.95
2869.85393	1719.15
2872.36264	1714.25
2874.8698	1710.85
2877.37543	1719.55
2879.87952	1729.05
2882.38207	1733.45
2884.88308	1734.55
2887.38256	1730.45
2889.88051	1738.85
2892.37692	1738.95
2894.8718	1737.65
2897.36515	1746.05
2899.85698	1739.55
2902.34727	1744.15
2904.83604	1743.75
2907.32328	1744.95
2909.809	1746.15
2912.29319	1742.95
2914.77587	1744.35
2917.25702	1745.25
2919.73665	1736.95
2922.21476	1740.85
2924.69136	1743.15
2927.16644	1756.85
2929.64	1741.45
2932.11205	1744.95
2934.58258	1739.75
2937.05161	1736.85
2939.51912	1735.45
2941.98513	1727.65
2944.44962	1728.75
2946.91261	1706.85
2949.37409	1705.25
2951.83407	1710.15
2954.29254	1693.15
2956.74951	1689.45
2959.20498	1698.95
2961.65895	1684.25
2964.11142	1681.45
2966.56239	1674.95
2969.01186	1673.65
2971.45984	1672.05
2973.90632	1657.45
2976.35131	1664.35
2978.7948	1646.25
2981.23681	1653.75
2983.67732	1652.55
2986.11635	1651.55
2988.55388	1636.15
2990.98993	1639.75
2993.4245	1626.45
2995.85758	1628.75
2998.28917	1624.35
3000.71928	1624.85
3003.14791	1624.15
3005.57506	1632.45
3008.00073	1633.65
3010.42493	1632.85
3012.84764	1626.05
3015.26888	1629.95
3017.68865	1617.05
3020.10694	1627.35
3022.52376	1619.75
3024.9391	1624.75
3027.35298	1621.85
3029.76539	1618.05
3032.17632	1624.75
3034.5858	1627.45
3036.9938	1623.65
3039.40034	1626.65
3041.80542	1623.85
3044.20903	1624.55
3046.61118	1637.35
3049.01187	1626.55
3051.4111	1632.05
3053.80888	1628.65
3056.20519	1631.55
3058.60005	1646.85
3060.99345	1646.65
3063.3854	1634.85
3065.7759	1633.05
3068.16494	1628.85
3070.55254	1637.95
3072.93868	1635.85
3075.32338	1633.45
3077.70662	1646.05
3080.08842	1643.75
3082.46878	1638.45
3084.84769	1641.75
3087.22515	1645.25
3089.60118	1647.15
3091.97576	1654.95
3094.3489	1653.25
3096.72061	1655.95
3099.09087	1666.95
3101.4597	1662.85
3103.82709	1670.15
3106.19305	1676.55
3108.55757	1673.15
3110.92066	1670.15
3113.28232	1679.45
3115.64255	1685.65
3118.00134	1678.95
3120.35871	1698.15
3122.71466	1697.25
3125.06917	1686.25
3127.42226	1686.85
3129.77393	1699.75
3132.12417	1692.45
3134.47299	1710.05
3136.82039	1723.35
3139.16636	1721.35
3141.51092	1725.35
3143.85406	1736.55
3146.19579	1741.65
3148.53609	1744.25
3150.87499	1751.45
3153.21246	1761.15
3155.54853	1759.15
3157.88318	1770.45
3160.21642	1775.35
3162.54826	1798.05
3164.87868	1790.85
3167.2077	1785.95
3169.5353	1804.35
3171.86151	1801.05
3174.18631	1817.65
3176.5097	1804.85
3178.83169	1796.75
3181.15228	1821.15
3183.47147	1823.75
3185.78926	1829.95
3188.10565	1821.85
3190.42065	1832.75
3192.73424	1835.35
3195.04645	1843.45
3197.35725	1838.65
3199.66667	1850.75
3201.97469	1858.35
3204.28132	1852.25
3206.58656	1864.95
3208.8904	1869.25
3211.19287	1879.65
3213.49394	1880.45
3215.79363	1871.45
3218.09193	1881.35
3220.38884	1890.55
3222.68438	1901.05
3224.97853	1879.45
3227.2713	1887.75
3229.56269	1877.95
3231.8527	1894.75
3234.14133	1888.95
3236.42858	1876.75
3238.71446	1878.45
3240.99896	1885.15
3243.28209	1891.45
3245.56384	1872.75
3247.84423	1887.85
3250.12324	1891.45
3252.40088	1875.45
3254.67715	1880.75
3256.95205	1877.15
3259.22558	1885.15
3261.49775	1871.35
3263.76855	1875.95
3266.03799	1865.85
3268.30606	1874.45
3270.57277	1871.05
3272.83812	1867.75
3275.10211	1851.05
3277.36474	1860.65
3279.62601	1866.45
3281.88593	1862.15
3284.14448	1865.25
3286.40168	1866.85
3288.65753	1853.85
3290.91202	1864.35
3293.16516	1857.65
3295.41695	1840.55
3297.66738	1829.45
3299.91647	1820.75
3302.16421	1822.45
3304.4106	1809.65
3306.65564	1802.85
3308.89933	1795.65
3311.14169	1779.55
3313.38269	1772.45
3315.62236	1762.35
3317.86068	1746.25
3320.09766	1732.95
3322.3333	1720.35
3324.5676	1731.05
3326.80056	1696.15
3329.03219	1694.05
3331.26248	-0.25
3333.49143	-0.05
3335.71905	-0.55
