Data from AgNPs_FTO_APTES_UA_0.1mM_CRN_10uM_NaF_0.1M_Addition_RamanShift__18__11-39-27-556.txt Node

Date: Mon Dec 20 11:39:27 GMT 2021
User: TCL
Spectrometer: QEP01345
Trigger mode: 4
Integration Time (sec): 7.000000E0
Scans to average: 10
Electric dark correction enabled: true
Nonlinearity correction enabled: false
Boxcar width: 0
XAxis mode: Raman Shifts
Number of Pixels in Spectrum: 1044
>>>>>Begin Spectral Data<<<<<
46.04893	0.55
50.45542	-0.95
54.85868	-1.75
59.25871	0.35
63.6555	32.25
68.04907	33.45
72.43941	36.95
76.82654	37.65
81.21044	36.95
85.59113	41.55
89.96862	41.45
94.34289	43.55
98.71396	43.55
103.08183	44.15
107.4465	47.95
111.80798	50.05
116.16626	47.05
120.52136	51.65
124.87327	51.75
129.222	55.75
133.56755	57.55
137.90993	62.75
142.24913	64.55
146.58517	69.25
150.91804	82.05
155.24774	97.25
159.57429	115.35
163.89768	147.45
168.21792	188.15
172.53501	244.55
176.84895	339.75
181.15975	470.75
185.46741	652.95
189.77193	898.05
194.07331	1204.75
198.37157	1563.05
202.6667	1936.65
206.9587	2329.85
211.24758	2695.15
215.53334	3068.25
219.81599	3471.85
224.09553	3881.45
228.37195	4352.35
232.64527	4838.45
236.91549	5359.75
241.18261	5881.55
245.44663	6367.35
249.70755	6755.45
253.96539	7102.15
258.22014	7369.75
262.4718	7565.55
266.72039	7682.05
270.96589	7711.85
275.20832	7675.05
279.44768	7580.75
283.68397	7424.55
287.91719	7310.75
292.14735	7209.05
296.37445	7153.05
300.59849	7143.95
304.81948	7120.05
309.03742	7076.45
313.25231	7020.75
317.46415	6892.65
321.67296	6747.65
325.87872	6640.55
330.08145	6580.95
334.28114	6565.35
338.47781	6601.35
342.67145	6652.15
346.86207	6742.55
351.04966	6849.95
355.23424	6965.05
359.4158	7061.05
363.59435	7171.95
367.76989	7235.15
371.94243	7322.25
376.11196	7394.85
380.27849	7461.55
384.44203	7516.25
388.60257	7567.75
392.76012	7624.55
396.91468	7695.75
401.06626	7806.55
405.21485	7847.75
409.36047	7831.75
413.50311	7759.45
417.64277	7693.65
421.77947	7650.55
425.9132	7626.15
430.04396	7673.85
434.17176	7705.15
438.2966	7742.85
442.41849	7819.75
446.53742	7910.15
450.6534	8030.75
454.76644	8142.45
458.87653	8199.35
462.98368	8206.75
467.08789	8194.25
471.18916	8157.05
475.2875	8166.25
479.38291	8209.65
483.4754	8281.25
487.56496	8321.55
491.6516	8396.85
495.73531	8472.45
499.81612	8458.55
503.89401	8468.55
507.96899	8401.15
512.04106	8326.25
516.11023	8271.95
520.1765	8241.45
524.23987	8252.45
528.30034	8230.55
532.35792	8229.55
536.41261	8192.95
540.46441	8117.05
544.51333	8057.55
548.55936	8045.95
552.60252	8047.85
556.64279	8093.25
560.6802	8112.85
564.71473	8172.05
568.7464	8206.25
572.7752	8293.05
576.80114	8344.15
580.82422	8380.45
584.84444	8492.75
588.86181	8614.05
592.87633	8684.45
596.888	8696.55
600.89682	8658.45
604.9028	8795.95
608.90594	9267.65
612.90624	9968.45
616.90371	9877.25
620.89834	9024.45
624.89015	8787.15
628.87913	9037.15
632.86528	9446.85
636.84862	9711.25
640.82913	9717.15
644.80683	9446.15
648.78172	9085.95
652.75379	8826.35
656.72306	8666.35
660.68952	8633.05
664.65319	8526.75
668.61405	8469.65
672.57211	8479.95
676.52738	8529.45
680.47986	8581.95
684.42955	8622.55
688.37646	8604.75
692.32058	8561.55
696.26192	8489.05
700.20048	8367.85
704.13626	8298.65
708.06928	8250.35
711.99952	8151.55
715.927	8069.35
719.85171	8064.95
723.77365	8075.35
727.69284	8048.95
731.60928	8030.45
735.52295	7958.65
739.43388	7932.15
743.34206	7927.45
747.24749	7943.75
751.15017	7967.85
755.05012	7979.95
758.94733	8080.25
762.8418	8283.65
766.73354	8634.35
770.62254	9051.35
774.50882	9245.05
778.39237	9059.95
782.27321	8617.05
786.15132	8214.85
790.02671	7990.55
793.89938	7901.75
797.76935	7892.35
801.6366	7902.25
805.50115	8016.05
809.36299	8169.45
813.22213	8221.05
817.07857	8123.85
820.93231	7973.75
824.78336	7809.35
828.63172	7644.95
832.47738	7585.05
836.32036	7555.75
840.16066	7514.35
843.99827	7499.65
847.8332	7517.05
851.66546	7483.45
855.49504	7463.15
859.32195	7505.45
863.1462	7516.15
866.96777	7567.75
870.78668	7627.75
874.60293	7706.25
878.41652	7782.05
882.22745	7881.35
886.03573	7959.35
889.84136	7955.45
893.64433	7852.85
897.44466	7698.65
901.24235	7565.85
905.0374	7435.15
908.8298	7359.55
912.61957	7325.35
916.40671	7304.25
920.19121	7313.15
923.97308	7310.45
927.75233	7309.05
931.52895	7298.75
935.30295	7253.35
939.07433	7183.85
942.84309	7113.95
946.60924	7094.75
950.37278	7081.65
954.13371	7068.35
957.89203	7050.95
961.64774	7031.15
965.40086	7004.35
969.15137	6975.05
972.89929	6933.65
976.64461	6927.35
980.38733	6899.95
984.12747	6894.15
987.86502	6921.05
991.59999	6933.85
995.33237	6972.45
999.06217	7058.85
1002.78939	7161.75
1006.51404	7230.05
1010.23611	7313.65
1013.95561	7380.75
1017.67255	7404.65
1021.38692	7363.45
1025.09872	7278.65
1028.80796	7207.75
1032.51465	7150.15
1036.21877	7129.95
1039.92035	7112.45
1043.61937	7110.55
1047.31584	7087.95
1051.00976	7079.15
1054.70114	7102.35
1058.38998	7124.55
1062.07627	7183.35
1065.76003	7245.15
1069.44126	7299.55
1073.11995	7360.05
1076.79611	7376.55
1080.46974	7394.25
1084.14085	7371.95
1087.80943	7346.45
1091.47549	7336.15
1095.13903	7310.15
1098.80005	7257.95
1102.45857	7185.05
1106.11456	7130.25
1109.76805	7157.55
1113.41903	7248.45
1117.06751	7400.75
1120.71348	7661.35
1124.35696	7975.55
1127.99793	8370.25
1131.63641	8764.15
1135.2724	8928.15
1138.90589	8909.95
1142.5369	8721.15
1146.16542	8449.45
1149.79145	8154.05
1153.415	7825.05
1157.03607	7631.85
1160.65467	7553.35
1164.27079	7575.65
1167.88443	7666.65
1171.49561	7883.25
1175.10432	8187.55
1178.71056	8574.35
1182.31434	8957.25
1185.91565	9150.45
1189.51451	9171.15
1193.11091	9091.55
1196.70485	8975.75
1200.29634	8894.45
1203.88538	8810.85
1207.47197	8712.95
1211.05612	8543.95
1214.63782	8348.45
1218.21708	8144.45
1221.79391	7996.35
1225.36829	7863.05
1228.94024	7745.95
1232.50976	7679.25
1236.07685	7605.35
1239.6415	7561.25
1243.20374	7604.45
1246.76355	7620.95
1250.32093	7678.15
1253.8759	7739.75
1257.42845	7853.75
1260.97859	7970.35
1264.52631	8062.25
1268.07163	8151.95
1271.61453	8269.95
1275.15503	8357.75
1278.69312	8454.45
1282.22882	8560.55
1285.76211	8623.35
1289.29301	8803.65
1292.82151	9006.65
1296.34761	9272.15
1299.87133	9608.85
1303.39266	9964.85
1306.9116	10356.35
1310.42815	10748.35
1313.94233	11080.35
1317.45412	11079.15
1320.96354	10916.15
1324.47058	10720.25
1327.97525	10551.05
1331.47754	10429.05
1334.97747	10347.45
1338.47502	10348.85
1341.97022	10386.75
1345.46305	10456.95
1348.95352	10608.05
1352.44163	10808.95
1355.92738	11140.25
1359.41078	11644.45
1362.89183	12119.55
1366.37053	12020.85
1369.84688	11253.85
1373.32088	10322.65
1376.79254	9705.75
1380.26186	9411.85
1383.72883	9291.35
1387.19347	9192.45
1390.65578	9069.15
1394.11575	8958.95
1397.57339	8894.05
1401.0287	8862.75
1404.48168	8861.05
1407.93234	8768.05
1411.38068	8610.15
1414.82669	8399.55
1418.27039	8164.15
1421.71177	7926.75
1425.15083	7735.55
1428.58758	7584.65
1432.02203	7548.95
1435.45416	7589.05
1438.88399	7672.75
1442.31151	7747.45
1445.73673	7803.45
1449.15965	7861.25
1452.58027	7945.15
1455.9986	7975.65
1459.41463	7988.15
1462.82837	8081.15
1466.23982	8167.15
1469.64898	8292.55
1473.05586	8326.45
1476.46045	8335.05
1479.86276	8341.65
1483.26279	8272.05
1486.66054	8287.35
1490.05602	8317.95
1493.44922	8403.25
1496.84016	8565.65
1500.22882	8783.05
1503.61521	9107.55
1506.99934	9500.85
1510.38121	9855.25
1513.76081	9981.95
1517.13816	9752.85
1520.51324	9330.35
1523.88607	8923.85
1527.25665	8685.35
1530.62498	8550.95
1533.99105	8504.45
1537.35488	8476.65
1540.71647	8476.45
1544.07581	8414.55
1547.4329	8379.05
1550.78776	8322.95
1554.14038	8363.65
1557.49077	8399.45
1560.83892	8442.55
1564.18484	8476.35
1567.52853	8571.05
1570.86999	8614.95
1574.20922	8681.45
1577.54624	8728.85
1580.88103	8657.15
1584.2136	8564.95
1587.54395	8566.05
1590.87208	8654.15
1594.19801	8848.05
1597.52172	9110.75
1600.84321	9231.55
1604.16251	9110.55
1607.47959	8784.95
1610.79447	8489.85
1614.10715	8162.65
1617.41763	7920.65
1620.7259	7731.15
1624.03199	7657.65
1627.33587	7651.45
1630.63757	7758.85
1633.93707	7973.85
1637.23439	8320.25
1640.52951	8847.15
1643.82246	9443.15
1647.11321	10030.15
1650.40179	10333.45
1653.68819	10099.75
1656.97241	9426.15
1660.25446	8692.15
1663.53433	8123.45
1666.81203	7750.45
1670.08756	7526.15
1673.36092	7338.95
1676.63211	7219.05
1679.90115	7103.85
1683.16801	7001.85
1686.43272	6858.85
1689.69527	6742.95
1692.95567	6596.45
1696.2139	6445.55
1699.46999	6320.15
1702.72392	6217.05
1705.97571	6110.55
1709.22535	6044.65
1712.47284	5980.95
1715.71819	5928.85
1718.96139	5880.75
1722.20246	5798.25
1725.44139	5753.55
1728.67818	5668.65
1731.91284	5619.75
1735.14537	5564.15
1738.37576	5503.25
1741.60403	5454.85
1744.83017	5425.35
1748.05418	5413.65
1751.27607	5396.85
1754.49584	5374.65
1757.71349	5369.95
1760.92903	5358.25
1764.14244	5342.05
1767.35375	5330.45
1770.56294	5317.25
1773.77002	5278.65
1776.97499	5254.15
1780.17785	5237.55
1783.37861	5200.65
1786.57727	5184.85
1789.77382	5170.65
1792.96828	5146.25
1796.16064	5120.75
1799.3509	5105.15
1802.53907	5078.05
1805.72514	5043.85
1808.90913	5062.95
1812.09102	5048.55
1815.27083	5033.45
1818.44856	5011.95
1821.6242	4995.45
1824.79776	4984.85
1827.96924	4987.25
1831.13864	4962.05
1834.30597	4961.45
1837.47122	4977.15
1840.6344	4940.05
1843.7955	4934.45
1846.95454	4949.45
1850.11151	4941.35
1853.26642	4935.65
1856.41926	4921.25
1859.57004	4932.25
1862.71876	4915.35
1865.86542	4906.95
1869.01003	4909.25
1872.15258	4885.65
1875.29308	4889.25
1878.43152	4878.45
1881.56792	4870.55
1884.70227	4849.65
1887.83457	4858.05
1890.96482	4838.25
1894.09304	4840.35
1897.21921	4836.85
1900.34335	4809.05
1903.46544	4805.85
1906.58551	4814.65
1909.70353	4802.35
1912.81953	4788.15
1915.93349	4791.15
1919.04543	4772.25
1922.15534	4755.45
1925.26322	4763.25
1928.36908	4739.65
1931.47292	4737.15
1934.57473	4713.15
1937.67453	4701.35
1940.77232	4703.85
1943.86808	4685.15
1946.96184	4661.15
1950.05358	4640.75
1953.14331	4632.85
1956.23103	4624.85
1959.31675	4627.15
1962.40046	4599.85
1965.48217	4580.65
1968.56188	4575.85
1971.63959	4558.45
1974.7153	4543.15
1977.78901	4521.85
1980.86073	4531.15
1983.93046	4502.85
1986.99819	4492.35
1990.06394	4489.45
1993.1277	4481.85
1996.18947	4455.25
1999.24925	4429.65
2002.30706	4431.25
2005.36288	4399.45
2008.41672	4393.95
2011.46859	4380.35
2014.51848	4358.55
2017.56639	4354.25
2020.61233	4354.05
2023.6563	4339.95
2026.6983	4316.85
2029.73833	4311.75
2032.7764	4296.35
2035.8125	4305.15
2038.84664	4286.25
2041.87881	4286.15
2044.90903	4251.45
2047.93729	4251.45
2050.96359	4245.45
2053.98794	4241.95
2057.01034	4256.25
2060.03078	4228.05
2063.04927	4230.95
2066.06582	4242.45
2069.08042	4222.15
2072.09307	4230.85
2075.10378	4216.35
2078.11255	4220.65
2081.11938	4227.15
2084.12426	4210.15
2087.12722	4192.45
2090.12824	4201.45
2093.12732	4212.05
2096.12447	4215.55
2099.11969	4206.95
2102.11299	4195.55
2105.10435	4219.75
2108.09379	4211.45
2111.08131	4207.85
2114.0669	4207.55
2117.05057	4223.95
2120.03233	4213.65
2123.01216	4213.75
2125.99008	4206.65
2128.96609	4215.05
2131.94018	4211.05
2134.91236	4220.95
2137.88263	4235.45
2140.851	4237.45
2143.81746	4247.15
2146.78201	4223.65
2149.74466	4224.15
2152.7054	4221.15
2155.66425	4237.65
2158.6212	4229.45
2161.57625	4232.85
2164.52941	4216.35
2167.48067	4210.75
2170.43004	4220.65
2173.37752	4217.75
2176.32311	4207.45
2179.26681	4199.95
2182.20863	4202.85
2185.14856	4206.65
2188.08661	4202.35
2191.02278	4199.85
2193.95707	4195.25
2196.88948	4186.65
2199.82001	4177.35
2202.74867	4186.55
2205.67545	4170.45
2208.60037	4167.55
2211.52341	4167.35
2214.44458	4160.85
2217.36388	4144.05
2220.28132	4133.15
2223.1969	4117.95
2226.11061	4118.95
2229.02246	4113.25
2231.93245	4112.25
2234.84058	4085.35
2237.74686	4087.35
2240.65128	4062.45
2243.55385	4076.65
2246.45456	4048.15
2249.35343	4052.95
2252.25044	4037.05
2255.14561	4046.55
2258.03893	4039.15
2260.93041	4025.95
2263.82004	4024.05
2266.70783	4008.95
2269.59378	3993.45
2272.4779	3995.35
2275.36017	3993.85
2278.24061	3964.95
2281.11922	3980.45
2283.996	3975.05
2286.87094	3967.65
2289.74405	3955.35
2292.61534	3927.25
2295.4848	3933.75
2298.35243	3905.05
2301.21824	3921.95
2304.08223	3914.65
2306.94439	3922.45
2309.80474	3919.75
2312.66327	3913.95
2315.51999	3902.45
2318.37489	3897.35
2321.22797	3902.95
2324.07925	3899.65
2326.92871	3895.65
2329.77637	3875.25
2332.62222	3870.65
2335.46626	3862.55
2338.3085	3866.45
2341.14893	3852.25
2343.98756	3854.75
2346.8244	3844.85
2349.65943	3839.35
2352.49267	3855.55
2355.32411	3836.05
2358.15376	3852.25
2360.98161	3829.45
2363.80768	3827.75
2366.63195	3832.45
2369.45444	3830.65
2372.27514	3828.95
2375.09405	3822.35
2377.91118	3819.15
2380.72652	3809.95
2383.54009	3788.15
2386.35187	3795.55
2389.16188	3792.15
2391.97011	3780.35
2394.77657	3755.95
2397.58125	3747.55
2400.38416	3736.15
2403.18529	3744.95
2405.98466	3739.15
2408.78226	3735.45
2411.57809	3710.35
2414.37216	3702.05
2417.16446	3712.55
2419.955	3699.05
2422.74378	3708.05
2425.5308	3703.35
2428.31606	3694.35
2431.09956	3698.15
2433.88131	3678.35
2436.6613	3694.65
2439.43954	3676.25
2442.21603	3676.95
2444.99077	3662.05
2447.76377	3686.35
2450.53501	3678.05
2453.30451	3671.05
2456.07226	3660.85
2458.83827	3636.15
2461.60254	3648.55
2464.36507	3647.85
2467.12586	3636.65
2469.88492	3640.25
2472.64224	3632.55
2475.39782	3631.65
2478.15167	3639.35
2480.90379	3632.65
2483.65417	3637.35
2486.40283	3630.15
2489.14976	3631.15
2491.89497	3633.15
2494.63845	3630.75
2497.3802	3628.95
2500.12024	3617.85
2502.85855	3603.45
2505.59514	3597.45
2508.33002	3596.95
2511.06318	3606.05
2513.79462	3611.75
2516.52435	3592.75
2519.25237	3590.85
2521.97867	3586.35
2524.70327	3562.75
2527.42616	3558.55
2530.14734	3566.05
2532.86681	3550.95
2535.58458	3554.15
2538.30065	3545.05
2541.01501	3540.95
2543.72768	3541.85
2546.43864	3526.65
2549.14791	3516.55
2551.85548	3504.65
2554.56136	3512.15
2557.26554	3503.35
2559.96803	3500.35
2562.66883	3507.15
2565.36794	3480.85
2568.06536	3489.15
2570.7611	3486.45
2573.45514	3475.95
2576.14751	3488.55
2578.83819	3465.95
2581.52719	3462.25
2584.21451	3452.95
2586.90015	3455.25
2589.58411	3455.25
2592.2664	3441.95
2594.94701	3432.65
2597.62594	3422.65
2600.30321	3421.35
2602.9788	3416.45
2605.65273	3428.25
2608.32498	3409.65
2610.99557	3402.85
2613.66449	3399.15
2616.33175	3405.35
2618.99734	3397.35
2621.66128	3397.55
2624.32355	3386.45
2626.98416	3396.05
2629.64311	3384.05
2632.30041	3376.65
2634.95605	3380.65
2637.61004	3359.95
2640.26238	3376.25
2642.91306	3365.95
2645.56209	3369.05
2648.20948	3361.75
2650.85521	3346.15
2653.4993	3357.25
2656.14175	3348.75
2658.78255	3356.75
2661.42171	3349.95
2664.05923	3365.45
2666.6951	3344.85
2669.32934	3334.55
2671.96194	3349.55
2674.59291	3355.25
2677.22224	3351.95
2679.84993	3353.95
2682.476	3352.15
2685.10043	3351.45
2687.72324	3364.45
2690.34441	3345.15
2692.96396	3354.95
2695.58188	3362.25
2698.19818	3350.55
2700.81285	3355.75
2703.4259	3362.95
2706.03733	3373.55
2708.64714	3366.25
2711.25533	3359.35
2713.86191	3362.05
2716.46687	3356.95
2719.07021	3362.65
2721.67194	3356.35
2724.27206	3358.25
2726.87057	3357.25
2729.46747	3357.75
2732.06276	3350.35
2734.65644	3354.45
2737.24852	3341.25
2739.83899	3348.15
2742.42786	3338.15
2745.01513	3344.35
2747.60079	3354.35
2750.18486	3339.15
2752.76733	3339.85
2755.3482	3341.65
2757.92747	3333.65
2760.50515	3314.05
2763.08123	3307.55
2765.65573	3309.75
2768.22863	3325.25
2770.79994	3300.05
2773.36967	3311.55
2775.9378	3312.95
2778.50435	3295.05
2781.06932	3293.15
2783.6327	3292.35
2786.1945	3298.55
2788.75471	3284.15
2791.31335	3287.75
2793.87041	3280.05
2796.42589	3262.55
2798.97979	3257.05
2801.53212	3260.25
2804.08288	3249.05
2806.63206	3254.05
2809.17967	3240.55
2811.72571	3225.95
2814.27018	3235.65
2816.81308	3213.85
2819.35442	3222.65
2821.89419	3210.95
2824.43239	3208.55
2826.96904	3202.25
2829.50412	3194.65
2832.03763	3204.65
2834.56959	3201.15
2837.1	3201.35
2839.62884	3199.35
2842.15613	3186.15
2844.68186	3197.55
2847.20604	3197.05
2849.72867	3202.15
2852.24974	3203.75
2854.76927	3215.55
2857.28724	3201.65
2859.80367	3187.65
2862.31855	3194.75
2864.83189	3184.25
2867.34368	3174.75
2869.85393	3180.45
2872.36264	3175.95
2874.8698	3184.25
2877.37543	3189.65
2879.87952	3189.55
2882.38207	3191.95
2884.88308	3197.55
2887.38256	3192.85
2889.88051	3188.55
2892.37692	3198.65
2894.8718	3190.45
2897.36515	3205.45
2899.85698	3197.95
2902.34727	3210.15
2904.83604	3213.15
2907.32328	3215.05
2909.809	3205.95
2912.29319	3206.65
2914.77587	3216.45
2917.25702	3220.95
2919.73665	3221.55
2922.21476	3225.95
2924.69136	3227.55
2927.16644	3224.15
2929.64	3227.05
2932.11205	3222.25
2934.58258	3214.85
2937.05161	3201.75
2939.51912	3226.15
2941.98513	3213.15
2944.44962	3220.05
2946.91261	3204.15
2949.37409	3205.55
2951.83407	3208.15
2954.29254	3215.75
2956.74951	3206.45
2959.20498	3196.95
2961.65895	3189.65
2964.11142	3181.05
2966.56239	3186.25
2969.01186	3198.25
2971.45984	3161.85
2973.90632	3166.45
2976.35131	3149.95
2978.7948	3162.35
2981.23681	3141.45
2983.67732	3151.35
2986.11635	3144.85
2988.55388	3138.05
2990.98993	3113.55
2993.4245	3120.25
2995.85758	3103.85
2998.28917	3095.65
3000.71928	3110.35
3003.14791	3110.45
3005.57506	3104.35
3008.00073	3094.25
3010.42493	3091.15
3012.84764	3091.45
3015.26888	3097.15
3017.68865	3083.35
3020.10694	3079.55
3022.52376	3085.05
3024.9391	3079.25
3027.35298	3072.75
3029.76539	3075.95
3032.17632	3072.25
3034.5858	3075.25
3036.9938	3078.95
3039.40034	3064.75
3041.80542	3071.95
3044.20903	3068.75
3046.61118	3056.65
3049.01187	3052.75
3051.4111	3059.85
3053.80888	3054.95
3056.20519	3059.35
3058.60005	3040.65
3060.99345	3047.75
3063.3854	3039.75
3065.7759	3039.65
3068.16494	3029.95
3070.55254	3031.15
3072.93868	3023.65
3075.32338	3043.45
3077.70662	3047.95
3080.08842	3036.15
3082.46878	3042.45
3084.84769	3036.95
3087.22515	3045.25
3089.60118	3046.05
3091.97576	3052.45
3094.3489	3050.35
3096.72061	3049.45
3099.09087	3049.65
3101.4597	3068.05
3103.82709	3065.15
3106.19305	3059.95
3108.55757	3072.55
3110.92066	3061.05
3113.28232	3051.05
3115.64255	3044.25
3118.00134	3054.75
3120.35871	3068.65
3122.71466	3066.45
3125.06917	3057.65
3127.42226	3056.35
3129.77393	3066.85
3132.12417	3069.05
3134.47299	3068.45
3136.82039	3089.45
3139.16636	3076.05
3141.51092	3089.05
3143.85406	3092.85
3146.19579	3102.25
3148.53609	3096.45
3150.87499	3112.15
3153.21246	3113.65
3155.54853	3130.85
3157.88318	3127.75
3160.21642	3144.35
3162.54826	3140.75
3164.87868	3147.85
3167.2077	3155.25
3169.5353	3143.65
3171.86151	3152.55
3174.18631	3160.15
3176.5097	3160.35
3178.83169	3153.45
3181.15228	3160.35
3183.47147	3178.65
3185.78926	3172.85
3188.10565	3172.15
3190.42065	3177.95
3192.73424	3184.35
3195.04645	3200.15
3197.35725	3197.65
3199.66667	3198.35
3201.97469	3199.75
3204.28132	3209.75
3206.58656	3215.45
3208.8904	3223.25
3211.19287	3236.05
3213.49394	3233.15
3215.79363	3235.05
3218.09193	3247.65
3220.38884	3254.45
3222.68438	3249.25
3224.97853	3238.35
3227.2713	3249.05
3229.56269	3234.25
3231.8527	3238.05
3234.14133	3224.55
3236.42858	3235.75
3238.71446	3226.55
3240.99896	3215.85
3243.28209	3240.65
3245.56384	3227.85
3247.84423	3215.15
3250.12324	3217.15
3252.40088	3218.85
3254.67715	3212.75
3256.95205	3221.35
3259.22558	3219.65
3261.49775	3211.95
3263.76855	3208.25
3266.03799	3205.15
3268.30606	3198.05
3270.57277	3200.35
3272.83812	3191.95
3275.10211	3191.45
3277.36474	3181.05
3279.62601	3167.05
3281.88593	3177.95
3284.14448	3181.05
3286.40168	3188.85
3288.65753	3181.05
3290.91202	3178.95
3293.16516	3163.35
3295.41695	3157.55
3297.66738	3130.15
3299.91647	3118.65
3302.16421	3120.55
3304.4106	3093.05
3306.65564	3090.85
3308.89933	3066.65
3311.14169	3055.25
3313.38269	3035.55
3315.62236	3007.15
3317.86068	2984.65
3320.09766	2963.65
3322.3333	2948.85
3324.5676	2944.25
3326.80056	2898.25
3329.03219	2883.15
3331.26248	0.65
3333.49143	0.45
3335.71905	0.65
