Data from AgNPs_FTO_APTES_UA_0.1mM_CRN_0uM_NaF_0.1M_Addition_RamanShift__45__10-55-07-505.txt Node

Date: Mon Dec 20 10:55:07 GMT 2021
User: TCL
Spectrometer: QEP01345
Trigger mode: 4
Integration Time (sec): 7.000000E0
Scans to average: 10
Electric dark correction enabled: true
Nonlinearity correction enabled: false
Boxcar width: 0
XAxis mode: Raman Shifts
Number of Pixels in Spectrum: 1044
>>>>>Begin Spectral Data<<<<<
46.04893	1.05
50.45542	-1.25
54.85868	-1.45
59.25871	0.05
63.6555	31.15
68.04907	32.55
72.43941	35.75
76.82654	38.75
81.21044	38.75
85.59113	43.55
89.96862	39.75
94.34289	45.05
98.71396	46.95
103.08183	46.85
107.4465	47.45
111.80798	51.75
116.16626	49.05
120.52136	50.15
124.87327	56.45
129.222	52.95
133.56755	55.85
137.90993	60.95
142.24913	68.15
146.58517	70.15
150.91804	82.85
155.24774	98.75
159.57429	116.55
163.89768	145.55
168.21792	189.15
172.53501	244.05
176.84895	336.35
181.15975	469.85
185.46741	652.25
189.77193	906.55
194.07331	1204.25
198.37157	1564.35
202.6667	1946.15
206.9587	2329.35
211.24758	2705.95
215.53334	3098.45
219.81599	3482.65
224.09553	3911.65
228.37195	4386.15
232.64527	4900.75
236.91549	5466.25
241.18261	6008.55
245.44663	6524.85
249.70755	6980.65
253.96539	7332.55
258.22014	7617.35
262.4718	7802.75
266.72039	7888.25
270.96589	7847.75
275.20832	7750.15
279.44768	7571.65
283.68397	7419.75
287.91719	7250.85
292.14735	7097.45
296.37445	7001.85
300.59849	6931.65
304.81948	6905.65
309.03742	6878.95
313.25231	6831.15
317.46415	6727.15
321.67296	6624.75
325.87872	6552.75
330.08145	6493.25
334.28114	6477.85
338.47781	6518.55
342.67145	6554.85
346.86207	6608.55
351.04966	6695.45
355.23424	6806.95
359.4158	6869.25
363.59435	6951.45
367.76989	7047.85
371.94243	7120.35
376.11196	7165.25
380.27849	7211.75
384.44203	7262.45
388.60257	7338.35
392.76012	7424.55
396.91468	7505.05
401.06626	7603.55
405.21485	7684.05
409.36047	7699.15
413.50311	7658.65
417.64277	7609.45
421.77947	7585.95
425.9132	7599.05
430.04396	7606.85
434.17176	7625.95
438.2966	7641.55
442.41849	7680.65
446.53742	7745.45
450.6534	7818.45
454.76644	7888.65
458.87653	7925.45
462.98368	7967.45
467.08789	7937.25
471.18916	7988.25
475.2875	7982.75
479.38291	8016.85
483.4754	8084.95
487.56496	8150.75
491.6516	8251.25
495.73531	8339.75
499.81612	8409.25
503.89401	8465.65
507.96899	8445.95
512.04106	8410.05
516.11023	8349.55
520.1765	8275.35
524.23987	8257.35
528.30034	8190.75
532.35792	8148.55
536.41261	8136.75
540.46441	8053.15
544.51333	8020.75
548.55936	8028.65
552.60252	8043.25
556.64279	8094.25
560.6802	8130.05
564.71473	8109.55
568.7464	8147.05
572.7752	8198.25
576.80114	8208.45
580.82422	8270.35
584.84444	8367.85
588.86181	8492.45
592.87633	8521.75
596.888	8554.05
600.89682	8547.35
604.9028	8692.65
608.90594	9099.25
612.90624	9685.75
616.90371	9578.25
620.89834	8905.25
624.89015	8615.15
628.87913	8779.15
632.86528	9044.15
636.84862	9276.75
640.82913	9352.65
644.80683	9241.75
648.78172	9069.05
652.75379	8939.15
656.72306	8854.05
660.68952	8824.25
664.65319	8789.95
668.61405	8741.95
672.57211	8733.75
676.52738	8773.35
680.47986	8810.75
684.42955	8783.05
688.37646	8773.15
692.32058	8730.25
696.26192	8658.75
700.20048	8610.55
704.13626	8573.55
708.06928	8513.35
711.99952	8420.15
715.927	8362.45
719.85171	8329.25
723.77365	8322.65
727.69284	8305.65
731.60928	8241.35
735.52295	8221.25
739.43388	8220.15
743.34206	8259.65
747.24749	8285.55
751.15017	8315.05
755.05012	8361.85
758.94733	8436.55
762.8418	8594.05
766.73354	8875.35
770.62254	9181.05
774.50882	9338.95
778.39237	9190.05
782.27321	8888.85
786.15132	8575.95
790.02671	8387.25
793.89938	8298.65
797.76935	8271.35
801.6366	8331.75
805.50115	8397.35
809.36299	8472.65
813.22213	8498.85
817.07857	8416.45
820.93231	8285.65
824.78336	8180.75
828.63172	8062.75
832.47738	7998.45
836.32036	7963.65
840.16066	7952.75
843.99827	7930.55
847.8332	7929.05
851.66546	7948.75
855.49504	7969.15
859.32195	7956.15
863.1462	7970.15
866.96777	7985.15
870.78668	7997.55
874.60293	8060.45
878.41652	8121.65
882.22745	8192.55
886.03573	8231.65
889.84136	8250.85
893.64433	8220.95
897.44466	8160.35
901.24235	8103.15
905.0374	8027.45
908.8298	7994.95
912.61957	7957.55
916.40671	7934.65
920.19121	7921.65
923.97308	7927.85
927.75233	7924.25
931.52895	7889.15
935.30295	7860.05
939.07433	7796.95
942.84309	7766.15
946.60924	7725.95
950.37278	7721.95
954.13371	7733.45
957.89203	7707.35
961.64774	7672.65
965.40086	7687.15
969.15137	7646.35
972.89929	7644.45
976.64461	7644.65
980.38733	7615.95
984.12747	7615.25
987.86502	7636.35
991.59999	7671.95
995.33237	7682.35
999.06217	7723.75
1002.78939	7793.15
1006.51404	7840.95
1010.23611	7915.75
1013.95561	7980.65
1017.67255	8025.95
1021.38692	7989.65
1025.09872	7934.55
1028.80796	7878.55
1032.51465	7836.45
1036.21877	7830.65
1039.92035	7843.85
1043.61937	7820.75
1047.31584	7846.55
1051.00976	7851.95
1054.70114	7867.85
1058.38998	7885.65
1062.07627	7908.65
1065.76003	7977.55
1069.44126	8008.35
1073.11995	8073.45
1076.79611	8162.65
1080.46974	8188.25
1084.14085	8199.55
1087.80943	8156.65
1091.47549	8183.65
1095.13903	8154.75
1098.80005	8131.35
1102.45857	8068.05
1106.11456	7998.85
1109.76805	8031.95
1113.41903	8065.75
1117.06751	8173.45
1120.71348	8371.75
1124.35696	8593.95
1127.99793	8887.05
1131.63641	9130.15
1135.2724	9269.25
1138.90589	9272.05
1142.5369	9203.35
1146.16542	9043.05
1149.79145	8806.25
1153.415	8575.15
1157.03607	8382.95
1160.65467	8251.45
1164.27079	8261.45
1167.88443	8308.65
1171.49561	8401.85
1175.10432	8626.75
1178.71056	8895.45
1182.31434	9158.15
1185.91565	9335.85
1189.51451	9360.05
1193.11091	9354.45
1196.70485	9287.55
1200.29634	9228.15
1203.88538	9170.85
1207.47197	9111.55
1211.05612	9005.95
1214.63782	8893.35
1218.21708	8796.65
1221.79391	8694.35
1225.36829	8576.25
1228.94024	8504.65
1232.50976	8468.25
1236.07685	8437.35
1239.6415	8402.25
1243.20374	8408.45
1246.76355	8451.95
1250.32093	8496.95
1253.8759	8542.05
1257.42845	8634.15
1260.97859	8706.55
1264.52631	8792.25
1268.07163	8873.35
1271.61453	8913.15
1275.15503	8987.55
1278.69312	9017.05
1282.22882	9083.55
1285.76211	9136.65
1289.29301	9228.55
1292.82151	9353.85
1296.34761	9522.55
1299.87133	9725.35
1303.39266	9957.95
1306.9116	10250.05
1310.42815	10492.05
1313.94233	10690.25
1317.45412	10735.25
1320.96354	10609.25
1324.47058	10511.45
1327.97525	10360.05
1331.47754	10253.35
1334.97747	10224.45
1338.47502	10263.65
1341.97022	10334.55
1345.46305	10463.75
1348.95352	10648.75
1352.44163	10874.65
1355.92738	11145.45
1359.41078	11464.05
1362.89183	11791.65
1366.37053	11677.65
1369.84688	11170.45
1373.32088	10480.75
1376.79254	10022.75
1380.26186	9745.45
1383.72883	9579.45
1387.19347	9459.85
1390.65578	9330.35
1394.11575	9199.55
1397.57339	9095.85
1401.0287	9014.05
1404.48168	8945.15
1407.93234	8859.25
1411.38068	8765.65
1414.82669	8617.25
1418.27039	8486.55
1421.71177	8343.75
1425.15083	8242.85
1428.58758	8147.05
1432.02203	8095.85
1435.45416	8091.55
1438.88399	8132.75
1442.31151	8162.35
1445.73673	8202.65
1449.15965	8258.75
1452.58027	8251.15
1455.9986	8289.75
1459.41463	8326.05
1462.82837	8421.45
1466.23982	8515.65
1469.64898	8633.35
1473.05586	8697.65
1476.46045	8741.05
1479.86276	8739.55
1483.26279	8747.25
1486.66054	8762.35
1490.05602	8829.45
1493.44922	8922.35
1496.84016	9077.85
1500.22882	9284.15
1503.61521	9641.45
1506.99934	9972.25
1510.38121	10239.35
1513.76081	10305.85
1517.13816	10115.05
1520.51324	9766.85
1523.88607	9439.55
1527.25665	9231.75
1530.62498	9131.35
1533.99105	9076.85
1537.35488	9069.75
1540.71647	9070.55
1544.07581	9053.75
1547.4329	9030.15
1550.78776	9060.15
1554.14038	9065.65
1557.49077	9088.65
1560.83892	9122.55
1564.18484	9173.45
1567.52853	9229.15
1570.86999	9263.15
1574.20922	9323.25
1577.54624	9307.15
1580.88103	9213.05
1584.2136	9072.85
1587.54395	9018.65
1590.87208	9053.25
1594.19801	9180.95
1597.52172	9353.35
1600.84321	9468.15
1604.16251	9397.65
1607.47959	9245.05
1610.79447	9089.85
1614.10715	8869.25
1617.41763	8685.55
1620.7259	8507.15
1624.03199	8438.65
1627.33587	8413.25
1630.63757	8439.95
1633.93707	8545.35
1637.23439	8738.15
1640.52951	9037.75
1643.82246	9421.95
1647.11321	9808.65
1650.40179	10077.15
1653.68819	9986.05
1656.97241	9561.45
1660.25446	9056.25
1663.53433	8679.55
1666.81203	8391.75
1670.08756	8211.15
1673.36092	8077.55
1676.63211	7978.15
1679.90115	7898.75
1683.16801	7788.35
1686.43272	7671.45
1689.69527	7551.75
1692.95567	7433.55
1696.2139	7344.55
1699.46999	7216.35
1702.72392	7161.55
1705.97571	7073.95
1709.22535	7007.45
1712.47284	6984.95
1715.71819	6912.45
1718.96139	6893.95
1722.20246	6859.05
1725.44139	6804.55
1728.67818	6743.85
1731.91284	6670.45
1735.14537	6629.75
1738.37576	6575.25
1741.60403	6521.35
1744.83017	6494.85
1748.05418	6435.65
1751.27607	6428.65
1754.49584	6407.65
1757.71349	6407.85
1760.92903	6374.55
1764.14244	6380.05
1767.35375	6332.45
1770.56294	6348.25
1773.77002	6342.25
1776.97499	6323.65
1780.17785	6294.75
1783.37861	6283.05
1786.57727	6256.55
1789.77382	6232.15
1792.96828	6214.25
1796.16064	6194.45
1799.3509	6175.65
1802.53907	6142.75
1805.72514	6125.65
1808.90913	6112.65
1812.09102	6109.95
1815.27083	6083.65
1818.44856	6080.15
1821.6242	6052.25
1824.79776	6062.45
1827.96924	6057.25
1831.13864	6042.65
1834.30597	6028.75
1837.47122	6035.15
1840.6344	5998.45
1843.7955	5990.75
1846.95454	6003.75
1850.11151	6003.85
1853.26642	5984.35
1856.41926	6000.85
1859.57004	5978.25
1862.71876	5976.25
1865.86542	5972.55
1869.01003	5948.35
1872.15258	5957.45
1875.29308	5940.95
1878.43152	5944.85
1881.56792	5921.95
1884.70227	5915.05
1887.83457	5916.15
1890.96482	5906.95
1894.09304	5889.15
1897.21921	5872.45
1900.34335	5864.05
1903.46544	5854.85
1906.58551	5868.95
1909.70353	5843.35
1912.81953	5840.95
1915.93349	5811.35
1919.04543	5805.85
1922.15534	5813.05
1925.26322	5801.75
1928.36908	5786.65
1931.47292	5758.85
1934.57473	5736.35
1937.67453	5739.45
1940.77232	5726.45
1943.86808	5702.95
1946.96184	5677.05
1950.05358	5674.05
1953.14331	5664.15
1956.23103	5639.45
1959.31675	5635.85
1962.40046	5613.85
1965.48217	5591.85
1968.56188	5586.05
1971.63959	5563.25
1974.7153	5537.65
1977.78901	5527.65
1980.86073	5514.85
1983.93046	5506.75
1986.99819	5472.75
1990.06394	5450.55
1993.1277	5457.15
1996.18947	5432.65
1999.24925	5414.75
2002.30706	5399.25
2005.36288	5410.15
2008.41672	5366.55
2011.46859	5338.15
2014.51848	5328.35
2017.56639	5309.95
2020.61233	5303.85
2023.6563	5306.25
2026.6983	5292.95
2029.73833	5250.65
2032.7764	5244.95
2035.8125	5248.15
2038.84664	5212.35
2041.87881	5220.65
2044.90903	5193.75
2047.93729	5201.55
2050.96359	5187.75
2053.98794	5183.45
2057.01034	5194.95
2060.03078	5185.95
2063.04927	5169.45
2066.06582	5173.25
2069.08042	5151.95
2072.09307	5156.75
2075.10378	5142.25
2078.11255	5146.25
2081.11938	5131.55
2084.12426	5130.05
2087.12722	5138.65
2090.12824	5136.15
2093.12732	5118.35
2096.12447	5141.15
2099.11969	5130.15
2102.11299	5116.35
2105.10435	5132.55
2108.09379	5121.65
2111.08131	5159.85
2114.0669	5166.55
2117.05057	5146.65
2120.03233	5155.15
2123.01216	5163.05
2125.99008	5146.95
2128.96609	5160.05
2131.94018	5166.55
2134.91236	5184.05
2137.88263	5164.55
2140.851	5156.35
2143.81746	5162.55
2146.78201	5171.35
2149.74466	5167.65
2152.7054	5165.75
2155.66425	5166.25
2158.6212	5162.65
2161.57625	5159.15
2164.52941	5149.65
2167.48067	5171.95
2170.43004	5151.85
2173.37752	5147.85
2176.32311	5157.35
2179.26681	5126.55
2182.20863	5139.85
2185.14856	5137.55
2188.08661	5149.55
2191.02278	5145.95
2193.95707	5125.85
2196.88948	5119.65
2199.82001	5108.85
2202.74867	5106.35
2205.67545	5098.25
2208.60037	5086.35
2211.52341	5090.55
2214.44458	5079.65
2217.36388	5063.25
2220.28132	5047.85
2223.1969	5041.25
2226.11061	5030.65
2229.02246	5034.15
2231.93245	5001.85
2234.84058	5015.15
2237.74686	4991.95
2240.65128	4997.05
2243.55385	4967.85
2246.45456	4977.65
2249.35343	4959.95
2252.25044	4940.95
2255.14561	4942.75
2258.03893	4936.75
2260.93041	4922.95
2263.82004	4904.55
2266.70783	4912.35
2269.59378	4891.25
2272.4779	4902.05
2275.36017	4887.35
2278.24061	4880.15
2281.11922	4854.05
2283.996	4843.75
2286.87094	4852.75
2289.74405	4834.15
2292.61534	4820.35
2295.4848	4801.15
2298.35243	4804.25
2301.21824	4791.25
2304.08223	4784.75
2306.94439	4789.35
2309.80474	4770.25
2312.66327	4775.35
2315.51999	4767.45
2318.37489	4774.05
2321.22797	4759.25
2324.07925	4748.35
2326.92871	4732.25
2329.77637	4737.35
2332.62222	4726.65
2335.46626	4729.85
2338.3085	4705.75
2341.14893	4690.05
2343.98756	4705.85
2346.8244	4699.85
2349.65943	4683.75
2352.49267	4687.15
2355.32411	4685.15
2358.15376	4661.55
2360.98161	4672.75
2363.80768	4672.75
2366.63195	4669.55
2369.45444	4675.95
2372.27514	4645.45
2375.09405	4654.15
2377.91118	4641.25
2380.72652	4626.15
2383.54009	4619.55
2386.35187	4617.85
2389.16188	4598.55
2391.97011	4597.05
2394.77657	4568.85
2397.58125	4579.25
2400.38416	4568.35
2403.18529	4545.05
2405.98466	4552.45
2408.78226	4536.35
2411.57809	4540.85
2414.37216	4518.35
2417.16446	4535.95
2419.955	4514.85
2422.74378	4529.45
2425.5308	4503.15
2428.31606	4486.15
2431.09956	4477.55
2433.88131	4478.25
2436.6613	4485.55
2439.43954	4483.45
2442.21603	4460.55
2444.99077	4479.55
2447.76377	4446.45
2450.53501	4467.85
2453.30451	4451.85
2456.07226	4441.55
2458.83827	4426.05
2461.60254	4436.95
2464.36507	4420.95
2467.12586	4414.45
2469.88492	4418.55
2472.64224	4411.75
2475.39782	4406.15
2478.15167	4414.05
2480.90379	4390.55
2483.65417	4405.55
2486.40283	4390.25
2489.14976	4391.45
2491.89497	4380.25
2494.63845	4378.35
2497.3802	4376.55
2500.12024	4382.65
2502.85855	4387.85
2505.59514	4365.25
2508.33002	4358.65
2511.06318	4349.15
2513.79462	4345.75
2516.52435	4343.65
2519.25237	4331.35
2521.97867	4315.05
2524.70327	4322.45
2527.42616	4314.95
2530.14734	4312.95
2532.86681	4299.25
2535.58458	4293.75
2538.30065	4280.35
2541.01501	4286.35
2543.72768	4257.55
2546.43864	4268.65
2549.14791	4263.25
2551.85548	4242.95
2554.56136	4239.05
2557.26554	4232.25
2559.96803	4223.05
2562.66883	4220.25
2565.36794	4213.05
2568.06536	4185.35
2570.7611	4194.95
2573.45514	4191.35
2576.14751	4180.85
2578.83819	4169.25
2581.52719	4164.75
2584.21451	4173.15
2586.90015	4156.05
2589.58411	4140.45
2592.2664	4128.85
2594.94701	4130.95
2597.62594	4121.35
2600.30321	4111.05
2602.9788	4090.75
2605.65273	4096.85
2608.32498	4091.85
2610.99557	4085.95
2613.66449	4076.75
2616.33175	4067.15
2618.99734	4063.15
2621.66128	4056.05
2624.32355	4053.45
2626.98416	4055.45
2629.64311	4052.35
2632.30041	4036.55
2634.95605	4039.85
2637.61004	4017.05
2640.26238	4014.35
2642.91306	4023.75
2645.56209	4027.85
2648.20948	4018.45
2650.85521	3989.35
2653.4993	4009.05
2656.14175	3989.05
2658.78255	4006.85
2661.42171	4009.95
2664.05923	3985.95
2666.6951	3993.25
2669.32934	3998.65
2671.96194	3995.65
2674.59291	3999.75
2677.22224	3984.55
2679.84993	4010.15
2682.476	3998.55
2685.10043	3983.75
2687.72324	3973.55
2690.34441	3981.05
2692.96396	3980.75
2695.58188	3998.85
2698.19818	3977.35
2700.81285	3981.15
2703.4259	3997.05
2706.03733	3989.25
2708.64714	4003.95
2711.25533	3988.85
2713.86191	3992.25
2716.46687	4001.65
2719.07021	3992.35
2721.67194	3994.95
2724.27206	3988.05
2726.87057	3980.25
2729.46747	3976.85
2732.06276	3977.95
2734.65644	3962.75
2737.24852	3969.85
2739.83899	3950.15
2742.42786	3964.05
2745.01513	3956.05
2747.60079	3951.15
2750.18486	3943.85
2752.76733	3941.15
2755.3482	3931.25
2757.92747	3937.85
2760.50515	3927.95
2763.08123	3927.85
2765.65573	3922.75
2768.22863	3918.25
2770.79994	3907.15
2773.36967	3900.45
2775.9378	3898.25
2778.50435	3894.45
2781.06932	3876.75
2783.6327	3884.35
2786.1945	3869.55
2788.75471	3857.05
2791.31335	3856.75
2793.87041	3845.85
2796.42589	3825.45
2798.97979	3824.35
2801.53212	3822.65
2804.08288	3804.95
2806.63206	3805.45
2809.17967	3794.75
2811.72571	3791.55
2814.27018	3782.25
2816.81308	3778.25
2819.35442	3754.45
2821.89419	3753.45
2824.43239	3772.05
2826.96904	3756.25
2829.50412	3758.55
2832.03763	3743.85
2834.56959	3742.75
2837.1	3729.55
2839.62884	3745.05
2842.15613	3730.35
2844.68186	3738.95
2847.20604	3738.25
2849.72867	3750.25
2852.24974	3728.05
2854.76927	3725.25
2857.28724	3709.25
2859.80367	3714.95
2862.31855	3711.75
2864.83189	3714.35
2867.34368	3698.85
2869.85393	3697.25
2872.36264	3708.75
2874.8698	3706.15
2877.37543	3702.35
2879.87952	3695.95
2882.38207	3719.35
2884.88308	3680.75
2887.38256	3700.65
2889.88051	3698.95
2892.37692	3713.25
2894.8718	3688.95
2897.36515	3703.45
2899.85698	3723.45
2902.34727	3709.75
2904.83604	3706.25
2907.32328	3699.05
2909.809	3704.75
2912.29319	3696.15
2914.77587	3708.35
2917.25702	3721.05
2919.73665	3698.05
2922.21476	3691.25
2924.69136	3700.95
2927.16644	3687.05
2929.64	3701.85
2932.11205	3693.65
2934.58258	3693.65
2937.05161	3696.45
2939.51912	3689.75
2941.98513	3676.85
2944.44962	3686.55
2946.91261	3676.75
2949.37409	3669.45
2951.83407	3673.45
2954.29254	3678.75
2956.74951	3669.65
2959.20498	3677.05
2961.65895	3652.55
2964.11142	3668.35
2966.56239	3655.65
2969.01186	3664.45
2971.45984	3641.25
2973.90632	3630.25
2976.35131	3621.85
2978.7948	3624.75
2981.23681	3615.25
2983.67732	3617.05
2986.11635	3607.95
2988.55388	3596.75
2990.98993	3591.95
2993.4245	3582.35
2995.85758	3580.75
2998.28917	3581.05
3000.71928	3565.15
3003.14791	3579.95
3005.57506	3577.85
3008.00073	3568.95
3010.42493	3569.15
3012.84764	3552.65
3015.26888	3565.35
3017.68865	3567.75
3020.10694	3554.95
3022.52376	3549.15
3024.9391	3547.75
3027.35298	3542.55
3029.76539	3527.55
3032.17632	3545.05
3034.5858	3529.55
3036.9938	3529.35
3039.40034	3531.85
3041.80542	3524.75
3044.20903	3514.05
3046.61118	3521.55
3049.01187	3523.15
3051.4111	3513.05
3053.80888	3508.45
3056.20519	3518.65
3058.60005	3486.05
3060.99345	3499.65
3063.3854	3496.05
3065.7759	3491.95
3068.16494	3485.15
3070.55254	3478.25
3072.93868	3468.75
3075.32338	3480.65
3077.70662	3482.85
3080.08842	3475.45
3082.46878	3472.25
3084.84769	3476.95
3087.22515	3483.45
3089.60118	3494.45
3091.97576	3488.65
3094.3489	3481.65
3096.72061	3496.75
3099.09087	3505.95
3101.4597	3487.55
3103.82709	3503.65
3106.19305	3487.05
3108.55757	3501.25
3110.92066	3475.65
3113.28232	3481.15
3115.64255	3505.35
3118.00134	3469.65
3120.35871	3474.55
3122.71466	3480.35
3125.06917	3484.15
3127.42226	3475.95
3129.77393	3472.15
3132.12417	3489.35
3134.47299	3492.15
3136.82039	3501.25
3139.16636	3486.35
3141.51092	3497.95
3143.85406	3511.75
3146.19579	3511.15
3148.53609	3524.75
3150.87499	3517.35
3153.21246	3538.75
3155.54853	3544.75
3157.88318	3549.15
3160.21642	3553.35
3162.54826	3559.25
3164.87868	3558.75
3167.2077	3560.05
3169.5353	3575.65
3171.86151	3569.35
3174.18631	3562.65
3176.5097	3556.45
3178.83169	3560.95
3181.15228	3565.75
3183.47147	3563.45
3185.78926	3564.95
3188.10565	3558.85
3190.42065	3560.95
3192.73424	3571.05
3195.04645	3571.25
3197.35725	3577.85
3199.66667	3586.05
3201.97469	3589.05
3204.28132	3608.95
3206.58656	3610.75
3208.8904	3598.95
3211.19287	3614.15
3213.49394	3593.45
3215.79363	3600.85
3218.09193	3614.85
3220.38884	3627.55
3222.68438	3629.75
3224.97853	3608.55
3227.2713	3614.55
3229.56269	3604.35
3231.8527	3603.55
3234.14133	3590.45
3236.42858	3601.45
3238.71446	3572.45
3240.99896	3590.35
3243.28209	3603.65
3245.56384	3594.05
3247.84423	3587.85
3250.12324	3583.05
3252.40088	3583.75
3254.67715	3570.45
3256.95205	3560.45
3259.22558	3581.75
3261.49775	3574.75
3263.76855	3572.25
3266.03799	3568.45
3268.30606	3546.85
3270.57277	3554.65
3272.83812	3535.95
3275.10211	3530.95
3277.36474	3556.55
3279.62601	3534.15
3281.88593	3542.05
3284.14448	3543.85
3286.40168	3533.75
3288.65753	3534.25
3290.91202	3526.15
3293.16516	3521.75
3295.41695	3511.45
3297.66738	3486.55
3299.91647	3480.75
3302.16421	3457.15
3304.4106	3452.35
3306.65564	3431.15
3308.89933	3412.15
3311.14169	3403.65
3313.38269	3375.95
3315.62236	3351.35
3317.86068	3320.05
3320.09766	3292.45
3322.3333	3279.25
3324.5676	3280.05
3326.80056	3220.65
3329.03219	3215.85
3331.26248	1.55
3333.49143	0.05
3335.71905	-0.05
