Data from AgNPs_UA_10uM_CRN_500uM_SU_RamanShift__158__13-31-40-285.txt Node

Date: Thu Aug 04 13:31:40 BST 2022
User: TCL
Spectrometer: QEP01345
Trigger mode: 4
Integration Time (sec): 1.000000E0
Scans to average: 10
Electric dark correction enabled: true
Nonlinearity correction enabled: false
Boxcar width: 0
XAxis mode: Raman Shifts
Number of Pixels in Spectrum: 1044
>>>>>Begin Spectral Data<<<<<
46.04893	0.25
50.45542	-0.25
54.85868	-0.25
59.25871	-0.25
63.6555	14.25
68.04907	13.45
72.43941	17.05
76.82654	15.25
81.21044	15.75
85.59113	17.55
89.96862	18.35
94.34289	18.15
98.71396	18.25
103.08183	20.35
107.4465	21.25
111.80798	19.25
116.16626	19.95
120.52136	22.55
124.87327	23.45
129.222	24.25
133.56755	23.45
137.90993	26.15
142.24913	29.75
146.58517	33.65
150.91804	38.95
155.24774	49.25
159.57429	59.25
163.89768	78.75
168.21792	105.75
172.53501	142.95
176.84895	199.85
181.15975	286.15
185.46741	397.65
189.77193	549.15
194.07331	738.05
198.37157	947.95
202.6667	1169.35
206.9587	1389.15
211.24758	1625.85
215.53334	1830.95
219.81599	2071.55
224.09553	2339.35
228.37195	2615.45
232.64527	2928.85
236.91549	3252.25
241.18261	3538.15
245.44663	3800.65
249.70755	4001.55
253.96539	4190.25
258.22014	4354.15
262.4718	4489.75
266.72039	4574.85
270.96589	4635.05
275.20832	4620.15
279.44768	4558.65
283.68397	4489.15
287.91719	4446.55
292.14735	4439.55
296.37445	4515.15
300.59849	4612.05
304.81948	4767.75
309.03742	4849.35
313.25231	4885.45
317.46415	4811.45
321.67296	4674.45
325.87872	4531.45
330.08145	4462.95
334.28114	4484.75
338.47781	4548.35
342.67145	4630.45
346.86207	4757.35
351.04966	4909.85
355.23424	5086.15
359.4158	5239.65
363.59435	5329.85
367.76989	5362.15
371.94243	5396.55
376.11196	5404.95
380.27849	5436.95
384.44203	5452.15
388.60257	5476.25
392.76012	5532.75
396.91468	5582.25
401.06626	5697.05
405.21485	5750.65
409.36047	5724.15
413.50311	5558.65
417.64277	5400.75
421.77947	5325.05
425.9132	5295.45
430.04396	5312.85
434.17176	5405.95
438.2966	5523.45
442.41849	5716.85
446.53742	5949.25
450.6534	6160.15
454.76644	6280.95
458.87653	6276.25
462.98368	6173.45
467.08789	6016.65
471.18916	5830.25
475.2875	5649.15
479.38291	5502.25
483.4754	5378.65
487.56496	5317.15
491.6516	5263.75
495.73531	5240.05
499.81612	5242.25
503.89401	5287.55
507.96899	5323.35
512.04106	5360.15
516.11023	5421.55
520.1765	5461.05
524.23987	5481.85
528.30034	5484.05
532.35792	5472.45
536.41261	5402.25
540.46441	5310.65
544.51333	5302.15
548.55936	5356.15
552.60252	5438.85
556.64279	5504.05
560.6802	5544.85
564.71473	5558.05
568.7464	5602.45
572.7752	5643.75
576.80114	5573.05
580.82422	5552.95
584.84444	5613.75
588.86181	5772.85
592.87633	5972.15
596.888	6160.45
600.89682	6372.95
604.9028	6964.05
608.90594	8159.55
612.90624	9232.45
616.90371	8399.75
620.89834	6682.95
624.89015	5988.85
628.87913	5897.25
632.86528	5877.85
636.84862	5838.55
640.82913	5707.15
644.80683	5496.35
648.78172	5410.75
652.75379	5450.05
656.72306	5632.15
660.68952	5812.45
664.65319	5747.05
668.61405	5642.95
672.57211	5637.55
676.52738	5616.45
680.47986	5556.35
684.42955	5478.65
688.37646	5470.15
692.32058	5521.55
696.26192	5600.35
700.20048	5706.05
704.13626	5715.95
708.06928	5637.05
711.99952	5567.05
715.927	5584.65
719.85171	5616.25
723.77365	5586.75
727.69284	5542.05
731.60928	5511.25
735.52295	5523.95
739.43388	5595.55
743.34206	5621.15
747.24749	5653.55
751.15017	5672.35
755.05012	5755.15
758.94733	5944.95
762.8418	6404.55
766.73354	7070.75
770.62254	7688.25
774.50882	7933.65
778.39237	7580.45
782.27321	6900.45
786.15132	6289.25
790.02671	5936.15
793.89938	5759.45
797.76935	5681.45
801.6366	5632.65
805.50115	5593.15
809.36299	5572.35
813.22213	5559.35
817.07857	5548.95
820.93231	5555.65
824.78336	5551.35
828.63172	5568.55
832.47738	5588.45
836.32036	5600.35
840.16066	5620.25
843.99827	5609.45
847.8332	5611.75
851.66546	5610.55
855.49504	5585.05
859.32195	5621.75
863.1462	5568.55
866.96777	5571.35
870.78668	5565.95
874.60293	5587.25
878.41652	5606.25
882.22745	5638.25
886.03573	5658.45
889.84136	5679.75
893.64433	5642.15
897.44466	5625.15
901.24235	5619.55
905.0374	5598.45
908.8298	5586.65
912.61957	5596.75
916.40671	5612.55
920.19121	5653.45
923.97308	5701.75
927.75233	5747.35
931.52895	5781.55
935.30295	5731.45
939.07433	5643.45
942.84309	5583.85
946.60924	5549.15
950.37278	5523.95
954.13371	5517.05
957.89203	5499.95
961.64774	5478.35
965.40086	5460.45
969.15137	5450.35
972.89929	5434.75
976.64461	5447.45
980.38733	5459.75
984.12747	5504.25
987.86502	5550.45
991.59999	5607.75
995.33237	5718.15
999.06217	5881.05
1002.78939	6056.45
1006.51404	6180.05
1010.23611	6241.25
1013.95561	6327.05
1017.67255	6378.45
1021.38692	6334.45
1025.09872	6268.75
1028.80796	6261.65
1032.51465	6348.05
1036.21877	6431.65
1039.92035	6419.05
1043.61937	6360.15
1047.31584	6250.85
1051.00976	6186.65
1054.70114	6138.35
1058.38998	6138.05
1062.07627	6173.05
1065.76003	6216.75
1069.44126	6269.15
1073.11995	6329.95
1076.79611	6400.45
1080.46974	6470.15
1084.14085	6518.75
1087.80943	6597.55
1091.47549	6606.15
1095.13903	6520.95
1098.80005	6402.05
1102.45857	6337.95
1106.11456	6313.25
1109.76805	6325.25
1113.41903	6398.05
1117.06751	6508.45
1120.71348	6673.25
1124.35696	6832.05
1127.99793	6936.75
1131.63641	6857.55
1135.2724	6680.15
1138.90589	6534.05
1142.5369	6411.05
1146.16542	6322.15
1149.79145	6271.45
1153.415	6252.05
1157.03607	6297.55
1160.65467	6403.45
1164.27079	6581.15
1167.88443	6838.15
1171.49561	7231.15
1175.10432	7797.75
1178.71056	8550.35
1182.31434	9245.85
1185.91565	9647.05
1189.51451	9733.35
1193.11091	9441.05
1196.70485	8974.45
1200.29634	8494.05
1203.88538	8070.55
1207.47197	7641.55
1211.05612	7363.75
1214.63782	7145.75
1218.21708	7122.85
1221.79391	7138.95
1225.36829	7216.95
1228.94024	7224.65
1232.50976	7201.35
1236.07685	7223.05
1239.6415	7270.75
1243.20374	7287.05
1246.76355	7321.35
1250.32093	7385.95
1253.8759	7524.55
1257.42845	7740.85
1260.97859	7970.55
1264.52631	8193.45
1268.07163	8362.85
1271.61453	8501.25
1275.15503	8601.25
1278.69312	8691.05
1282.22882	8828.85
1285.76211	9008.15
1289.29301	9245.75
1292.82151	9463.25
1296.34761	9724.55
1299.87133	10058.35
1303.39266	10582.25
1306.9116	11331.05
1310.42815	12062.55
1313.94233	12360.75
1317.45412	12145.55
1320.96354	11670.95
1324.47058	11209.65
1327.97525	10873.45
1331.47754	10807.35
1334.97747	10857.25
1338.47502	11022.95
1341.97022	11195.45
1345.46305	11419.85
1348.95352	11827.15
1352.44163	12406.45
1355.92738	13095.25
1359.41078	14021.35
1362.89183	14575.35
1366.37053	13807.55
1369.84688	12090.85
1373.32088	10511.25
1376.79254	9643.05
1380.26186	9291.55
1383.72883	9086.75
1387.19347	8853.45
1390.65578	8559.35
1394.11575	8251.95
1397.57339	8059.65
1401.0287	8085.65
1404.48168	8234.65
1407.93234	8473.85
1411.38068	8686.85
1414.82669	8785.85
1418.27039	8693.95
1421.71177	8571.05
1425.15083	8535.55
1428.58758	8605.75
1432.02203	8774.15
1435.45416	8893.55
1438.88399	8844.05
1442.31151	8757.55
1445.73673	8718.15
1449.15965	8650.15
1452.58027	8562.05
1455.9986	8418.45
1459.41463	8393.05
1462.82837	8471.05
1466.23982	8598.55
1469.64898	8759.15
1473.05586	8886.85
1476.46045	8981.95
1479.86276	9109.65
1483.26279	9188.35
1486.66054	9283.65
1490.05602	9494.95
1493.44922	9828.85
1496.84016	10277.45
1500.22882	10876.35
1503.61521	11613.55
1506.99934	12361.25
1510.38121	12725.05
1513.76081	12516.35
1517.13816	11716.05
1520.51324	10737.55
1523.88607	10016.35
1527.25665	9647.95
1530.62498	9510.85
1533.99105	9443.95
1537.35488	9415.25
1540.71647	9334.25
1544.07581	9205.45
1547.4329	9081.85
1550.78776	8914.25
1554.14038	8759.15
1557.49077	8668.45
1560.83892	8648.05
1564.18484	8718.35
1567.52853	8825.35
1570.86999	8917.45
1574.20922	8945.25
1577.54624	8830.95
1580.88103	8527.15
1584.2136	8247.85
1587.54395	8228.65
1590.87208	8504.45
1594.19801	9114.45
1597.52172	9820.85
1600.84321	10313.85
1604.16251	10269.25
1607.47959	9794.25
1610.79447	9100.75
1614.10715	8381.95
1617.41763	7793.45
1620.7259	7421.05
1624.03199	7228.15
1627.33587	7203.55
1630.63757	7395.35
1633.93707	7807.85
1637.23439	8440.55
1640.52951	9334.25
1643.82246	10326.85
1647.11321	11048.65
1650.40179	10985.45
1653.68819	10042.55
1656.97241	8708.55
1660.25446	7588.95
1663.53433	6856.45
1666.81203	6406.15
1670.08756	6150.75
1673.36092	5991.35
1676.63211	5877.45
1679.90115	5759.05
1683.16801	5709.65
1686.43272	5642.25
1689.69527	5612.05
1692.95567	5589.15
1696.2139	5555.25
1699.46999	5544.05
1702.72392	5538.05
1705.97571	5527.05
1709.22535	5518.75
1712.47284	5539.85
1715.71819	5523.15
1718.96139	5508.35
1722.20246	5505.85
1725.44139	5483.95
1728.67818	5454.85
1731.91284	5433.05
1735.14537	5400.85
1738.37576	5375.75
1741.60403	5363.15
1744.83017	5340.25
1748.05418	5356.45
1751.27607	5337.05
1754.49584	5329.05
1757.71349	5312.65
1760.92903	5323.05
1764.14244	5298.45
1767.35375	5284.65
1770.56294	5281.45
1773.77002	5278.25
1776.97499	5268.05
1780.17785	5240.75
1783.37861	5238.85
1786.57727	5233.35
1789.77382	5251.15
1792.96828	5229.65
1796.16064	5215.95
1799.3509	5217.85
1802.53907	5217.45
1805.72514	5220.65
1808.90913	5194.75
1812.09102	5185.65
1815.27083	5163.45
1818.44856	5141.15
1821.6242	5161.05
1824.79776	5133.75
1827.96924	5141.95
1831.13864	5127.75
1834.30597	5132.45
1837.47122	5113.15
1840.6344	5109.55
1843.7955	5108.65
1846.95454	5116.95
1850.11151	5120.85
1853.26642	5108.55
1856.41926	5111.35
1859.57004	5131.75
1862.71876	5129.95
1865.86542	5108.75
1869.01003	5123.95
1872.15258	5100.25
1875.29308	5091.75
1878.43152	5098.85
1881.56792	5096.35
1884.70227	5072.35
1887.83457	5062.85
1890.96482	5079.95
1894.09304	5049.45
1897.21921	5056.85
1900.34335	5056.45
1903.46544	5044.75
1906.58551	5059.35
1909.70353	5037.25
1912.81953	5050.45
1915.93349	5045.05
1919.04543	5037.75
1922.15534	5019.05
1925.26322	5005.45
1928.36908	5023.35
1931.47292	5000.75
1934.57473	4989.05
1937.67453	4989.25
1940.77232	4987.45
1943.86808	4971.45
1946.96184	4951.75
1950.05358	4940.35
1953.14331	4930.05
1956.23103	4912.45
1959.31675	4903.45
1962.40046	4874.05
1965.48217	4871.15
1968.56188	4845.05
1971.63959	4830.85
1974.7153	4819.45
1977.78901	4830.65
1980.86073	4819.35
1983.93046	4795.25
1986.99819	4773.45
1990.06394	4767.65
1993.1277	4758.25
1996.18947	4736.15
1999.24925	4717.85
2002.30706	4699.45
2005.36288	4684.15
2008.41672	4679.75
2011.46859	4664.25
2014.51848	4660.15
2017.56639	4636.85
2020.61233	4636.35
2023.6563	4608.95
2026.6983	4600.95
2029.73833	4579.95
2032.7764	4583.25
2035.8125	4578.45
2038.84664	4548.75
2041.87881	4561.75
2044.90903	4544.25
2047.93729	4549.05
2050.96359	4526.25
2053.98794	4528.95
2057.01034	4531.85
2060.03078	4528.95
2063.04927	4522.65
2066.06582	4522.25
2069.08042	4503.25
2072.09307	4494.35
2075.10378	4501.45
2078.11255	4502.75
2081.11938	4488.15
2084.12426	4475.75
2087.12722	4476.05
2090.12824	4505.55
2093.12732	4503.45
2096.12447	4483.45
2099.11969	4506.85
2102.11299	4496.75
2105.10435	4496.75
2108.09379	4485.05
2111.08131	4503.45
2114.0669	4504.45
2117.05057	4498.25
2120.03233	4503.45
2123.01216	4497.05
2125.99008	4506.95
2128.96609	4503.35
2131.94018	4530.75
2134.91236	4496.85
2137.88263	4484.15
2140.851	4509.95
2143.81746	4509.35
2146.78201	4511.85
2149.74466	4496.95
2152.7054	4509.15
2155.66425	4499.45
2158.6212	4519.95
2161.57625	4498.75
2164.52941	4512.15
2167.48067	4487.75
2170.43004	4476.35
2173.37752	4475.45
2176.32311	4484.25
2179.26681	4493.55
2182.20863	4498.65
2185.14856	4489.05
2188.08661	4496.75
2191.02278	4506.35
2193.95707	4505.75
2196.88948	4508.05
2199.82001	4479.75
2202.74867	4489.25
2205.67545	4497.95
2208.60037	4496.25
2211.52341	4485.05
2214.44458	4467.95
2217.36388	4459.85
2220.28132	4439.05
2223.1969	4440.45
2226.11061	4431.75
2229.02246	4412.85
2231.93245	4414.85
2234.84058	4411.65
2237.74686	4408.35
2240.65128	4395.45
2243.55385	4385.35
2246.45456	4372.35
2249.35343	4376.45
2252.25044	4373.45
2255.14561	4354.55
2258.03893	4376.75
2260.93041	4361.95
2263.82004	4356.15
2266.70783	4342.25
2269.59378	4339.25
2272.4779	4305.45
2275.36017	4282.35
2278.24061	4305.75
2281.11922	4290.05
2283.996	4267.35
2286.87094	4256.45
2289.74405	4265.75
2292.61534	4252.75
2295.4848	4266.05
2298.35243	4256.15
2301.21824	4249.25
2304.08223	4237.25
2306.94439	4241.15
2309.80474	4250.05
2312.66327	4255.25
2315.51999	4247.65
2318.37489	4249.25
2321.22797	4237.15
2324.07925	4237.05
2326.92871	4222.15
2329.77637	4221.85
2332.62222	4219.65
2335.46626	4226.35
2338.3085	4213.95
2341.14893	4221.35
2343.98756	4221.25
2346.8244	4224.95
2349.65943	4229.55
2352.49267	4213.75
2355.32411	4210.05
2358.15376	4195.75
2360.98161	4205.35
2363.80768	4192.95
2366.63195	4204.35
2369.45444	4172.35
2372.27514	4191.75
2375.09405	4189.65
2377.91118	4176.75
2380.72652	4165.15
2383.54009	4141.05
2386.35187	4142.55
2389.16188	4122.55
2391.97011	4130.35
2394.77657	4130.65
2397.58125	4118.05
2400.38416	4102.35
2403.18529	4100.95
2405.98466	4098.85
2408.78226	4077.65
2411.57809	4079.65
2414.37216	4057.95
2417.16446	4059.05
2419.955	4063.65
2422.74378	4051.45
2425.5308	4049.85
2428.31606	4067.45
2431.09956	4059.95
2433.88131	4039.85
2436.6613	4033.65
2439.43954	4047.15
2442.21603	4029.75
2444.99077	4039.75
2447.76377	4033.25
2450.53501	4039.75
2453.30451	4036.15
2456.07226	4035.75
2458.83827	4019.05
2461.60254	3998.85
2464.36507	4007.45
2467.12586	3998.45
2469.88492	4002.35
2472.64224	4005.45
2475.39782	4008.85
2478.15167	4002.75
2480.90379	4006.85
2483.65417	3985.35
2486.40283	3999.15
2489.14976	4002.25
2491.89497	3995.75
2494.63845	4031.65
2497.3802	4001.25
2500.12024	4003.95
2502.85855	4001.15
2505.59514	4004.05
2508.33002	4000.05
2511.06318	3964.75
2513.79462	3959.05
2516.52435	3963.95
2519.25237	3962.45
2521.97867	3945.05
2524.70327	3949.95
2527.42616	3959.75
2530.14734	3930.25
2532.86681	3945.75
2535.58458	3956.15
2538.30065	3960.15
2541.01501	3947.65
2543.72768	3929.35
2546.43864	3928.25
2549.14791	3932.95
2551.85548	3922.55
2554.56136	3926.35
2557.26554	3921.95
2559.96803	3916.05
2562.66883	3887.05
2565.36794	3896.65
2568.06536	3877.55
2570.7611	3873.25
2573.45514	3874.85
2576.14751	3895.85
2578.83819	3867.15
2581.52719	3864.75
2584.21451	3870.45
2586.90015	3882.85
2589.58411	3856.55
2592.2664	3861.45
2594.94701	3843.25
2597.62594	3847.25
2600.30321	3835.05
2602.9788	3856.65
2605.65273	3854.25
2608.32498	3861.55
2610.99557	3823.55
2613.66449	3839.85
2616.33175	3844.15
2618.99734	3822.95
2621.66128	3839.05
2624.32355	3835.65
2626.98416	3828.05
2629.64311	3821.85
2632.30041	3831.55
2634.95605	3834.85
2637.61004	3825.65
2640.26238	3811.65
2642.91306	3815.75
2645.56209	3810.75
2648.20948	3800.85
2650.85521	3807.15
2653.4993	3816.75
2656.14175	3798.55
2658.78255	3796.35
2661.42171	3801.55
2664.05923	3801.95
2666.6951	3798.85
2669.32934	3820.95
2671.96194	3824.85
2674.59291	3819.75
2677.22224	3819.05
2679.84993	3816.35
2682.476	3820.15
2685.10043	3819.95
2687.72324	3827.25
2690.34441	3815.75
2692.96396	3824.75
2695.58188	3819.25
2698.19818	3806.25
2700.81285	3800.15
2703.4259	3809.45
2706.03733	3808.75
2708.64714	3790.35
2711.25533	3803.05
2713.86191	3793.95
2716.46687	3814.05
2719.07021	3808.35
2721.67194	3804.85
2724.27206	3795.45
2726.87057	3809.85
2729.46747	3816.85
2732.06276	3805.35
2734.65644	3815.85
2737.24852	3824.95
2739.83899	3799.95
2742.42786	3790.55
2745.01513	3786.65
2747.60079	3770.15
2750.18486	3792.95
2752.76733	3771.55
2755.3482	3778.65
2757.92747	3772.75
2760.50515	3767.45
2763.08123	3754.55
2765.65573	3758.35
2768.22863	3769.55
2770.79994	3753.85
2773.36967	3745.45
2775.9378	3755.45
2778.50435	3744.05
2781.06932	3747.35
2783.6327	3754.65
2786.1945	3732.85
2788.75471	3749.95
2791.31335	3738.05
2793.87041	3729.55
2796.42589	3719.95
2798.97979	3717.25
2801.53212	3715.55
2804.08288	3700.65
2806.63206	3701.55
2809.17967	3699.95
2811.72571	3703.35
2814.27018	3679.85
2816.81308	3667.15
2819.35442	3678.95
2821.89419	3670.75
2824.43239	3665.45
2826.96904	3666.95
2829.50412	3661.15
2832.03763	3656.35
2834.56959	3648.95
2837.1	3648.15
2839.62884	3637.95
2842.15613	3633.45
2844.68186	3646.75
2847.20604	3639.95
2849.72867	3624.05
2852.24974	3624.25
2854.76927	3605.75
2857.28724	3612.65
2859.80367	3608.65
2862.31855	3598.65
2864.83189	3615.55
2867.34368	3601.75
2869.85393	3598.35
2872.36264	3589.25
2874.8698	3587.55
2877.37543	3581.75
2879.87952	3575.75
2882.38207	3580.35
2884.88308	3566.75
2887.38256	3574.05
2889.88051	3580.25
2892.37692	3571.65
2894.8718	3574.75
2897.36515	3562.15
2899.85698	3558.95
2902.34727	3567.25
2904.83604	3580.95
2907.32328	3584.65
2909.809	3580.85
2912.29319	3593.15
2914.77587	3580.25
2917.25702	3587.05
2919.73665	3583.85
2922.21476	3572.05
2924.69136	3567.25
2927.16644	3570.85
2929.64	3563.15
2932.11205	3555.85
2934.58258	3549.45
2937.05161	3546.25
2939.51912	3546.05
2941.98513	3546.45
2944.44962	3534.65
2946.91261	3518.55
2949.37409	3541.15
2951.83407	3541.45
2954.29254	3533.45
2956.74951	3513.85
2959.20498	3515.85
2961.65895	3535.75
2964.11142	3520.75
2966.56239	3507.55
2969.01186	3525.25
2971.45984	3513.75
2973.90632	3508.85
2976.35131	3492.95
2978.7948	3497.05
2981.23681	3489.65
2983.67732	3476.95
2986.11635	3457.25
2988.55388	3467.55
2990.98993	3443.95
2993.4245	3431.85
2995.85758	3430.75
2998.28917	3407.95
3000.71928	3401.15
3003.14791	3397.45
3005.57506	3400.05
3008.00073	3379.45
3010.42493	3373.35
3012.84764	3362.95
3015.26888	3373.25
3017.68865	3358.35
3020.10694	3365.55
3022.52376	3341.65
3024.9391	3318.25
3027.35298	3313.45
3029.76539	3326.45
3032.17632	3319.75
3034.5858	3324.15
3036.9938	3312.45
3039.40034	3292.95
3041.80542	3288.65
3044.20903	3285.75
3046.61118	3286.05
3049.01187	3267.65
3051.4111	3266.65
3053.80888	3243.55
3056.20519	3249.65
3058.60005	3222.75
3060.99345	3233.15
3063.3854	3219.85
3065.7759	3220.15
3068.16494	3201.25
3070.55254	3188.35
3072.93868	3184.35
3075.32338	3166.75
3077.70662	3160.05
3080.08842	3161.15
3082.46878	3151.05
3084.84769	3136.75
3087.22515	3135.95
3089.60118	3124.95
3091.97576	3138.45
3094.3489	3132.45
3096.72061	3127.55
3099.09087	3128.45
3101.4597	3124.75
3103.82709	3119.75
3106.19305	3116.95
3108.55757	3101.25
3110.92066	3106.15
3113.28232	3079.65
3115.64255	3082.35
3118.00134	3083.05
3120.35871	3080.65
3122.71466	3066.85
3125.06917	3054.65
3127.42226	3056.05
3129.77393	3053.65
3132.12417	3041.45
3134.47299	3045.75
3136.82039	3017.85
3139.16636	3035.25
3141.51092	3035.65
3143.85406	3029.55
3146.19579	3020.05
3148.53609	3030.05
3150.87499	3025.35
3153.21246	3021.05
3155.54853	3028.95
3157.88318	3024.55
3160.21642	3025.75
3162.54826	3007.15
3164.87868	3014.85
3167.2077	3013.85
3169.5353	2992.45
3171.86151	2995.95
3174.18631	2991.75
3176.5097	2981.35
3178.83169	2968.45
3181.15228	2965.25
3183.47147	2962.25
3185.78926	2960.95
3188.10565	2943.55
3190.42065	2939.65
3192.73424	2946.45
3195.04645	2952.75
3197.35725	2929.25
3199.66667	2936.15
3201.97469	2937.65
3204.28132	2932.45
3206.58656	2949.05
3208.8904	2934.55
3211.19287	2939.65
3213.49394	2938.15
3215.79363	2925.45
3218.09193	2933.65
3220.38884	2924.65
3222.68438	2932.35
3224.97853	2921.95
3227.2713	2915.85
3229.56269	2922.55
3231.8527	2917.55
3234.14133	2905.95
3236.42858	2905.55
3238.71446	2885.45
3240.99896	2873.35
3243.28209	2885.55
3245.56384	2878.95
3247.84423	2876.15
3250.12324	2871.55
3252.40088	2865.05
3254.67715	2855.35
3256.95205	2858.45
3259.22558	2864.75
3261.49775	2861.05
3263.76855	2864.45
3266.03799	2855.55
3268.30606	2860.05
3270.57277	2855.95
3272.83812	2841.25
3275.10211	2831.25
3277.36474	2810.35
3279.62601	2829.45
3281.88593	2814.55
3284.14448	2824.85
3286.40168	2813.55
3288.65753	2819.35
3290.91202	2811.85
3293.16516	2813.15
3295.41695	2799.15
3297.66738	2792.45
3299.91647	2782.35
3302.16421	2761.95
3304.4106	2742.75
3306.65564	2727.35
3308.89933	2705.95
3311.14169	2688.15
3313.38269	2651.15
3315.62236	2639.75
3317.86068	2621.35
3320.09766	2604.55
3322.3333	2583.05
3324.5676	2573.65
3326.80056	2534.95
3329.03219	2496.95
3331.26248	2.15
3333.49143	-0.65
3335.71905	-0.35
