Data from AgNPs_UA_20uM_CRN_500uM_SU_RamanShift__8__13-37-50-292.txt Node

Date: Thu Aug 04 13:37:50 BST 2022
User: TCL
Spectrometer: QEP01345
Trigger mode: 4
Integration Time (sec): 1.000000E0
Scans to average: 10
Electric dark correction enabled: true
Nonlinearity correction enabled: false
Boxcar width: 0
XAxis mode: Raman Shifts
Number of Pixels in Spectrum: 1044
>>>>>Begin Spectral Data<<<<<
46.04893	-1.35
50.45542	-0.75
54.85868	1.35
59.25871	-0.15
63.6555	16.75
68.04907	16.75
72.43941	19.25
76.82654	18.45
81.21044	18.15
85.59113	20.65
89.96862	20.45
94.34289	20.55
98.71396	23.55
103.08183	23.85
107.4465	22.85
111.80798	24.65
116.16626	26.05
120.52136	28.85
124.87327	28.95
129.222	30.55
133.56755	32.75
137.90993	36.15
142.24913	36.95
146.58517	43.45
150.91804	51.35
155.24774	62.35
159.57429	81.15
163.89768	106.15
168.21792	139.45
172.53501	192.65
176.84895	272.65
181.15975	388.95
185.46741	548.35
189.77193	760.35
194.07331	1018.45
198.37157	1322.05
202.6667	1633.95
206.9587	1957.55
211.24758	2283.65
215.53334	2608.35
219.81599	2979.45
224.09553	3387.15
228.37195	3830.45
232.64527	4309.25
236.91549	4786.35
241.18261	5184.55
245.44663	5465.25
249.70755	5701.05
253.96539	5859.75
258.22014	5996.05
262.4718	6156.35
266.72039	6256.95
270.96589	6264.25
275.20832	6215.15
279.44768	6124.35
283.68397	6003.15
287.91719	5938.35
292.14735	5984.15
296.37445	6136.65
300.59849	6419.75
304.81948	6755.45
309.03742	7110.55
313.25231	7285.15
317.46415	7171.05
321.67296	6843.55
325.87872	6448.45
330.08145	6233.25
334.28114	6212.55
338.47781	6278.35
342.67145	6443.35
346.86207	6666.25
351.04966	6968.15
355.23424	7299.05
359.4158	7525.65
363.59435	7600.85
367.76989	7586.25
371.94243	7522.15
376.11196	7451.55
380.27849	7420.95
384.44203	7344.65
388.60257	7342.15
392.76012	7383.25
396.91468	7500.45
401.06626	7620.55
405.21485	7662.85
409.36047	7493.25
413.50311	7146.75
417.64277	6844.35
421.77947	6660.65
425.9132	6590.95
430.04396	6596.55
434.17176	6650.25
438.2966	6740.95
442.41849	6854.95
446.53742	7002.15
450.6534	7174.65
454.76644	7202.25
458.87653	7213.85
462.98368	7156.95
467.08789	7093.25
471.18916	7002.55
475.2875	6854.35
479.38291	6714.85
483.4754	6609.05
487.56496	6564.65
491.6516	6506.05
495.73531	6520.65
499.81612	6523.15
503.89401	6592.95
507.96899	6665.95
512.04106	6751.35
516.11023	6824.75
520.1765	6905.25
524.23987	6909.05
528.30034	6919.45
532.35792	6888.35
536.41261	6820.95
540.46441	6706.45
544.51333	6627.75
548.55936	6730.55
552.60252	6825.95
556.64279	6955.35
560.6802	7038.35
564.71473	7163.65
568.7464	7316.65
572.7752	7309.25
576.80114	7051.45
580.82422	6824.25
584.84444	6736.25
588.86181	6730.05
592.87633	6764.55
596.888	6905.55
600.89682	7287.35
604.9028	8327.85
608.90594	10568.45
612.90624	12931.35
616.90371	11867.35
620.89834	8609.45
624.89015	7228.95
628.87913	7056.75
632.86528	7251.55
636.84862	7396.75
640.82913	7240.75
644.80683	6930.55
648.78172	6734.85
652.75379	6743.35
656.72306	7022.85
660.68952	7258.95
664.65319	7133.55
668.61405	6870.25
672.57211	6809.25
676.52738	6835.75
680.47986	6735.35
684.42955	6617.25
688.37646	6583.95
692.32058	6601.25
696.26192	6716.35
700.20048	6837.85
704.13626	6875.35
708.06928	6830.15
711.99952	6744.35
715.927	6771.75
719.85171	6793.55
723.77365	6815.35
727.69284	6779.05
731.60928	6723.85
735.52295	6698.75
739.43388	6735.45
743.34206	6773.75
747.24749	6770.25
751.15017	6790.35
755.05012	6875.35
758.94733	7247.95
762.8418	8133.85
766.73354	9459.15
770.62254	10483.05
774.50882	10677.95
778.39237	10018.35
782.27321	8973.05
786.15132	7916.95
790.02671	7248.85
793.89938	6928.05
797.76935	6797.85
801.6366	6717.75
805.50115	6657.85
809.36299	6639.35
813.22213	6627.65
817.07857	6628.75
820.93231	6627.25
824.78336	6646.75
828.63172	6676.55
832.47738	6690.55
836.32036	6655.85
840.16066	6643.65
843.99827	6630.25
847.8332	6618.55
851.66546	6644.05
855.49504	6661.05
859.32195	6662.65
863.1462	6664.85
866.96777	6649.65
870.78668	6644.05
874.60293	6651.55
878.41652	6680.75
882.22745	6758.05
886.03573	6813.85
889.84136	6814.05
893.64433	6783.95
897.44466	6753.25
901.24235	6732.45
905.0374	6731.15
908.8298	6674.35
912.61957	6638.05
916.40671	6626.85
920.19121	6682.85
923.97308	6767.05
927.75233	6841.25
931.52895	6915.65
935.30295	6849.45
939.07433	6678.35
942.84309	6553.95
946.60924	6515.05
950.37278	6486.35
954.13371	6499.25
957.89203	6502.15
961.64774	6487.15
965.40086	6491.55
969.15137	6459.35
972.89929	6462.75
976.64461	6463.45
980.38733	6462.15
984.12747	6488.35
987.86502	6523.15
991.59999	6581.75
995.33237	6631.85
999.06217	6733.35
1002.78939	6867.95
1006.51404	7077.55
1010.23611	7214.05
1013.95561	7271.45
1017.67255	7284.35
1021.38692	7212.35
1025.09872	7086.75
1028.80796	6971.05
1032.51465	6935.25
1036.21877	6974.15
1039.92035	7001.65
1043.61937	7052.15
1047.31584	7094.55
1051.00976	7085.45
1054.70114	7080.25
1058.38998	7081.35
1062.07627	7105.55
1065.76003	7181.35
1069.44126	7297.95
1073.11995	7458.45
1076.79611	7651.95
1080.46974	7806.05
1084.14085	7931.45
1087.80943	8048.65
1091.47549	8160.45
1095.13903	8151.95
1098.80005	7992.35
1102.45857	7840.65
1106.11456	7689.55
1109.76805	7600.35
1113.41903	7667.75
1117.06751	7803.85
1120.71348	8067.95
1124.35696	8392.85
1127.99793	8660.45
1131.63641	8482.95
1135.2724	8112.45
1138.90589	7834.25
1142.5369	7708.85
1146.16542	7698.05
1149.79145	7637.85
1153.415	7507.75
1157.03607	7423.45
1160.65467	7488.35
1164.27079	7652.05
1167.88443	7905.05
1171.49561	8359.25
1175.10432	9058.85
1178.71056	10025.75
1182.31434	10835.45
1185.91565	11082.35
1189.51451	10896.75
1193.11091	10613.55
1196.70485	10288.75
1200.29634	10026.65
1203.88538	9727.25
1207.47197	9325.65
1211.05612	8966.35
1214.63782	8669.55
1218.21708	8434.25
1221.79391	8204.15
1225.36829	8089.85
1228.94024	8029.75
1232.50976	7995.85
1236.07685	7988.95
1239.6415	8024.95
1243.20374	8060.45
1246.76355	8130.85
1250.32093	8241.95
1253.8759	8500.45
1257.42845	8768.85
1260.97859	9086.35
1264.52631	9314.95
1268.07163	9499.05
1271.61453	9595.35
1275.15503	9634.15
1278.69312	9681.85
1282.22882	9665.95
1285.76211	9793.75
1289.29301	10035.05
1292.82151	10315.55
1296.34761	10590.75
1299.87133	11017.55
1303.39266	11761.15
1306.9116	12868.95
1310.42815	13992.15
1313.94233	14365.45
1317.45412	13653.45
1320.96354	12642.05
1324.47058	11664.05
1327.97525	10847.55
1331.47754	10386.45
1334.97747	10269.25
1338.47502	10477.15
1341.97022	10933.85
1345.46305	11706.05
1348.95352	12808.35
1352.44163	14027.45
1355.92738	15363.75
1359.41078	17025.15
1362.89183	18367.65
1366.37053	17536.55
1369.84688	14642.45
1373.32088	12009.85
1376.79254	10572.75
1380.26186	9901.55
1383.72883	9504.65
1387.19347	9159.85
1390.65578	8864.05
1394.11575	8598.25
1397.57339	8386.95
1401.0287	8242.35
1404.48168	8180.05
1407.93234	8166.95
1411.38068	8269.05
1414.82669	8373.15
1418.27039	8404.05
1421.71177	8371.45
1425.15083	8287.85
1428.58758	8254.35
1432.02203	8318.15
1435.45416	8418.75
1438.88399	8507.65
1442.31151	8536.95
1445.73673	8616.35
1449.15965	8649.55
1452.58027	8599.35
1455.9986	8555.55
1459.41463	8533.85
1462.82837	8631.15
1466.23982	8816.05
1469.64898	8997.15
1473.05586	9166.65
1476.46045	9216.95
1479.86276	9284.85
1483.26279	9396.55
1486.66054	9618.65
1490.05602	10004.75
1493.44922	10526.95
1496.84016	11413.95
1500.22882	12827.15
1503.61521	14570.25
1506.99934	16305.55
1510.38121	17348.45
1513.76081	17028.35
1517.13816	15478.65
1520.51324	13453.05
1523.88607	11827.25
1527.25665	10860.45
1530.62498	10391.25
1533.99105	10151.35
1537.35488	10035.05
1540.71647	9936.15
1544.07581	9838.65
1547.4329	9771.45
1550.78776	9664.55
1554.14038	9519.55
1557.49077	9457.65
1560.83892	9531.85
1564.18484	9810.25
1567.52853	10166.55
1570.86999	10434.65
1574.20922	10579.25
1577.54624	10389.75
1580.88103	9826.85
1584.2136	9163.35
1587.54395	8781.35
1590.87208	8764.95
1594.19801	9048.65
1597.52172	9478.05
1600.84321	9759.55
1604.16251	9701.25
1607.47959	9526.45
1610.79447	9182.45
1614.10715	8696.55
1617.41763	8209.55
1620.7259	7825.25
1624.03199	7640.45
1627.33587	7579.55
1630.63757	7688.65
1633.93707	7982.15
1637.23439	8464.75
1640.52951	9291.85
1643.82246	10473.35
1647.11321	11753.25
1650.40179	12436.85
1653.68819	11923.55
1656.97241	10455.05
1660.25446	8935.45
1663.53433	7847.55
1666.81203	7217.85
1670.08756	6865.05
1673.36092	6641.65
1676.63211	6511.45
1679.90115	6391.85
1683.16801	6314.85
1686.43272	6250.25
1689.69527	6214.65
1692.95567	6189.25
1696.2139	6174.55
1699.46999	6145.55
1702.72392	6127.35
1705.97571	6144.55
1709.22535	6131.15
1712.47284	6124.25
1715.71819	6110.95
1718.96139	6111.95
1722.20246	6068.75
1725.44139	6070.55
1728.67818	6032.05
1731.91284	6002.25
1735.14537	5967.25
1738.37576	5959.25
1741.60403	5907.65
1744.83017	5900.65
1748.05418	5906.55
1751.27607	5866.55
1754.49584	5855.45
1757.71349	5831.55
1760.92903	5835.55
1764.14244	5825.25
1767.35375	5798.75
1770.56294	5786.65
1773.77002	5764.25
1776.97499	5765.85
1780.17785	5751.15
1783.37861	5720.05
1786.57727	5717.35
1789.77382	5706.95
1792.96828	5697.85
1796.16064	5685.85
1799.3509	5654.45
1802.53907	5662.05
1805.72514	5654.95
1808.90913	5631.55
1812.09102	5615.55
1815.27083	5617.85
1818.44856	5584.35
1821.6242	5563.15
1824.79776	5573.85
1827.96924	5567.95
1831.13864	5543.85
1834.30597	5541.75
1837.47122	5524.85
1840.6344	5514.75
1843.7955	5500.25
1846.95454	5508.65
1850.11151	5501.25
1853.26642	5505.45
1856.41926	5490.65
1859.57004	5501.55
1862.71876	5476.65
1865.86542	5486.45
1869.01003	5476.85
1872.15258	5461.85
1875.29308	5459.45
1878.43152	5455.75
1881.56792	5458.05
1884.70227	5432.55
1887.83457	5444.05
1890.96482	5427.65
1894.09304	5428.05
1897.21921	5399.65
1900.34335	5398.15
1903.46544	5412.75
1906.58551	5378.45
1909.70353	5399.15
1912.81953	5387.65
1915.93349	5381.55
1919.04543	5362.75
1922.15534	5353.05
1925.26322	5337.05
1928.36908	5320.35
1931.47292	5318.55
1934.57473	5304.05
1937.67453	5287.25
1940.77232	5291.25
1943.86808	5263.45
1946.96184	5235.75
1950.05358	5216.85
1953.14331	5203.75
1956.23103	5215.25
1959.31675	5180.75
1962.40046	5178.55
1965.48217	5153.55
1968.56188	5138.55
1971.63959	5130.25
1974.7153	5117.55
1977.78901	5101.35
1980.86073	5072.45
1983.93046	5065.15
1986.99819	5044.75
1990.06394	5037.85
1993.1277	5006.05
1996.18947	5011.55
1999.24925	4990.05
2002.30706	4971.75
2005.36288	4945.45
2008.41672	4930.15
2011.46859	4913.15
2014.51848	4916.75
2017.56639	4884.45
2020.61233	4879.95
2023.6563	4868.35
2026.6983	4860.15
2029.73833	4834.55
2032.7764	4821.25
2035.8125	4819.05
2038.84664	4816.45
2041.87881	4802.95
2044.90903	4779.65
2047.93729	4781.95
2050.96359	4773.25
2053.98794	4759.15
2057.01034	4756.85
2060.03078	4746.15
2063.04927	4726.05
2066.06582	4736.85
2069.08042	4727.05
2072.09307	4724.05
2075.10378	4725.35
2078.11255	4724.95
2081.11938	4714.95
2084.12426	4696.75
2087.12722	4708.55
2090.12824	4711.25
2093.12732	4707.45
2096.12447	4725.85
2099.11969	4723.25
2102.11299	4716.15
2105.10435	4719.65
2108.09379	4712.55
2111.08131	4714.75
2114.0669	4718.05
2117.05057	4727.05
2120.03233	4732.15
2123.01216	4721.05
2125.99008	4737.85
2128.96609	4733.45
2131.94018	4743.65
2134.91236	4738.75
2137.88263	4751.75
2140.851	4728.15
2143.81746	4726.05
2146.78201	4730.95
2149.74466	4734.55
2152.7054	4728.85
2155.66425	4723.85
2158.6212	4739.85
2161.57625	4745.85
2164.52941	4715.85
2167.48067	4721.85
2170.43004	4720.95
2173.37752	4723.85
2176.32311	4702.75
2179.26681	4709.15
2182.20863	4711.55
2185.14856	4702.05
2188.08661	4716.35
2191.02278	4711.35
2193.95707	4696.25
2196.88948	4696.45
2199.82001	4687.55
2202.74867	4679.25
2205.67545	4686.45
2208.60037	4680.05
2211.52341	4661.05
2214.44458	4655.05
2217.36388	4643.75
2220.28132	4630.85
2223.1969	4597.55
2226.11061	4614.05
2229.02246	4606.45
2231.93245	4598.55
2234.84058	4573.15
2237.74686	4588.65
2240.65128	4592.75
2243.55385	4568.55
2246.45456	4571.55
2249.35343	4563.15
2252.25044	4547.85
2255.14561	4552.75
2258.03893	4554.35
2260.93041	4554.05
2263.82004	4543.05
2266.70783	4517.85
2269.59378	4504.25
2272.4779	4502.95
2275.36017	4491.45
2278.24061	4478.95
2281.11922	4479.85
2283.996	4465.85
2286.87094	4449.25
2289.74405	4442.25
2292.61534	4446.55
2295.4848	4448.15
2298.35243	4448.65
2301.21824	4428.65
2304.08223	4427.15
2306.94439	4448.25
2309.80474	4429.85
2312.66327	4426.45
2315.51999	4394.75
2318.37489	4392.05
2321.22797	4405.75
2324.07925	4387.55
2326.92871	4378.45
2329.77637	4365.05
2332.62222	4366.75
2335.46626	4369.45
2338.3085	4347.25
2341.14893	4348.05
2343.98756	4346.75
2346.8244	4347.55
2349.65943	4358.65
2352.49267	4356.45
2355.32411	4357.95
2358.15376	4349.35
2360.98161	4345.85
2363.80768	4360.45
2366.63195	4359.35
2369.45444	4360.85
2372.27514	4343.15
2375.09405	4338.65
2377.91118	4322.05
2380.72652	4335.05
2383.54009	4320.45
2386.35187	4304.85
2389.16188	4291.25
2391.97011	4276.85
2394.77657	4259.15
2397.58125	4257.25
2400.38416	4257.35
2403.18529	4246.35
2405.98466	4234.05
2408.78226	4232.85
2411.57809	4215.95
2414.37216	4219.15
2417.16446	4211.25
2419.955	4208.25
2422.74378	4211.25
2425.5308	4200.15
2428.31606	4192.55
2431.09956	4191.05
2433.88131	4183.65
2436.6613	4203.35
2439.43954	4185.65
2442.21603	4194.65
2444.99077	4188.75
2447.76377	4194.15
2450.53501	4177.85
2453.30451	4184.55
2456.07226	4178.25
2458.83827	4171.75
2461.60254	4166.95
2464.36507	4153.95
2467.12586	4158.75
2469.88492	4152.35
2472.64224	4158.05
2475.39782	4163.25
2478.15167	4155.75
2480.90379	4142.85
2483.65417	4151.35
2486.40283	4157.35
2489.14976	4160.95
2491.89497	4154.15
2494.63845	4160.05
2497.3802	4173.35
2500.12024	4162.65
2502.85855	4136.55
2505.59514	4137.05
2508.33002	4108.25
2511.06318	4094.85
2513.79462	4092.85
2516.52435	4075.85
2519.25237	4077.15
2521.97867	4071.25
2524.70327	4064.45
2527.42616	4068.05
2530.14734	4049.35
2532.86681	4046.95
2535.58458	4053.25
2538.30065	4047.95
2541.01501	4044.05
2543.72768	4047.25
2546.43864	4055.05
2549.14791	4052.65
2551.85548	4047.15
2554.56136	4042.45
2557.26554	4044.85
2559.96803	4030.95
2562.66883	4018.15
2565.36794	3999.85
2568.06536	3989.85
2570.7611	3979.45
2573.45514	3993.75
2576.14751	3983.85
2578.83819	3966.05
2581.52719	3941.55
2584.21451	3942.55
2586.90015	3937.25
2589.58411	3911.75
2592.2664	3913.05
2594.94701	3908.05
2597.62594	3916.05
2600.30321	3900.75
2602.9788	3914.45
2605.65273	3902.55
2608.32498	3910.75
2610.99557	3881.35
2613.66449	3891.15
2616.33175	3873.85
2618.99734	3886.15
2621.66128	3864.45
2624.32355	3870.65
2626.98416	3878.05
2629.64311	3844.75
2632.30041	3845.35
2634.95605	3843.65
2637.61004	3822.15
2640.26238	3825.15
2642.91306	3817.85
2645.56209	3811.35
2648.20948	3802.25
2650.85521	3811.25
2653.4993	3813.15
2656.14175	3812.65
2658.78255	3808.25
2661.42171	3808.45
2664.05923	3814.05
2666.6951	3827.45
2669.32934	3845.65
2671.96194	3823.25
2674.59291	3813.45
2677.22224	3832.15
2679.84993	3821.05
2682.476	3809.15
2685.10043	3802.85
2687.72324	3809.55
2690.34441	3805.25
2692.96396	3813.05
2695.58188	3810.25
2698.19818	3806.75
2700.81285	3802.05
2703.4259	3808.25
2706.03733	3801.05
2708.64714	3800.15
2711.25533	3785.45
2713.86191	3784.55
2716.46687	3798.45
2719.07021	3795.15
2721.67194	3799.75
2724.27206	3788.05
2726.87057	3782.45
2729.46747	3793.55
2732.06276	3802.35
2734.65644	3776.65
2737.24852	3765.75
2739.83899	3784.25
2742.42786	3789.15
2745.01513	3770.75
2747.60079	3757.95
2750.18486	3759.35
2752.76733	3760.15
2755.3482	3740.85
2757.92747	3741.65
2760.50515	3729.75
2763.08123	3719.45
2765.65573	3710.95
2768.22863	3713.45
2770.79994	3690.55
2773.36967	3712.15
2775.9378	3695.15
2778.50435	3684.75
2781.06932	3671.85
2783.6327	3687.35
2786.1945	3677.65
2788.75471	3668.15
2791.31335	3658.95
2793.87041	3644.55
2796.42589	3659.25
2798.97979	3651.95
2801.53212	3641.95
2804.08288	3647.85
2806.63206	3646.45
2809.17967	3651.95
2811.72571	3641.55
2814.27018	3626.55
2816.81308	3618.55
2819.35442	3607.25
2821.89419	3600.25
2824.43239	3591.15
2826.96904	3588.45
2829.50412	3588.35
2832.03763	3568.95
2834.56959	3571.05
2837.1	3551.05
2839.62884	3548.25
2842.15613	3544.05
2844.68186	3542.75
2847.20604	3535.85
2849.72867	3541.45
2852.24974	3526.35
2854.76927	3509.85
2857.28724	3504.35
2859.80367	3516.35
2862.31855	3504.15
2864.83189	3503.45
2867.34368	3512.05
2869.85393	3490.55
2872.36264	3515.55
2874.8698	3501.25
2877.37543	3490.95
2879.87952	3485.25
2882.38207	3478.25
2884.88308	3477.15
2887.38256	3467.85
2889.88051	3470.35
2892.37692	3477.25
2894.8718	3460.95
2897.36515	3454.45
2899.85698	3472.75
2902.34727	3476.45
2904.83604	3482.15
2907.32328	3472.95
2909.809	3469.95
2912.29319	3482.35
2914.77587	3470.15
2917.25702	3475.55
2919.73665	3470.15
2922.21476	3463.05
2924.69136	3473.05
2927.16644	3468.75
2929.64	3455.65
2932.11205	3450.65
2934.58258	3436.55
2937.05161	3436.15
2939.51912	3430.45
2941.98513	3409.45
2944.44962	3405.95
2946.91261	3403.85
2949.37409	3425.25
2951.83407	3414.25
2954.29254	3411.05
2956.74951	3410.45
2959.20498	3394.45
2961.65895	3392.35
2964.11142	3377.45
2966.56239	3387.05
2969.01186	3394.45
2971.45984	3388.45
2973.90632	3377.55
2976.35131	3382.15
2978.7948	3358.15
2981.23681	3352.15
2983.67732	3357.85
2986.11635	3331.65
2988.55388	3349.45
2990.98993	3339.95
2993.4245	3330.15
2995.85758	3325.45
2998.28917	3327.15
3000.71928	3316.65
3003.14791	3307.05
3005.57506	3298.15
3008.00073	3278.75
3010.42493	3277.55
3012.84764	3263.45
3015.26888	3251.35
3017.68865	3256.15
3020.10694	3241.55
3022.52376	3226.55
3024.9391	3224.85
3027.35298	3226.15
3029.76539	3212.05
3032.17632	3208.25
3034.5858	3191.15
3036.9938	3197.65
3039.40034	3187.35
3041.80542	3173.35
3044.20903	3179.35
3046.61118	3170.55
3049.01187	3147.25
3051.4111	3150.55
3053.80888	3150.55
3056.20519	3145.25
3058.60005	3127.75
3060.99345	3114.75
3063.3854	3130.85
3065.7759	3118.35
3068.16494	3106.05
3070.55254	3104.25
3072.93868	3087.05
3075.32338	3082.45
3077.70662	3071.35
3080.08842	3070.35
3082.46878	3054.75
3084.84769	3038.45
3087.22515	3040.45
3089.60118	3057.05
3091.97576	3040.15
3094.3489	3026.55
3096.72061	3041.75
3099.09087	3031.25
3101.4597	3027.75
3103.82709	3020.45
3106.19305	3008.95
3108.55757	3013.05
3110.92066	3013.95
3113.28232	3001.85
3115.64255	2992.95
3118.00134	2983.45
3120.35871	2978.95
3122.71466	2976.25
3125.06917	2982.45
3127.42226	2961.95
3129.77393	2951.95
3132.12417	2954.55
3134.47299	2937.95
3136.82039	2933.65
3139.16636	2933.05
3141.51092	2945.15
3143.85406	2921.95
3146.19579	2941.95
3148.53609	2935.55
3150.87499	2934.75
3153.21246	2926.65
3155.54853	2923.05
3157.88318	2928.55
3160.21642	2944.25
3162.54826	2925.75
3164.87868	2928.55
3167.2077	2917.85
3169.5353	2912.75
3171.86151	2921.75
3174.18631	2910.35
3176.5097	2901.45
3178.83169	2883.85
3181.15228	2886.95
3183.47147	2877.65
3185.78926	2871.45
3188.10565	2852.35
3190.42065	2854.95
3192.73424	2852.85
3195.04645	2837.65
3197.35725	2838.15
3199.66667	2839.75
3201.97469	2833.35
3204.28132	2827.25
3206.58656	2825.85
3208.8904	2838.75
3211.19287	2847.75
3213.49394	2852.15
3215.79363	2841.35
3218.09193	2820.85
3220.38884	2824.75
3222.68438	2838.65
3224.97853	2842.25
3227.2713	2836.15
3229.56269	2837.45
3231.8527	2827.05
3234.14133	2816.65
3236.42858	2802.25
3238.71446	2794.55
3240.99896	2788.05
3243.28209	2784.85
3245.56384	2783.65
3247.84423	2769.75
3250.12324	2766.05
3252.40088	2762.75
3254.67715	2769.55
3256.95205	2759.15
3259.22558	2749.45
3261.49775	2747.65
3263.76855	2756.15
3266.03799	2743.25
3268.30606	2757.75
3270.57277	2748.05
3272.83812	2760.75
3275.10211	2734.75
3277.36474	2733.85
3279.62601	2721.35
3281.88593	2707.95
3284.14448	2721.95
3286.40168	2714.75
3288.65753	2707.35
3290.91202	2706.95
3293.16516	2692.95
3295.41695	2697.25
3297.66738	2679.25
3299.91647	2660.85
3302.16421	2655.55
3304.4106	2639.35
3306.65564	2637.95
3308.89933	2611.45
3311.14169	2580.65
3313.38269	2559.95
3315.62236	2543.05
3317.86068	2514.85
3320.09766	2505.35
3322.3333	2485.65
3324.5676	2464.35
3326.80056	2436.75
3329.03219	2412.15
3331.26248	1.75
3333.49143	-1.25
3335.71905	-0.45
