Data from AgNPs_UA_50uM_CRN_500uM_SU_RamanShift__70__14-07-30-327.txt Node

Date: Thu Aug 04 14:07:30 BST 2022
User: TCL
Spectrometer: QEP01345
Trigger mode: 4
Integration Time (sec): 1.000000E0
Scans to average: 10
Electric dark correction enabled: true
Nonlinearity correction enabled: false
Boxcar width: 0
XAxis mode: Raman Shifts
Number of Pixels in Spectrum: 1044
>>>>>Begin Spectral Data<<<<<
46.04893	0.75
50.45542	-1.55
54.85868	0.05
59.25871	-1.15
63.6555	18.45
68.04907	18.05
72.43941	18.65
76.82654	19.65
81.21044	20.75
85.59113	22.75
89.96862	21.65
94.34289	23.05
98.71396	23.75
103.08183	22.95
107.4465	23.55
111.80798	22.65
116.16626	24.25
120.52136	26.75
124.87327	30.15
129.222	30.35
133.56755	34.05
137.90993	35.75
142.24913	36.35
146.58517	44.95
150.91804	52.95
155.24774	63.65
159.57429	82.25
163.89768	103.85
168.21792	136.55
172.53501	191.25
176.84895	271.85
181.15975	385.75
185.46741	547.25
189.77193	754.65
194.07331	1007.75
198.37157	1305.55
202.6667	1613.25
206.9587	1918.45
211.24758	2213.15
215.53334	2519.15
219.81599	2848.55
224.09553	3235.95
228.37195	3641.75
232.64527	4074.75
236.91549	4507.95
241.18261	4908.65
245.44663	5209.45
249.70755	5475.45
253.96539	5706.35
258.22014	5910.85
262.4718	6079.45
266.72039	6224.45
270.96589	6268.75
275.20832	6244.25
279.44768	6141.95
283.68397	6039.25
287.91719	5977.35
292.14735	5986.05
296.37445	6079.95
300.59849	6264.15
304.81948	6494.25
309.03742	6700.65
313.25231	6789.05
317.46415	6665.25
321.67296	6420.05
325.87872	6146.05
330.08145	6011.95
334.28114	6036.95
338.47781	6125.45
342.67145	6255.65
346.86207	6455.25
351.04966	6703.55
355.23424	6963.45
359.4158	7176.75
363.59435	7297.55
367.76989	7341.55
371.94243	7353.65
376.11196	7345.45
380.27849	7330.55
384.44203	7358.95
388.60257	7366.35
392.76012	7398.85
396.91468	7480.35
401.06626	7600.45
405.21485	7667.75
409.36047	7549.15
413.50311	7292.85
417.64277	7011.25
421.77947	6871.55
425.9132	6803.25
430.04396	6850.95
434.17176	6915.95
438.2966	7068.75
442.41849	7284.05
446.53742	7507.65
450.6534	7729.65
454.76644	7890.65
458.87653	7897.45
462.98368	7824.15
467.08789	7681.85
471.18916	7478.95
475.2875	7228.15
479.38291	7050.25
483.4754	6917.65
487.56496	6857.55
491.6516	6799.85
495.73531	6778.65
499.81612	6759.15
503.89401	6818.35
507.96899	6876.05
512.04106	6923.75
516.11023	7010.85
520.1765	7077.35
524.23987	7105.15
528.30034	7072.65
532.35792	7058.55
536.41261	6948.85
540.46441	6857.95
544.51333	6815.65
548.55936	6891.55
552.60252	7004.65
556.64279	7117.25
560.6802	7179.85
564.71473	7230.55
568.7464	7327.75
572.7752	7319.55
576.80114	7177.35
580.82422	7060.55
584.84444	7072.15
588.86181	7212.75
592.87633	7433.85
596.888	7620.55
600.89682	7911.35
604.9028	8817.45
608.90594	10718.85
612.90624	12505.55
616.90371	11386.15
620.89834	8770.05
624.89015	7832.35
628.87913	7759.65
632.86528	7731.45
636.84862	7596.75
640.82913	7328.45
644.80683	6988.65
648.78172	6847.55
652.75379	6881.55
656.72306	7151.75
660.68952	7412.65
664.65319	7335.65
668.61405	7175.15
672.57211	7146.35
676.52738	7126.75
680.47986	6999.85
684.42955	6910.65
688.37646	6901.65
692.32058	6975.45
696.26192	7076.85
700.20048	7223.05
704.13626	7205.25
708.06928	7108.55
711.99952	7041.05
715.927	7062.25
719.85171	7106.25
723.77365	7074.75
727.69284	7021.55
731.60928	6936.05
735.52295	6958.75
739.43388	6999.75
743.34206	7065.35
747.24749	7098.95
751.15017	7102.55
755.05012	7195.85
758.94733	7509.85
762.8418	8185.95
766.73354	9213.45
770.62254	10049.25
774.50882	10300.55
778.39237	9788.65
782.27321	8850.85
786.15132	7997.35
790.02671	7483.95
793.89938	7225.85
797.76935	7120.55
801.6366	7090.85
805.50115	7041.85
809.36299	7016.35
813.22213	6978.35
817.07857	6949.95
820.93231	6948.95
824.78336	6981.05
828.63172	6991.15
832.47738	7028.55
836.32036	7030.45
840.16066	7055.25
843.99827	7071.45
847.8332	7054.25
851.66546	7002.15
855.49504	7011.65
859.32195	7011.85
863.1462	6993.15
866.96777	6942.55
870.78668	6938.15
874.60293	6940.25
878.41652	6972.45
882.22745	7042.45
886.03573	7042.55
889.84136	7032.35
893.64433	7005.55
897.44466	6978.35
901.24235	6976.15
905.0374	6956.45
908.8298	6935.25
912.61957	6916.75
916.40671	6966.65
920.19121	7053.35
923.97308	7152.05
927.75233	7267.45
931.52895	7325.15
935.30295	7263.95
939.07433	7067.95
942.84309	6954.95
946.60924	6908.05
950.37278	6890.75
954.13371	6824.85
957.89203	6803.65
961.64774	6757.35
965.40086	6742.25
969.15137	6697.25
972.89929	6698.55
976.64461	6701.05
980.38733	6738.35
984.12747	6757.75
987.86502	6802.85
991.59999	6944.25
995.33237	7105.15
999.06217	7404.95
1002.78939	7725.85
1006.51404	7816.15
1010.23611	7843.35
1013.95561	7914.25
1017.67255	8018.15
1021.38692	7990.65
1025.09872	7998.85
1028.80796	8198.95
1032.51465	8481.25
1036.21877	8661.45
1039.92035	8631.55
1043.61937	8424.35
1047.31584	8126.85
1051.00976	7835.15
1054.70114	7694.55
1058.38998	7668.15
1062.07627	7642.25
1065.76003	7622.45
1069.44126	7652.65
1073.11995	7713.35
1076.79611	7802.55
1080.46974	7940.15
1084.14085	8071.55
1087.80943	8161.45
1091.47549	8171.45
1095.13903	8006.65
1098.80005	7867.05
1102.45857	7821.25
1106.11456	7810.95
1109.76805	7847.95
1113.41903	7956.65
1117.06751	8098.05
1120.71348	8290.15
1124.35696	8488.25
1127.99793	8626.65
1131.63641	8491.55
1135.2724	8234.25
1138.90589	8001.45
1142.5369	7831.75
1146.16542	7718.75
1149.79145	7666.45
1153.415	7664.85
1157.03607	7684.85
1160.65467	7796.35
1164.27079	8005.35
1167.88443	8346.05
1171.49561	8901.65
1175.10432	9706.65
1178.71056	10772.65
1182.31434	11697.05
1185.91565	12089.35
1189.51451	11908.85
1193.11091	11327.65
1196.70485	10644.65
1200.29634	10103.35
1203.88538	9639.85
1207.47197	9204.75
1211.05612	8814.35
1214.63782	8627.75
1218.21708	8569.65
1221.79391	8669.15
1225.36829	8762.05
1228.94024	8729.25
1232.50976	8584.85
1236.07685	8470.05
1239.6415	8455.55
1243.20374	8496.65
1246.76355	8542.45
1250.32093	8670.45
1253.8759	8905.15
1257.42845	9215.95
1260.97859	9496.25
1264.52631	9769.45
1268.07163	10000.45
1271.61453	10191.45
1275.15503	10388.35
1278.69312	10603.55
1282.22882	10844.05
1285.76211	11025.65
1289.29301	11153.85
1292.82151	11336.25
1296.34761	11652.15
1299.87133	12184.15
1303.39266	13086.45
1306.9116	14373.55
1310.42815	15735.45
1313.94233	16333.65
1317.45412	15800.25
1320.96354	14720.65
1324.47058	13648.75
1327.97525	12771.05
1331.47754	12326.95
1334.97747	12220.05
1338.47502	12371.55
1341.97022	12726.25
1345.46305	13223.85
1348.95352	13877.65
1352.44163	14701.75
1355.92738	15862.35
1359.41078	17379.05
1362.89183	18334.05
1366.37053	17296.85
1369.84688	14893.15
1373.32088	12683.85
1376.79254	11382.15
1380.26186	10799.15
1383.72883	10504.75
1387.19347	10178.15
1390.65578	9797.75
1394.11575	9523.15
1397.57339	9385.05
1401.0287	9434.15
1404.48168	9490.45
1407.93234	9623.55
1411.38068	9829.05
1414.82669	9933.25
1418.27039	9911.75
1421.71177	9725.15
1425.15083	9615.35
1428.58758	9617.75
1432.02203	9780.65
1435.45416	9934.85
1438.88399	9975.95
1442.31151	9917.35
1445.73673	9891.05
1449.15965	9844.95
1452.58027	9734.15
1455.9986	9577.55
1459.41463	9538.05
1462.82837	9595.55
1466.23982	9826.65
1469.64898	10013.25
1473.05586	10186.05
1476.46045	10354.25
1479.86276	10462.25
1483.26279	10608.65
1486.66054	10770.95
1490.05602	11007.45
1493.44922	11390.85
1496.84016	11956.55
1500.22882	12813.75
1503.61521	13926.85
1506.99934	15033.65
1510.38121	15752.15
1513.76081	15546.25
1517.13816	14443.95
1520.51324	13055.65
1523.88607	11923.65
1527.25665	11256.45
1530.62498	10894.05
1533.99105	10714.15
1537.35488	10593.55
1540.71647	10482.05
1544.07581	10381.45
1547.4329	10237.55
1550.78776	10066.75
1554.14038	9999.75
1557.49077	9963.85
1560.83892	10012.15
1564.18484	10149.55
1567.52853	10344.15
1570.86999	10480.35
1574.20922	10465.95
1577.54624	10264.05
1580.88103	9893.55
1584.2136	9517.85
1587.54395	9448.35
1590.87208	9831.65
1594.19801	10605.05
1597.52172	11504.85
1600.84321	11963.75
1604.16251	11746.45
1607.47959	11040.75
1610.79447	10207.95
1614.10715	9376.95
1617.41763	8758.25
1620.7259	8367.65
1624.03199	8207.25
1627.33587	8220.85
1630.63757	8470.35
1633.93707	9005.65
1637.23439	9764.15
1640.52951	10724.65
1643.82246	11840.05
1647.11321	12735.25
1650.40179	12858.35
1653.68819	11877.75
1656.97241	10323.95
1660.25446	8930.65
1663.53433	8029.95
1666.81203	7481.35
1670.08756	7140.95
1673.36092	6932.65
1676.63211	6808.45
1679.90115	6691.35
1683.16801	6617.15
1686.43272	6565.35
1689.69527	6512.85
1692.95567	6499.45
1696.2139	6472.85
1699.46999	6454.15
1702.72392	6438.35
1705.97571	6455.95
1709.22535	6435.65
1712.47284	6446.85
1715.71819	6456.25
1718.96139	6432.05
1722.20246	6420.35
1725.44139	6395.75
1728.67818	6353.15
1731.91284	6301.05
1735.14537	6276.15
1738.37576	6248.05
1741.60403	6223.65
1744.83017	6209.75
1748.05418	6211.35
1751.27607	6177.05
1754.49584	6182.95
1757.71349	6159.95
1760.92903	6160.85
1764.14244	6145.05
1767.35375	6141.65
1770.56294	6121.75
1773.77002	6121.85
1776.97499	6099.45
1780.17785	6076.95
1783.37861	6058.65
1786.57727	6074.15
1789.77382	6067.45
1792.96828	6049.35
1796.16064	6049.05
1799.3509	6038.65
1802.53907	6022.05
1805.72514	6013.35
1808.90913	6006.55
1812.09102	5991.35
1815.27083	5963.25
1818.44856	5954.65
1821.6242	5954.65
1824.79776	5954.05
1827.96924	5919.65
1831.13864	5906.25
1834.30597	5899.55
1837.47122	5881.75
1840.6344	5884.55
1843.7955	5896.35
1846.95454	5882.85
1850.11151	5877.55
1853.26642	5893.15
1856.41926	5874.65
1859.57004	5890.85
1862.71876	5883.95
1865.86542	5848.65
1869.01003	5841.15
1872.15258	5849.85
1875.29308	5863.95
1878.43152	5852.65
1881.56792	5855.05
1884.70227	5840.85
1887.83457	5839.05
1890.96482	5847.95
1894.09304	5792.95
1897.21921	5810.35
1900.34335	5793.85
1903.46544	5783.55
1906.58551	5773.55
1909.70353	5773.65
1912.81953	5763.55
1915.93349	5778.95
1919.04543	5754.65
1922.15534	5747.75
1925.26322	5741.55
1928.36908	5737.75
1931.47292	5731.35
1934.57473	5724.75
1937.67453	5715.35
1940.77232	5701.75
1943.86808	5678.15
1946.96184	5672.75
1950.05358	5655.15
1953.14331	5620.15
1956.23103	5614.85
1959.31675	5602.55
1962.40046	5572.85
1965.48217	5567.75
1968.56188	5554.15
1971.63959	5520.55
1974.7153	5522.55
1977.78901	5497.85
1980.86073	5481.05
1983.93046	5487.85
1986.99819	5461.25
1990.06394	5429.55
1993.1277	5421.55
1996.18947	5403.85
1999.24925	5391.55
2002.30706	5372.85
2005.36288	5350.05
2008.41672	5323.55
2011.46859	5303.65
2014.51848	5299.35
2017.56639	5281.65
2020.61233	5275.95
2023.6563	5249.15
2026.6983	5235.55
2029.73833	5227.45
2032.7764	5212.85
2035.8125	5216.85
2038.84664	5202.75
2041.87881	5198.75
2044.90903	5186.25
2047.93729	5176.65
2050.96359	5180.35
2053.98794	5154.85
2057.01034	5154.25
2060.03078	5175.35
2063.04927	5162.35
2066.06582	5156.75
2069.08042	5140.75
2072.09307	5126.35
2075.10378	5106.65
2078.11255	5117.15
2081.11938	5116.25
2084.12426	5130.45
2087.12722	5113.05
2090.12824	5103.95
2093.12732	5125.75
2096.12447	5117.55
2099.11969	5132.95
2102.11299	5119.55
2105.10435	5105.85
2108.09379	5098.85
2111.08131	5103.15
2114.0669	5123.15
2117.05057	5112.55
2120.03233	5105.45
2123.01216	5119.95
2125.99008	5123.25
2128.96609	5129.85
2131.94018	5133.05
2134.91236	5121.25
2137.88263	5128.35
2140.851	5127.85
2143.81746	5130.85
2146.78201	5123.75
2149.74466	5125.45
2152.7054	5132.85
2155.66425	5125.25
2158.6212	5128.55
2161.57625	5115.75
2164.52941	5103.45
2167.48067	5099.35
2170.43004	5117.65
2173.37752	5096.45
2176.32311	5112.25
2179.26681	5114.75
2182.20863	5125.65
2185.14856	5105.15
2188.08661	5115.65
2191.02278	5103.55
2193.95707	5117.75
2196.88948	5093.05
2199.82001	5097.85
2202.74867	5098.15
2205.67545	5102.75
2208.60037	5108.95
2211.52341	5106.15
2214.44458	5101.95
2217.36388	5098.65
2220.28132	5081.45
2223.1969	5051.65
2226.11061	5057.65
2229.02246	5056.15
2231.93245	5031.25
2234.84058	5023.45
2237.74686	5015.65
2240.65128	5017.95
2243.55385	4994.55
2246.45456	4986.55
2249.35343	4986.45
2252.25044	4987.05
2255.14561	4978.75
2258.03893	4980.55
2260.93041	4966.85
2263.82004	4953.65
2266.70783	4949.65
2269.59378	4917.55
2272.4779	4910.45
2275.36017	4897.15
2278.24061	4875.65
2281.11922	4877.65
2283.996	4850.25
2286.87094	4851.85
2289.74405	4849.25
2292.61534	4861.65
2295.4848	4855.35
2298.35243	4864.05
2301.21824	4880.85
2304.08223	4868.15
2306.94439	4847.95
2309.80474	4855.55
2312.66327	4881.55
2315.51999	4868.05
2318.37489	4870.75
2321.22797	4869.95
2324.07925	4851.55
2326.92871	4834.95
2329.77637	4847.75
2332.62222	4832.45
2335.46626	4837.45
2338.3085	4835.95
2341.14893	4842.25
2343.98756	4851.95
2346.8244	4843.05
2349.65943	4838.25
2352.49267	4842.65
2355.32411	4853.85
2358.15376	4848.75
2360.98161	4830.55
2363.80768	4836.35
2366.63195	4815.25
2369.45444	4816.15
2372.27514	4806.15
2375.09405	4801.95
2377.91118	4776.45
2380.72652	4771.85
2383.54009	4745.65
2386.35187	4740.25
2389.16188	4722.25
2391.97011	4725.55
2394.77657	4733.55
2397.58125	4703.85
2400.38416	4695.35
2403.18529	4689.05
2405.98466	4678.65
2408.78226	4665.55
2411.57809	4639.75
2414.37216	4630.05
2417.16446	4607.75
2419.955	4632.35
2422.74378	4610.55
2425.5308	4614.85
2428.31606	4608.65
2431.09956	4609.35
2433.88131	4612.35
2436.6613	4614.45
2439.43954	4616.85
2442.21603	4598.95
2444.99077	4590.75
2447.76377	4599.75
2450.53501	4588.65
2453.30451	4587.15
2456.07226	4583.75
2458.83827	4583.95
2461.60254	4578.15
2464.36507	4559.85
2467.12586	4573.85
2469.88492	4570.55
2472.64224	4567.05
2475.39782	4559.85
2478.15167	4567.95
2480.90379	4562.45
2483.65417	4583.05
2486.40283	4575.65
2489.14976	4586.85
2491.89497	4577.05
2494.63845	4596.05
2497.3802	4587.65
2500.12024	4562.25
2502.85855	4584.25
2505.59514	4564.05
2508.33002	4567.15
2511.06318	4549.35
2513.79462	4543.15
2516.52435	4513.35
2519.25237	4510.25
2521.97867	4505.45
2524.70327	4509.05
2527.42616	4496.65
2530.14734	4513.45
2532.86681	4517.15
2535.58458	4509.65
2538.30065	4517.45
2541.01501	4516.45
2543.72768	4495.15
2546.43864	4504.05
2549.14791	4475.45
2551.85548	4481.55
2554.56136	4479.55
2557.26554	4471.05
2559.96803	4455.85
2562.66883	4460.05
2565.36794	4448.95
2568.06536	4441.95
2570.7611	4435.85
2573.45514	4431.05
2576.14751	4444.55
2578.83819	4425.25
2581.52719	4419.85
2584.21451	4407.05
2586.90015	4406.85
2589.58411	4424.05
2592.2664	4417.35
2594.94701	4416.15
2597.62594	4429.65
2600.30321	4413.15
2602.9788	4406.05
2605.65273	4402.65
2608.32498	4392.25
2610.99557	4403.55
2613.66449	4403.45
2616.33175	4402.15
2618.99734	4402.55
2621.66128	4396.15
2624.32355	4405.55
2626.98416	4408.65
2629.64311	4404.85
2632.30041	4397.05
2634.95605	4390.35
2637.61004	4374.85
2640.26238	4354.55
2642.91306	4356.85
2645.56209	4364.55
2648.20948	4346.35
2650.85521	4347.05
2653.4993	4341.35
2656.14175	4334.55
2658.78255	4335.75
2661.42171	4348.05
2664.05923	4340.55
2666.6951	4348.85
2669.32934	4357.85
2671.96194	4337.55
2674.59291	4339.15
2677.22224	4338.05
2679.84993	4341.05
2682.476	4313.85
2685.10043	4321.45
2687.72324	4329.95
2690.34441	4339.35
2692.96396	4309.65
2695.58188	4315.45
2698.19818	4298.75
2700.81285	4308.15
2703.4259	4298.25
2706.03733	4307.65
2708.64714	4311.85
2711.25533	4295.45
2713.86191	4294.75
2716.46687	4288.15
2719.07021	4287.05
2721.67194	4299.45
2724.27206	4306.25
2726.87057	4297.35
2729.46747	4290.55
2732.06276	4288.75
2734.65644	4298.45
2737.24852	4280.95
2739.83899	4269.35
2742.42786	4270.15
2745.01513	4263.65
2747.60079	4269.45
2750.18486	4260.75
2752.76733	4266.55
2755.3482	4254.05
2757.92747	4235.15
2760.50515	4235.85
2763.08123	4238.85
2765.65573	4221.35
2768.22863	4215.95
2770.79994	4223.95
2773.36967	4223.05
2775.9378	4225.45
2778.50435	4228.05
2781.06932	4233.45
2783.6327	4218.45
2786.1945	4220.15
2788.75471	4226.65
2791.31335	4190.95
2793.87041	4194.25
2796.42589	4205.65
2798.97979	4189.95
2801.53212	4172.15
2804.08288	4167.35
2806.63206	4171.55
2809.17967	4160.75
2811.72571	4142.15
2814.27018	4130.85
2816.81308	4140.15
2819.35442	4118.85
2821.89419	4123.25
2824.43239	4115.75
2826.96904	4119.25
2829.50412	4103.05
2832.03763	4099.55
2834.56959	4098.15
2837.1	4090.55
2839.62884	4086.05
2842.15613	4071.55
2844.68186	4084.15
2847.20604	4067.85
2849.72867	4065.95
2852.24974	4058.75
2854.76927	4045.25
2857.28724	4041.15
2859.80367	4028.85
2862.31855	4036.15
2864.83189	4033.45
2867.34368	4033.05
2869.85393	4030.35
2872.36264	4015.45
2874.8698	4026.45
2877.37543	4039.25
2879.87952	4027.35
2882.38207	4022.95
2884.88308	4011.75
2887.38256	4010.85
2889.88051	3999.25
2892.37692	4004.15
2894.8718	3994.75
2897.36515	3990.45
2899.85698	4007.15
2902.34727	4003.95
2904.83604	4011.35
2907.32328	4031.65
2909.809	4008.15
2912.29319	4026.15
2914.77587	4027.25
2917.25702	4024.65
2919.73665	4031.35
2922.21476	4017.35
2924.69136	4008.55
2927.16644	4006.15
2929.64	3991.85
2932.11205	3998.55
2934.58258	3980.05
2937.05161	3978.85
2939.51912	3981.55
2941.98513	3969.45
2944.44962	3954.05
2946.91261	3953.95
2949.37409	3964.45
2951.83407	3955.85
2954.29254	3947.85
2956.74951	3960.15
2959.20498	3958.05
2961.65895	3932.05
2964.11142	3940.85
2966.56239	3921.55
2969.01186	3930.55
2971.45984	3928.55
2973.90632	3920.15
2976.35131	3915.05
2978.7948	3908.45
2981.23681	3886.55
2983.67732	3889.65
2986.11635	3872.15
2988.55388	3855.55
2990.98993	3847.25
2993.4245	3845.05
2995.85758	3835.25
2998.28917	3829.05
3000.71928	3839.25
3003.14791	3809.85
3005.57506	3801.85
3008.00073	3795.75
3010.42493	3795.15
3012.84764	3782.35
3015.26888	3762.45
3017.68865	3748.75
3020.10694	3759.55
3022.52376	3723.95
3024.9391	3733.15
3027.35298	3719.85
3029.76539	3704.05
3032.17632	3710.65
3034.5858	3703.05
3036.9938	3692.95
3039.40034	3684.45
3041.80542	3681.85
3044.20903	3679.45
3046.61118	3671.55
3049.01187	3661.25
3051.4111	3656.05
3053.80888	3649.45
3056.20519	3636.25
3058.60005	3633.25
3060.99345	3631.35
3063.3854	3620.35
3065.7759	3600.05
3068.16494	3584.45
3070.55254	3578.55
3072.93868	3567.85
3075.32338	3539.75
3077.70662	3541.25
3080.08842	3542.35
3082.46878	3526.85
3084.84769	3521.15
3087.22515	3510.55
3089.60118	3518.45
3091.97576	3519.05
3094.3489	3515.55
3096.72061	3514.25
3099.09087	3513.65
3101.4597	3509.75
3103.82709	3498.35
3106.19305	3492.65
3108.55757	3504.85
3110.92066	3486.05
3113.28232	3486.85
3115.64255	3469.25
3118.00134	3470.35
3120.35871	3457.95
3122.71466	3462.35
3125.06917	3439.75
3127.42226	3438.15
3129.77393	3445.45
3132.12417	3423.15
3134.47299	3426.75
3136.82039	3418.25
3139.16636	3427.25
3141.51092	3407.75
3143.85406	3402.15
3146.19579	3397.55
3148.53609	3411.05
3150.87499	3410.25
3153.21246	3412.85
3155.54853	3414.95
3157.88318	3403.45
3160.21642	3400.25
3162.54826	3400.45
3164.87868	3400.05
3167.2077	3385.65
3169.5353	3385.35
3171.86151	3389.65
3174.18631	3377.95
3176.5097	3381.95
3178.83169	3379.95
3181.15228	3376.55
3183.47147	3365.55
3185.78926	3347.65
3188.10565	3339.95
3190.42065	3349.85
3192.73424	3345.95
3195.04645	3335.05
3197.35725	3331.95
3199.66667	3329.95
3201.97469	3342.75
3204.28132	3326.15
3206.58656	3322.75
3208.8904	3333.45
3211.19287	3339.35
3213.49394	3340.85
3215.79363	3328.85
3218.09193	3322.85
3220.38884	3319.15
3222.68438	3323.85
3224.97853	3324.85
3227.2713	3316.65
3229.56269	3308.75
3231.8527	3311.05
3234.14133	3298.05
3236.42858	3291.95
3238.71446	3287.45
3240.99896	3280.05
3243.28209	3278.85
3245.56384	3270.25
3247.84423	3280.55
3250.12324	3262.95
3252.40088	3277.35
3254.67715	3247.25
3256.95205	3246.15
3259.22558	3244.35
3261.49775	3240.45
3263.76855	3244.35
3266.03799	3239.25
3268.30606	3239.85
3270.57277	3243.45
3272.83812	3219.65
3275.10211	3226.45
3277.36474	3207.45
3279.62601	3222.25
3281.88593	3205.05
3284.14448	3201.95
3286.40168	3203.05
3288.65753	3210.35
3290.91202	3207.65
3293.16516	3205.65
3295.41695	3182.95
3297.66738	3171.25
3299.91647	3149.65
3302.16421	3146.05
3304.4106	3120.15
3306.65564	3094.55
3308.89933	3079.95
3311.14169	3048.05
3313.38269	3017.65
3315.62236	3011.95
3317.86068	2989.95
3320.09766	2964.25
3322.3333	2938.85
3324.5676	2929.95
3326.80056	2871.65
3329.03219	2872.05
3331.26248	0.35
3333.49143	0.55
3335.71905	-0.15
