Data from AgNPs_UA_10uM_CRN_500uM_SU_RamanShift__49__13-13-30-263.txt Node

Date: Thu Aug 04 13:13:30 BST 2022
User: TCL
Spectrometer: QEP01345
Trigger mode: 4
Integration Time (sec): 1.000000E0
Scans to average: 10
Electric dark correction enabled: true
Nonlinearity correction enabled: false
Boxcar width: 0
XAxis mode: Raman Shifts
Number of Pixels in Spectrum: 1044
>>>>>Begin Spectral Data<<<<<
46.04893	0.25
50.45542	-1.25
54.85868	0.75
59.25871	-0.35
63.6555	21.35
68.04907	23.75
72.43941	22.95
76.82654	22.15
81.21044	23.35
85.59113	25.25
89.96862	26.55
94.34289	25.65
98.71396	27.25
103.08183	28.65
107.4465	28.85
111.80798	30.35
116.16626	31.15
120.52136	33.45
124.87327	34.95
129.222	36.95
133.56755	37.45
137.90993	43.85
142.24913	48.75
146.58517	52.05
150.91804	63.45
155.24774	78.65
159.57429	96.95
163.89768	127.85
168.21792	172.75
172.53501	234.55
176.84895	332.55
181.15975	470.95
185.46741	669.45
189.77193	926.55
194.07331	1251.95
198.37157	1607.25
202.6667	1985.55
206.9587	2384.05
211.24758	2750.25
215.53334	3152.75
219.81599	3557.65
224.09553	4004.35
228.37195	4509.85
232.64527	5059.55
236.91549	5608.25
241.18261	6110.95
245.44663	6534.65
249.70755	6898.65
253.96539	7221.55
258.22014	7501.95
262.4718	7725.05
266.72039	7868.25
270.96589	7918.35
275.20832	7884.85
279.44768	7790.25
283.68397	7682.05
287.91719	7582.35
292.14735	7579.25
296.37445	7642.25
300.59849	7799.45
304.81948	7987.15
309.03742	8154.75
313.25231	8253.15
317.46415	8208.55
321.67296	7966.35
325.87872	7748.75
330.08145	7662.35
334.28114	7632.95
338.47781	7728.95
342.67145	7846.45
346.86207	8017.35
351.04966	8284.95
355.23424	8573.75
359.4158	8774.45
363.59435	8883.75
367.76989	8950.75
371.94243	8987.95
376.11196	8992.45
380.27849	9012.35
384.44203	9075.15
388.60257	9142.05
392.76012	9224.95
396.91468	9354.05
401.06626	9469.25
405.21485	9527.25
409.36047	9454.85
413.50311	9286.65
417.64277	9082.55
421.77947	8959.65
425.9132	8872.15
430.04396	8846.15
434.17176	8838.75
438.2966	8948.65
442.41849	9071.65
446.53742	9257.65
450.6534	9417.15
454.76644	9539.75
458.87653	9600.05
462.98368	9675.15
467.08789	9617.95
471.18916	9550.25
475.2875	9401.35
479.38291	9241.55
483.4754	9140.65
487.56496	9087.55
491.6516	9088.95
495.73531	9070.55
499.81612	9113.05
503.89401	9180.75
507.96899	9240.55
512.04106	9268.55
516.11023	9297.05
520.1765	9331.55
524.23987	9319.55
528.30034	9331.25
532.35792	9351.25
536.41261	9300.45
540.46441	9199.15
544.51333	9203.35
548.55936	9279.45
552.60252	9361.85
556.64279	9495.05
560.6802	9606.75
564.71473	9685.75
568.7464	9735.55
572.7752	9643.05
576.80114	9458.15
580.82422	9290.05
584.84444	9230.55
588.86181	9262.45
592.87633	9286.85
596.888	9442.85
600.89682	9830.55
604.9028	10737.75
608.90594	12521.15
612.90624	14222.15
616.90371	13248.05
620.89834	10839.75
624.89015	9910.75
628.87913	9824.15
632.86528	10007.45
636.84862	10123.65
640.82913	9973.55
644.80683	9677.15
648.78172	9517.65
652.75379	9527.05
656.72306	9730.75
660.68952	9980.55
664.65319	9935.15
668.61405	9898.75
672.57211	10024.45
676.52738	10013.95
680.47986	9819.45
684.42955	9604.05
688.37646	9561.55
692.32058	9642.25
696.26192	9819.35
700.20048	9995.75
704.13626	10041.95
708.06928	9899.85
711.99952	9795.55
715.927	9765.25
719.85171	9839.45
723.77365	9851.75
727.69284	9818.55
731.60928	9728.25
735.52295	9733.25
739.43388	9787.35
743.34206	9802.15
747.24749	9784.95
751.15017	9782.15
755.05012	9846.25
758.94733	10100.75
762.8418	10700.05
766.73354	11626.55
770.62254	12336.45
774.50882	12593.35
778.39237	12417.05
782.27321	11855.55
786.15132	11101.15
790.02671	10477.55
793.89938	10148.85
797.76935	9947.85
801.6366	9863.55
805.50115	9805.55
809.36299	9801.25
813.22213	9777.85
817.07857	9783.85
820.93231	9779.15
824.78336	9767.35
828.63172	9814.35
832.47738	9821.15
836.32036	9799.25
840.16066	9806.55
843.99827	9776.15
847.8332	9776.95
851.66546	9814.95
855.49504	9828.35
859.32195	9838.25
863.1462	9840.95
866.96777	9844.95
870.78668	9868.75
874.60293	9894.55
878.41652	9936.65
882.22745	10011.85
886.03573	10048.15
889.84136	10054.05
893.64433	10014.05
897.44466	9972.25
901.24235	9971.45
905.0374	9962.05
908.8298	9929.15
912.61957	9894.05
916.40671	9901.65
920.19121	9906.55
923.97308	9952.85
927.75233	10015.25
931.52895	10071.35
935.30295	10019.15
939.07433	9917.05
942.84309	9864.15
946.60924	9832.15
950.37278	9807.05
954.13371	9802.95
957.89203	9829.85
961.64774	9820.85
965.40086	9804.25
969.15137	9764.55
972.89929	9791.05
976.64461	9790.55
980.38733	9795.65
984.12747	9823.65
987.86502	9843.75
991.59999	9884.25
995.33237	9940.35
999.06217	10001.55
1002.78939	10120.05
1006.51404	10277.75
1010.23611	10419.45
1013.95561	10497.45
1017.67255	10562.15
1021.38692	10527.75
1025.09872	10445.35
1028.80796	10353.35
1032.51465	10291.15
1036.21877	10306.35
1039.92035	10356.05
1043.61937	10376.75
1047.31584	10448.25
1051.00976	10455.55
1054.70114	10485.65
1058.38998	10503.85
1062.07627	10542.55
1065.76003	10636.65
1069.44126	10755.75
1073.11995	10961.45
1076.79611	11215.75
1080.46974	11339.65
1084.14085	11399.95
1087.80943	11464.25
1091.47549	11521.15
1095.13903	11630.05
1098.80005	11750.85
1102.45857	11875.25
1106.11456	11830.85
1109.76805	11593.95
1113.41903	11456.85
1117.06751	11505.35
1120.71348	11608.35
1124.35696	11707.55
1127.99793	11777.85
1131.63641	11624.85
1135.2724	11388.25
1138.90589	11178.65
1142.5369	11075.75
1146.16542	11043.75
1149.79145	10978.15
1153.415	10837.45
1157.03607	10751.25
1160.65467	10779.05
1164.27079	10945.05
1167.88443	11197.15
1171.49561	11565.55
1175.10432	12095.65
1178.71056	12832.35
1182.31434	13453.55
1185.91565	13756.55
1189.51451	13835.55
1193.11091	13756.55
1196.70485	13657.75
1200.29634	13449.05
1203.88538	13160.65
1207.47197	12806.45
1211.05612	12440.55
1214.63782	12109.05
1218.21708	11801.35
1221.79391	11582.85
1225.36829	11425.25
1228.94024	11388.25
1232.50976	11372.55
1236.07685	11423.95
1239.6415	11473.75
1243.20374	11529.45
1246.76355	11585.05
1250.32093	11681.15
1253.8759	11830.05
1257.42845	12127.65
1260.97859	12398.35
1264.52631	12660.55
1268.07163	12856.25
1271.61453	12933.35
1275.15503	12958.15
1278.69312	12883.55
1282.22882	12849.45
1285.76211	12888.25
1289.29301	12968.35
1292.82151	13120.25
1296.34761	13282.95
1299.87133	13600.95
1303.39266	14103.05
1306.9116	14898.75
1310.42815	15723.55
1313.94233	16026.35
1317.45412	15710.55
1320.96354	15146.35
1324.47058	14542.05
1327.97525	13991.15
1331.47754	13602.05
1334.97747	13461.05
1338.47502	13622.25
1341.97022	14066.75
1345.46305	14843.45
1348.95352	15895.65
1352.44163	16970.45
1355.92738	17854.55
1359.41078	18700.85
1362.89183	19133.55
1366.37053	18277.55
1369.84688	16237.45
1373.32088	14408.65
1376.79254	13352.15
1380.26186	12814.05
1383.72883	12475.05
1387.19347	12153.15
1390.65578	11833.85
1394.11575	11578.65
1397.57339	11351.45
1401.0287	11242.45
1404.48168	11240.65
1407.93234	11308.25
1411.38068	11499.25
1414.82669	11632.85
1418.27039	11671.05
1421.71177	11709.35
1425.15083	11598.35
1428.58758	11483.15
1432.02203	11435.45
1435.45416	11444.25
1438.88399	11407.65
1442.31151	11390.25
1445.73673	11440.45
1449.15965	11485.05
1452.58027	11471.45
1455.9986	11438.25
1459.41463	11414.55
1462.82837	11506.55
1466.23982	11702.05
1469.64898	11850.25
1473.05586	11994.35
1476.46045	12124.35
1479.86276	12236.65
1483.26279	12375.55
1486.66054	12562.55
1490.05602	12882.35
1493.44922	13366.35
1496.84016	14122.75
1500.22882	15141.95
1503.61521	16312.75
1506.99934	17270.25
1510.38121	17745.65
1513.76081	17355.45
1517.13816	16311.65
1520.51324	14954.25
1523.88607	13896.65
1527.25665	13225.75
1530.62498	12849.75
1533.99105	12689.85
1537.35488	12621.35
1540.71647	12558.55
1544.07581	12510.25
1547.4329	12415.95
1550.78776	12294.55
1554.14038	12159.45
1557.49077	12094.45
1560.83892	12169.45
1564.18484	12378.45
1567.52853	12602.45
1570.86999	12791.85
1574.20922	12832.95
1577.54624	12733.35
1580.88103	12349.45
1584.2136	11888.45
1587.54395	11650.15
1590.87208	11618.05
1594.19801	11896.05
1597.52172	12212.55
1600.84321	12358.75
1604.16251	12362.45
1607.47959	12224.45
1610.79447	11944.35
1614.10715	11553.15
1617.41763	11126.85
1620.7259	10789.05
1624.03199	10585.55
1627.33587	10498.65
1630.63757	10541.55
1633.93707	10789.35
1637.23439	11204.85
1640.52951	11924.05
1643.82246	12924.95
1647.11321	13886.95
1650.40179	14289.45
1653.68819	13772.85
1656.97241	12521.45
1660.25446	11388.75
1663.53433	10610.85
1666.81203	10132.75
1670.08756	9845.35
1673.36092	9670.55
1676.63211	9567.35
1679.90115	9462.35
1683.16801	9393.75
1686.43272	9302.55
1689.69527	9255.65
1692.95567	9216.55
1696.2139	9189.25
1699.46999	9160.75
1702.72392	9160.25
1705.97571	9133.85
1709.22535	9137.45
1712.47284	9144.55
1715.71819	9134.45
1718.96139	9129.45
1722.20246	9120.95
1725.44139	9095.75
1728.67818	9018.25
1731.91284	9007.05
1735.14537	8968.75
1738.37576	8937.85
1741.60403	8891.05
1744.83017	8890.85
1748.05418	8874.35
1751.27607	8860.75
1754.49584	8819.45
1757.71349	8840.05
1760.92903	8802.45
1764.14244	8784.85
1767.35375	8761.35
1770.56294	8746.05
1773.77002	8755.45
1776.97499	8709.95
1780.17785	8675.55
1783.37861	8640.45
1786.57727	8666.15
1789.77382	8652.95
1792.96828	8629.35
1796.16064	8612.75
1799.3509	8581.05
1802.53907	8601.05
1805.72514	8576.35
1808.90913	8548.45
1812.09102	8542.45
1815.27083	8508.05
1818.44856	8463.75
1821.6242	8465.15
1824.79776	8437.55
1827.96924	8435.85
1831.13864	8412.65
1834.30597	8415.75
1837.47122	8391.15
1840.6344	8360.55
1843.7955	8365.65
1846.95454	8371.95
1850.11151	8345.05
1853.26642	8339.15
1856.41926	8346.05
1859.57004	8353.75
1862.71876	8339.25
1865.86542	8336.05
1869.01003	8329.05
1872.15258	8309.95
1875.29308	8285.75
1878.43152	8255.75
1881.56792	8262.45
1884.70227	8244.15
1887.83457	8225.85
1890.96482	8191.15
1894.09304	8190.85
1897.21921	8163.75
1900.34335	8151.05
1903.46544	8155.75
1906.58551	8159.95
1909.70353	8151.75
1912.81953	8134.05
1915.93349	8107.25
1919.04543	8086.75
1922.15534	8064.55
1925.26322	8080.95
1928.36908	8032.15
1931.47292	8017.45
1934.57473	8002.75
1937.67453	8012.55
1940.77232	7952.45
1943.86808	7956.35
1946.96184	7902.15
1950.05358	7902.15
1953.14331	7860.75
1956.23103	7836.25
1959.31675	7814.65
1962.40046	7796.65
1965.48217	7754.05
1968.56188	7741.05
1971.63959	7714.65
1974.7153	7679.65
1977.78901	7691.55
1980.86073	7665.95
1983.93046	7628.85
1986.99819	7584.35
1990.06394	7590.05
1993.1277	7549.75
1996.18947	7518.95
1999.24925	7483.85
2002.30706	7465.95
2005.36288	7417.05
2008.41672	7399.75
2011.46859	7376.35
2014.51848	7359.25
2017.56639	7363.15
2020.61233	7317.75
2023.6563	7315.45
2026.6983	7287.25
2029.73833	7269.45
2032.7764	7223.45
2035.8125	7207.35
2038.84664	7201.45
2041.87881	7209.05
2044.90903	7166.85
2047.93729	7157.45
2050.96359	7130.95
2053.98794	7123.85
2057.01034	7107.35
2060.03078	7124.25
2063.04927	7092.65
2066.06582	7104.85
2069.08042	7080.75
2072.09307	7071.05
2075.10378	7076.95
2078.11255	7041.45
2081.11938	7032.35
2084.12426	7030.35
2087.12722	7036.75
2090.12824	7037.45
2093.12732	7025.95
2096.12447	7007.55
2099.11969	7033.55
2102.11299	7049.55
2105.10435	7043.65
2108.09379	7035.95
2111.08131	7045.85
2114.0669	7029.35
2117.05057	7046.15
2120.03233	7042.35
2123.01216	7047.85
2125.99008	7038.45
2128.96609	7038.15
2131.94018	7046.55
2134.91236	7047.25
2137.88263	7031.25
2140.851	7055.05
2143.81746	7023.85
2146.78201	7040.45
2149.74466	7037.35
2152.7054	7025.25
2155.66425	7014.35
2158.6212	7004.95
2161.57625	7004.95
2164.52941	7010.25
2167.48067	6996.85
2170.43004	6986.55
2173.37752	6976.95
2176.32311	6978.75
2179.26681	6982.15
2182.20863	6984.15
2185.14856	6994.85
2188.08661	6976.75
2191.02278	6963.35
2193.95707	6976.05
2196.88948	6946.25
2199.82001	6946.45
2202.74867	6962.25
2205.67545	6951.65
2208.60037	6930.55
2211.52341	6914.25
2214.44458	6879.95
2217.36388	6869.55
2220.28132	6856.85
2223.1969	6821.25
2226.11061	6805.95
2229.02246	6807.85
2231.93245	6777.95
2234.84058	6784.25
2237.74686	6770.35
2240.65128	6734.15
2243.55385	6739.55
2246.45456	6738.95
2249.35343	6708.95
2252.25044	6699.55
2255.14561	6697.35
2258.03893	6696.95
2260.93041	6681.35
2263.82004	6662.75
2266.70783	6647.35
2269.59378	6616.25
2272.4779	6598.45
2275.36017	6578.35
2278.24061	6585.05
2281.11922	6554.65
2283.996	6534.65
2286.87094	6534.55
2289.74405	6515.25
2292.61534	6516.25
2295.4848	6485.15
2298.35243	6488.45
2301.21824	6496.55
2304.08223	6470.65
2306.94439	6455.85
2309.80474	6471.35
2312.66327	6457.35
2315.51999	6433.65
2318.37489	6436.75
2321.22797	6403.95
2324.07925	6394.75
2326.92871	6380.05
2329.77637	6391.95
2332.62222	6358.15
2335.46626	6333.05
2338.3085	6331.75
2341.14893	6302.45
2343.98756	6328.75
2346.8244	6322.55
2349.65943	6313.55
2352.49267	6277.45
2355.32411	6291.55
2358.15376	6303.25
2360.98161	6264.65
2363.80768	6290.45
2366.63195	6268.75
2369.45444	6264.75
2372.27514	6261.45
2375.09405	6245.75
2377.91118	6213.25
2380.72652	6209.05
2383.54009	6197.45
2386.35187	6211.35
2389.16188	6194.55
2391.97011	6155.65
2394.77657	6124.45
2397.58125	6127.95
2400.38416	6098.85
2403.18529	6103.55
2405.98466	6111.85
2408.78226	6081.55
2411.57809	6063.05
2414.37216	6056.75
2417.16446	6055.75
2419.955	6032.55
2422.74378	6054.75
2425.5308	6040.35
2428.31606	6049.45
2431.09956	6009.55
2433.88131	6003.55
2436.6613	5995.25
2439.43954	5993.45
2442.21603	5996.15
2444.99077	5989.65
2447.76377	5969.15
2450.53501	5971.35
2453.30451	5987.95
2456.07226	5948.45
2458.83827	5931.55
2461.60254	5942.25
2464.36507	5907.15
2467.12586	5902.85
2469.88492	5895.65
2472.64224	5910.65
2475.39782	5904.35
2478.15167	5896.05
2480.90379	5878.05
2483.65417	5853.75
2486.40283	5874.45
2489.14976	5884.55
2491.89497	5854.95
2494.63845	5862.45
2497.3802	5865.05
2500.12024	5832.05
2502.85855	5819.95
2505.59514	5816.25
2508.33002	5809.45
2511.06318	5796.65
2513.79462	5776.15
2516.52435	5751.55
2519.25237	5760.75
2521.97867	5758.85
2524.70327	5733.65
2527.42616	5716.85
2530.14734	5709.05
2532.86681	5695.85
2535.58458	5712.75
2538.30065	5704.25
2541.01501	5700.85
2543.72768	5673.85
2546.43864	5667.25
2549.14791	5670.85
2551.85548	5662.95
2554.56136	5657.25
2557.26554	5624.85
2559.96803	5638.55
2562.66883	5609.95
2565.36794	5583.65
2568.06536	5567.75
2570.7611	5565.45
2573.45514	5534.65
2576.14751	5535.15
2578.83819	5527.95
2581.52719	5504.25
2584.21451	5488.45
2586.90015	5494.85
2589.58411	5481.25
2592.2664	5467.75
2594.94701	5464.55
2597.62594	5444.85
2600.30321	5421.65
2602.9788	5428.25
2605.65273	5415.65
2608.32498	5413.55
2610.99557	5408.25
2613.66449	5381.25
2616.33175	5375.55
2618.99734	5373.65
2621.66128	5357.05
2624.32355	5342.45
2626.98416	5330.75
2629.64311	5316.05
2632.30041	5302.25
2634.95605	5302.65
2637.61004	5281.45
2640.26238	5285.25
2642.91306	5265.45
2645.56209	5272.25
2648.20948	5254.55
2650.85521	5274.65
2653.4993	5250.05
2656.14175	5245.45
2658.78255	5229.55
2661.42171	5222.85
2664.05923	5223.35
2666.6951	5231.25
2669.32934	5238.65
2671.96194	5249.35
2674.59291	5228.75
2677.22224	5244.95
2679.84993	5228.25
2682.476	5232.45
2685.10043	5228.05
2687.72324	5244.15
2690.34441	5231.15
2692.96396	5189.05
2695.58188	5208.85
2698.19818	5215.55
2700.81285	5198.35
2703.4259	5189.45
2706.03733	5181.65
2708.64714	5180.95
2711.25533	5185.15
2713.86191	5167.45
2716.46687	5180.95
2719.07021	5168.15
2721.67194	5166.75
2724.27206	5172.95
2726.87057	5170.55
2729.46747	5159.55
2732.06276	5164.85
2734.65644	5148.25
2737.24852	5147.45
2739.83899	5134.65
2742.42786	5118.95
2745.01513	5101.55
2747.60079	5092.15
2750.18486	5088.75
2752.76733	5080.35
2755.3482	5057.35
2757.92747	5060.45
2760.50515	5056.65
2763.08123	5048.85
2765.65573	5042.25
2768.22863	5018.05
2770.79994	5010.65
2773.36967	4993.55
2775.9378	4977.15
2778.50435	4956.65
2781.06932	4989.65
2783.6327	4987.65
2786.1945	4979.55
2788.75471	4939.05
2791.31335	4930.65
2793.87041	4928.35
2796.42589	4907.35
2798.97979	4905.95
2801.53212	4895.05
2804.08288	4890.25
2806.63206	4868.95
2809.17967	4864.95
2811.72571	4851.85
2814.27018	4834.35
2816.81308	4821.15
2819.35442	4812.25
2821.89419	4811.25
2824.43239	4793.75
2826.96904	4782.15
2829.50412	4773.55
2832.03763	4753.55
2834.56959	4747.55
2837.1	4741.95
2839.62884	4725.25
2842.15613	4719.15
2844.68186	4727.85
2847.20604	4708.55
2849.72867	4700.65
2852.24974	4694.35
2854.76927	4680.75
2857.28724	4663.15
2859.80367	4660.85
2862.31855	4646.85
2864.83189	4653.15
2867.34368	4643.25
2869.85393	4640.75
2872.36264	4624.55
2874.8698	4628.85
2877.37543	4621.75
2879.87952	4619.55
2882.38207	4596.95
2884.88308	4596.15
2887.38256	4588.75
2889.88051	4588.75
2892.37692	4574.35
2894.8718	4581.85
2897.36515	4581.55
2899.85698	4554.45
2902.34727	4563.85
2904.83604	4569.35
2907.32328	4584.75
2909.809	4588.15
2912.29319	4585.85
2914.77587	4580.15
2917.25702	4590.35
2919.73665	4576.15
2922.21476	4559.45
2924.69136	4561.05
2927.16644	4555.85
2929.64	4539.45
2932.11205	4525.15
2934.58258	4507.25
2937.05161	4522.75
2939.51912	4521.05
2941.98513	4512.55
2944.44962	4501.55
2946.91261	4480.05
2949.37409	4502.45
2951.83407	4467.55
2954.29254	4474.45
2956.74951	4474.15
2959.20498	4473.15
2961.65895	4473.55
2964.11142	4472.25
2966.56239	4452.75
2969.01186	4480.35
2971.45984	4595.15
2973.90632	4471.85
2976.35131	4431.45
2978.7948	4430.95
2981.23681	4409.95
2983.67732	4425.75
2986.11635	4410.35
2988.55388	4385.75
2990.98993	4386.65
2993.4245	4386.05
2995.85758	4366.95
2998.28917	4350.85
3000.71928	4343.25
3003.14791	4313.15
3005.57506	4311.35
3008.00073	4310.05
3010.42493	4294.35
3012.84764	4278.45
3015.26888	4274.95
3017.68865	4263.85
3020.10694	4271.35
3022.52376	4251.45
3024.9391	4216.65
3027.35298	4206.35
3029.76539	4197.75
3032.17632	4196.75
3034.5858	4183.35
3036.9938	4176.45
3039.40034	4174.85
3041.80542	4151.05
3044.20903	4139.85
3046.61118	4152.15
3049.01187	4121.55
3051.4111	4132.65
3053.80888	4108.75
3056.20519	4095.15
3058.60005	4085.95
3060.99345	4089.55
3063.3854	4077.45
3065.7759	4056.85
3068.16494	4062.75
3070.55254	4039.65
3072.93868	4030.65
3075.32338	4003.35
3077.70662	4010.35
3080.08842	3993.75
3082.46878	3982.55
3084.84769	3979.65
3087.22515	3973.75
3089.60118	3970.65
3091.97576	3968.35
3094.3489	3965.65
3096.72061	3959.45
3099.09087	3941.95
3101.4597	3942.95
3103.82709	3946.75
3106.19305	3935.85
3108.55757	3942.15
3110.92066	3914.55
3113.28232	3915.55
3115.64255	3900.35
3118.00134	3907.05
3120.35871	3869.85
3122.71466	3880.45
3125.06917	3872.35
3127.42226	3852.45
3129.77393	3841.45
3132.12417	3845.15
3134.47299	3820.75
3136.82039	3824.95
3139.16636	3821.75
3141.51092	3835.45
3143.85406	3823.75
3146.19579	3825.45
3148.53609	3807.85
3150.87499	3821.25
3153.21246	3806.45
3155.54853	3811.95
3157.88318	3803.55
3160.21642	3801.25
3162.54826	3786.15
3164.87868	3797.05
3167.2077	3777.45
3169.5353	3778.15
3171.86151	3763.65
3174.18631	3767.85
3176.5097	3750.15
3178.83169	3750.55
3181.15228	3734.25
3183.47147	3734.15
3185.78926	3718.15
3188.10565	3707.95
3190.42065	3690.45
3192.73424	3688.35
3195.04645	3697.65
3197.35725	3684.15
3199.66667	3686.55
3201.97469	3674.35
3204.28132	3672.45
3206.58656	3667.75
3208.8904	3673.75
3211.19287	3662.55
3213.49394	3673.45
3215.79363	3654.95
3218.09193	3660.05
3220.38884	3663.55
3222.68438	3652.45
3224.97853	3649.25
3227.2713	3648.25
3229.56269	3636.05
3231.8527	3641.05
3234.14133	3618.05
3236.42858	3609.15
3238.71446	3602.35
3240.99896	3575.55
3243.28209	3583.65
3245.56384	3578.65
3247.84423	3558.65
3250.12324	3552.95
3252.40088	3545.25
3254.67715	3536.25
3256.95205	3531.55
3259.22558	3540.45
3261.49775	3532.35
3263.76855	3534.45
3266.03799	3539.55
3268.30606	3535.35
3270.57277	3524.85
3272.83812	3525.15
3275.10211	3509.65
3277.36474	3487.95
3279.62601	3488.35
3281.88593	3479.05
3284.14448	3480.55
3286.40168	3476.75
3288.65753	3473.95
3290.91202	3470.05
3293.16516	3446.55
3295.41695	3441.75
3297.66738	3432.05
3299.91647	3432.55
3302.16421	3401.15
3304.4106	3377.95
3306.65564	3356.85
3308.89933	3320.95
3311.14169	3299.25
3313.38269	3260.55
3315.62236	3242.45
3317.86068	3211.65
3320.09766	3202.65
3322.3333	3171.25
3324.5676	3147.95
3326.80056	3101.05
3329.03219	3068.55
3331.26248	0.15
3333.49143	0.55
3335.71905	0.65
