Data from AgNPs_UA_5uM_CRN_500uM_SU_RamanShift__62__11-39-43-151.txt Node

Date: Thu Aug 04 11:39:43 BST 2022
User: TCL
Spectrometer: QEP01345
Trigger mode: 4
Integration Time (sec): 1.000000E0
Scans to average: 10
Electric dark correction enabled: true
Nonlinearity correction enabled: false
Boxcar width: 0
XAxis mode: Raman Shifts
Number of Pixels in Spectrum: 1044
>>>>>Begin Spectral Data<<<<<
46.04893	1.35
50.45542	-0.45
54.85868	-0.15
59.25871	-1.05
63.6555	-55.85
68.04907	-37.75
72.43941	-71.05
76.82654	-55.75
81.21044	-54.15
85.59113	-46.65
89.96862	-73.35
94.34289	-52.95
98.71396	-76.15
103.08183	-56.75
107.4465	-46.65
111.80798	-55.05
116.16626	-41.45
120.52136	-70.95
124.87327	-47.05
129.222	-59.75
133.56755	-43.95
137.90993	-56.65
142.24913	-42.55
146.58517	-35.05
150.91804	-27.85
155.24774	-15.65
159.57429	12.25
163.89768	20.75
168.21792	78.45
172.53501	116.85
176.84895	222.05
181.15975	390.85
185.46741	587.25
189.77193	841.85
194.07331	1195.35
198.37157	1589.05
202.6667	1976.85
206.9587	2404.95
211.24758	2855.95
215.53334	3343.95
219.81599	3909.35
224.09553	4564.85
228.37195	5246.05
232.64527	5875.85
236.91549	6447.05
241.18261	6766.15
245.44663	6963.65
249.70755	7002.35
253.96539	7064.55
258.22014	7193.15
262.4718	7275.05
266.72039	7301.75
270.96589	7179.15
275.20832	6985.55
279.44768	6721.45
283.68397	6538.05
287.91719	6443.25
292.14735	6554.45
296.37445	6946.55
300.59849	7597.65
304.81948	8503.15
309.03742	9527.35
313.25231	10305.05
317.46415	10172.85
321.67296	9088.85
325.87872	7884.45
330.08145	7171.05
334.28114	7026.65
338.47781	7218.65
342.67145	7624.05
346.86207	8267.95
351.04966	9289.05
355.23424	10297.15
359.4158	10756.05
363.59435	10448.85
367.76989	9875.95
371.94243	9312.55
376.11196	8888.95
380.27849	8563.25
384.44203	8299.55
388.60257	8192.45
392.76012	8220.75
396.91468	8462.95
401.06626	8748.05
405.21485	8772.65
409.36047	8348.25
413.50311	7579.15
417.64277	6913.55
421.77947	6437.45
425.9132	6241.55
430.04396	6135.05
434.17176	6101.45
438.2966	6206.75
442.41849	6381.55
446.53742	6531.95
450.6534	6674.35
454.76644	6728.45
458.87653	6669.25
462.98368	6598.55
467.08789	6495.85
471.18916	6337.15
475.2875	6112.25
479.38291	5937.55
483.4754	5817.85
487.56496	5784.25
491.6516	5721.15
495.73531	5702.35
499.81612	5768.65
503.89401	5902.15
507.96899	6051.15
512.04106	6204.85
516.11023	6419.65
520.1765	6584.65
524.23987	6628.45
528.30034	6626.05
532.35792	6504.35
536.41261	6384.75
540.46441	6184.75
544.51333	6092.45
548.55936	6104.85
552.60252	6223.75
556.64279	6399.45
560.6802	6727.05
564.71473	7370.95
568.7464	8204.25
572.7752	8141.45
576.80114	7021.35
580.82422	6146.15
584.84444	5764.55
588.86181	5666.05
592.87633	5691.75
596.888	5862.65
600.89682	6475.95
604.9028	8370.15
608.90594	13177.35
612.90624	18936.45
616.90371	17267.35
620.89834	10120.75
624.89015	6986.75
628.87913	6639.95
632.86528	7094.35
636.84862	7329.35
640.82913	6792.05
644.80683	6025.75
648.78172	5678.65
652.75379	5794.05
656.72306	6361.75
660.68952	6893.65
664.65319	6662.85
668.61405	5969.15
672.57211	5724.25
676.52738	5742.15
680.47986	5618.95
684.42955	5482.85
688.37646	5396.35
692.32058	5450.75
696.26192	5543.75
700.20048	5682.45
704.13626	5694.35
708.06928	5614.65
711.99952	5585.55
715.927	5591.85
719.85171	5742.25
723.77365	5850.25
727.69284	5735.95
731.60928	5625.55
735.52295	5581.95
739.43388	5649.35
743.34206	5665.15
747.24749	5674.85
751.15017	5701.45
755.05012	5918.55
758.94733	6844.15
762.8418	8902.75
766.73354	11653.75
770.62254	13063.75
774.50882	12583.45
778.39237	11596.35
782.27321	10100.35
786.15132	8045.35
790.02671	6641.95
793.89938	5950.45
797.76935	5717.45
801.6366	5592.35
805.50115	5528.95
809.36299	5517.55
813.22213	5491.75
817.07857	5479.95
820.93231	5524.15
824.78336	5600.45
828.63172	5662.85
832.47738	5695.35
836.32036	5655.75
840.16066	5498.65
843.99827	5415.25
847.8332	5392.05
851.66546	5374.85
855.49504	5376.55
859.32195	5373.65
863.1462	5342.25
866.96777	5343.75
870.78668	5335.15
874.60293	5376.45
878.41652	5422.05
882.22745	5525.35
886.03573	5601.95
889.84136	5572.65
893.64433	5553.75
897.44466	5547.75
901.24235	5560.55
905.0374	5505.95
908.8298	5369.05
912.61957	5293.05
916.40671	5209.35
920.19121	5262.75
923.97308	5428.55
927.75233	5675.05
931.52895	5963.05
935.30295	5827.05
939.07433	5397.95
942.84309	5132.85
946.60924	5039.35
950.37278	4986.25
954.13371	4976.35
957.89203	4960.25
961.64774	4993.65
965.40086	4962.95
969.15137	4933.25
972.89929	4952.25
976.64461	4948.75
980.38733	4949.45
984.12747	4949.65
987.86502	4955.85
991.59999	4959.55
995.33237	5032.95
999.06217	5101.95
1002.78939	5254.65
1006.51404	5458.05
1010.23611	5592.95
1013.95561	5513.15
1017.67255	5401.25
1021.38692	5302.65
1025.09872	5182.15
1028.80796	5112.05
1032.51465	5134.35
1036.21877	5145.65
1039.92035	5228.25
1043.61937	5272.15
1047.31584	5347.35
1051.00976	5355.65
1054.70114	5326.65
1058.38998	5292.05
1062.07627	5288.55
1065.76003	5299.45
1069.44126	5366.75
1073.11995	5476.15
1076.79611	5696.25
1080.46974	6068.15
1084.14085	6543.15
1087.80943	6966.45
1091.47549	6971.95
1095.13903	6590.15
1098.80005	6228.05
1102.45857	6069.45
1106.11456	6045.85
1109.76805	6050.25
1113.41903	6285.25
1117.06751	6715.15
1120.71348	7401.95
1124.35696	8450.55
1127.99793	9166.85
1131.63641	8593.45
1135.2724	7453.95
1138.90589	6676.65
1142.5369	6248.25
1146.16542	5986.25
1149.79145	5762.95
1153.415	5690.35
1157.03607	5721.35
1160.65467	5886.25
1164.27079	6166.15
1167.88443	6587.35
1171.49561	7322.25
1175.10432	8579.85
1178.71056	10322.65
1182.31434	11578.05
1185.91565	11452.25
1189.51451	10388.05
1193.11091	9281.05
1196.70485	8552.15
1200.29634	8219.25
1203.88538	7824.15
1207.47197	7093.75
1211.05612	6428.35
1214.63782	5974.45
1218.21708	5741.05
1221.79391	5657.15
1225.36829	5618.15
1228.94024	5618.95
1232.50976	5623.25
1236.07685	5630.65
1239.6415	5708.25
1243.20374	5756.95
1246.76355	5876.75
1250.32093	6027.35
1253.8759	6226.45
1257.42845	6597.95
1260.97859	7074.95
1264.52631	7562.55
1268.07163	7811.05
1271.61453	7875.55
1275.15503	7723.65
1278.69312	7550.65
1282.22882	7664.05
1285.76211	8293.55
1289.29301	9098.25
1292.82151	9649.35
1296.34761	9908.95
1299.87133	10490.85
1303.39266	11953.65
1306.9116	14689.55
1310.42815	18055.55
1313.94233	19186.05
1317.45412	16678.35
1320.96354	13060.25
1324.47058	10372.05
1327.97525	8679.35
1331.47754	7786.85
1334.97747	7472.25
1338.47502	7610.85
1341.97022	8300.25
1345.46305	9849.95
1348.95352	12015.45
1352.44163	14212.35
1355.92738	16837.85
1359.41078	21276.75
1362.89183	26113.55
1366.37053	25064.25
1369.84688	18129.65
1373.32088	12348.05
1376.79254	9797.05
1380.26186	8658.55
1383.72883	7778.35
1387.19347	6988.15
1390.65578	6349.85
1394.11575	5980.65
1397.57339	5799.55
1401.0287	5668.55
1404.48168	5572.25
1407.93234	5554.65
1411.38068	5639.85
1414.82669	5909.15
1418.27039	6229.15
1421.71177	6289.65
1425.15083	6160.45
1428.58758	6127.35
1432.02203	6392.65
1435.45416	6630.45
1438.88399	6429.15
1442.31151	6208.15
1445.73673	6146.75
1449.15965	6124.85
1452.58027	6046.65
1455.9986	5929.55
1459.41463	5834.55
1462.82837	5853.85
1466.23982	6020.15
1469.64898	6268.95
1473.05586	6369.35
1476.46045	6388.85
1479.86276	6438.95
1483.26279	6629.05
1486.66054	7074.35
1490.05602	7791.45
1493.44922	8940.15
1496.84016	10736.75
1500.22882	13478.05
1503.61521	17269.75
1506.99934	22052.35
1510.38121	26567.95
1513.76081	28168.25
1517.13816	25013.85
1520.51324	19174.95
1523.88607	14035.05
1527.25665	10785.15
1530.62498	8946.45
1533.99105	7891.05
1537.35488	7230.75
1540.71647	6820.35
1544.07581	6658.85
1547.4329	6665.85
1550.78776	6762.75
1554.14038	6991.05
1557.49077	7342.55
1560.83892	7985.15
1564.18484	8941.75
1567.52853	10011.25
1570.86999	10700.85
1574.20922	10827.25
1577.54624	10391.45
1580.88103	9117.95
1584.2136	7561.35
1587.54395	6664.05
1590.87208	6419.85
1594.19801	6684.05
1597.52172	7208.95
1600.84321	7227.85
1604.16251	6715.55
1607.47959	6187.05
1610.79447	5871.85
1614.10715	5568.25
1617.41763	5376.35
1620.7259	5243.05
1624.03199	5265.95
1627.33587	5355.55
1630.63757	5586.35
1633.93707	6052.45
1637.23439	6891.15
1640.52951	8436.65
1643.82246	11042.45
1647.11321	14540.05
1650.40179	17298.15
1653.68819	16967.75
1656.97241	13727.25
1660.25446	10024.95
1663.53433	7444.05
1666.81203	6045.25
1670.08756	5352.65
1673.36092	4957.85
1676.63211	4691.85
1679.90115	4564.15
1683.16801	4424.75
1686.43272	4335.45
1689.69527	4274.15
1692.95567	4199.85
1696.2139	4179.75
1699.46999	4124.65
1702.72392	4116.65
1705.97571	4131.55
1709.22535	4115.15
1712.47284	4170.75
1715.71819	4180.35
1718.96139	4208.35
1722.20246	4171.45
1725.44139	4138.45
1728.67818	4099.65
1731.91284	4010.25
1735.14537	3981.35
1738.37576	3963.85
1741.60403	3942.25
1744.83017	3913.95
1748.05418	3896.75
1751.27607	3887.65
1754.49584	3847.05
1757.71349	3796.25
1760.92903	3769.15
1764.14244	3718.65
1767.35375	3699.25
1770.56294	3677.05
1773.77002	3632.15
1776.97499	3660.25
1780.17785	3609.55
1783.37861	3591.15
1786.57727	3610.95
1789.77382	3540.35
1792.96828	3571.55
1796.16064	3577.65
1799.3509	3571.95
1802.53907	3573.55
1805.72514	3545.35
1808.90913	3519.35
1812.09102	3523.05
1815.27083	3507.55
1818.44856	3493.85
1821.6242	3489.15
1824.79776	3459.95
1827.96924	3455.45
1831.13864	3413.75
1834.30597	3420.45
1837.47122	3408.85
1840.6344	3384.75
1843.7955	3361.35
1846.95454	3334.55
1850.11151	3360.75
1853.26642	3315.25
1856.41926	3325.25
1859.57004	3342.65
1862.71876	3331.15
1865.86542	3342.85
1869.01003	3330.55
1872.15258	3311.85
1875.29308	3335.85
1878.43152	3354.05
1881.56792	3326.55
1884.70227	3309.15
1887.83457	3305.95
1890.96482	3269.75
1894.09304	3264.65
1897.21921	3275.55
1900.34335	3285.85
1903.46544	3247.35
1906.58551	3264.95
1909.70353	3249.15
1912.81953	3246.55
1915.93349	3245.15
1919.04543	3221.85
1922.15534	3202.25
1925.26322	3210.25
1928.36908	3169.55
1931.47292	3175.35
1934.57473	3175.05
1937.67453	3128.15
1940.77232	3111.25
1943.86808	3089.55
1946.96184	3078.35
1950.05358	3054.45
1953.14331	3058.35
1956.23103	3072.45
1959.31675	3049.45
1962.40046	3001.65
1965.48217	3036.35
1968.56188	3051.85
1971.63959	3049.55
1974.7153	3047.45
1977.78901	3032.55
1980.86073	3010.15
1983.93046	2956.55
1986.99819	2882.05
1990.06394	2882.45
1993.1277	2927.05
1996.18947	2900.65
1999.24925	2867.45
2002.30706	2865.55
2005.36288	2860.85
2008.41672	2834.05
2011.46859	2814.45
2014.51848	2797.15
2017.56639	2795.95
2020.61233	2784.15
2023.6563	2781.95
2026.6983	2735.55
2029.73833	2752.45
2032.7764	2759.65
2035.8125	2726.85
2038.84664	2730.45
2041.87881	2715.85
2044.90903	2731.05
2047.93729	2715.15
2050.96359	2685.45
2053.98794	2694.95
2057.01034	2693.85
2060.03078	2677.75
2063.04927	2667.55
2066.06582	2664.45
2069.08042	2655.15
2072.09307	2647.55
2075.10378	2640.75
2078.11255	2642.05
2081.11938	2640.85
2084.12426	2642.75
2087.12722	2637.75
2090.12824	2625.55
2093.12732	2650.55
2096.12447	2634.75
2099.11969	2630.75
2102.11299	2616.65
2105.10435	2643.95
2108.09379	2626.65
2111.08131	2623.95
2114.0669	2629.75
2117.05057	2620.55
2120.03233	2628.55
2123.01216	2665.85
2125.99008	2659.65
2128.96609	2672.55
2131.94018	2679.25
2134.91236	2659.85
2137.88263	2628.55
2140.851	2649.65
2143.81746	2659.35
2146.78201	2631.05
2149.74466	2606.55
2152.7054	2616.55
2155.66425	2603.75
2158.6212	2588.25
2161.57625	2556.45
2164.52941	2543.05
2167.48067	2567.75
2170.43004	2567.75
2173.37752	2581.45
2176.32311	2577.65
2179.26681	2577.45
2182.20863	2587.15
2185.14856	2577.45
2188.08661	2583.05
2191.02278	2578.05
2193.95707	2562.45
2196.88948	2540.45
2199.82001	2551.05
2202.74867	2535.65
2205.67545	2542.55
2208.60037	2549.75
2211.52341	2531.05
2214.44458	2518.75
2217.36388	2514.55
2220.28132	2498.55
2223.1969	2474.45
2226.11061	2485.95
2229.02246	2472.05
2231.93245	2478.25
2234.84058	2449.45
2237.74686	2452.05
2240.65128	2454.85
2243.55385	2451.65
2246.45456	2437.85
2249.35343	2465.25
2252.25044	2454.75
2255.14561	2471.65
2258.03893	2482.05
2260.93041	2482.35
2263.82004	2501.45
2266.70783	2508.25
2269.59378	2470.75
2272.4779	2461.15
2275.36017	2472.85
2278.24061	2456.95
2281.11922	2429.05
2283.996	2445.75
2286.87094	2415.95
2289.74405	2412.95
2292.61534	2398.45
2295.4848	2378.65
2298.35243	2372.85
2301.21824	2366.45
2304.08223	2366.85
2306.94439	2367.65
2309.80474	2364.25
2312.66327	2364.75
2315.51999	2355.45
2318.37489	2357.15
2321.22797	2327.75
2324.07925	2329.25
2326.92871	2332.85
2329.77637	2306.05
2332.62222	2303.05
2335.46626	2298.05
2338.3085	2293.05
2341.14893	2314.55
2343.98756	2326.55
2346.8244	2298.45
2349.65943	2301.15
2352.49267	2301.25
2355.32411	2325.75
2358.15376	2331.05
2360.98161	2336.05
2363.80768	2321.85
2366.63195	2349.55
2369.45444	2365.85
2372.27514	2349.85
2375.09405	2372.25
2377.91118	2334.25
2380.72652	2320.25
2383.54009	2316.85
2386.35187	2312.75
2389.16188	2286.75
2391.97011	2291.45
2394.77657	2264.45
2397.58125	2261.95
2400.38416	2247.65
2403.18529	2227.25
2405.98466	2214.75
2408.78226	2222.55
2411.57809	2211.05
2414.37216	2200.05
2417.16446	2208.65
2419.955	2189.15
2422.74378	2212.35
2425.5308	2189.45
2428.31606	2198.75
2431.09956	2204.55
2433.88131	2188.95
2436.6613	2213.05
2439.43954	2209.55
2442.21603	2201.95
2444.99077	2199.15
2447.76377	2208.55
2450.53501	2206.85
2453.30451	2208.75
2456.07226	2213.55
2458.83827	2197.05
2461.60254	2171.25
2464.36507	2201.75
2467.12586	2174.45
2469.88492	2190.75
2472.64224	2191.85
2475.39782	2178.25
2478.15167	2199.65
2480.90379	2197.35
2483.65417	2225.85
2486.40283	2226.15
2489.14976	2251.55
2491.89497	2227.55
2494.63845	2230.15
2497.3802	2227.55
2500.12024	2214.85
2502.85855	2200.05
2505.59514	2200.65
2508.33002	2172.95
2511.06318	2140.65
2513.79462	2132.55
2516.52435	2095.95
2519.25237	2055.45
2521.97867	2051.95
2524.70327	2061.75
2527.42616	2046.05
2530.14734	2053.85
2532.86681	2046.85
2535.58458	2032.75
2538.30065	2025.05
2541.01501	2052.15
2543.72768	2039.65
2546.43864	2039.15
2549.14791	2038.95
2551.85548	2028.25
2554.56136	2031.45
2557.26554	2046.75
2559.96803	2036.95
2562.66883	2040.05
2565.36794	2022.75
2568.06536	2010.85
2570.7611	2028.75
2573.45514	2018.85
2576.14751	2017.65
2578.83819	1996.25
2581.52719	1987.05
2584.21451	1991.65
2586.90015	1972.95
2589.58411	1959.15
2592.2664	1962.95
2594.94701	1964.55
2597.62594	1974.55
2600.30321	1907.65
2602.9788	1937.75
2605.65273	1930.85
2608.32498	1937.25
2610.99557	1953.15
2613.66449	1925.55
2616.33175	1943.25
2618.99734	1949.75
2621.66128	1938.25
2624.32355	1924.85
2626.98416	1904.05
2629.64311	1907.05
2632.30041	1895.05
2634.95605	1871.95
2637.61004	1855.15
2640.26238	1847.65
2642.91306	1851.55
2645.56209	1872.35
2648.20948	1861.55
2650.85521	1838.05
2653.4993	1872.55
2656.14175	1849.35
2658.78255	1849.25
2661.42171	1827.55
2664.05923	1869.35
2666.6951	1864.75
2669.32934	1875.95
2671.96194	1893.15
2674.59291	1875.45
2677.22224	1875.85
2679.84993	1878.35
2682.476	1871.25
2685.10043	1869.25
2687.72324	1852.45
2690.34441	1856.25
2692.96396	1847.75
2695.58188	1861.75
2698.19818	1850.65
2700.81285	1840.45
2703.4259	1833.35
2706.03733	1804.15
2708.64714	1811.15
2711.25533	1843.15
2713.86191	1840.05
2716.46687	1839.15
2719.07021	1837.95
2721.67194	1832.45
2724.27206	1847.35
2726.87057	1831.95
2729.46747	1817.75
2732.06276	1825.85
2734.65644	1799.35
2737.24852	1814.25
2739.83899	1787.95
2742.42786	1793.05
2745.01513	1798.35
2747.60079	1764.05
2750.18486	1760.35
2752.76733	1756.15
2755.3482	1757.25
2757.92747	1756.15
2760.50515	1738.05
2763.08123	1724.85
2765.65573	1732.65
2768.22863	1719.25
2770.79994	1723.85
2773.36967	1714.95
2775.9378	1703.45
2778.50435	1715.95
2781.06932	1706.95
2783.6327	1690.95
2786.1945	1719.85
2788.75471	1701.35
2791.31335	1697.85
2793.87041	1707.85
2796.42589	1687.75
2798.97979	1681.15
2801.53212	1702.65
2804.08288	1713.85
2806.63206	1699.15
2809.17967	1689.95
2811.72571	1725.45
2814.27018	1714.45
2816.81308	1715.95
2819.35442	1689.25
2821.89419	1721.55
2824.43239	1714.85
2826.96904	1736.95
2829.50412	1721.55
2832.03763	1737.15
2834.56959	1717.55
2837.1	1701.55
2839.62884	1692.95
2842.15613	1687.65
2844.68186	1704.25
2847.20604	1677.45
2849.72867	1673.35
2852.24974	1680.95
2854.76927	1663.35
2857.28724	1638.75
2859.80367	1700.65
2862.31855	1714.85
2864.83189	1718.65
2867.34368	1724.15
2869.85393	1741.65
2872.36264	1726.95
2874.8698	1725.05
2877.37543	1730.65
2879.87952	1719.95
2882.38207	1691.95
2884.88308	1696.55
2887.38256	1692.45
2889.88051	1674.85
2892.37692	1679.95
2894.8718	1651.35
2897.36515	1666.65
2899.85698	1658.85
2902.34727	1660.15
2904.83604	1683.75
2907.32328	1690.25
2909.809	1692.45
2912.29319	1703.45
2914.77587	1708.65
2917.25702	1723.05
2919.73665	1721.85
2922.21476	1697.85
2924.69136	1705.05
2927.16644	1664.65
2929.64	1654.65
2932.11205	1646.75
2934.58258	1648.45
2937.05161	1633.75
2939.51912	1628.45
2941.98513	1649.55
2944.44962	1629.55
2946.91261	1599.55
2949.37409	1612.85
2951.83407	1614.95
2954.29254	1623.65
2956.74951	1619.75
2959.20498	1606.85
2961.65895	1614.45
2964.11142	1609.85
2966.56239	1595.75
2969.01186	1600.65
2971.45984	1597.35
2973.90632	1590.15
2976.35131	1598.85
2978.7948	1595.95
2981.23681	1592.55
2983.67732	1595.65
2986.11635	1599.95
2988.55388	1582.25
2990.98993	1590.15
2993.4245	1585.25
2995.85758	1567.15
2998.28917	1574.35
3000.71928	1572.25
3003.14791	1577.35
3005.57506	1560.75
3008.00073	1548.75
3010.42493	1496.65
3012.84764	1560.85
3015.26888	1551.25
3017.68865	1543.75
3020.10694	1504.75
3022.52376	1514.45
3024.9391	1516.05
3027.35298	1499.85
3029.76539	1487.65
3032.17632	1479.75
3034.5858	1477.05
3036.9938	1475.05
3039.40034	1451.65
3041.80542	1441.05
3044.20903	1423.35
3046.61118	1422.35
3049.01187	1432.15
3051.4111	1417.45
3053.80888	1414.55
3056.20519	1408.95
3058.60005	1392.05
3060.99345	1416.85
3063.3854	1393.25
3065.7759	1379.45
3068.16494	1369.65
3070.55254	1367.35
3072.93868	1375.85
3075.32338	1367.15
3077.70662	1371.85
3080.08842	1356.15
3082.46878	1338.75
3084.84769	1364.75
3087.22515	1343.55
3089.60118	1354.35
3091.97576	1339.65
3094.3489	1350.05
3096.72061	1342.55
3099.09087	1324.25
3101.4597	1334.55
3103.82709	1322.65
3106.19305	1319.15
3108.55757	1325.85
3110.92066	1324.45
3113.28232	1335.65
3115.64255	1332.05
3118.00134	1328.95
3120.35871	1314.25
3122.71466	1297.05
3125.06917	1310.15
3127.42226	1302.55
3129.77393	1281.85
3132.12417	1301.85
3134.47299	1311.55
3136.82039	1281.35
3139.16636	1276.95
3141.51092	1297.25
3143.85406	1286.75
3146.19579	1276.65
3148.53609	1282.25
3150.87499	1293.05
3153.21246	1287.65
3155.54853	1292.45
3157.88318	1304.65
3160.21642	1293.85
3162.54826	1286.55
3164.87868	1293.45
3167.2077	1258.45
3169.5353	1272.55
3171.86151	1285.05
3174.18631	1265.15
3176.5097	1265.05
3178.83169	1260.75
3181.15228	1270.45
3183.47147	1237.05
3185.78926	1221.65
3188.10565	1234.65
3190.42065	1222.35
3192.73424	1224.45
3195.04645	1225.75
3197.35725	1207.35
3199.66667	1220.45
3201.97469	1217.15
3204.28132	1209.95
3206.58656	1222.95
3208.8904	1235.15
3211.19287	1211.25
3213.49394	1209.65
3215.79363	1213.35
3218.09193	1235.45
3220.38884	1223.55
3222.68438	1213.85
3224.97853	1197.95
3227.2713	1220.25
3229.56269	1204.25
3231.8527	1209.95
3234.14133	1194.45
3236.42858	1194.55
3238.71446	1173.85
3240.99896	1188.85
3243.28209	1172.65
3245.56384	1183.65
3247.84423	1177.85
3250.12324	1179.65
3252.40088	1172.75
3254.67715	1165.75
3256.95205	1157.55
3259.22558	1175.75
3261.49775	1163.45
3263.76855	1164.05
3266.03799	1176.65
3268.30606	1170.75
3270.57277	1179.05
3272.83812	1159.25
3275.10211	1162.05
3277.36474	1175.05
3279.62601	1173.95
3281.88593	1150.05
3284.14448	1149.95
3286.40168	1166.05
3288.65753	1167.85
3290.91202	1164.45
3293.16516	1155.35
3295.41695	1182.25
3297.66738	1191.45
3299.91647	1177.25
3302.16421	1178.65
3304.4106	1143.05
3306.65564	1166.45
3308.89933	1137.85
3311.14169	1146.45
3313.38269	1144.35
3315.62236	1127.15
3317.86068	1123.95
3320.09766	1127.65
3322.3333	1103.15
3324.5676	1111.25
3326.80056	1087.95
3329.03219	1097.35
3331.26248	0.05
3333.49143	-0.75
3335.71905	0.75
