Data from AgNPs_UA_10uM_CRN_500uM_SU_RamanShift__36__13-11-20-261.txt Node

Date: Thu Aug 04 13:11:20 BST 2022
User: TCL
Spectrometer: QEP01345
Trigger mode: 4
Integration Time (sec): 1.000000E0
Scans to average: 10
Electric dark correction enabled: true
Nonlinearity correction enabled: false
Boxcar width: 0
XAxis mode: Raman Shifts
Number of Pixels in Spectrum: 1044
>>>>>Begin Spectral Data<<<<<
46.04893	0.15
50.45542	-0.35
54.85868	0.95
59.25871	-1.05
63.6555	18.45
68.04907	18.05
72.43941	17.25
76.82654	17.55
81.21044	21.35
85.59113	20.85
89.96862	22.85
94.34289	22.55
98.71396	21.05
103.08183	24.85
107.4465	23.75
111.80798	25.85
116.16626	25.95
120.52136	26.45
124.87327	26.35
129.222	30.35
133.56755	30.85
137.90993	33.85
142.24913	35.75
146.58517	40.55
150.91804	49.75
155.24774	59.15
159.57429	72.45
163.89768	91.95
168.21792	124.05
172.53501	170.65
176.84895	237.85
181.15975	336.25
185.46741	475.45
189.77193	658.55
194.07331	878.55
198.37157	1140.55
202.6667	1403.85
206.9587	1687.85
211.24758	1948.25
215.53334	2210.85
219.81599	2505.05
224.09553	2806.45
228.37195	3151.95
232.64527	3525.15
236.91549	3909.65
241.18261	4292.95
245.44663	4618.95
249.70755	4915.85
253.96539	5189.65
258.22014	5425.95
262.4718	5582.75
266.72039	5699.35
270.96589	5736.55
275.20832	5716.35
279.44768	5653.15
283.68397	5568.15
287.91719	5514.85
292.14735	5495.95
296.37445	5484.95
300.59849	5543.25
304.81948	5621.15
309.03742	5712.85
313.25231	5764.75
317.46415	5731.35
321.67296	5627.25
325.87872	5541.05
330.08145	5510.45
334.28114	5527.65
338.47781	5569.55
342.67145	5649.25
346.86207	5787.25
351.04966	5943.05
355.23424	6075.25
359.4158	6224.55
363.59435	6287.65
367.76989	6345.45
371.94243	6373.15
376.11196	6394.85
380.27849	6417.95
384.44203	6477.75
388.60257	6517.65
392.76012	6617.85
396.91468	6678.55
401.06626	6759.45
405.21485	6797.15
409.36047	6800.65
413.50311	6730.05
417.64277	6652.15
421.77947	6602.45
425.9132	6611.25
430.04396	6594.45
434.17176	6637.95
438.2966	6682.35
442.41849	6776.05
446.53742	6884.65
450.6534	6990.95
454.76644	7074.35
458.87653	7109.25
462.98368	7149.15
467.08789	7129.15
471.18916	7100.45
475.2875	7026.75
479.38291	6947.75
483.4754	6933.25
487.56496	6921.05
491.6516	6890.35
495.73531	6925.05
499.81612	6935.95
503.89401	7009.45
507.96899	7019.45
512.04106	7058.15
516.11023	7082.25
520.1765	7105.95
524.23987	7142.55
528.30034	7154.55
532.35792	7152.85
536.41261	7143.25
540.46441	7102.35
544.51333	7105.15
548.55936	7143.75
552.60252	7202.45
556.64279	7267.95
560.6802	7369.55
564.71473	7385.85
568.7464	7413.05
572.7752	7414.05
576.80114	7352.15
580.82422	7304.05
584.84444	7291.95
588.86181	7300.15
592.87633	7339.55
596.888	7420.85
600.89682	7639.55
604.9028	8067.65
608.90594	8912.05
612.90624	9658.45
616.90371	9232.45
620.89834	8131.95
624.89015	7704.15
628.87913	7647.55
632.86528	7732.85
636.84862	7810.95
640.82913	7732.35
644.80683	7620.15
648.78172	7550.45
652.75379	7553.35
656.72306	7679.75
660.68952	7788.95
664.65319	7772.05
668.61405	7772.05
672.57211	7826.15
676.52738	7851.25
680.47986	7788.05
684.42955	7692.55
688.37646	7688.15
692.32058	7733.45
696.26192	7819.85
700.20048	7894.85
704.13626	7959.65
708.06928	7890.85
711.99952	7855.85
715.927	7866.15
719.85171	7902.05
723.77365	7929.05
727.69284	7910.65
731.60928	7882.85
735.52295	7883.85
739.43388	7924.95
743.34206	7953.15
747.24749	7938.25
751.15017	7961.75
755.05012	7997.25
758.94733	8141.25
762.8418	8449.85
766.73354	8914.65
770.62254	9294.15
774.50882	9407.65
778.39237	9296.25
782.27321	9016.15
786.15132	8654.65
790.02671	8365.55
793.89938	8202.35
797.76935	8131.95
801.6366	8094.55
805.50115	8060.15
809.36299	8062.55
813.22213	8058.95
817.07857	8072.05
820.93231	8102.55
824.78336	8090.15
828.63172	8104.95
832.47738	8111.95
836.32036	8123.15
840.16066	8125.75
843.99827	8130.25
847.8332	8133.35
851.66546	8143.55
855.49504	8162.65
859.32195	8206.95
863.1462	8199.95
866.96777	8215.55
870.78668	8235.75
874.60293	8263.15
878.41652	8302.05
882.22745	8344.05
886.03573	8366.25
889.84136	8366.55
893.64433	8358.15
897.44466	8359.55
901.24235	8351.75
905.0374	8355.05
908.8298	8337.35
912.61957	8352.95
916.40671	8352.55
920.19121	8334.35
923.97308	8356.65
927.75233	8401.25
931.52895	8412.65
935.30295	8414.85
939.07433	8346.85
942.84309	8315.45
946.60924	8328.85
950.37278	8324.85
954.13371	8296.95
957.89203	8293.95
961.64774	8304.55
965.40086	8297.85
969.15137	8283.45
972.89929	8293.15
976.64461	8284.85
980.38733	8288.75
984.12747	8328.45
987.86502	8330.65
991.59999	8357.85
995.33237	8382.05
999.06217	8429.05
1002.78939	8496.15
1006.51404	8575.45
1010.23611	8674.35
1013.95561	8706.95
1017.67255	8725.95
1021.38692	8706.65
1025.09872	8700.95
1028.80796	8664.85
1032.51465	8634.15
1036.21877	8650.55
1039.92035	8640.35
1043.61937	8649.35
1047.31584	8689.25
1051.00976	8723.15
1054.70114	8735.05
1058.38998	8791.25
1062.07627	8796.95
1065.76003	8838.65
1069.44126	8893.35
1073.11995	9010.85
1076.79611	9113.05
1080.46974	9156.35
1084.14085	9226.15
1087.80943	9227.15
1091.47549	9261.25
1095.13903	9259.05
1098.80005	9318.75
1102.45857	9372.45
1106.11456	9349.95
1109.76805	9273.85
1113.41903	9210.05
1117.06751	9251.95
1120.71348	9318.55
1124.35696	9350.35
1127.99793	9419.25
1131.63641	9353.25
1135.2724	9255.55
1138.90589	9137.25
1142.5369	9078.65
1146.16542	9060.95
1149.79145	9015.65
1153.415	8991.65
1157.03607	8952.55
1160.65467	8974.75
1164.27079	9060.65
1167.88443	9227.25
1171.49561	9426.95
1175.10432	9762.95
1178.71056	10114.55
1182.31434	10480.65
1185.91565	10630.75
1189.51451	10658.25
1193.11091	10658.95
1196.70485	10560.05
1200.29634	10470.05
1203.88538	10327.75
1207.47197	10144.35
1211.05612	9917.55
1214.63782	9720.75
1218.21708	9581.75
1221.79391	9510.15
1225.36829	9443.05
1228.94024	9443.95
1232.50976	9438.55
1236.07685	9447.45
1239.6415	9516.15
1243.20374	9552.55
1246.76355	9576.55
1250.32093	9627.55
1253.8759	9699.85
1257.42845	9836.25
1260.97859	9958.65
1264.52631	10098.25
1268.07163	10190.85
1271.61453	10256.95
1275.15503	10249.55
1278.69312	10249.55
1282.22882	10220.75
1285.76211	10273.15
1289.29301	10328.95
1292.82151	10435.05
1296.34761	10520.75
1299.87133	10676.25
1303.39266	10954.05
1306.9116	11359.25
1310.42815	11746.05
1313.94233	11910.45
1317.45412	11737.75
1320.96354	11488.05
1324.47058	11213.55
1327.97525	10964.25
1331.47754	10768.25
1334.97747	10737.75
1338.47502	10778.55
1341.97022	11001.95
1345.46305	11376.45
1348.95352	11890.45
1352.44163	12411.05
1355.92738	12806.45
1359.41078	13226.15
1362.89183	13502.95
1366.37053	13117.55
1369.84688	12098.95
1373.32088	11123.15
1376.79254	10564.25
1380.26186	10256.55
1383.72883	10100.25
1387.19347	9927.25
1390.65578	9729.25
1394.11575	9585.25
1397.57339	9460.15
1401.0287	9418.15
1404.48168	9419.85
1407.93234	9455.45
1411.38068	9532.85
1414.82669	9586.05
1418.27039	9572.25
1421.71177	9529.45
1425.15083	9517.55
1428.58758	9438.65
1432.02203	9441.95
1435.45416	9436.95
1438.88399	9428.15
1442.31151	9457.45
1445.73673	9440.65
1449.15965	9438.85
1452.58027	9434.95
1455.9986	9454.55
1459.41463	9475.75
1462.82837	9533.75
1466.23982	9617.65
1469.64898	9749.85
1473.05586	9854.05
1476.46045	9937.35
1479.86276	9978.85
1483.26279	10050.05
1486.66054	10138.85
1490.05602	10260.05
1493.44922	10486.55
1496.84016	10804.55
1500.22882	11265.55
1503.61521	11816.55
1506.99934	12300.35
1510.38121	12573.75
1513.76081	12423.05
1517.13816	11900.35
1520.51324	11269.35
1523.88607	10775.05
1527.25665	10469.55
1530.62498	10320.85
1533.99105	10250.75
1537.35488	10245.55
1540.71647	10196.95
1544.07581	10165.75
1547.4329	10131.15
1550.78776	10051.95
1554.14038	9983.45
1557.49077	9951.15
1560.83892	10009.35
1564.18484	10097.95
1567.52853	10190.95
1570.86999	10284.85
1574.20922	10311.75
1577.54624	10246.55
1580.88103	10080.65
1584.2136	9846.35
1587.54395	9752.45
1590.87208	9767.35
1594.19801	9873.45
1597.52172	10103.55
1600.84321	10177.75
1604.16251	10133.45
1607.47959	10064.15
1610.79447	9934.05
1614.10715	9691.15
1617.41763	9448.15
1620.7259	9275.65
1624.03199	9141.95
1627.33587	9081.55
1630.63757	9127.95
1633.93707	9228.85
1637.23439	9493.65
1640.52951	9852.65
1643.82246	10325.25
1647.11321	10788.35
1650.40179	10981.35
1653.68819	10705.65
1656.97241	10107.05
1660.25446	9513.95
1663.53433	9100.45
1666.81203	8804.45
1670.08756	8659.55
1673.36092	8554.95
1676.63211	8515.35
1679.90115	8446.15
1683.16801	8393.15
1686.43272	8308.65
1689.69527	8300.25
1692.95567	8267.95
1696.2139	8247.15
1699.46999	8241.75
1702.72392	8251.25
1705.97571	8222.55
1709.22535	8222.85
1712.47284	8242.25
1715.71819	8240.95
1718.96139	8217.75
1722.20246	8216.95
1725.44139	8208.85
1728.67818	8201.15
1731.91284	8157.15
1735.14537	8125.35
1738.37576	8141.25
1741.60403	8109.45
1744.83017	8084.25
1748.05418	8081.15
1751.27607	8077.25
1754.49584	8067.95
1757.71349	8070.85
1760.92903	8056.45
1764.14244	8042.45
1767.35375	8043.25
1770.56294	8032.45
1773.77002	8018.25
1776.97499	8009.55
1780.17785	7981.75
1783.37861	7964.75
1786.57727	7978.75
1789.77382	7956.35
1792.96828	7956.65
1796.16064	7928.65
1799.3509	7928.75
1802.53907	7935.15
1805.72514	7925.75
1808.90913	7901.15
1812.09102	7902.75
1815.27083	7861.25
1818.44856	7861.45
1821.6242	7814.15
1824.79776	7821.65
1827.96924	7810.75
1831.13864	7806.45
1834.30597	7799.75
1837.47122	7801.75
1840.6344	7764.85
1843.7955	7778.45
1846.95454	7769.65
1850.11151	7792.95
1853.26642	7789.65
1856.41926	7767.75
1859.57004	7770.45
1862.71876	7789.15
1865.86542	7772.45
1869.01003	7747.95
1872.15258	7720.05
1875.29308	7720.45
1878.43152	7703.25
1881.56792	7714.25
1884.70227	7695.55
1887.83457	7663.75
1890.96482	7664.65
1894.09304	7644.75
1897.21921	7656.95
1900.34335	7653.45
1903.46544	7606.75
1906.58551	7630.95
1909.70353	7629.75
1912.81953	7613.65
1915.93349	7615.35
1919.04543	7583.35
1922.15534	7569.15
1925.26322	7573.65
1928.36908	7547.55
1931.47292	7537.25
1934.57473	7519.25
1937.67453	7497.35
1940.77232	7507.95
1943.86808	7480.15
1946.96184	7453.35
1950.05358	7434.55
1953.14331	7415.75
1956.23103	7386.95
1959.31675	7373.05
1962.40046	7346.25
1965.48217	7308.05
1968.56188	7306.45
1971.63959	7274.35
1974.7153	7255.35
1977.78901	7264.35
1980.86073	7233.95
1983.93046	7208.85
1986.99819	7186.35
1990.06394	7178.55
1993.1277	7163.45
1996.18947	7109.05
1999.24925	7113.65
2002.30706	7085.55
2005.36288	7045.35
2008.41672	7041.65
2011.46859	7005.15
2014.51848	6998.15
2017.56639	6976.35
2020.61233	6954.35
2023.6563	6942.45
2026.6983	6910.05
2029.73833	6896.95
2032.7764	6870.95
2035.8125	6867.85
2038.84664	6877.45
2041.87881	6837.45
2044.90903	6799.65
2047.93729	6803.35
2050.96359	6801.65
2053.98794	6793.45
2057.01034	6782.85
2060.03078	6776.35
2063.04927	6788.35
2066.06582	6790.45
2069.08042	6755.75
2072.09307	6757.45
2075.10378	6739.65
2078.11255	6751.85
2081.11938	6750.75
2084.12426	6727.35
2087.12722	6731.85
2090.12824	6738.25
2093.12732	6737.25
2096.12447	6744.25
2099.11969	6739.05
2102.11299	6771.95
2105.10435	6736.55
2108.09379	6736.05
2111.08131	6735.65
2114.0669	6751.05
2117.05057	6753.75
2120.03233	6764.75
2123.01216	6758.35
2125.99008	6744.75
2128.96609	6776.85
2131.94018	6766.15
2134.91236	6777.75
2137.88263	6777.35
2140.851	6775.75
2143.81746	6763.35
2146.78201	6785.15
2149.74466	6762.15
2152.7054	6777.95
2155.66425	6782.85
2158.6212	6799.25
2161.57625	6760.05
2164.52941	6750.05
2167.48067	6747.55
2170.43004	6750.25
2173.37752	6758.75
2176.32311	6754.85
2179.26681	6757.55
2182.20863	6752.15
2185.14856	6755.45
2188.08661	6764.85
2191.02278	6752.35
2193.95707	6739.15
2196.88948	6751.45
2199.82001	6727.15
2202.74867	6719.95
2205.67545	6734.25
2208.60037	6722.85
2211.52341	6724.35
2214.44458	6667.25
2217.36388	6674.95
2220.28132	6641.95
2223.1969	6635.75
2226.11061	6619.15
2229.02246	6606.15
2231.93245	6613.75
2234.84058	6580.75
2237.74686	6585.55
2240.65128	6571.15
2243.55385	6557.05
2246.45456	6511.35
2249.35343	6540.45
2252.25044	6532.85
2255.14561	6521.75
2258.03893	6509.05
2260.93041	6520.15
2263.82004	6482.25
2266.70783	6475.95
2269.59378	6451.85
2272.4779	6434.65
2275.36017	6410.85
2278.24061	6414.75
2281.11922	6390.45
2283.996	6374.85
2286.87094	6368.05
2289.74405	6374.95
2292.61534	6356.75
2295.4848	6356.75
2298.35243	6336.35
2301.21824	6327.15
2304.08223	6331.85
2306.94439	6313.35
2309.80474	6305.65
2312.66327	6306.95
2315.51999	6274.15
2318.37489	6283.75
2321.22797	6278.35
2324.07925	6259.75
2326.92871	6246.45
2329.77637	6239.65
2332.62222	6228.35
2335.46626	6219.25
2338.3085	6208.25
2341.14893	6195.55
2343.98756	6194.05
2346.8244	6213.55
2349.65943	6175.55
2352.49267	6149.95
2355.32411	6131.55
2358.15376	6150.15
2360.98161	6151.45
2363.80768	6152.05
2366.63195	6135.25
2369.45444	6129.85
2372.27514	6128.85
2375.09405	6121.05
2377.91118	6102.55
2380.72652	6091.65
2383.54009	6075.75
2386.35187	6080.65
2389.16188	6062.25
2391.97011	6041.25
2394.77657	6025.75
2397.58125	6022.25
2400.38416	5998.25
2403.18529	6012.65
2405.98466	5992.65
2408.78226	5977.45
2411.57809	5971.45
2414.37216	5950.65
2417.16446	5952.15
2419.955	5964.35
2422.74378	5957.65
2425.5308	5939.95
2428.31606	5943.15
2431.09956	5918.95
2433.88131	5923.55
2436.6613	5893.45
2439.43954	5907.35
2442.21603	5875.45
2444.99077	5880.25
2447.76377	5893.35
2450.53501	5882.65
2453.30451	5884.65
2456.07226	5858.15
2458.83827	5846.55
2461.60254	5847.25
2464.36507	5819.65
2467.12586	5802.45
2469.88492	5813.35
2472.64224	5813.85
2475.39782	5818.55
2478.15167	5809.95
2480.90379	5772.75
2483.65417	5778.05
2486.40283	5780.05
2489.14976	5792.15
2491.89497	5784.45
2494.63845	5763.45
2497.3802	5753.75
2500.12024	5759.35
2502.85855	5749.25
2505.59514	5742.65
2508.33002	5732.95
2511.06318	5711.45
2513.79462	5697.15
2516.52435	5700.25
2519.25237	5671.75
2521.97867	5667.85
2524.70327	5661.75
2527.42616	5651.55
2530.14734	5629.55
2532.86681	5632.15
2535.58458	5656.15
2538.30065	5624.05
2541.01501	5651.35
2543.72768	5609.15
2546.43864	5603.75
2549.14791	5602.95
2551.85548	5592.65
2554.56136	5599.75
2557.26554	5558.55
2559.96803	5558.75
2562.66883	5526.35
2565.36794	5544.55
2568.06536	5521.95
2570.7611	5513.85
2573.45514	5481.95
2576.14751	5477.65
2578.83819	5456.55
2581.52719	5430.55
2584.21451	5451.35
2586.90015	5446.35
2589.58411	5429.05
2592.2664	5423.75
2594.94701	5410.75
2597.62594	5392.35
2600.30321	5380.35
2602.9788	5373.95
2605.65273	5350.85
2608.32498	5353.65
2610.99557	5341.55
2613.66449	5328.65
2616.33175	5333.85
2618.99734	5316.35
2621.66128	5316.55
2624.32355	5284.85
2626.98416	5268.95
2629.64311	5263.95
2632.30041	5261.05
2634.95605	5247.55
2637.61004	5215.75
2640.26238	5232.45
2642.91306	5231.75
2645.56209	5231.75
2648.20948	5204.25
2650.85521	5195.55
2653.4993	5221.75
2656.14175	5209.15
2658.78255	5191.35
2661.42171	5188.35
2664.05923	5184.25
2666.6951	5204.05
2669.32934	5219.35
2671.96194	5208.55
2674.59291	5197.85
2677.22224	5196.25
2679.84993	5181.35
2682.476	5189.15
2685.10043	5201.75
2687.72324	5183.85
2690.34441	5189.55
2692.96396	5178.75
2695.58188	5175.85
2698.19818	5177.55
2700.81285	5169.65
2703.4259	5141.75
2706.03733	5150.05
2708.64714	5137.25
2711.25533	5140.85
2713.86191	5147.95
2716.46687	5153.85
2719.07021	5158.25
2721.67194	5150.35
2724.27206	5147.25
2726.87057	5129.75
2729.46747	5128.05
2732.06276	5144.85
2734.65644	5128.85
2737.24852	5129.05
2739.83899	5103.55
2742.42786	5108.75
2745.01513	5095.05
2747.60079	5078.45
2750.18486	5058.85
2752.76733	5082.05
2755.3482	5074.35
2757.92747	5055.05
2760.50515	5046.65
2763.08123	5046.75
2765.65573	5024.15
2768.22863	5022.35
2770.79994	4991.95
2773.36967	5006.05
2775.9378	5000.35
2778.50435	4982.05
2781.06932	4977.55
2783.6327	4971.25
2786.1945	4973.75
2788.75471	4965.95
2791.31335	4949.25
2793.87041	4937.45
2796.42589	4918.25
2798.97979	4895.75
2801.53212	4890.05
2804.08288	4882.75
2806.63206	4874.05
2809.17967	4858.95
2811.72571	4846.95
2814.27018	4859.75
2816.81308	4834.95
2819.35442	4834.75
2821.89419	4806.25
2824.43239	4807.25
2826.96904	4782.35
2829.50412	4784.45
2832.03763	4739.55
2834.56959	4750.65
2837.1	4735.85
2839.62884	4746.45
2842.15613	4731.45
2844.68186	4730.55
2847.20604	4724.85
2849.72867	4726.05
2852.24974	4711.85
2854.76927	4695.45
2857.28724	4682.35
2859.80367	4674.35
2862.31855	4665.35
2864.83189	4668.55
2867.34368	4669.05
2869.85393	4664.15
2872.36264	4645.15
2874.8698	4637.65
2877.37543	4653.45
2879.87952	4628.05
2882.38207	4626.55
2884.88308	4630.05
2887.38256	4623.65
2889.88051	4621.65
2892.37692	4601.55
2894.8718	4608.95
2897.36515	4599.95
2899.85698	4594.55
2902.34727	4617.15
2904.83604	4588.35
2907.32328	4604.65
2909.809	4598.25
2912.29319	4601.45
2914.77587	4614.15
2917.25702	4617.65
2919.73665	4612.95
2922.21476	4616.75
2924.69136	4597.75
2927.16644	4588.95
2929.64	4589.15
2932.11205	4590.55
2934.58258	4560.15
2937.05161	4569.65
2939.51912	4562.65
2941.98513	4573.05
2944.44962	4548.65
2946.91261	4541.75
2949.37409	4550.75
2951.83407	4533.45
2954.29254	4523.15
2956.74951	4520.35
2959.20498	4553.85
2961.65895	4546.45
2964.11142	4518.05
2966.56239	4527.35
2969.01186	4520.75
2971.45984	4526.95
2973.90632	4530.25
2976.35131	4506.45
2978.7948	4491.65
2981.23681	4503.45
2983.67732	4483.25
2986.11635	4465.85
2988.55388	4466.25
2990.98993	4457.25
2993.4245	4436.45
2995.85758	4429.55
2998.28917	4412.05
3000.71928	4405.75
3003.14791	4389.15
3005.57506	4383.95
3008.00073	4383.25
3010.42493	4373.25
3012.84764	4353.35
3015.26888	4353.15
3017.68865	4345.35
3020.10694	4351.25
3022.52376	4334.65
3024.9391	4312.05
3027.35298	4297.25
3029.76539	4302.35
3032.17632	4289.75
3034.5858	4268.35
3036.9938	4285.85
3039.40034	4270.35
3041.80542	4252.15
3044.20903	4235.65
3046.61118	4250.35
3049.01187	4229.95
3051.4111	4232.25
3053.80888	4216.95
3056.20519	4193.45
3058.60005	4173.95
3060.99345	4186.85
3063.3854	4173.95
3065.7759	4150.55
3068.16494	4154.75
3070.55254	4147.85
3072.93868	4136.75
3075.32338	4119.35
3077.70662	4115.05
3080.08842	4105.55
3082.46878	4097.25
3084.84769	4080.75
3087.22515	4083.85
3089.60118	4091.15
3091.97576	4083.85
3094.3489	4077.45
3096.72061	4082.35
3099.09087	4079.65
3101.4597	4077.25
3103.82709	4071.85
3106.19305	4074.15
3108.55757	4068.15
3110.92066	4050.15
3113.28232	4036.55
3115.64255	4047.15
3118.00134	4029.25
3120.35871	4012.25
3122.71466	4019.15
3125.06917	3998.95
3127.42226	3988.75
3129.77393	3993.45
3132.12417	3967.75
3134.47299	3969.65
3136.82039	3956.05
3139.16636	3955.95
3141.51092	3978.55
3143.85406	3950.45
3146.19579	3950.95
3148.53609	3963.75
3150.87499	3951.15
3153.21246	3945.95
3155.54853	3946.15
3157.88318	3931.55
3160.21642	3951.15
3162.54826	3940.95
3164.87868	3945.05
3167.2077	3934.35
3169.5353	3938.35
3171.86151	3910.85
3174.18631	3921.05
3176.5097	3896.75
3178.83169	3909.25
3181.15228	3901.85
3183.47147	3882.85
3185.78926	3884.45
3188.10565	3865.45
3190.42065	3848.95
3192.73424	3850.25
3195.04645	3846.15
3197.35725	3844.35
3199.66667	3835.45
3201.97469	3836.85
3204.28132	3835.75
3206.58656	3842.15
3208.8904	3825.35
3211.19287	3838.65
3213.49394	3831.55
3215.79363	3833.95
3218.09193	3833.95
3220.38884	3838.75
3222.68438	3835.55
3224.97853	3819.15
3227.2713	3815.85
3229.56269	3791.45
3231.8527	3815.75
3234.14133	3796.65
3236.42858	3783.35
3238.71446	3768.45
3240.99896	3773.15
3243.28209	3769.75
3245.56384	3753.35
3247.84423	3732.05
3250.12324	3742.15
3252.40088	3726.45
3254.67715	3726.05
3256.95205	3719.55
3259.22558	3728.65
3261.49775	3722.85
3263.76855	3709.15
3266.03799	3720.75
3268.30606	3717.25
3270.57277	3712.05
3272.83812	3707.35
3275.10211	3699.25
3277.36474	3678.15
3279.62601	3682.55
3281.88593	3646.65
3284.14448	3656.15
3286.40168	3654.45
3288.65753	3646.45
3290.91202	3645.45
3293.16516	3637.65
3295.41695	3639.45
3297.66738	3611.15
3299.91647	3602.85
3302.16421	3579.95
3304.4106	3540.85
3306.65564	3522.55
3308.89933	3497.75
3311.14169	3460.15
3313.38269	3437.55
3315.62236	3408.15
3317.86068	3383.15
3320.09766	3353.55
3322.3333	3345.25
3324.5676	3320.25
3326.80056	3258.25
3329.03219	3239.05
3331.26248	0.75
3333.49143	-0.25
3335.71905	-0.05
