Data from AgNPs_UA_5uM_CRN_500uM_SU_RamanShift__145__11-53-33-168.txt Node

Date: Thu Aug 04 11:53:33 BST 2022
User: TCL
Spectrometer: QEP01345
Trigger mode: 4
Integration Time (sec): 1.000000E0
Scans to average: 10
Electric dark correction enabled: true
Nonlinearity correction enabled: false
Boxcar width: 0
XAxis mode: Raman Shifts
Number of Pixels in Spectrum: 1044
>>>>>Begin Spectral Data<<<<<
46.04893	0.05
50.45542	0.15
54.85868	-0.45
59.25871	-1.65
63.6555	-57.25
68.04907	-37.45
72.43941	-70.95
76.82654	-56.25
81.21044	-55.85
85.59113	-47.35
89.96862	-73.45
94.34289	-55.45
98.71396	-78.35
103.08183	-57.35
107.4465	-47.75
111.80798	-55.05
116.16626	-44.15
120.52136	-72.35
124.87327	-48.05
129.222	-60.55
133.56755	-49.05
137.90993	-60.95
142.24913	-48.75
146.58517	-41.75
150.91804	-38.15
155.24774	-27.65
159.57429	-7.45
163.89768	-1.85
168.21792	38.25
172.53501	63.15
176.84895	144.85
181.15975	277.75
185.46741	435.55
189.77193	617.25
194.07331	905.55
198.37157	1198.35
202.6667	1492.15
206.9587	1819.25
211.24758	2141.35
215.53334	2474.15
219.81599	2807.55
224.09553	3236.25
228.37195	3681.85
232.64527	4150.75
236.91549	4624.85
241.18261	5010.35
245.44663	5296.75
249.70755	5504.55
253.96539	5640.55
258.22014	5747.25
262.4718	5808.05
266.72039	5813.55
270.96589	5796.85
275.20832	5703.45
279.44768	5580.35
283.68397	5469.75
287.91719	5405.35
292.14735	5452.05
296.37445	5574.15
300.59849	5840.95
304.81948	6172.25
309.03742	6497.05
313.25231	6735.95
317.46415	6689.35
321.67296	6283.65
325.87872	5918.15
330.08145	5730.65
334.28114	5688.05
338.47781	5769.85
342.67145	5934.25
346.86207	6171.75
351.04966	6523.05
355.23424	6901.35
359.4158	7147.65
363.59435	7188.95
367.76989	7134.05
371.94243	7006.45
376.11196	6923.95
380.27849	6820.75
384.44203	6770.15
388.60257	6757.95
392.76012	6748.25
396.91468	6855.85
401.06626	7017.25
405.21485	7064.55
409.36047	6920.75
413.50311	6601.25
417.64277	6339.85
421.77947	6159.65
425.9132	6096.85
430.04396	6067.35
434.17176	6116.15
438.2966	6210.65
442.41849	6305.25
446.53742	6416.45
450.6534	6522.05
454.76644	6598.55
458.87653	6610.65
462.98368	6593.05
467.08789	6522.95
471.18916	6463.35
475.2875	6371.15
479.38291	6248.65
483.4754	6160.75
487.56496	6133.55
491.6516	6076.35
495.73531	6049.95
499.81612	6104.95
503.89401	6187.65
507.96899	6239.65
512.04106	6338.75
516.11023	6436.85
520.1765	6498.95
524.23987	6524.65
528.30034	6537.95
532.35792	6462.55
536.41261	6427.05
540.46441	6351.95
544.51333	6279.25
548.55936	6336.85
552.60252	6465.85
556.64279	6555.55
560.6802	6665.55
564.71473	6809.45
568.7464	7009.35
572.7752	6954.25
576.80114	6648.35
580.82422	6387.45
584.84444	6312.05
588.86181	6284.95
592.87633	6333.15
596.888	6455.25
600.89682	6798.55
604.9028	7733.85
608.90594	9697.55
612.90624	11900.65
616.90371	11106.55
620.89834	8221.75
624.89015	6986.65
628.87913	6794.45
632.86528	6960.85
636.84862	7089.05
640.82913	6943.85
644.80683	6620.05
648.78172	6486.45
652.75379	6503.15
656.72306	6710.45
660.68952	6962.25
664.65319	6883.45
668.61405	6663.55
672.57211	6598.75
676.52738	6592.95
680.47986	6514.15
684.42955	6432.85
688.37646	6390.25
692.32058	6390.65
696.26192	6452.75
700.20048	6552.95
704.13626	6592.65
708.06928	6536.25
711.99952	6504.65
715.927	6470.65
719.85171	6537.75
723.77365	6576.95
727.69284	6574.45
731.60928	6528.05
735.52295	6530.65
739.43388	6537.65
743.34206	6573.85
747.24749	6598.65
751.15017	6589.15
755.05012	6663.05
758.94733	7021.55
762.8418	7815.15
766.73354	9042.95
770.62254	9963.35
774.50882	10046.65
778.39237	9584.65
782.27321	8726.75
786.15132	7754.85
790.02671	7118.25
793.89938	6743.05
797.76935	6644.85
801.6366	6564.35
805.50115	6534.35
809.36299	6528.05
813.22213	6506.25
817.07857	6525.05
820.93231	6523.95
824.78336	6553.85
828.63172	6556.35
832.47738	6567.05
836.32036	6588.75
840.16066	6550.35
843.99827	6545.05
847.8332	6537.25
851.66546	6547.65
855.49504	6533.25
859.32195	6607.05
863.1462	6555.45
866.96777	6569.15
870.78668	6557.75
874.60293	6594.15
878.41652	6624.55
882.22745	6676.85
886.03573	6725.75
889.84136	6692.55
893.64433	6711.75
897.44466	6692.05
901.24235	6700.25
905.0374	6700.65
908.8298	6597.25
912.61957	6583.75
916.40671	6555.95
920.19121	6580.85
923.97308	6695.15
927.75233	6756.75
931.52895	6807.05
935.30295	6795.85
939.07433	6659.95
942.84309	6559.25
946.60924	6501.45
950.37278	6466.35
954.13371	6506.75
957.89203	6482.75
961.64774	6487.85
965.40086	6469.85
969.15137	6446.25
972.89929	6467.45
976.64461	6469.55
980.38733	6478.75
984.12747	6489.95
987.86502	6508.05
991.59999	6548.05
995.33237	6638.85
999.06217	6689.95
1002.78939	6784.05
1006.51404	6904.75
1010.23611	7019.35
1013.95561	7066.95
1017.67255	7093.85
1021.38692	7055.15
1025.09872	6972.35
1028.80796	6906.05
1032.51465	6921.45
1036.21877	6898.45
1039.92035	6949.65
1043.61937	6959.15
1047.31584	7018.85
1051.00976	7039.95
1054.70114	7056.55
1058.38998	7045.85
1062.07627	7063.75
1065.76003	7073.55
1069.44126	7177.35
1073.11995	7257.25
1076.79611	7379.65
1080.46974	7530.85
1084.14085	7682.35
1087.80943	7796.55
1091.47549	7842.15
1095.13903	7775.75
1098.80005	7668.25
1102.45857	7555.35
1106.11456	7520.95
1109.76805	7443.25
1113.41903	7559.25
1117.06751	7699.15
1120.71348	7931.75
1124.35696	8302.05
1127.99793	8568.45
1131.63641	8395.75
1135.2724	8053.55
1138.90589	7782.65
1142.5369	7573.95
1146.16542	7511.85
1149.79145	7403.05
1153.415	7343.85
1157.03607	7332.15
1160.65467	7392.15
1164.27079	7582.05
1167.88443	7795.65
1171.49561	8199.75
1175.10432	8762.65
1178.71056	9570.15
1182.31434	10310.55
1185.91565	10551.35
1189.51451	10403.45
1193.11091	10169.05
1196.70485	9960.15
1200.29634	9785.95
1203.88538	9573.35
1207.47197	9137.85
1211.05612	8732.75
1214.63782	8396.55
1218.21708	8158.25
1221.79391	8025.65
1225.36829	7919.85
1228.94024	7880.25
1232.50976	7895.95
1236.07685	7915.55
1239.6415	7966.35
1243.20374	7956.25
1246.76355	8032.65
1250.32093	8103.45
1253.8759	8185.75
1257.42845	8379.85
1260.97859	8568.25
1264.52631	8788.75
1268.07163	8921.35
1271.61453	9031.65
1275.15503	9077.15
1278.69312	9069.25
1282.22882	9126.35
1285.76211	9343.55
1289.29301	9559.25
1292.82151	9808.95
1296.34761	10014.35
1299.87133	10390.65
1303.39266	11058.55
1306.9116	12061.65
1310.42815	13212.55
1313.94233	13616.05
1317.45412	12892.15
1320.96354	11850.25
1324.47058	10909.15
1327.97525	10218.25
1331.47754	9884.45
1334.97747	9761.55
1338.47502	9889.15
1341.97022	10258.65
1345.46305	10917.55
1348.95352	11931.45
1352.44163	13080.85
1355.92738	14245.35
1359.41078	15724.55
1362.89183	17046.05
1366.37053	16419.25
1369.84688	13815.45
1373.32088	11400.55
1376.79254	10146.15
1380.26186	9558.45
1383.72883	9183.45
1387.19347	8812.35
1390.65578	8484.05
1394.11575	8277.35
1397.57339	8133.05
1401.0287	8025.15
1404.48168	7980.35
1407.93234	8005.85
1411.38068	8045.75
1414.82669	8122.85
1418.27039	8193.55
1421.71177	8206.15
1425.15083	8096.45
1428.58758	8012.15
1432.02203	8029.45
1435.45416	8143.55
1438.88399	8135.75
1442.31151	8145.25
1445.73673	8219.25
1449.15965	8245.55
1452.58027	8280.05
1455.9986	8273.95
1459.41463	8261.45
1462.82837	8353.45
1466.23982	8541.45
1469.64898	8744.25
1473.05586	8886.15
1476.46045	8961.55
1479.86276	9003.65
1483.26279	9113.95
1486.66054	9274.25
1490.05602	9501.15
1493.44922	9992.35
1496.84016	10785.75
1500.22882	12046.65
1503.61521	13582.95
1506.99934	15176.35
1510.38121	16285.65
1513.76081	16171.15
1517.13816	14768.85
1520.51324	12803.25
1523.88607	11273.05
1527.25665	10338.55
1530.62498	9861.05
1533.99105	9693.65
1537.35488	9585.45
1540.71647	9503.05
1544.07581	9425.95
1547.4329	9318.25
1550.78776	9199.05
1554.14038	9110.55
1557.49077	9062.65
1560.83892	9150.75
1564.18484	9349.85
1567.52853	9619.35
1570.86999	9927.35
1574.20922	10055.35
1577.54624	9941.65
1580.88103	9472.75
1584.2136	8869.45
1587.54395	8547.35
1590.87208	8513.25
1594.19801	8678.75
1597.52172	9018.95
1600.84321	9196.95
1604.16251	9068.55
1607.47959	8887.35
1610.79447	8709.65
1614.10715	8393.45
1617.41763	8109.65
1620.7259	7849.25
1624.03199	7695.75
1627.33587	7606.25
1630.63757	7680.15
1633.93707	7905.55
1637.23439	8312.15
1640.52951	8955.75
1643.82246	9859.55
1647.11321	10933.85
1650.40179	11568.05
1653.68819	11239.55
1656.97241	10057.05
1660.25446	8762.45
1663.53433	7839.85
1666.81203	7292.25
1670.08756	6966.15
1673.36092	6794.25
1676.63211	6668.75
1679.90115	6600.85
1683.16801	6498.25
1686.43272	6409.75
1689.69527	6350.75
1692.95567	6289.55
1696.2139	6275.95
1699.46999	6210.75
1702.72392	6223.15
1705.97571	6230.65
1709.22535	6206.35
1712.47284	6263.75
1715.71819	6257.25
1718.96139	6250.95
1722.20246	6237.05
1725.44139	6207.25
1728.67818	6187.55
1731.91284	6131.75
1735.14537	6101.05
1738.37576	6068.25
1741.60403	6064.15
1744.83017	6018.75
1748.05418	6035.85
1751.27607	6035.45
1754.49584	6005.85
1757.71349	5995.05
1760.92903	5971.25
1764.14244	5939.15
1767.35375	5947.45
1770.56294	5913.75
1773.77002	5903.15
1776.97499	5910.05
1780.17785	5892.25
1783.37861	5887.65
1786.57727	5881.35
1789.77382	5819.15
1792.96828	5863.55
1796.16064	5874.85
1799.3509	5835.65
1802.53907	5863.95
1805.72514	5808.45
1808.90913	5799.95
1812.09102	5803.95
1815.27083	5784.45
1818.44856	5759.65
1821.6242	5769.15
1824.79776	5738.35
1827.96924	5741.15
1831.13864	5710.25
1834.30597	5721.15
1837.47122	5717.95
1840.6344	5672.75
1843.7955	5675.75
1846.95454	5668.55
1850.11151	5696.45
1853.26642	5641.75
1856.41926	5661.95
1859.57004	5664.95
1862.71876	5656.85
1865.86542	5649.15
1869.01003	5626.45
1872.15258	5612.35
1875.29308	5637.75
1878.43152	5629.45
1881.56792	5602.55
1884.70227	5589.05
1887.83457	5605.05
1890.96482	5551.15
1894.09304	5571.05
1897.21921	5545.05
1900.34335	5570.05
1903.46544	5543.35
1906.58551	5548.05
1909.70353	5547.15
1912.81953	5530.95
1915.93349	5521.15
1919.04543	5504.05
1922.15534	5487.85
1925.26322	5490.65
1928.36908	5493.85
1931.47292	5487.55
1934.57473	5490.05
1937.67453	5441.85
1940.77232	5424.05
1943.86808	5415.75
1946.96184	5412.15
1950.05358	5395.15
1953.14331	5367.85
1956.23103	5378.75
1959.31675	5338.15
1962.40046	5276.35
1965.48217	5301.35
1968.56188	5298.45
1971.63959	5274.35
1974.7153	5279.05
1977.78901	5255.05
1980.86073	5226.75
1983.93046	5206.35
1986.99819	5121.55
1990.06394	5141.15
1993.1277	5166.55
1996.18947	5141.35
1999.24925	5120.35
2002.30706	5099.85
2005.36288	5089.05
2008.41672	5067.85
2011.46859	5045.35
2014.51848	5042.95
2017.56639	5020.75
2020.61233	4987.35
2023.6563	4996.05
2026.6983	4957.15
2029.73833	4963.55
2032.7764	4971.85
2035.8125	4919.65
2038.84664	4920.25
2041.87881	4897.55
2044.90903	4899.85
2047.93729	4892.05
2050.96359	4871.25
2053.98794	4878.65
2057.01034	4874.75
2060.03078	4867.35
2063.04927	4848.05
2066.06582	4856.35
2069.08042	4842.65
2072.09307	4839.85
2075.10378	4852.05
2078.11255	4827.65
2081.11938	4834.55
2084.12426	4821.65
2087.12722	4823.75
2090.12824	4824.05
2093.12732	4809.75
2096.12447	4820.35
2099.11969	4818.15
2102.11299	4811.45
2105.10435	4827.55
2108.09379	4810.55
2111.08131	4817.75
2114.0669	4827.85
2117.05057	4818.65
2120.03233	4811.85
2123.01216	4840.25
2125.99008	4826.15
2128.96609	4822.25
2131.94018	4836.15
2134.91236	4835.45
2137.88263	4828.15
2140.851	4835.65
2143.81746	4850.65
2146.78201	4837.75
2149.74466	4827.65
2152.7054	4842.45
2155.66425	4819.05
2158.6212	4822.55
2161.57625	4799.15
2164.52941	4775.35
2167.48067	4781.15
2170.43004	4784.55
2173.37752	4806.15
2176.32311	4810.35
2179.26681	4785.65
2182.20863	4791.75
2185.14856	4780.75
2188.08661	4777.75
2191.02278	4795.25
2193.95707	4773.45
2196.88948	4762.95
2199.82001	4781.15
2202.74867	4767.05
2205.67545	4776.65
2208.60037	4760.55
2211.52341	4741.05
2214.44458	4741.15
2217.36388	4726.05
2220.28132	4705.05
2223.1969	4694.85
2226.11061	4685.65
2229.02246	4661.75
2231.93245	4684.65
2234.84058	4650.45
2237.74686	4648.75
2240.65128	4630.65
2243.55385	4643.25
2246.45456	4610.55
2249.35343	4630.35
2252.25044	4613.35
2255.14561	4609.45
2258.03893	4611.25
2260.93041	4569.85
2263.82004	4585.45
2266.70783	4582.85
2269.59378	4553.25
2272.4779	4537.75
2275.36017	4543.55
2278.24061	4533.05
2281.11922	4493.75
2283.996	4514.75
2286.87094	4490.75
2289.74405	4480.95
2292.61534	4507.25
2295.4848	4485.05
2298.35243	4460.85
2301.21824	4455.35
2304.08223	4460.25
2306.94439	4481.75
2309.80474	4467.75
2312.66327	4446.95
2315.51999	4434.35
2318.37489	4430.45
2321.22797	4413.95
2324.07925	4411.75
2326.92871	4399.55
2329.77637	4377.85
2332.62222	4367.75
2335.46626	4357.45
2338.3085	4357.85
2341.14893	4359.85
2343.98756	4362.15
2346.8244	4339.05
2349.65943	4331.95
2352.49267	4356.05
2355.32411	4347.55
2358.15376	4345.35
2360.98161	4340.15
2363.80768	4312.75
2366.63195	4334.05
2369.45444	4344.35
2372.27514	4333.45
2375.09405	4332.55
2377.91118	4297.45
2380.72652	4295.75
2383.54009	4289.65
2386.35187	4293.95
2389.16188	4271.95
2391.97011	4265.25
2394.77657	4242.55
2397.58125	4242.25
2400.38416	4230.75
2403.18529	4218.35
2405.98466	4191.65
2408.78226	4207.95
2411.57809	4189.45
2414.37216	4175.45
2417.16446	4176.25
2419.955	4154.65
2422.74378	4171.55
2425.5308	4164.35
2428.31606	4137.75
2431.09956	4165.95
2433.88131	4128.45
2436.6613	4157.25
2439.43954	4120.15
2442.21603	4121.65
2444.99077	4107.95
2447.76377	4122.75
2450.53501	4121.95
2453.30451	4104.95
2456.07226	4109.35
2458.83827	4096.65
2461.60254	4055.95
2464.36507	4095.55
2467.12586	4070.15
2469.88492	4075.05
2472.64224	4066.75
2475.39782	4053.15
2478.15167	4056.95
2480.90379	4054.45
2483.65417	4066.95
2486.40283	4066.45
2489.14976	4077.15
2491.89497	4063.75
2494.63845	4052.65
2497.3802	4062.15
2500.12024	4044.55
2502.85855	4049.95
2505.59514	4047.65
2508.33002	4022.95
2511.06318	3999.05
2513.79462	4012.45
2516.52435	3967.65
2519.25237	3962.25
2521.97867	3963.55
2524.70327	3962.15
2527.42616	3954.85
2530.14734	3957.05
2532.86681	3934.65
2535.58458	3944.25
2538.30065	3931.55
2541.01501	3953.65
2543.72768	3937.35
2546.43864	3904.65
2549.14791	3909.45
2551.85548	3900.75
2554.56136	3891.25
2557.26554	3900.55
2559.96803	3896.45
2562.66883	3877.75
2565.36794	3853.75
2568.06536	3831.65
2570.7611	3858.75
2573.45514	3851.45
2576.14751	3823.05
2578.83819	3799.95
2581.52719	3791.55
2584.21451	3805.85
2586.90015	3774.65
2589.58411	3766.25
2592.2664	3771.95
2594.94701	3778.15
2597.62594	3775.35
2600.30321	3712.95
2602.9788	3722.35
2605.65273	3723.45
2608.32498	3750.15
2610.99557	3749.65
2613.66449	3702.55
2616.33175	3707.45
2618.99734	3715.45
2621.66128	3705.25
2624.32355	3708.05
2626.98416	3673.05
2629.64311	3667.95
2632.30041	3680.95
2634.95605	3658.95
2637.61004	3647.05
2640.26238	3622.65
2642.91306	3626.85
2645.56209	3646.35
2648.20948	3641.65
2650.85521	3621.05
2653.4993	3645.05
2656.14175	3638.25
2658.78255	3614.75
2661.42171	3596.45
2664.05923	3626.65
2666.6951	3636.25
2669.32934	3628.35
2671.96194	3641.75
2674.59291	3630.25
2677.22224	3639.45
2679.84993	3625.45
2682.476	3612.15
2685.10043	3622.85
2687.72324	3594.05
2690.34441	3603.75
2692.96396	3598.25
2695.58188	3610.85
2698.19818	3599.05
2700.81285	3590.75
2703.4259	3581.55
2706.03733	3564.25
2708.64714	3553.35
2711.25533	3598.05
2713.86191	3581.05
2716.46687	3592.65
2719.07021	3586.95
2721.67194	3582.55
2724.27206	3595.35
2726.87057	3573.35
2729.46747	3564.25
2732.06276	3572.35
2734.65644	3567.65
2737.24852	3555.55
2739.83899	3541.35
2742.42786	3559.55
2745.01513	3547.55
2747.60079	3537.15
2750.18486	3512.95
2752.76733	3517.55
2755.3482	3512.55
2757.92747	3527.25
2760.50515	3498.45
2763.08123	3485.55
2765.65573	3480.35
2768.22863	3481.05
2770.79994	3463.55
2773.36967	3461.35
2775.9378	3461.75
2778.50435	3460.55
2781.06932	3449.95
2783.6327	3445.75
2786.1945	3453.85
2788.75471	3434.65
2791.31335	3422.65
2793.87041	3426.65
2796.42589	3418.15
2798.97979	3398.75
2801.53212	3395.25
2804.08288	3417.85
2806.63206	3386.25
2809.17967	3377.85
2811.72571	3391.75
2814.27018	3380.05
2816.81308	3362.05
2819.35442	3322.35
2821.89419	3345.25
2824.43239	3306.35
2826.96904	3345.05
2829.50412	3321.95
2832.03763	3319.65
2834.56959	3321.95
2837.1	3309.25
2839.62884	3303.65
2842.15613	3302.95
2844.68186	3327.05
2847.20604	3289.65
2849.72867	3284.75
2852.24974	3288.35
2854.76927	3252.85
2857.28724	3216.85
2859.80367	3265.95
2862.31855	3271.45
2864.83189	3248.15
2867.34368	3263.85
2869.85393	3269.55
2872.36264	3241.85
2874.8698	3246.45
2877.37543	3248.15
2879.87952	3236.45
2882.38207	3224.75
2884.88308	3218.55
2887.38256	3216.55
2889.88051	3225.65
2892.37692	3225.15
2894.8718	3209.05
2897.36515	3209.25
2899.85698	3199.45
2902.34727	3208.45
2904.83604	3207.65
2907.32328	3224.85
2909.809	3213.95
2912.29319	3210.75
2914.77587	3234.05
2917.25702	3229.15
2919.73665	3246.55
2922.21476	3240.15
2924.69136	3238.85
2927.16644	3210.15
2929.64	3207.25
2932.11205	3193.85
2934.58258	3200.35
2937.05161	3188.55
2939.51912	3180.95
2941.98513	3206.95
2944.44962	3182.95
2946.91261	3150.45
2949.37409	3165.15
2951.83407	3160.95
2954.29254	3172.15
2956.74951	3150.75
2959.20498	3138.35
2961.65895	3139.15
2964.11142	3131.95
2966.56239	3134.65
2969.01186	3125.35
2971.45984	3111.85
2973.90632	3111.25
2976.35131	3120.45
2978.7948	3112.45
2981.23681	3098.75
2983.67732	3104.95
2986.11635	3102.55
2988.55388	3061.35
2990.98993	3079.85
2993.4245	3059.65
2995.85758	3047.45
2998.28917	3047.05
3000.71928	3038.75
3003.14791	3040.95
3005.57506	3020.75
3008.00073	2998.65
3010.42493	2942.25
3012.84764	3000.95
3015.26888	3002.25
3017.68865	2987.55
3020.10694	2948.25
3022.52376	2953.05
3024.9391	2956.85
3027.35298	2926.25
3029.76539	2916.55
3032.17632	2922.55
3034.5858	2914.55
3036.9938	2910.85
3039.40034	2907.85
3041.80542	2911.15
3044.20903	2884.95
3046.61118	2881.35
3049.01187	2885.45
3051.4111	2863.75
3053.80888	2868.65
3056.20519	2864.75
3058.60005	2827.95
3060.99345	2869.75
3063.3854	2834.65
3065.7759	2816.45
3068.16494	2825.45
3070.55254	2795.95
3072.93868	2810.25
3075.32338	2800.65
3077.70662	2788.15
3080.08842	2793.45
3082.46878	2766.35
3084.84769	2794.15
3087.22515	2774.05
3089.60118	2781.85
3091.97576	2755.75
3094.3489	2770.05
3096.72061	2758.75
3099.09087	2740.15
3101.4597	2760.45
3103.82709	2753.65
3106.19305	2723.15
3108.55757	2728.95
3110.92066	2727.95
3113.28232	2741.85
3115.64255	2731.85
3118.00134	2717.45
3120.35871	2695.25
3122.71466	2673.55
3125.06917	2683.45
3127.42226	2678.55
3129.77393	2652.05
3132.12417	2676.85
3134.47299	2678.35
3136.82039	2667.15
3139.16636	2641.75
3141.51092	2662.35
3143.85406	2666.75
3146.19579	2635.55
3148.53609	2631.85
3150.87499	2644.25
3153.21246	2644.55
3155.54853	2635.45
3157.88318	2648.85
3160.21642	2641.15
3162.54826	2644.25
3164.87868	2639.75
3167.2077	2606.75
3169.5353	2624.25
3171.86151	2632.55
3174.18631	2615.15
3176.5097	2606.75
3178.83169	2619.45
3181.15228	2610.75
3183.47147	2581.95
3185.78926	2569.95
3188.10565	2571.75
3190.42065	2544.55
3192.73424	2562.45
3195.04645	2550.95
3197.35725	2543.85
3199.66667	2550.15
3201.97469	2554.05
3204.28132	2531.35
3206.58656	2548.05
3208.8904	2550.35
3211.19287	2548.15
3213.49394	2527.95
3215.79363	2531.05
3218.09193	2540.65
3220.38884	2531.85
3222.68438	2523.95
3224.97853	2492.75
3227.2713	2524.65
3229.56269	2509.55
3231.8527	2517.25
3234.14133	2498.45
3236.42858	2486.15
3238.71446	2463.55
3240.99896	2495.85
3243.28209	2479.65
3245.56384	2479.75
3247.84423	2463.25
3250.12324	2470.65
3252.40088	2460.35
3254.67715	2455.45
3256.95205	2441.95
3259.22558	2457.05
3261.49775	2447.05
3263.76855	2444.95
3266.03799	2454.75
3268.30606	2442.95
3270.57277	2443.45
3272.83812	2424.65
3275.10211	2415.65
3277.36474	2432.65
3279.62601	2430.05
3281.88593	2395.75
3284.14448	2377.55
3286.40168	2395.45
3288.65753	2392.05
3290.91202	2390.85
3293.16516	2366.65
3295.41695	2387.35
3297.66738	2388.75
3299.91647	2357.05
3302.16421	2350.05
3304.4106	2308.55
3306.65564	2331.45
3308.89933	2282.25
3311.14169	2298.15
3313.38269	2261.55
3315.62236	2254.15
3317.86068	2237.85
3320.09766	2231.35
3322.3333	2185.95
3324.5676	2193.05
3326.80056	2145.25
3329.03219	2133.35
3331.26248	-0.45
3333.49143	0.65
3335.71905	0.45
