Data from AgNPs_UA_10uM_CRN_500uM_SU_RamanShift__24__13-09-20-258.txt Node

Date: Thu Aug 04 13:09:20 BST 2022
User: TCL
Spectrometer: QEP01345
Trigger mode: 4
Integration Time (sec): 1.000000E0
Scans to average: 10
Electric dark correction enabled: true
Nonlinearity correction enabled: false
Boxcar width: 0
XAxis mode: Raman Shifts
Number of Pixels in Spectrum: 1044
>>>>>Begin Spectral Data<<<<<
46.04893	1.35
50.45542	-0.65
54.85868	0.05
59.25871	-0.35
63.6555	17.55
68.04907	16.55
72.43941	18.25
76.82654	19.55
81.21044	19.05
85.59113	21.95
89.96862	21.15
94.34289	24.15
98.71396	21.35
103.08183	24.75
107.4465	24.35
111.80798	26.35
116.16626	23.65
120.52136	27.35
124.87327	29.65
129.222	30.75
133.56755	30.25
137.90993	32.95
142.24913	38.15
146.58517	44.45
150.91804	52.15
155.24774	63.05
159.57429	79.65
163.89768	105.05
168.21792	134.75
172.53501	187.25
176.84895	265.05
181.15975	375.95
185.46741	532.25
189.77193	739.95
194.07331	1002.15
198.37157	1291.65
202.6667	1604.05
206.9587	1916.65
211.24758	2217.25
215.53334	2553.25
219.81599	2885.95
224.09553	3263.55
228.37195	3698.45
232.64527	4154.05
236.91549	4590.95
241.18261	4984.55
245.44663	5300.95
249.70755	5532.05
253.96539	5742.25
258.22014	5912.65
262.4718	6067.65
266.72039	6142.95
270.96589	6163.15
275.20832	6100.85
279.44768	6026.25
283.68397	5932.65
287.91719	5858.95
292.14735	5870.05
296.37445	5973.95
300.59849	6157.85
304.81948	6407.45
309.03742	6634.65
313.25231	6796.15
317.46415	6744.85
321.67296	6477.25
325.87872	6203.85
330.08145	6051.75
334.28114	6019.25
338.47781	6100.95
342.67145	6226.65
346.86207	6411.15
351.04966	6682.15
355.23424	6975.75
359.4158	7168.15
363.59435	7218.95
367.76989	7199.15
371.94243	7169.35
376.11196	7106.15
380.27849	7082.65
384.44203	7115.25
388.60257	7132.35
392.76012	7206.15
396.91468	7303.85
401.06626	7429.35
405.21485	7457.65
409.36047	7381.75
413.50311	7148.45
417.64277	6922.45
421.77947	6800.35
425.9132	6725.75
430.04396	6700.55
434.17176	6713.85
438.2966	6780.15
442.41849	6875.65
446.53742	7014.45
450.6534	7156.15
454.76644	7252.45
458.87653	7292.15
462.98368	7302.85
467.08789	7270.15
471.18916	7180.95
475.2875	7029.75
479.38291	6903.55
483.4754	6813.35
487.56496	6756.85
491.6516	6738.35
495.73531	6743.95
499.81612	6788.95
503.89401	6850.45
507.96899	6899.15
512.04106	6931.15
516.11023	6990.15
520.1765	7015.95
524.23987	7036.45
528.30034	7016.25
532.35792	7004.65
536.41261	6925.35
540.46441	6865.55
544.51333	6850.75
548.55936	6909.35
552.60252	6973.65
556.64279	7090.75
560.6802	7188.65
564.71473	7288.05
568.7464	7379.05
572.7752	7340.85
576.80114	7127.55
580.82422	6948.65
584.84444	6884.85
588.86181	6879.15
592.87633	6874.55
596.888	7011.85
600.89682	7343.85
604.9028	8210.45
608.90594	9978.35
612.90624	11714.35
616.90371	10863.15
620.89834	8436.05
624.89015	7460.95
628.87913	7345.25
632.86528	7500.45
636.84862	7593.15
640.82913	7445.65
644.80683	7139.05
648.78172	6987.45
652.75379	7000.55
656.72306	7204.75
660.68952	7427.55
664.65319	7378.65
668.61405	7278.55
672.57211	7316.95
676.52738	7322.35
680.47986	7169.35
684.42955	6996.05
688.37646	6949.05
692.32058	6990.85
696.26192	7144.75
700.20048	7274.25
704.13626	7308.45
708.06928	7213.45
711.99952	7129.15
715.927	7117.55
719.85171	7160.55
723.77365	7182.55
727.69284	7144.15
731.60928	7110.55
735.52295	7090.35
739.43388	7103.25
743.34206	7128.15
747.24749	7146.05
751.15017	7126.35
755.05012	7210.75
758.94733	7472.45
762.8418	8136.95
766.73354	9154.65
770.62254	9908.35
774.50882	10033.65
778.39237	9710.25
782.27321	9113.75
786.15132	8322.25
790.02671	7717.95
793.89938	7396.35
797.76935	7252.65
801.6366	7173.75
805.50115	7113.85
809.36299	7084.85
813.22213	7089.25
817.07857	7074.05
820.93231	7088.55
824.78336	7103.35
828.63172	7119.05
832.47738	7121.35
836.32036	7108.55
840.16066	7085.25
843.99827	7059.85
847.8332	7078.15
851.66546	7102.05
855.49504	7136.95
859.32195	7113.15
863.1462	7095.55
866.96777	7108.55
870.78668	7112.75
874.60293	7138.45
878.41652	7177.15
882.22745	7211.95
886.03573	7265.75
889.84136	7263.55
893.64433	7236.75
897.44466	7217.95
901.24235	7216.65
905.0374	7195.35
908.8298	7176.15
912.61957	7143.85
916.40671	7157.45
920.19121	7167.05
923.97308	7197.95
927.75233	7285.15
931.52895	7342.05
935.30295	7246.45
939.07433	7162.35
942.84309	7105.95
946.60924	7059.55
950.37278	7050.35
954.13371	7043.05
957.89203	7022.25
961.64774	7064.65
965.40086	7027.15
969.15137	7031.75
972.89929	7037.25
976.64461	7034.75
980.38733	7035.65
984.12747	7041.45
987.86502	7074.05
991.59999	7106.35
995.33237	7140.65
999.06217	7178.75
1002.78939	7269.55
1006.51404	7396.05
1010.23611	7512.95
1013.95561	7603.45
1017.67255	7605.95
1021.38692	7577.45
1025.09872	7535.95
1028.80796	7459.05
1032.51465	7411.65
1036.21877	7460.35
1039.92035	7471.25
1043.61937	7511.75
1047.31584	7560.05
1051.00976	7574.65
1054.70114	7587.25
1058.38998	7635.35
1062.07627	7634.35
1065.76003	7689.25
1069.44126	7772.75
1073.11995	7917.45
1076.79611	8111.05
1080.46974	8214.25
1084.14085	8298.25
1087.80943	8382.75
1091.47549	8437.55
1095.13903	8440.25
1098.80005	8461.25
1102.45857	8553.15
1106.11456	8534.15
1109.76805	8359.45
1113.41903	8318.95
1117.06751	8411.05
1120.71348	8570.05
1124.35696	8745.15
1127.99793	8882.35
1131.63641	8722.15
1135.2724	8443.25
1138.90589	8203.15
1142.5369	8102.45
1146.16542	8032.05
1149.79145	7967.95
1153.415	7879.15
1157.03607	7860.55
1160.65467	7941.75
1164.27079	8105.45
1167.88443	8352.95
1171.49561	8704.75
1175.10432	9241.45
1178.71056	9988.65
1182.31434	10589.15
1185.91565	10835.35
1189.51451	10798.35
1193.11091	10698.95
1196.70485	10536.85
1200.29634	10367.15
1203.88538	10089.35
1207.47197	9738.45
1211.05612	9332.65
1214.63782	8944.05
1218.21708	8678.25
1221.79391	8520.85
1225.36829	8429.45
1228.94024	8410.25
1232.50976	8432.65
1236.07685	8457.15
1239.6415	8520.65
1243.20374	8553.15
1246.76355	8603.25
1250.32093	8664.75
1253.8759	8773.25
1257.42845	8961.65
1260.97859	9215.05
1264.52631	9459.45
1268.07163	9623.35
1271.61453	9708.25
1275.15503	9707.95
1278.69312	9668.25
1282.22882	9702.45
1285.76211	9767.25
1289.29301	9927.15
1292.82151	10108.85
1296.34761	10280.55
1299.87133	10628.55
1303.39266	11139.75
1306.9116	11991.35
1310.42815	12915.35
1313.94233	13203.75
1317.45412	12718.65
1320.96354	11957.35
1324.47058	11301.55
1327.97525	10729.05
1331.47754	10393.25
1334.97747	10314.15
1338.47502	10407.95
1341.97022	10782.85
1345.46305	11487.75
1348.95352	12509.05
1352.44163	13612.55
1355.92738	14697.75
1359.41078	15853.85
1362.89183	16678.05
1366.37053	15869.45
1369.84688	13643.25
1373.32088	11623.55
1376.79254	10488.95
1380.26186	9970.05
1383.72883	9619.05
1387.19347	9288.35
1390.65578	8975.15
1394.11575	8714.85
1397.57339	8549.15
1401.0287	8447.35
1404.48168	8419.75
1407.93234	8472.95
1411.38068	8585.85
1414.82669	8719.65
1418.27039	8746.35
1421.71177	8742.15
1425.15083	8670.35
1428.58758	8549.05
1432.02203	8541.45
1435.45416	8551.45
1438.88399	8522.65
1442.31151	8510.65
1445.73673	8551.45
1449.15965	8573.25
1452.58027	8589.45
1455.9986	8549.45
1459.41463	8558.15
1462.82837	8652.35
1466.23982	8816.05
1469.64898	9019.95
1473.05586	9143.65
1476.46045	9267.05
1479.86276	9367.35
1483.26279	9506.25
1486.66054	9685.75
1490.05602	9974.95
1493.44922	10433.65
1496.84016	11128.25
1500.22882	12201.95
1503.61521	13451.15
1506.99934	14664.05
1510.38121	15361.05
1513.76081	15165.55
1517.13816	14006.25
1520.51324	12481.15
1523.88607	11265.75
1527.25665	10499.25
1530.62498	10158.05
1533.99105	9995.15
1537.35488	9924.15
1540.71647	9825.15
1544.07581	9711.45
1547.4329	9604.65
1550.78776	9489.15
1554.14038	9375.05
1557.49077	9347.75
1560.83892	9426.05
1564.18484	9665.85
1567.52853	9915.95
1570.86999	10116.15
1574.20922	10214.25
1577.54624	10087.05
1580.88103	9683.15
1584.2136	9218.35
1587.54395	8890.65
1590.87208	8846.05
1594.19801	9034.35
1597.52172	9364.75
1600.84321	9454.05
1604.16251	9380.35
1607.47959	9277.45
1610.79447	9046.15
1614.10715	8734.95
1617.41763	8402.05
1620.7259	8145.65
1624.03199	7952.35
1627.33587	7907.35
1630.63757	7951.05
1633.93707	8162.15
1637.23439	8549.85
1640.52951	9217.25
1643.82246	10160.15
1647.11321	11129.65
1650.40179	11669.95
1653.68819	11279.85
1656.97241	10099.55
1660.25446	8911.35
1663.53433	8078.25
1666.81203	7584.65
1670.08756	7281.15
1673.36092	7088.45
1676.63211	6990.85
1679.90115	6893.35
1683.16801	6806.45
1686.43272	6741.55
1689.69527	6711.75
1692.95567	6655.25
1696.2139	6638.55
1699.46999	6634.25
1702.72392	6615.75
1705.97571	6623.65
1709.22535	6604.25
1712.47284	6621.85
1715.71819	6613.15
1718.96139	6594.25
1722.20246	6597.15
1725.44139	6579.85
1728.67818	6537.85
1731.91284	6498.55
1735.14537	6449.35
1738.37576	6441.35
1741.60403	6406.15
1744.83017	6375.45
1748.05418	6391.15
1751.27607	6368.45
1754.49584	6374.75
1757.71349	6342.95
1760.92903	6334.75
1764.14244	6321.85
1767.35375	6298.65
1770.56294	6300.05
1773.77002	6270.95
1776.97499	6241.15
1780.17785	6243.05
1783.37861	6199.85
1786.57727	6215.05
1789.77382	6213.75
1792.96828	6180.45
1796.16064	6167.45
1799.3509	6158.35
1802.53907	6156.65
1805.72514	6125.45
1808.90913	6137.55
1812.09102	6106.95
1815.27083	6088.55
1818.44856	6071.85
1821.6242	6062.75
1824.79776	6047.25
1827.96924	6049.55
1831.13864	6030.65
1834.30597	6008.55
1837.47122	5994.05
1840.6344	5973.15
1843.7955	5984.15
1846.95454	5974.85
1850.11151	5972.35
1853.26642	5976.75
1856.41926	5954.95
1859.57004	5982.15
1862.71876	5965.05
1865.86542	5935.35
1869.01003	5960.55
1872.15258	5930.95
1875.29308	5925.35
1878.43152	5924.85
1881.56792	5913.35
1884.70227	5887.85
1887.83457	5881.85
1890.96482	5869.45
1894.09304	5870.65
1897.21921	5847.85
1900.34335	5834.25
1903.46544	5839.35
1906.58551	5830.85
1909.70353	5825.45
1912.81953	5818.75
1915.93349	5808.95
1919.04543	5770.85
1922.15534	5773.45
1925.26322	5773.45
1928.36908	5733.55
1931.47292	5728.95
1934.57473	5742.85
1937.67453	5714.25
1940.77232	5692.25
1943.86808	5667.45
1946.96184	5648.85
1950.05358	5645.45
1953.14331	5640.55
1956.23103	5600.25
1959.31675	5582.75
1962.40046	5578.35
1965.48217	5565.15
1968.56188	5532.25
1971.63959	5514.35
1974.7153	5488.55
1977.78901	5514.25
1980.86073	5498.55
1983.93046	5468.25
1986.99819	5432.55
1990.06394	5420.65
1993.1277	5416.85
1996.18947	5378.45
1999.24925	5378.85
2002.30706	5320.95
2005.36288	5307.15
2008.41672	5307.75
2011.46859	5272.95
2014.51848	5266.65
2017.56639	5248.75
2020.61233	5238.35
2023.6563	5222.15
2026.6983	5203.05
2029.73833	5172.55
2032.7764	5178.55
2035.8125	5147.95
2038.84664	5133.95
2041.87881	5131.35
2044.90903	5118.85
2047.93729	5101.25
2050.96359	5096.55
2053.98794	5099.35
2057.01034	5071.15
2060.03078	5066.05
2063.04927	5074.35
2066.06582	5067.55
2069.08042	5062.45
2072.09307	5049.75
2075.10378	5028.15
2078.11255	5048.85
2081.11938	5035.55
2084.12426	5012.45
2087.12722	5018.05
2090.12824	5017.85
2093.12732	5013.15
2096.12447	5016.15
2099.11969	5015.85
2102.11299	5034.45
2105.10435	5027.25
2108.09379	5028.65
2111.08131	5002.35
2114.0669	5040.25
2117.05057	5032.55
2120.03233	5032.45
2123.01216	5025.25
2125.99008	5032.45
2128.96609	5007.05
2131.94018	5029.45
2134.91236	5021.65
2137.88263	5014.45
2140.851	5027.45
2143.81746	5030.55
2146.78201	5018.55
2149.74466	5016.55
2152.7054	5013.85
2155.66425	5012.45
2158.6212	4989.25
2161.57625	4984.15
2164.52941	4994.75
2167.48067	4980.15
2170.43004	4990.55
2173.37752	4973.65
2176.32311	4971.45
2179.26681	4981.05
2182.20863	4983.25
2185.14856	4988.85
2188.08661	4977.75
2191.02278	4979.45
2193.95707	4979.45
2196.88948	4976.05
2199.82001	4959.35
2202.74867	4946.05
2205.67545	4959.05
2208.60037	4936.85
2211.52341	4922.75
2214.44458	4907.95
2217.36388	4883.65
2220.28132	4880.95
2223.1969	4857.15
2226.11061	4857.05
2229.02246	4850.35
2231.93245	4847.25
2234.84058	4823.05
2237.74686	4828.55
2240.65128	4803.85
2243.55385	4808.75
2246.45456	4802.45
2249.35343	4775.95
2252.25044	4777.05
2255.14561	4771.55
2258.03893	4780.25
2260.93041	4770.55
2263.82004	4752.15
2266.70783	4761.25
2269.59378	4729.15
2272.4779	4712.25
2275.36017	4688.65
2278.24061	4696.75
2281.11922	4664.75
2283.996	4677.35
2286.87094	4675.45
2289.74405	4661.95
2292.61534	4649.05
2295.4848	4635.75
2298.35243	4612.15
2301.21824	4622.15
2304.08223	4599.45
2306.94439	4613.75
2309.80474	4600.35
2312.66327	4600.55
2315.51999	4589.05
2318.37489	4562.05
2321.22797	4568.85
2324.07925	4573.45
2326.92871	4521.15
2329.77637	4541.65
2332.62222	4539.55
2335.46626	4520.45
2338.3085	4511.05
2341.14893	4518.45
2343.98756	4495.65
2346.8244	4520.55
2349.65943	4491.95
2352.49267	4487.95
2355.32411	4479.05
2358.15376	4480.25
2360.98161	4461.35
2363.80768	4482.95
2366.63195	4469.05
2369.45444	4479.15
2372.27514	4468.75
2375.09405	4460.95
2377.91118	4459.45
2380.72652	4448.45
2383.54009	4432.15
2386.35187	4429.55
2389.16188	4412.65
2391.97011	4388.05
2394.77657	4366.15
2397.58125	4374.15
2400.38416	4369.05
2403.18529	4350.95
2405.98466	4340.05
2408.78226	4330.75
2411.57809	4316.05
2414.37216	4313.15
2417.16446	4310.65
2419.955	4311.25
2422.74378	4309.65
2425.5308	4308.55
2428.31606	4307.05
2431.09956	4299.65
2433.88131	4268.85
2436.6613	4286.65
2439.43954	4274.95
2442.21603	4268.85
2444.99077	4278.55
2447.76377	4271.55
2450.53501	4278.35
2453.30451	4258.45
2456.07226	4255.95
2458.83827	4241.25
2461.60254	4219.75
2464.36507	4232.95
2467.12586	4221.05
2469.88492	4220.75
2472.64224	4224.35
2475.39782	4218.75
2478.15167	4204.05
2480.90379	4187.15
2483.65417	4179.35
2486.40283	4189.85
2489.14976	4195.65
2491.89497	4205.75
2494.63845	4190.55
2497.3802	4184.05
2500.12024	4174.05
2502.85855	4173.45
2505.59514	4148.05
2508.33002	4155.45
2511.06318	4142.95
2513.79462	4118.55
2516.52435	4127.25
2519.25237	4107.85
2521.97867	4102.95
2524.70327	4098.15
2527.42616	4080.15
2530.14734	4081.75
2532.86681	4060.15
2535.58458	4081.95
2538.30065	4079.25
2541.01501	4067.95
2543.72768	4056.75
2546.43864	4046.95
2549.14791	4033.75
2551.85548	4032.15
2554.56136	4026.65
2557.26554	4015.65
2559.96803	4009.25
2562.66883	3998.05
2565.36794	4006.05
2568.06536	3974.45
2570.7611	3958.75
2573.45514	3953.55
2576.14751	3962.85
2578.83819	3952.45
2581.52719	3932.35
2584.21451	3939.15
2586.90015	3920.05
2589.58411	3921.85
2592.2664	3899.75
2594.94701	3890.25
2597.62594	3893.95
2600.30321	3864.95
2602.9788	3890.45
2605.65273	3877.65
2608.32498	3859.35
2610.99557	3857.05
2613.66449	3846.85
2616.33175	3860.15
2618.99734	3843.55
2621.66128	3828.05
2624.32355	3821.65
2626.98416	3824.15
2629.64311	3799.15
2632.30041	3785.45
2634.95605	3775.45
2637.61004	3763.35
2640.26238	3763.75
2642.91306	3753.35
2645.56209	3752.95
2648.20948	3749.35
2650.85521	3753.05
2653.4993	3743.85
2656.14175	3741.35
2658.78255	3732.05
2661.42171	3745.65
2664.05923	3744.15
2666.6951	3742.25
2669.32934	3733.45
2671.96194	3748.85
2674.59291	3743.55
2677.22224	3750.95
2679.84993	3757.75
2682.476	3738.35
2685.10043	3741.85
2687.72324	3747.25
2690.34441	3731.25
2692.96396	3731.15
2695.58188	3725.45
2698.19818	3718.95
2700.81285	3732.95
2703.4259	3714.25
2706.03733	3699.75
2708.64714	3715.75
2711.25533	3714.95
2713.86191	3712.75
2716.46687	3702.65
2719.07021	3709.35
2721.67194	3710.95
2724.27206	3699.75
2726.87057	3696.65
2729.46747	3691.55
2732.06276	3696.15
2734.65644	3693.55
2737.24852	3671.35
2739.83899	3679.85
2742.42786	3667.95
2745.01513	3652.15
2747.60079	3650.75
2750.18486	3644.75
2752.76733	3644.25
2755.3482	3634.15
2757.92747	3618.15
2760.50515	3606.45
2763.08123	3603.15
2765.65573	3600.25
2768.22863	3574.35
2770.79994	3575.35
2773.36967	3576.35
2775.9378	3569.45
2778.50435	3555.95
2781.06932	3562.05
2783.6327	3560.45
2786.1945	3557.35
2788.75471	3547.95
2791.31335	3542.05
2793.87041	3530.85
2796.42589	3513.15
2798.97979	3506.65
2801.53212	3502.15
2804.08288	3493.85
2806.63206	3490.35
2809.17967	3479.75
2811.72571	3475.45
2814.27018	3471.75
2816.81308	3473.55
2819.35442	3479.75
2821.89419	3445.55
2824.43239	3443.65
2826.96904	3439.45
2829.50412	3429.35
2832.03763	3421.95
2834.56959	3401.25
2837.1	3410.55
2839.62884	3392.15
2842.15613	3399.75
2844.68186	3399.85
2847.20604	3390.55
2849.72867	3382.75
2852.24974	3370.75
2854.76927	3369.45
2857.28724	3367.55
2859.80367	3363.55
2862.31855	3349.45
2864.83189	3352.55
2867.34368	3362.85
2869.85393	3340.65
2872.36264	3345.45
2874.8698	3337.25
2877.37543	3343.35
2879.87952	3330.35
2882.38207	3317.25
2884.88308	3300.85
2887.38256	3314.05
2889.88051	3308.25
2892.37692	3296.35
2894.8718	3300.15
2897.36515	3305.05
2899.85698	3299.25
2902.34727	3300.15
2904.83604	3302.35
2907.32328	3301.65
2909.809	3307.55
2912.29319	3315.75
2914.77587	3309.75
2917.25702	3318.25
2919.73665	3310.05
2922.21476	3304.85
2924.69136	3306.85
2927.16644	3299.55
2929.64	3292.05
2932.11205	3282.45
2934.58258	3260.35
2937.05161	3272.25
2939.51912	3262.15
2941.98513	3263.85
2944.44962	3263.15
2946.91261	3231.75
2949.37409	3244.85
2951.83407	3251.45
2954.29254	3219.15
2956.74951	3225.65
2959.20498	3232.95
2961.65895	3216.35
2964.11142	3226.45
2966.56239	3222.65
2969.01186	3217.65
2971.45984	3208.75
2973.90632	3197.35
2976.35131	3198.85
2978.7948	3186.15
2981.23681	3187.35
2983.67732	3184.25
2986.11635	3174.65
2988.55388	3177.15
2990.98993	3155.95
2993.4245	3142.65
2995.85758	3135.35
2998.28917	3139.85
3000.71928	3124.85
3003.14791	3111.95
3005.57506	3104.85
3008.00073	3096.75
3010.42493	3077.75
3012.84764	3078.95
3015.26888	3078.65
3017.68865	3090.45
3020.10694	3076.15
3022.52376	3048.15
3024.9391	3045.25
3027.35298	3029.65
3029.76539	3018.35
3032.17632	3017.75
3034.5858	3012.65
3036.9938	3006.45
3039.40034	2996.95
3041.80542	2981.65
3044.20903	2982.65
3046.61118	2979.75
3049.01187	2965.75
3051.4111	2960.65
3053.80888	2955.95
3056.20519	2944.05
3058.60005	2934.85
3060.99345	2940.75
3063.3854	2930.65
3065.7759	2936.65
3068.16494	2924.25
3070.55254	2913.95
3072.93868	2900.85
3075.32338	2898.55
3077.70662	2876.85
3080.08842	2869.75
3082.46878	2865.85
3084.84769	2862.25
3087.22515	2846.45
3089.60118	2851.45
3091.97576	2848.15
3094.3489	2838.15
3096.72061	2851.65
3099.09087	2830.25
3101.4597	2827.75
3103.82709	2834.75
3106.19305	2820.35
3108.55757	2829.45
3110.92066	2809.95
3113.28232	2810.85
3115.64255	2798.95
3118.00134	2799.45
3120.35871	2792.95
3122.71466	2788.65
3125.06917	2778.25
3127.42226	2770.75
3129.77393	2763.15
3132.12417	2752.85
3134.47299	2758.65
3136.82039	2746.95
3139.16636	2742.45
3141.51092	2751.25
3143.85406	2740.05
3146.19579	2737.55
3148.53609	2746.15
3150.87499	2734.95
3153.21246	2732.95
3155.54853	2735.65
3157.88318	2728.65
3160.21642	2727.15
3162.54826	2720.15
3164.87868	2727.35
3167.2077	2731.65
3169.5353	2712.35
3171.86151	2715.65
3174.18631	2694.75
3176.5097	2686.85
3178.83169	2692.75
3181.15228	2688.65
3183.47147	2690.55
3185.78926	2670.95
3188.10565	2651.05
3190.42065	2649.75
3192.73424	2665.05
3195.04645	2649.95
3197.35725	2646.65
3199.66667	2638.35
3201.97469	2620.35
3204.28132	2633.45
3206.58656	2642.95
3208.8904	2637.35
3211.19287	2634.45
3213.49394	2639.95
3215.79363	2637.95
3218.09193	2630.95
3220.38884	2639.45
3222.68438	2644.95
3224.97853	2628.05
3227.2713	2618.35
3229.56269	2617.25
3231.8527	2602.85
3234.14133	2609.85
3236.42858	2592.65
3238.71446	2577.45
3240.99896	2584.35
3243.28209	2567.25
3245.56384	2554.75
3247.84423	2560.45
3250.12324	2547.95
3252.40088	2561.75
3254.67715	2549.95
3256.95205	2542.05
3259.22558	2541.95
3261.49775	2540.45
3263.76855	2537.55
3266.03799	2541.75
3268.30606	2528.65
3270.57277	2541.85
3272.83812	2529.05
3275.10211	2510.05
3277.36474	2500.55
3279.62601	2497.55
3281.88593	2504.25
3284.14448	2491.65
3286.40168	2501.75
3288.65753	2494.25
3290.91202	2490.35
3293.16516	2471.65
3295.41695	2485.35
3297.66738	2473.25
3299.91647	2455.95
3302.16421	2430.55
3304.4106	2424.05
3306.65564	2403.65
3308.89933	2387.55
3311.14169	2366.15
3313.38269	2339.65
3315.62236	2330.65
3317.86068	2312.65
3320.09766	2290.25
3322.3333	2279.75
3324.5676	2250.95
3326.80056	2216.85
3329.03219	2214.55
3331.26248	-0.05
3333.49143	-1.15
3335.71905	0.45
