Data from AgNPs_UA_10uM_CRN_500uM_SU_RamanShift__6__13-06-20-254.txt Node

Date: Thu Aug 04 13:06:20 BST 2022
User: TCL
Spectrometer: QEP01345
Trigger mode: 4
Integration Time (sec): 1.000000E0
Scans to average: 10
Electric dark correction enabled: true
Nonlinearity correction enabled: false
Boxcar width: 0
XAxis mode: Raman Shifts
Number of Pixels in Spectrum: 1044
>>>>>Begin Spectral Data<<<<<
46.04893	1.15
50.45542	0.05
54.85868	0.85
59.25871	-0.45
63.6555	17.25
68.04907	16.65
72.43941	17.55
76.82654	18.95
81.21044	19.15
85.59113	19.95
89.96862	21.45
94.34289	21.75
98.71396	20.95
103.08183	24.55
107.4465	25.55
111.80798	23.15
116.16626	26.05
120.52136	28.45
124.87327	30.75
129.222	29.25
133.56755	30.05
137.90993	34.75
142.24913	37.55
146.58517	44.55
150.91804	50.85
155.24774	63.25
159.57429	76.55
163.89768	104.65
168.21792	135.25
172.53501	186.65
176.84895	266.35
181.15975	377.55
185.46741	535.05
189.77193	741.75
194.07331	998.35
198.37157	1299.25
202.6667	1606.15
206.9587	1922.05
211.24758	2222.65
215.53334	2551.15
219.81599	2891.15
224.09553	3268.35
228.37195	3699.15
232.64527	4152.35
236.91549	4588.75
241.18261	4983.75
245.44663	5289.45
249.70755	5512.45
253.96539	5750.55
258.22014	5922.45
262.4718	6063.05
266.72039	6137.25
270.96589	6172.35
275.20832	6128.55
279.44768	6039.55
283.68397	5922.45
287.91719	5865.15
292.14735	5894.05
296.37445	5989.55
300.59849	6152.85
304.81948	6413.95
309.03742	6649.85
313.25231	6795.05
317.46415	6729.35
321.67296	6484.15
325.87872	6235.85
330.08145	6079.95
334.28114	6062.95
338.47781	6113.95
342.67145	6226.15
346.86207	6411.45
351.04966	6705.75
355.23424	6973.55
359.4158	7177.45
363.59435	7230.35
367.76989	7205.85
371.94243	7169.55
376.11196	7142.25
380.27849	7126.15
384.44203	7151.05
388.60257	7171.55
392.76012	7213.15
396.91468	7325.55
401.06626	7445.45
405.21485	7504.65
409.36047	7404.45
413.50311	7194.05
417.64277	6977.05
421.77947	6826.05
425.9132	6767.35
430.04396	6724.85
434.17176	6770.75
438.2966	6803.35
442.41849	6931.95
446.53742	7063.45
450.6534	7185.15
454.76644	7278.85
458.87653	7341.45
462.98368	7354.25
467.08789	7306.65
471.18916	7214.25
475.2875	7050.95
479.38291	6950.85
483.4754	6855.15
487.56496	6808.35
491.6516	6777.75
495.73531	6790.25
499.81612	6812.85
503.89401	6872.45
507.96899	6930.05
512.04106	6976.35
516.11023	7035.25
520.1765	7050.85
524.23987	7064.35
528.30034	7055.45
532.35792	7040.25
536.41261	6993.55
540.46441	6896.75
544.51333	6894.65
548.55936	6943.25
552.60252	7005.05
556.64279	7142.45
560.6802	7243.75
564.71473	7320.05
568.7464	7429.75
572.7752	7394.35
576.80114	7152.25
580.82422	6987.55
584.84444	6930.25
588.86181	6909.55
592.87633	6934.35
596.888	7054.85
600.89682	7402.25
604.9028	8248.25
608.90594	10016.35
612.90624	11786.45
616.90371	10862.95
620.89834	8469.65
624.89015	7472.65
628.87913	7378.55
632.86528	7532.15
636.84862	7625.75
640.82913	7468.45
644.80683	7174.95
648.78172	7033.25
652.75379	7037.05
656.72306	7247.55
660.68952	7467.25
664.65319	7428.05
668.61405	7332.75
672.57211	7394.05
676.52738	7396.35
680.47986	7207.65
684.42955	7045.35
688.37646	6991.95
692.32058	7030.05
696.26192	7184.45
700.20048	7306.95
704.13626	7346.95
708.06928	7262.85
711.99952	7170.85
715.927	7162.85
719.85171	7211.85
723.77365	7221.35
727.69284	7177.65
731.60928	7114.15
735.52295	7112.55
739.43388	7158.15
743.34206	7175.95
747.24749	7162.25
751.15017	7147.65
755.05012	7244.35
758.94733	7514.85
762.8418	8171.55
766.73354	9169.25
770.62254	9907.45
774.50882	10047.15
778.39237	9769.15
782.27321	9128.95
786.15132	8335.35
790.02671	7772.65
793.89938	7455.75
797.76935	7289.55
801.6366	7224.15
805.50115	7153.65
809.36299	7139.35
813.22213	7125.45
817.07857	7133.85
820.93231	7139.25
824.78336	7126.75
828.63172	7170.05
832.47738	7151.75
836.32036	7144.95
840.16066	7113.35
843.99827	7129.05
847.8332	7124.45
851.66546	7128.15
855.49504	7125.15
859.32195	7159.95
863.1462	7148.05
866.96777	7141.95
870.78668	7160.45
874.60293	7188.05
878.41652	7211.55
882.22745	7254.15
886.03573	7296.45
889.84136	7300.65
893.64433	7275.15
897.44466	7260.05
901.24235	7251.25
905.0374	7223.55
908.8298	7223.35
912.61957	7181.45
916.40671	7199.25
920.19121	7196.35
923.97308	7252.25
927.75233	7321.45
931.52895	7375.45
935.30295	7307.95
939.07433	7200.95
942.84309	7133.45
946.60924	7106.75
950.37278	7103.15
954.13371	7099.65
957.89203	7085.45
961.64774	7094.65
965.40086	7076.95
969.15137	7062.95
972.89929	7066.95
976.64461	7055.55
980.38733	7074.35
984.12747	7089.25
987.86502	7101.65
991.59999	7143.65
995.33237	7182.85
999.06217	7222.05
1002.78939	7322.55
1006.51404	7455.55
1010.23611	7607.95
1013.95561	7631.15
1017.67255	7648.35
1021.38692	7629.95
1025.09872	7590.75
1028.80796	7519.35
1032.51465	7493.15
1036.21877	7499.95
1039.92035	7534.35
1043.61937	7560.45
1047.31584	7594.55
1051.00976	7608.65
1054.70114	7641.45
1058.38998	7650.45
1062.07627	7691.45
1065.76003	7738.85
1069.44126	7808.15
1073.11995	7985.25
1076.79611	8153.55
1080.46974	8286.25
1084.14085	8372.85
1087.80943	8427.75
1091.47549	8477.35
1095.13903	8504.15
1098.80005	8539.45
1102.45857	8614.15
1106.11456	8562.15
1109.76805	8424.65
1113.41903	8378.95
1117.06751	8476.15
1120.71348	8627.45
1124.35696	8818.65
1127.99793	8937.65
1131.63641	8779.45
1135.2724	8498.65
1138.90589	8269.25
1142.5369	8140.35
1146.16542	8079.15
1149.79145	8013.75
1153.415	7948.55
1157.03607	7918.45
1160.65467	7982.35
1164.27079	8163.55
1167.88443	8387.15
1171.49561	8756.15
1175.10432	9285.85
1178.71056	10023.35
1182.31434	10639.35
1185.91565	10873.65
1189.51451	10839.75
1193.11091	10754.25
1196.70485	10603.85
1200.29634	10420.75
1203.88538	10128.15
1207.47197	9792.55
1211.05612	9409.45
1214.63782	9036.75
1218.21708	8726.95
1221.79391	8560.75
1225.36829	8495.65
1228.94024	8462.45
1232.50976	8469.05
1236.07685	8520.95
1239.6415	8559.45
1243.20374	8603.85
1246.76355	8665.35
1250.32093	8711.05
1253.8759	8829.35
1257.42845	9034.95
1260.97859	9270.15
1264.52631	9513.05
1268.07163	9690.55
1271.61453	9776.55
1275.15503	9771.65
1278.69312	9730.65
1282.22882	9740.15
1285.76211	9813.75
1289.29301	9988.35
1292.82151	10141.55
1296.34761	10356.05
1299.87133	10651.05
1303.39266	11206.05
1306.9116	12027.75
1310.42815	12925.25
1313.94233	13248.45
1317.45412	12740.75
1320.96354	12025.95
1324.47058	11344.15
1327.97525	10790.55
1331.47754	10444.85
1334.97747	10354.15
1338.47502	10447.85
1341.97022	10870.85
1345.46305	11548.45
1348.95352	12565.15
1352.44163	13679.25
1355.92738	14787.65
1359.41078	15888.05
1362.89183	16645.75
1366.37053	15831.45
1369.84688	13628.05
1373.32088	11626.45
1376.79254	10517.45
1380.26186	9979.65
1383.72883	9632.75
1387.19347	9319.25
1390.65578	9020.95
1394.11575	8739.05
1397.57339	8563.25
1401.0287	8491.45
1404.48168	8457.45
1407.93234	8528.95
1411.38068	8638.05
1414.82669	8765.15
1418.27039	8810.65
1421.71177	8767.35
1425.15083	8731.55
1428.58758	8593.65
1432.02203	8591.65
1435.45416	8580.25
1438.88399	8587.15
1442.31151	8563.85
1445.73673	8594.55
1449.15965	8612.95
1452.58027	8635.25
1455.9986	8625.45
1459.41463	8617.25
1462.82837	8702.25
1466.23982	8848.95
1469.64898	9059.05
1473.05586	9219.25
1476.46045	9326.05
1479.86276	9426.85
1483.26279	9559.75
1486.66054	9703.15
1490.05602	10017.45
1493.44922	10477.55
1496.84016	11207.85
1500.22882	12210.25
1503.61521	13467.35
1506.99934	14674.25
1510.38121	15373.55
1513.76081	15162.05
1517.13816	13983.35
1520.51324	12494.45
1523.88607	11297.45
1527.25665	10565.15
1530.62498	10186.95
1533.99105	10048.35
1537.35488	9956.75
1540.71647	9857.55
1544.07581	9779.65
1547.4329	9658.55
1550.78776	9522.35
1554.14038	9433.85
1557.49077	9392.55
1560.83892	9484.95
1564.18484	9664.95
1567.52853	9952.35
1570.86999	10119.85
1574.20922	10210.75
1577.54624	10111.05
1580.88103	9711.75
1584.2136	9200.95
1587.54395	8933.55
1590.87208	8886.65
1594.19801	9094.15
1597.52172	9390.45
1600.84321	9543.05
1604.16251	9427.35
1607.47959	9316.25
1610.79447	9086.65
1614.10715	8796.15
1617.41763	8454.85
1620.7259	8177.65
1624.03199	8006.55
1627.33587	7947.55
1630.63757	7989.05
1633.93707	8170.35
1637.23439	8614.35
1640.52951	9270.05
1643.82246	10209.15
1647.11321	11202.65
1650.40179	11696.15
1653.68819	11277.45
1656.97241	10120.35
1660.25446	8891.45
1663.53433	8088.65
1666.81203	7610.15
1670.08756	7278.35
1673.36092	7121.65
1676.63211	7008.95
1679.90115	6923.65
1683.16801	6848.65
1686.43272	6784.15
1689.69527	6741.85
1692.95567	6714.15
1696.2139	6681.35
1699.46999	6661.95
1702.72392	6650.95
1705.97571	6641.35
1709.22535	6625.65
1712.47284	6655.25
1715.71819	6650.45
1718.96139	6627.05
1722.20246	6623.75
1725.44139	6592.05
1728.67818	6576.85
1731.91284	6520.05
1735.14537	6497.25
1738.37576	6484.95
1741.60403	6427.65
1744.83017	6459.15
1748.05418	6419.05
1751.27607	6409.55
1754.49584	6399.55
1757.71349	6391.25
1760.92903	6386.75
1764.14244	6353.35
1767.35375	6328.65
1770.56294	6331.95
1773.77002	6313.05
1776.97499	6289.55
1780.17785	6251.05
1783.37861	6233.65
1786.57727	6252.95
1789.77382	6246.15
1792.96828	6239.75
1796.16064	6204.35
1799.3509	6208.45
1802.53907	6201.15
1805.72514	6188.15
1808.90913	6155.15
1812.09102	6146.85
1815.27083	6123.35
1818.44856	6092.15
1821.6242	6101.15
1824.79776	6077.85
1827.96924	6077.05
1831.13864	6063.75
1834.30597	6062.05
1837.47122	6033.55
1840.6344	6021.35
1843.7955	6013.65
1846.95454	6011.85
1850.11151	6010.95
1853.26642	5992.45
1856.41926	5992.15
1859.57004	6009.45
1862.71876	6016.75
1865.86542	5990.35
1869.01003	5992.95
1872.15258	5978.65
1875.29308	5957.75
1878.43152	5969.15
1881.56792	5943.15
1884.70227	5920.95
1887.83457	5903.85
1890.96482	5910.15
1894.09304	5872.95
1897.21921	5900.75
1900.34335	5872.55
1903.46544	5862.85
1906.58551	5859.75
1909.70353	5855.85
1912.81953	5835.55
1915.93349	5841.75
1919.04543	5817.15
1922.15534	5808.45
1925.26322	5802.05
1928.36908	5793.95
1931.47292	5757.25
1934.57473	5741.65
1937.67453	5743.15
1940.77232	5739.65
1943.86808	5713.25
1946.96184	5691.55
1950.05358	5671.25
1953.14331	5676.95
1956.23103	5649.05
1959.31675	5634.25
1962.40046	5611.35
1965.48217	5589.15
1968.56188	5560.55
1971.63959	5553.25
1974.7153	5542.05
1977.78901	5536.55
1980.86073	5525.55
1983.93046	5473.75
1986.99819	5477.05
1990.06394	5451.05
1993.1277	5426.35
1996.18947	5415.75
1999.24925	5386.25
2002.30706	5353.95
2005.36288	5344.45
2008.41672	5326.65
2011.46859	5326.05
2014.51848	5304.35
2017.56639	5265.15
2020.61233	5261.45
2023.6563	5250.45
2026.6983	5228.35
2029.73833	5210.95
2032.7764	5187.35
2035.8125	5184.65
2038.84664	5158.05
2041.87881	5170.55
2044.90903	5136.15
2047.93729	5135.05
2050.96359	5113.35
2053.98794	5103.55
2057.01034	5109.55
2060.03078	5112.85
2063.04927	5081.75
2066.06582	5078.75
2069.08042	5095.05
2072.09307	5074.75
2075.10378	5075.85
2078.11255	5052.65
2081.11938	5068.45
2084.12426	5045.35
2087.12722	5022.55
2090.12824	5047.75
2093.12732	5042.45
2096.12447	5046.55
2099.11969	5043.85
2102.11299	5063.75
2105.10435	5056.35
2108.09379	5037.45
2111.08131	5051.65
2114.0669	5054.65
2117.05057	5053.85
2120.03233	5050.35
2123.01216	5070.95
2125.99008	5059.55
2128.96609	5062.15
2131.94018	5066.25
2134.91236	5064.75
2137.88263	5057.35
2140.851	5046.25
2143.81746	5051.45
2146.78201	5056.95
2149.74466	5025.85
2152.7054	5054.65
2155.66425	5039.25
2158.6212	5026.95
2161.57625	5020.55
2164.52941	5023.35
2167.48067	5020.15
2170.43004	5017.85
2173.37752	5004.65
2176.32311	5012.15
2179.26681	5018.45
2182.20863	5007.15
2185.14856	5020.95
2188.08661	4989.05
2191.02278	5011.85
2193.95707	5006.05
2196.88948	5000.05
2199.82001	4985.05
2202.74867	4978.85
2205.67545	4978.75
2208.60037	4961.65
2211.52341	4952.15
2214.44458	4948.95
2217.36388	4922.85
2220.28132	4915.35
2223.1969	4894.65
2226.11061	4890.85
2229.02246	4863.35
2231.93245	4870.25
2234.84058	4862.95
2237.74686	4842.75
2240.65128	4841.55
2243.55385	4838.05
2246.45456	4825.45
2249.35343	4787.65
2252.25044	4806.65
2255.14561	4823.45
2258.03893	4792.45
2260.93041	4789.55
2263.82004	4787.05
2266.70783	4778.45
2269.59378	4761.85
2272.4779	4737.95
2275.36017	4732.65
2278.24061	4718.65
2281.11922	4702.35
2283.996	4694.65
2286.87094	4681.05
2289.74405	4678.65
2292.61534	4666.55
2295.4848	4666.25
2298.35243	4659.55
2301.21824	4646.25
2304.08223	4637.85
2306.94439	4626.45
2309.80474	4629.35
2312.66327	4610.25
2315.51999	4598.15
2318.37489	4610.75
2321.22797	4584.15
2324.07925	4563.95
2326.92871	4574.85
2329.77637	4568.35
2332.62222	4552.55
2335.46626	4556.45
2338.3085	4546.65
2341.14893	4531.75
2343.98756	4530.05
2346.8244	4530.45
2349.65943	4506.05
2352.49267	4502.85
2355.32411	4494.95
2358.15376	4502.85
2360.98161	4515.05
2363.80768	4505.75
2366.63195	4490.05
2369.45444	4492.05
2372.27514	4494.35
2375.09405	4482.95
2377.91118	4490.25
2380.72652	4474.55
2383.54009	4457.85
2386.35187	4458.85
2389.16188	4434.05
2391.97011	4419.55
2394.77657	4390.05
2397.58125	4393.15
2400.38416	4391.25
2403.18529	4380.75
2405.98466	4382.15
2408.78226	4351.55
2411.57809	4351.05
2414.37216	4347.25
2417.16446	4326.75
2419.955	4341.05
2422.74378	4313.75
2425.5308	4342.65
2428.31606	4318.85
2431.09956	4326.15
2433.88131	4306.05
2436.6613	4311.25
2439.43954	4299.85
2442.21603	4278.05
2444.99077	4285.05
2447.76377	4286.35
2450.53501	4279.85
2453.30451	4290.95
2456.07226	4274.85
2458.83827	4273.75
2461.60254	4239.05
2464.36507	4254.65
2467.12586	4242.65
2469.88492	4236.95
2472.64224	4244.75
2475.39782	4232.35
2478.15167	4226.65
2480.90379	4218.15
2483.65417	4222.15
2486.40283	4209.45
2489.14976	4218.75
2491.89497	4220.45
2494.63845	4238.05
2497.3802	4214.65
2500.12024	4210.85
2502.85855	4194.15
2505.59514	4183.35
2508.33002	4193.65
2511.06318	4159.75
2513.79462	4157.95
2516.52435	4143.55
2519.25237	4139.55
2521.97867	4114.15
2524.70327	4127.25
2527.42616	4113.95
2530.14734	4086.65
2532.86681	4093.65
2535.58458	4094.45
2538.30065	4102.65
2541.01501	4088.75
2543.72768	4085.25
2546.43864	4071.45
2549.14791	4074.65
2551.85548	4073.45
2554.56136	4061.45
2557.26554	4072.35
2559.96803	4046.45
2562.66883	4014.65
2565.36794	4020.65
2568.06536	4006.15
2570.7611	3988.05
2573.45514	3983.75
2576.14751	3978.85
2578.83819	3961.15
2581.52719	3961.35
2584.21451	3932.65
2586.90015	3948.15
2589.58411	3948.05
2592.2664	3932.65
2594.94701	3922.15
2597.62594	3912.65
2600.30321	3907.15
2602.9788	3899.45
2605.65273	3889.25
2608.32498	3885.75
2610.99557	3865.65
2613.66449	3876.45
2616.33175	3882.05
2618.99734	3859.15
2621.66128	3851.45
2624.32355	3843.75
2626.98416	3833.95
2629.64311	3812.75
2632.30041	3816.75
2634.95605	3802.65
2637.61004	3789.85
2640.26238	3791.25
2642.91306	3787.55
2645.56209	3786.75
2648.20948	3770.95
2650.85521	3778.35
2653.4993	3766.95
2656.14175	3770.95
2658.78255	3779.55
2661.42171	3760.35
2664.05923	3767.35
2666.6951	3767.15
2669.32934	3777.75
2671.96194	3780.75
2674.59291	3764.85
2677.22224	3770.95
2679.84993	3781.75
2682.476	3767.95
2685.10043	3758.45
2687.72324	3760.25
2690.34441	3777.25
2692.96396	3748.05
2695.58188	3744.95
2698.19818	3748.65
2700.81285	3748.25
2703.4259	3733.55
2706.03733	3720.25
2708.64714	3718.85
2711.25533	3719.05
2713.86191	3732.55
2716.46687	3730.95
2719.07021	3714.65
2721.67194	3731.75
2724.27206	3723.85
2726.87057	3725.25
2729.46747	3721.95
2732.06276	3719.55
2734.65644	3719.25
2737.24852	3707.25
2739.83899	3690.95
2742.42786	3692.75
2745.01513	3681.05
2747.60079	3667.85
2750.18486	3662.45
2752.76733	3660.35
2755.3482	3634.55
2757.92747	3639.95
2760.50515	3629.75
2763.08123	3626.55
2765.65573	3613.85
2768.22863	3611.75
2770.79994	3595.35
2773.36967	3609.35
2775.9378	3593.25
2778.50435	3579.95
2781.06932	3583.85
2783.6327	3591.95
2786.1945	3581.35
2788.75471	3566.45
2791.31335	3562.65
2793.87041	3549.15
2796.42589	3523.45
2798.97979	3516.65
2801.53212	3527.15
2804.08288	3513.45
2806.63206	3504.25
2809.17967	3512.25
2811.72571	3491.35
2814.27018	3493.85
2816.81308	3494.95
2819.35442	3475.15
2821.89419	3470.55
2824.43239	3460.15
2826.96904	3457.45
2829.50412	3452.15
2832.03763	3437.75
2834.56959	3437.65
2837.1	3414.35
2839.62884	3414.55
2842.15613	3408.55
2844.68186	3417.75
2847.20604	3404.25
2849.72867	3396.95
2852.24974	3389.05
2854.76927	3376.75
2857.28724	3379.35
2859.80367	3371.05
2862.31855	3372.05
2864.83189	3382.45
2867.34368	3378.85
2869.85393	3355.75
2872.36264	3349.85
2874.8698	3355.25
2877.37543	3362.45
2879.87952	3341.35
2882.38207	3335.45
2884.88308	3329.45
2887.38256	3333.15
2889.88051	3327.95
2892.37692	3324.35
2894.8718	3312.95
2897.36515	3316.05
2899.85698	3304.85
2902.34727	3300.75
2904.83604	3306.95
2907.32328	3311.95
2909.809	3321.05
2912.29319	3317.25
2914.77587	3331.85
2917.25702	3327.25
2919.73665	3326.85
2922.21476	3313.75
2924.69136	3325.25
2927.16644	3321.85
2929.64	3308.35
2932.11205	3294.35
2934.58258	3276.45
2937.05161	3281.05
2939.51912	3285.85
2941.98513	3287.25
2944.44962	3268.75
2946.91261	3262.85
2949.37409	3252.85
2951.83407	3253.05
2954.29254	3233.25
2956.74951	3234.15
2959.20498	3242.75
2961.65895	3231.75
2964.11142	3228.85
2966.56239	3231.25
2969.01186	3235.95
2971.45984	3229.95
2973.90632	3224.75
2976.35131	3210.75
2978.7948	3204.75
2981.23681	3199.65
2983.67732	3203.15
2986.11635	3185.25
2988.55388	3169.25
2990.98993	3157.55
2993.4245	3181.25
2995.85758	3156.05
2998.28917	3147.25
3000.71928	3141.15
3003.14791	3128.15
3005.57506	3133.75
3008.00073	3107.55
3010.42493	3090.15
3012.84764	3089.45
3015.26888	3096.35
3017.68865	3092.85
3020.10694	3091.45
3022.52376	3068.65
3024.9391	3058.25
3027.35298	3045.25
3029.76539	3034.55
3032.17632	3041.35
3034.5858	3027.05
3036.9938	3020.65
3039.40034	3007.25
3041.80542	2997.35
3044.20903	2993.25
3046.61118	2996.05
3049.01187	2980.45
3051.4111	2988.15
3053.80888	2975.15
3056.20519	2965.95
3058.60005	2948.25
3060.99345	2961.05
3063.3854	2931.85
3065.7759	2928.15
3068.16494	2927.75
3070.55254	2923.25
3072.93868	2909.55
3075.32338	2904.75
3077.70662	2885.65
3080.08842	2880.15
3082.46878	2875.85
3084.84769	2869.25
3087.22515	2868.05
3089.60118	2857.25
3091.97576	2865.85
3094.3489	2863.85
3096.72061	2860.25
3099.09087	2839.95
3101.4597	2844.25
3103.82709	2857.65
3106.19305	2848.25
3108.55757	2837.05
3110.92066	2833.15
3113.28232	2825.95
3115.64255	2807.45
3118.00134	2811.75
3120.35871	2798.85
3122.71466	2802.25
3125.06917	2788.75
3127.42226	2777.85
3129.77393	2783.95
3132.12417	2764.75
3134.47299	2761.95
3136.82039	2756.35
3139.16636	2759.95
3141.51092	2766.35
3143.85406	2750.45
3146.19579	2759.25
3148.53609	2751.95
3150.87499	2749.15
3153.21246	2750.85
3155.54853	2752.85
3157.88318	2752.55
3160.21642	2746.75
3162.54826	2741.15
3164.87868	2734.85
3167.2077	2729.55
3169.5353	2733.15
3171.86151	2715.75
3174.18631	2719.05
3176.5097	2706.25
3178.83169	2696.95
3181.15228	2697.25
3183.47147	2696.15
3185.78926	2677.95
3188.10565	2665.35
3190.42065	2659.85
3192.73424	2658.95
3195.04645	2658.45
3197.35725	2651.75
3199.66667	2650.05
3201.97469	2652.15
3204.28132	2654.65
3206.58656	2653.75
3208.8904	2649.55
3211.19287	2640.75
3213.49394	2646.55
3215.79363	2644.05
3218.09193	2640.95
3220.38884	2638.75
3222.68438	2644.95
3224.97853	2625.45
3227.2713	2634.45
3229.56269	2625.75
3231.8527	2616.05
3234.14133	2615.85
3236.42858	2612.95
3238.71446	2595.45
3240.99896	2590.85
3243.28209	2593.25
3245.56384	2583.05
3247.84423	2571.55
3250.12324	2560.25
3252.40088	2564.75
3254.67715	2564.85
3256.95205	2553.35
3259.22558	2550.65
3261.49775	2556.45
3263.76855	2545.25
3266.03799	2547.25
3268.30606	2549.55
3270.57277	2547.95
3272.83812	2534.45
3275.10211	2517.85
3277.36474	2512.65
3279.62601	2523.95
3281.88593	2507.85
3284.14448	2500.95
3286.40168	2509.45
3288.65753	2506.65
3290.91202	2500.25
3293.16516	2493.85
3295.41695	2486.35
3297.66738	2482.55
3299.91647	2470.45
3302.16421	2454.25
3304.4106	2431.95
3306.65564	2424.55
3308.89933	2398.15
3311.14169	2378.55
3313.38269	2354.75
3315.62236	2344.85
3317.86068	2324.75
3320.09766	2307.95
3322.3333	2295.75
3324.5676	2266.85
3326.80056	2238.05
3329.03219	2219.75
3331.26248	0.15
3333.49143	-0.35
3335.71905	-0.45
