Data from AgNPs_UA_10uM_CRN_500uM_SU_RamanShift__84__13-19-20-270.txt Node

Date: Thu Aug 04 13:19:20 BST 2022
User: TCL
Spectrometer: QEP01345
Trigger mode: 4
Integration Time (sec): 1.000000E0
Scans to average: 10
Electric dark correction enabled: true
Nonlinearity correction enabled: false
Boxcar width: 0
XAxis mode: Raman Shifts
Number of Pixels in Spectrum: 1044
>>>>>Begin Spectral Data<<<<<
46.04893	-0.55
50.45542	-1.35
54.85868	0.85
59.25871	-0.25
63.6555	21.65
68.04907	19.75
72.43941	21.75
76.82654	23.35
81.21044	21.55
85.59113	25.55
89.96862	25.25
94.34289	23.85
98.71396	26.95
103.08183	29.15
107.4465	28.65
111.80798	27.15
116.16626	30.35
120.52136	31.05
124.87327	33.75
129.222	37.65
133.56755	38.25
137.90993	40.45
142.24913	46.15
146.58517	51.15
150.91804	60.95
155.24774	76.95
159.57429	94.15
163.89768	122.15
168.21792	164.95
172.53501	227.35
176.84895	320.95
181.15975	460.45
185.46741	647.35
189.77193	900.75
194.07331	1210.05
198.37157	1566.15
202.6667	1927.55
206.9587	2295.65
211.24758	2662.45
215.53334	3025.95
219.81599	3429.35
224.09553	3867.65
228.37195	4354.95
232.64527	4871.35
236.91549	5389.65
241.18261	5893.65
245.44663	6294.25
249.70755	6650.15
253.96539	6908.65
258.22014	7192.25
262.4718	7411.65
266.72039	7546.25
270.96589	7590.05
275.20832	7566.65
279.44768	7466.45
283.68397	7361.25
287.91719	7304.75
292.14735	7284.35
296.37445	7362.75
300.59849	7522.85
304.81948	7746.75
309.03742	7929.65
313.25231	8029.85
317.46415	7963.65
321.67296	7747.15
325.87872	7517.45
330.08145	7377.25
334.28114	7406.45
338.47781	7491.45
342.67145	7595.35
346.86207	7789.75
351.04966	8039.85
355.23424	8311.45
359.4158	8546.95
363.59435	8623.95
367.76989	8676.25
371.94243	8735.55
376.11196	8737.55
380.27849	8730.95
384.44203	8787.05
388.60257	8844.35
392.76012	8934.45
396.91468	9037.45
401.06626	9185.55
405.21485	9218.45
409.36047	9148.05
413.50311	8960.65
417.64277	8734.55
421.77947	8605.45
425.9132	8517.85
430.04396	8537.65
434.17176	8571.35
438.2966	8683.05
442.41849	8841.75
446.53742	9056.75
450.6534	9228.45
454.76644	9378.25
458.87653	9440.65
462.98368	9452.85
467.08789	9377.85
471.18916	9227.85
475.2875	9056.25
479.38291	8878.85
483.4754	8773.35
487.56496	8705.35
491.6516	8664.65
495.73531	8664.15
499.81612	8674.45
503.89401	8767.35
507.96899	8805.45
512.04106	8827.55
516.11023	8871.25
520.1765	8905.35
524.23987	8948.85
528.30034	8947.95
532.35792	8921.35
536.41261	8862.35
540.46441	8765.25
544.51333	8744.55
548.55936	8813.65
552.60252	8909.55
556.64279	9055.65
560.6802	9173.65
564.71473	9229.85
568.7464	9322.35
572.7752	9274.65
576.80114	9112.15
580.82422	8974.75
584.84444	8947.05
588.86181	9015.15
592.87633	9120.25
596.888	9288.05
600.89682	9661.45
604.9028	10607.95
608.90594	12491.15
612.90624	14187.35
616.90371	13129.65
620.89834	10638.95
624.89015	9682.05
628.87913	9631.85
632.86528	9739.95
636.84862	9705.85
640.82913	9479.95
644.80683	9165.95
648.78172	8981.35
652.75379	9020.65
656.72306	9250.05
660.68952	9522.55
664.65319	9481.15
668.61405	9407.95
672.57211	9481.55
676.52738	9476.95
680.47986	9294.45
684.42955	9090.05
688.37646	9083.05
692.32058	9165.95
696.26192	9331.85
700.20048	9491.45
704.13626	9533.35
708.06928	9404.45
711.99952	9290.55
715.927	9288.45
719.85171	9359.15
723.77365	9354.95
727.69284	9295.95
731.60928	9196.45
735.52295	9198.75
739.43388	9243.25
743.34206	9313.35
747.24749	9323.55
751.15017	9335.75
755.05012	9406.75
758.94733	9662.35
762.8418	10333.35
766.73354	11334.85
770.62254	12142.25
774.50882	12355.35
778.39237	12011.95
782.27321	11328.15
786.15132	10526.95
790.02671	9943.35
793.89938	9651.85
797.76935	9493.35
801.6366	9413.85
805.50115	9342.05
809.36299	9313.35
813.22213	9303.05
817.07857	9292.45
820.93231	9269.85
824.78336	9306.75
828.63172	9296.85
832.47738	9309.15
836.32036	9315.15
840.16066	9340.05
843.99827	9334.85
847.8332	9329.55
851.66546	9344.65
855.49504	9325.05
859.32195	9375.75
863.1462	9344.75
866.96777	9329.85
870.78668	9339.25
874.60293	9354.95
878.41652	9415.35
882.22745	9469.55
886.03573	9524.95
889.84136	9527.25
893.64433	9492.35
897.44466	9449.15
901.24235	9424.35
905.0374	9421.05
908.8298	9403.35
912.61957	9374.95
916.40671	9408.05
920.19121	9440.35
923.97308	9481.65
927.75233	9598.85
931.52895	9674.15
935.30295	9620.25
939.07433	9453.15
942.84309	9379.65
946.60924	9340.85
950.37278	9340.45
954.13371	9314.55
957.89203	9303.55
961.64774	9278.25
965.40086	9286.65
969.15137	9258.25
972.89929	9253.45
976.64461	9258.35
980.38733	9305.45
984.12747	9313.15
987.86502	9362.35
991.59999	9440.25
995.33237	9536.95
999.06217	9714.55
1002.78939	9918.45
1006.51404	10066.55
1010.23611	10167.95
1013.95561	10268.05
1017.67255	10332.65
1021.38692	10351.95
1025.09872	10343.15
1028.80796	10354.35
1032.51465	10484.25
1036.21877	10552.85
1039.92035	10539.95
1043.61937	10489.35
1047.31584	10364.45
1051.00976	10277.55
1054.70114	10249.55
1058.38998	10276.05
1062.07627	10311.25
1065.76003	10356.55
1069.44126	10441.75
1073.11995	10603.25
1076.79611	10794.95
1080.46974	10908.45
1084.14085	10996.35
1087.80943	11044.35
1091.47549	11073.75
1095.13903	11051.15
1098.80005	11078.25
1102.45857	11135.95
1106.11456	11128.75
1109.76805	10990.85
1113.41903	10974.75
1117.06751	11057.35
1120.71348	11205.85
1124.35696	11345.35
1127.99793	11443.55
1131.63641	11286.55
1135.2724	11050.05
1138.90589	10853.85
1142.5369	10706.25
1146.16542	10595.55
1149.79145	10500.35
1153.415	10448.05
1157.03607	10416.55
1160.65467	10510.45
1164.27079	10728.05
1167.88443	11065.45
1171.49561	11559.15
1175.10432	12272.25
1178.71056	13133.95
1182.31434	13942.45
1185.91565	14379.55
1189.51451	14407.75
1193.11091	14208.35
1196.70485	13847.95
1200.29634	13465.85
1203.88538	13033.15
1207.47197	12564.65
1211.05612	12141.85
1214.63782	11787.25
1218.21708	11571.75
1221.79391	11492.95
1225.36829	11471.55
1228.94024	11451.45
1232.50976	11389.55
1236.07685	11361.95
1239.6415	11374.95
1243.20374	11406.25
1246.76355	11499.75
1250.32093	11611.35
1253.8759	11786.35
1257.42845	12100.05
1260.97859	12390.15
1264.52631	12728.85
1268.07163	12935.25
1271.61453	13098.35
1275.15503	13212.85
1278.69312	13298.95
1282.22882	13420.85
1285.76211	13497.55
1289.29301	13633.65
1292.82151	13841.35
1296.34761	14083.05
1299.87133	14551.15
1303.39266	15231.15
1306.9116	16329.55
1310.42815	17479.15
1313.94233	18021.05
1317.45412	17643.75
1320.96354	16839.95
1324.47058	15970.65
1327.97525	15225.05
1331.47754	14759.65
1334.97747	14681.45
1338.47502	14824.75
1341.97022	15275.65
1345.46305	15991.75
1348.95352	16935.55
1352.44163	17942.55
1355.92738	18931.25
1359.41078	20059.05
1362.89183	20736.25
1366.37053	19711.65
1369.84688	17400.75
1373.32088	15280.65
1376.79254	14046.75
1380.26186	13447.45
1383.72883	13118.25
1387.19347	12802.95
1390.65578	12449.15
1394.11575	12145.45
1397.57339	11929.15
1401.0287	11865.25
1404.48168	11898.45
1407.93234	11991.95
1411.38068	12190.75
1414.82669	12377.25
1418.27039	12377.25
1421.71177	12341.65
1425.15083	12222.45
1428.58758	12208.85
1432.02203	12258.85
1435.45416	12365.85
1438.88399	12355.75
1442.31151	12302.95
1445.73673	12300.75
1449.15965	12279.55
1452.58027	12218.85
1455.9986	12169.85
1459.41463	12141.85
1462.82837	12263.25
1466.23982	12432.45
1469.64898	12631.45
1473.05586	12778.45
1476.46045	12959.15
1479.86276	13078.55
1483.26279	13210.65
1486.66054	13393.05
1490.05602	13733.55
1493.44922	14223.25
1496.84016	14936.85
1500.22882	15888.85
1503.61521	17065.45
1506.99934	18187.05
1510.38121	18757.25
1513.76081	18440.15
1517.13816	17311.55
1520.51324	15886.95
1523.88607	14714.75
1527.25665	14009.25
1530.62498	13661.15
1533.99105	13475.85
1537.35488	13421.95
1540.71647	13308.85
1544.07581	13201.85
1547.4329	13095.05
1550.78776	12944.15
1554.14038	12824.35
1557.49077	12745.45
1560.83892	12840.85
1564.18484	13024.95
1567.52853	13252.05
1570.86999	13360.45
1574.20922	13396.05
1577.54624	13257.95
1580.88103	12843.45
1584.2136	12406.25
1587.54395	12214.45
1590.87208	12382.55
1594.19801	12915.15
1597.52172	13566.15
1600.84321	13832.75
1604.16251	13764.15
1607.47959	13449.25
1610.79447	12953.15
1614.10715	12311.95
1617.41763	11668.45
1620.7259	11217.75
1624.03199	10989.45
1627.33587	10934.05
1630.63757	11099.05
1633.93707	11533.65
1637.23439	12255.05
1640.52951	13235.95
1643.82246	14425.45
1647.11321	15445.55
1650.40179	15679.45
1653.68819	14808.45
1656.97241	13205.95
1660.25446	11783.75
1663.53433	10806.85
1666.81203	10207.85
1670.08756	9863.85
1673.36092	9666.55
1676.63211	9515.55
1679.90115	9379.45
1683.16801	9302.05
1686.43272	9233.65
1689.69527	9168.15
1692.95567	9113.55
1696.2139	9097.15
1699.46999	9081.95
1702.72392	9055.15
1705.97571	9043.25
1709.22535	9050.25
1712.47284	9028.75
1715.71819	9059.05
1718.96139	9065.25
1722.20246	9039.85
1725.44139	9024.65
1728.67818	8960.65
1731.91284	8897.45
1735.14537	8864.55
1738.37576	8830.25
1741.60403	8815.75
1744.83017	8780.55
1748.05418	8794.15
1751.27607	8754.45
1754.49584	8744.25
1757.71349	8736.65
1760.92903	8738.45
1764.14244	8718.25
1767.35375	8678.35
1770.56294	8674.75
1773.77002	8645.45
1776.97499	8644.05
1780.17785	8597.45
1783.37861	8567.05
1786.57727	8577.35
1789.77382	8582.05
1792.96828	8571.25
1796.16064	8552.65
1799.3509	8537.55
1802.53907	8515.95
1805.72514	8504.05
1808.90913	8493.05
1812.09102	8481.35
1815.27083	8449.45
1818.44856	8427.35
1821.6242	8386.25
1824.79776	8384.55
1827.96924	8378.35
1831.13864	8370.75
1834.30597	8372.05
1837.47122	8334.15
1840.6344	8321.25
1843.7955	8326.75
1846.95454	8316.65
1850.11151	8346.65
1853.26642	8307.65
1856.41926	8304.55
1859.57004	8314.65
1862.71876	8312.45
1865.86542	8299.05
1869.01003	8286.85
1872.15258	8290.55
1875.29308	8267.35
1878.43152	8261.05
1881.56792	8253.05
1884.70227	8258.95
1887.83457	8214.55
1890.96482	8192.05
1894.09304	8183.25
1897.21921	8159.45
1900.34335	8165.35
1903.46544	8145.35
1906.58551	8145.05
1909.70353	8153.35
1912.81953	8140.55
1915.93349	8142.25
1919.04543	8114.05
1922.15534	8089.95
1925.26322	8099.05
1928.36908	8062.55
1931.47292	8049.15
1934.57473	8032.95
1937.67453	8032.25
1940.77232	8024.55
1943.86808	7989.45
1946.96184	7939.85
1950.05358	7922.45
1953.14331	7921.75
1956.23103	7905.85
1959.31675	7869.45
1962.40046	7847.75
1965.48217	7807.85
1968.56188	7784.75
1971.63959	7770.85
1974.7153	7774.05
1977.78901	7768.25
1980.86073	7725.05
1983.93046	7705.05
1986.99819	7648.65
1990.06394	7641.45
1993.1277	7609.35
1996.18947	7585.35
1999.24925	7567.45
2002.30706	7526.55
2005.36288	7499.45
2008.41672	7505.65
2011.46859	7474.35
2014.51848	7459.25
2017.56639	7408.15
2020.61233	7395.85
2023.6563	7368.55
2026.6983	7365.55
2029.73833	7340.85
2032.7764	7313.55
2035.8125	7329.55
2038.84664	7298.55
2041.87881	7289.65
2044.90903	7263.25
2047.93729	7255.95
2050.96359	7245.25
2053.98794	7234.15
2057.01034	7236.05
2060.03078	7211.75
2063.04927	7207.55
2066.06582	7188.75
2069.08042	7195.65
2072.09307	7163.15
2075.10378	7167.45
2078.11255	7174.65
2081.11938	7150.05
2084.12426	7146.15
2087.12722	7133.15
2090.12824	7131.95
2093.12732	7155.25
2096.12447	7131.75
2099.11969	7155.85
2102.11299	7158.85
2105.10435	7164.45
2108.09379	7161.65
2111.08131	7156.35
2114.0669	7146.05
2117.05057	7159.35
2120.03233	7197.25
2123.01216	7184.25
2125.99008	7147.05
2128.96609	7191.15
2131.94018	7185.55
2134.91236	7206.35
2137.88263	7179.45
2140.851	7199.65
2143.81746	7182.45
2146.78201	7180.15
2149.74466	7174.05
2152.7054	7193.15
2155.66425	7173.45
2158.6212	7159.65
2161.57625	7161.45
2164.52941	7163.55
2167.48067	7164.25
2170.43004	7161.75
2173.37752	7139.45
2176.32311	7153.45
2179.26681	7154.05
2182.20863	7145.05
2185.14856	7167.85
2188.08661	7138.25
2191.02278	7166.75
2193.95707	7151.35
2196.88948	7139.25
2199.82001	7122.75
2202.74867	7124.85
2205.67545	7146.15
2208.60037	7107.95
2211.52341	7094.75
2214.44458	7096.55
2217.36388	7069.05
2220.28132	7077.85
2223.1969	7040.85
2226.11061	7000.75
2229.02246	7001.25
2231.93245	6995.45
2234.84058	6990.35
2237.74686	6960.55
2240.65128	6970.25
2243.55385	6935.25
2246.45456	6933.75
2249.35343	6914.45
2252.25044	6926.15
2255.14561	6915.85
2258.03893	6904.55
2260.93041	6893.05
2263.82004	6889.25
2266.70783	6853.85
2269.59378	6844.25
2272.4779	6813.35
2275.36017	6804.85
2278.24061	6788.65
2281.11922	6761.65
2283.996	6771.05
2286.87094	6755.85
2289.74405	6757.75
2292.61534	6740.75
2295.4848	6712.55
2298.35243	6716.35
2301.21824	6734.55
2304.08223	6693.85
2306.94439	6708.05
2309.80474	6700.25
2312.66327	6685.45
2315.51999	6687.25
2318.37489	6697.35
2321.22797	6684.85
2324.07925	6662.45
2326.92871	6654.45
2329.77637	6645.75
2332.62222	6643.15
2335.46626	6639.85
2338.3085	6615.85
2341.14893	6626.65
2343.98756	6621.35
2346.8244	6635.75
2349.65943	6605.55
2352.49267	6584.75
2355.32411	6588.25
2358.15376	6596.35
2360.98161	6582.55
2363.80768	6591.15
2366.63195	6591.35
2369.45444	6575.05
2372.27514	6569.35
2375.09405	6545.55
2377.91118	6528.85
2380.72652	6517.55
2383.54009	6514.75
2386.35187	6476.15
2389.16188	6481.15
2391.97011	6455.65
2394.77657	6443.35
2397.58125	6426.65
2400.38416	6440.55
2403.18529	6425.25
2405.98466	6413.15
2408.78226	6384.15
2411.57809	6395.75
2414.37216	6354.75
2417.16446	6355.95
2419.955	6361.95
2422.74378	6348.45
2425.5308	6358.95
2428.31606	6333.15
2431.09956	6326.35
2433.88131	6321.45
2436.6613	6309.35
2439.43954	6311.15
2442.21603	6293.75
2444.99077	6307.15
2447.76377	6292.35
2450.53501	6288.45
2453.30451	6292.55
2456.07226	6265.05
2458.83827	6274.65
2461.60254	6248.75
2464.36507	6243.55
2467.12586	6238.05
2469.88492	6236.15
2472.64224	6242.25
2475.39782	6247.95
2478.15167	6216.05
2480.90379	6239.45
2483.65417	6220.55
2486.40283	6209.75
2489.14976	6227.95
2491.89497	6229.95
2494.63845	6211.95
2497.3802	6210.35
2500.12024	6207.85
2502.85855	6192.15
2505.59514	6186.85
2508.33002	6167.75
2511.06318	6155.65
2513.79462	6152.45
2516.52435	6163.65
2519.25237	6125.55
2521.97867	6114.25
2524.70327	6120.25
2527.42616	6110.75
2530.14734	6099.55
2532.86681	6083.25
2535.58458	6092.15
2538.30065	6098.75
2541.01501	6084.15
2543.72768	6074.65
2546.43864	6078.15
2549.14791	6053.35
2551.85548	6062.05
2554.56136	6051.75
2557.26554	6015.25
2559.96803	6032.15
2562.66883	6004.55
2565.36794	6001.05
2568.06536	5964.95
2570.7611	5966.95
2573.45514	5941.45
2576.14751	5940.75
2578.83819	5930.75
2581.52719	5935.65
2584.21451	5936.05
2586.90015	5908.95
2589.58411	5920.35
2592.2664	5910.05
2594.94701	5899.85
2597.62594	5897.95
2600.30321	5882.05
2602.9788	5879.85
2605.65273	5863.55
2608.32498	5855.55
2610.99557	5845.95
2613.66449	5841.55
2616.33175	5857.85
2618.99734	5853.45
2621.66128	5830.45
2624.32355	5819.95
2626.98416	5818.25
2629.64311	5813.85
2632.30041	5801.85
2634.95605	5796.15
2637.61004	5804.35
2640.26238	5783.95
2642.91306	5766.35
2645.56209	5762.45
2648.20948	5757.95
2650.85521	5753.45
2653.4993	5756.25
2656.14175	5746.75
2658.78255	5744.55
2661.42171	5735.95
2664.05923	5750.55
2666.6951	5754.05
2669.32934	5770.15
2671.96194	5750.15
2674.59291	5764.15
2677.22224	5764.05
2679.84993	5755.35
2682.476	5741.45
2685.10043	5732.05
2687.72324	5751.85
2690.34441	5741.65
2692.96396	5734.55
2695.58188	5717.25
2698.19818	5722.75
2700.81285	5714.45
2703.4259	5690.75
2706.03733	5698.75
2708.64714	5689.75
2711.25533	5689.75
2713.86191	5688.95
2716.46687	5702.65
2719.07021	5694.85
2721.67194	5702.05
2724.27206	5696.15
2726.87057	5696.65
2729.46747	5711.85
2732.06276	5700.45
2734.65644	5686.35
2737.24852	5672.85
2739.83899	5670.75
2742.42786	5656.85
2745.01513	5651.55
2747.60079	5640.55
2750.18486	5630.55
2752.76733	5630.55
2755.3482	5612.75
2757.92747	5604.95
2760.50515	5611.45
2763.08123	5591.55
2765.65573	5588.25
2768.22863	5574.15
2770.79994	5564.35
2773.36967	5552.65
2775.9378	5560.95
2778.50435	5546.35
2781.06932	5554.35
2783.6327	5555.45
2786.1945	5556.95
2788.75471	5546.65
2791.31335	5492.55
2793.87041	5517.55
2796.42589	5483.95
2798.97979	5469.45
2801.53212	5458.85
2804.08288	5461.75
2806.63206	5442.45
2809.17967	5439.65
2811.72571	5427.75
2814.27018	5430.15
2816.81308	5413.55
2819.35442	5381.85
2821.89419	5397.85
2824.43239	5386.55
2826.96904	5354.75
2829.50412	5362.25
2832.03763	5356.25
2834.56959	5363.55
2837.1	5318.85
2839.62884	5312.55
2842.15613	5309.35
2844.68186	5316.75
2847.20604	5327.05
2849.72867	5301.45
2852.24974	5294.05
2854.76927	5269.05
2857.28724	5258.65
2859.80367	5264.85
2862.31855	5248.65
2864.83189	5246.65
2867.34368	5247.05
2869.85393	5233.75
2872.36264	5233.25
2874.8698	5225.75
2877.37543	5228.95
2879.87952	5214.85
2882.38207	5219.05
2884.88308	5207.15
2887.38256	5220.15
2889.88051	5190.75
2892.37692	5190.15
2894.8718	5205.75
2897.36515	5191.55
2899.85698	5179.65
2902.34727	5192.35
2904.83604	5200.95
2907.32328	5213.25
2909.809	5224.35
2912.29319	5200.75
2914.77587	5224.55
2917.25702	5208.45
2919.73665	5211.85
2922.21476	5221.25
2924.69136	5203.55
2927.16644	5200.25
2929.64	5169.85
2932.11205	5166.75
2934.58258	5136.35
2937.05161	5144.45
2939.51912	5148.05
2941.98513	5148.65
2944.44962	5135.75
2946.91261	5141.85
2949.37409	5128.65
2951.83407	5125.95
2954.29254	5115.85
2956.74951	5115.15
2959.20498	5118.75
2961.65895	5097.95
2964.11142	5104.55
2966.56239	5104.05
2969.01186	5083.35
2971.45984	5088.85
2973.90632	5068.25
2976.35131	5057.85
2978.7948	5073.15
2981.23681	5057.75
2983.67732	5059.65
2986.11635	5049.35
2988.55388	5014.65
2990.98993	4987.15
2993.4245	4994.65
2995.85758	4985.75
2998.28917	4959.65
3000.71928	4957.25
3003.14791	4947.15
3005.57506	4927.15
3008.00073	4912.35
3010.42493	4903.95
3012.84764	4906.65
3015.26888	4901.65
3017.68865	4890.05
3020.10694	4887.95
3022.52376	4850.65
3024.9391	4847.25
3027.35298	4824.95
3029.76539	4819.05
3032.17632	4803.85
3034.5858	4805.45
3036.9938	4804.15
3039.40034	4788.35
3041.80542	4786.15
3044.20903	4749.45
3046.61118	4766.15
3049.01187	4740.95
3051.4111	4734.65
3053.80888	4725.65
3056.20519	4702.35
3058.60005	4699.05
3060.99345	4697.85
3063.3854	4688.75
3065.7759	4681.25
3068.16494	4663.45
3070.55254	4632.25
3072.93868	4618.25
3075.32338	4614.65
3077.70662	4602.05
3080.08842	4580.95
3082.46878	4588.55
3084.84769	4570.55
3087.22515	4566.85
3089.60118	4565.35
3091.97576	4567.95
3094.3489	4544.25
3096.72061	4543.85
3099.09087	4545.45
3101.4597	4538.15
3103.82709	4554.05
3106.19305	4547.25
3108.55757	4526.45
3110.92066	4522.35
3113.28232	4522.15
3115.64255	4495.45
3118.00134	4499.65
3120.35871	4500.05
3122.71466	4477.65
3125.06917	4468.25
3127.42226	4454.45
3129.77393	4442.95
3132.12417	4441.75
3134.47299	4449.35
3136.82039	4409.85
3139.16636	4430.45
3141.51092	4422.55
3143.85406	4413.95
3146.19579	4401.55
3148.53609	4409.05
3150.87499	4416.05
3153.21246	4413.75
3155.54853	4399.95
3157.88318	4388.15
3160.21642	4403.15
3162.54826	4396.15
3164.87868	4391.45
3167.2077	4383.45
3169.5353	4359.95
3171.86151	4367.95
3174.18631	4361.25
3176.5097	4344.05
3178.83169	4326.65
3181.15228	4330.95
3183.47147	4315.75
3185.78926	4311.75
3188.10565	4291.95
3190.42065	4273.45
3192.73424	4296.15
3195.04645	4276.65
3197.35725	4284.25
3199.66667	4274.55
3201.97469	4272.85
3204.28132	4271.05
3206.58656	4277.75
3208.8904	4272.05
3211.19287	4270.55
3213.49394	4275.55
3215.79363	4270.75
3218.09193	4280.05
3220.38884	4254.75
3222.68438	4259.05
3224.97853	4256.15
3227.2713	4247.45
3229.56269	4250.35
3231.8527	4248.05
3234.14133	4224.05
3236.42858	4215.25
3238.71446	4207.15
3240.99896	4190.85
3243.28209	4193.75
3245.56384	4195.15
3247.84423	4179.75
3250.12324	4157.25
3252.40088	4149.95
3254.67715	4137.95
3256.95205	4143.85
3259.22558	4146.15
3261.49775	4152.45
3263.76855	4142.65
3266.03799	4150.25
3268.30606	4150.45
3270.57277	4140.75
3272.83812	4115.25
3275.10211	4116.05
3277.36474	4090.35
3279.62601	4111.45
3281.88593	4088.05
3284.14448	4080.35
3286.40168	4067.75
3288.65753	4071.15
3290.91202	4071.45
3293.16516	4051.35
3295.41695	4060.85
3297.66738	4041.45
3299.91647	4038.25
3302.16421	3989.95
3304.4106	3974.05
3306.65564	3942.25
3308.89933	3914.75
3311.14169	3877.15
3313.38269	3847.95
3315.62236	3821.45
3317.86068	3791.45
3320.09766	3776.45
3322.3333	3746.45
3324.5676	3716.85
3326.80056	3670.15
3329.03219	3630.65
3331.26248	2.15
3333.49143	-0.45
3335.71905	0.45
