Data from AgNPs_UA_5uM_CRN_500uM_SU_RamanShift__197__12-02-13-178.txt Node

Date: Thu Aug 04 12:02:13 BST 2022
User: TCL
Spectrometer: QEP01345
Trigger mode: 4
Integration Time (sec): 1.000000E0
Scans to average: 10
Electric dark correction enabled: true
Nonlinearity correction enabled: false
Boxcar width: 0
XAxis mode: Raman Shifts
Number of Pixels in Spectrum: 1044
>>>>>Begin Spectral Data<<<<<
46.04893	-0.35
50.45542	-0.85
54.85868	0.45
59.25871	-1.35
63.6555	-58.45
68.04907	-38.25
72.43941	-71.75
76.82654	-56.35
81.21044	-55.05
85.59113	-49.45
89.96862	-74.75
94.34289	-54.05
98.71396	-78.25
103.08183	-59.45
107.4465	-48.55
111.80798	-56.95
116.16626	-43.35
120.52136	-75.25
124.87327	-49.85
129.222	-63.45
133.56755	-49.15
137.90993	-61.85
142.24913	-50.25
146.58517	-43.85
150.91804	-39.95
155.24774	-29.25
159.57429	-11.65
163.89768	-3.25
168.21792	35.85
172.53501	61.45
176.84895	138.75
181.15975	268.45
185.46741	420.95
189.77193	602.05
194.07331	889.25
198.37157	1171.35
202.6667	1451.35
206.9587	1776.65
211.24758	2088.45
215.53334	2409.25
219.81599	2753.05
224.09553	3166.05
228.37195	3606.55
232.64527	4065.75
236.91549	4508.25
241.18261	4872.95
245.44663	5159.95
249.70755	5333.95
253.96539	5451.45
258.22014	5569.25
262.4718	5642.45
266.72039	5678.55
270.96589	5646.05
275.20832	5553.25
279.44768	5446.45
283.68397	5324.05
287.91719	5269.85
292.14735	5313.95
296.37445	5471.05
300.59849	5760.65
304.81948	6088.75
309.03742	6484.75
313.25231	6691.25
317.46415	6648.75
321.67296	6245.45
325.87872	5872.75
330.08145	5667.95
334.28114	5610.55
338.47781	5698.75
342.67145	5826.15
346.86207	6068.15
351.04966	6428.25
355.23424	6833.95
359.4158	7068.25
363.59435	7117.55
367.76989	7051.05
371.94243	6921.15
376.11196	6820.55
380.27849	6729.85
384.44203	6637.95
388.60257	6619.45
392.76012	6627.65
396.91468	6753.15
401.06626	6901.35
405.21485	6935.75
409.36047	6776.65
413.50311	6441.95
417.64277	6153.85
421.77947	5944.95
425.9132	5880.85
430.04396	5852.55
434.17176	5911.15
438.2966	6010.55
442.41849	6101.05
446.53742	6205.65
450.6534	6315.65
454.76644	6385.15
458.87653	6398.75
462.98368	6347.05
467.08789	6291.85
471.18916	6206.75
475.2875	6085.35
479.38291	5981.75
483.4754	5883.35
487.56496	5848.95
491.6516	5826.15
495.73531	5828.75
499.81612	5822.75
503.89401	5913.35
507.96899	5971.95
512.04106	6064.35
516.11023	6173.35
520.1765	6266.35
524.23987	6297.35
528.30034	6283.35
532.35792	6199.25
536.41261	6135.75
540.46441	6048.65
544.51333	5993.15
548.55936	6052.75
552.60252	6172.05
556.64279	6283.25
560.6802	6391.25
564.71473	6535.95
568.7464	6742.05
572.7752	6709.65
576.80114	6394.55
580.82422	6157.85
584.84444	6055.25
588.86181	6044.45
592.87633	6067.55
596.888	6181.05
600.89682	6552.95
604.9028	7535.45
608.90594	9592.05
612.90624	11943.25
616.90371	11087.35
620.89834	8016.45
624.89015	6707.05
628.87913	6493.15
632.86528	6653.75
636.84862	6825.75
640.82913	6684.85
644.80683	6343.85
648.78172	6169.45
652.75379	6163.05
656.72306	6405.85
660.68952	6657.45
664.65319	6560.25
668.61405	6322.55
672.57211	6272.35
676.52738	6247.95
680.47986	6157.35
684.42955	6061.75
688.37646	6022.25
692.32058	6036.95
696.26192	6101.55
700.20048	6206.95
704.13626	6225.25
708.06928	6202.35
711.99952	6164.65
715.927	6132.15
719.85171	6170.05
723.77365	6237.55
727.69284	6195.75
731.60928	6184.25
735.52295	6156.85
739.43388	6190.45
743.34206	6208.35
747.24749	6243.65
751.15017	6253.15
755.05012	6319.15
758.94733	6688.45
762.8418	7538.75
766.73354	8864.75
770.62254	9868.65
774.50882	9940.05
778.39237	9426.15
782.27321	8513.85
786.15132	7474.55
790.02671	6782.25
793.89938	6421.15
797.76935	6271.95
801.6366	6198.15
805.50115	6178.95
809.36299	6145.15
813.22213	6136.35
817.07857	6150.05
820.93231	6150.95
824.78336	6180.85
828.63172	6192.75
832.47738	6186.85
836.32036	6205.15
840.16066	6152.15
843.99827	6130.95
847.8332	6152.45
851.66546	6156.95
855.49504	6165.45
859.32195	6195.75
863.1462	6176.95
866.96777	6190.15
870.78668	6164.05
874.60293	6169.75
878.41652	6207.85
882.22745	6290.15
886.03573	6325.05
889.84136	6305.95
893.64433	6306.95
897.44466	6287.75
901.24235	6294.25
905.0374	6291.75
908.8298	6235.15
912.61957	6199.35
916.40671	6133.05
920.19121	6190.35
923.97308	6284.85
927.75233	6346.65
931.52895	6414.45
935.30295	6383.15
939.07433	6237.45
942.84309	6133.05
946.60924	6091.05
950.37278	6055.75
954.13371	6066.05
957.89203	6061.25
961.64774	6068.95
965.40086	6047.65
969.15137	6030.35
972.89929	6058.55
976.64461	6035.75
980.38733	6062.65
984.12747	6074.05
987.86502	6091.05
991.59999	6087.85
995.33237	6196.35
999.06217	6246.45
1002.78939	6323.45
1006.51404	6454.25
1010.23611	6547.85
1013.95561	6603.55
1017.67255	6606.25
1021.38692	6604.95
1025.09872	6514.95
1028.80796	6451.35
1032.51465	6452.25
1036.21877	6443.65
1039.92035	6473.15
1043.61937	6517.35
1047.31584	6549.55
1051.00976	6611.95
1054.70114	6599.45
1058.38998	6617.75
1062.07627	6617.45
1065.76003	6633.05
1069.44126	6705.35
1073.11995	6794.75
1076.79611	6938.75
1080.46974	7076.25
1084.14085	7243.85
1087.80943	7359.45
1091.47549	7411.35
1095.13903	7316.15
1098.80005	7196.95
1102.45857	7107.65
1106.11456	7063.15
1109.76805	7025.45
1113.41903	7132.65
1117.06751	7305.15
1120.71348	7568.95
1124.35696	7926.45
1127.99793	8217.55
1131.63641	8058.95
1135.2724	7650.35
1138.90589	7363.15
1142.5369	7167.35
1146.16542	7062.15
1149.79145	6944.45
1153.415	6893.35
1157.03607	6890.25
1160.65467	6981.65
1164.27079	7192.85
1167.88443	7445.95
1171.49561	7861.55
1175.10432	8443.05
1178.71056	9354.65
1182.31434	10149.65
1185.91565	10395.25
1189.51451	10254.95
1193.11091	9988.35
1196.70485	9734.95
1200.29634	9519.85
1203.88538	9235.15
1207.47197	8795.05
1211.05612	8318.35
1214.63782	7921.05
1218.21708	7683.75
1221.79391	7570.35
1225.36829	7453.75
1228.94024	7450.75
1232.50976	7466.45
1236.07685	7524.65
1239.6415	7508.95
1243.20374	7535.05
1246.76355	7579.95
1250.32093	7654.65
1253.8759	7725.15
1257.42845	7882.85
1260.97859	8104.75
1264.52631	8326.25
1268.07163	8478.35
1271.61453	8612.25
1275.15503	8660.95
1278.69312	8658.05
1282.22882	8723.35
1285.76211	8942.45
1289.29301	9163.15
1292.82151	9441.15
1296.34761	9674.25
1299.87133	10050.15
1303.39266	10746.55
1306.9116	11895.95
1310.42815	13116.95
1313.94233	13543.65
1317.45412	12780.25
1320.96354	11613.65
1324.47058	10641.45
1327.97525	9879.65
1331.47754	9450.55
1334.97747	9368.75
1338.47502	9481.65
1341.97022	9867.45
1345.46305	10594.35
1348.95352	11655.05
1352.44163	12924.65
1355.92738	14231.65
1359.41078	15899.95
1362.89183	17401.55
1366.37053	16786.75
1369.84688	13944.25
1373.32088	11264.95
1376.79254	9897.15
1380.26186	9248.05
1383.72883	8844.25
1387.19347	8439.55
1390.65578	8089.85
1394.11575	7851.35
1397.57339	7683.35
1401.0287	7599.35
1404.48168	7544.15
1407.93234	7564.95
1411.38068	7582.95
1414.82669	7654.85
1418.27039	7737.45
1421.71177	7734.75
1425.15083	7626.35
1428.58758	7561.85
1432.02203	7590.85
1435.45416	7685.95
1438.88399	7686.05
1442.31151	7668.55
1445.73673	7724.65
1449.15965	7773.55
1452.58027	7788.05
1455.9986	7776.45
1459.41463	7797.65
1462.82837	7904.55
1466.23982	8055.15
1469.64898	8293.15
1473.05586	8430.85
1476.46045	8517.35
1479.86276	8596.85
1483.26279	8691.85
1486.66054	8900.95
1490.05602	9151.75
1493.44922	9715.55
1496.84016	10574.95
1500.22882	11921.95
1503.61521	13640.85
1506.99934	15429.55
1510.38121	16621.45
1513.76081	16492.05
1517.13816	14952.65
1520.51324	12815.55
1523.88607	11118.35
1527.25665	10123.95
1530.62498	9619.95
1533.99105	9397.75
1537.35488	9264.85
1540.71647	9196.35
1544.07581	9085.45
1547.4329	8962.45
1550.78776	8841.85
1554.14038	8754.05
1557.49077	8703.35
1560.83892	8809.95
1564.18484	9022.55
1567.52853	9369.95
1570.86999	9662.15
1574.20922	9834.15
1577.54624	9719.15
1580.88103	9185.05
1584.2136	8528.05
1587.54395	8168.95
1590.87208	8088.45
1594.19801	8259.15
1597.52172	8614.35
1600.84321	8752.05
1604.16251	8626.85
1607.47959	8444.85
1610.79447	8228.95
1614.10715	7957.55
1617.41763	7686.35
1620.7259	7384.25
1624.03199	7252.55
1627.33587	7163.95
1630.63757	7240.45
1633.93707	7462.55
1637.23439	7864.65
1640.52951	8543.95
1643.82246	9531.35
1647.11321	10681.85
1650.40179	11408.85
1653.68819	11070.85
1656.97241	9813.05
1660.25446	8422.15
1663.53433	7451.65
1666.81203	6864.95
1670.08756	6503.95
1673.36092	6331.55
1676.63211	6167.05
1679.90115	6110.75
1683.16801	6022.15
1686.43272	5921.85
1689.69527	5900.55
1692.95567	5838.75
1696.2139	5799.05
1699.46999	5752.85
1702.72392	5743.15
1705.97571	5773.65
1709.22535	5753.85
1712.47284	5774.75
1715.71819	5798.65
1718.96139	5783.05
1722.20246	5757.75
1725.44139	5725.05
1728.67818	5701.65
1731.91284	5664.45
1735.14537	5639.15
1738.37576	5607.75
1741.60403	5586.65
1744.83017	5548.15
1748.05418	5561.65
1751.27607	5560.85
1754.49584	5516.75
1757.71349	5477.05
1760.92903	5496.45
1764.14244	5450.95
1767.35375	5448.55
1770.56294	5428.55
1773.77002	5406.85
1776.97499	5431.05
1780.17785	5404.75
1783.37861	5391.15
1786.57727	5403.25
1789.77382	5335.35
1792.96828	5364.45
1796.16064	5377.05
1799.3509	5345.35
1802.53907	5369.65
1805.72514	5327.85
1808.90913	5315.75
1812.09102	5316.35
1815.27083	5297.25
1818.44856	5272.25
1821.6242	5275.25
1824.79776	5261.65
1827.96924	5241.65
1831.13864	5227.55
1834.30597	5242.45
1837.47122	5219.65
1840.6344	5208.05
1843.7955	5182.55
1846.95454	5194.15
1850.11151	5191.35
1853.26642	5169.55
1856.41926	5173.75
1859.57004	5162.65
1862.71876	5175.55
1865.86542	5181.15
1869.01003	5152.05
1872.15258	5135.85
1875.29308	5154.55
1878.43152	5143.25
1881.56792	5108.05
1884.70227	5105.85
1887.83457	5105.45
1890.96482	5080.55
1894.09304	5080.05
1897.21921	5081.85
1900.34335	5079.05
1903.46544	5063.85
1906.58551	5085.75
1909.70353	5063.25
1912.81953	5056.85
1915.93349	5043.45
1919.04543	5054.45
1922.15534	5020.05
1925.26322	5031.45
1928.36908	5011.25
1931.47292	5005.05
1934.57473	5001.05
1937.67453	4981.75
1940.77232	4949.15
1943.86808	4939.35
1946.96184	4935.85
1950.05358	4919.45
1953.14331	4882.35
1956.23103	4896.25
1959.31675	4854.95
1962.40046	4815.15
1965.48217	4842.35
1968.56188	4826.75
1971.63959	4813.95
1974.7153	4814.85
1977.78901	4804.05
1980.86073	4774.45
1983.93046	4744.45
1986.99819	4676.55
1990.06394	4689.65
1993.1277	4701.55
1996.18947	4687.85
1999.24925	4642.95
2002.30706	4658.45
2005.36288	4648.15
2008.41672	4628.05
2011.46859	4576.05
2014.51848	4581.55
2017.56639	4556.05
2020.61233	4548.35
2023.6563	4567.05
2026.6983	4494.65
2029.73833	4526.65
2032.7764	4505.45
2035.8125	4456.15
2038.84664	4469.25
2041.87881	4462.35
2044.90903	4465.35
2047.93729	4448.45
2050.96359	4422.25
2053.98794	4427.65
2057.01034	4448.75
2060.03078	4420.45
2063.04927	4401.05
2066.06582	4417.55
2069.08042	4402.45
2072.09307	4411.25
2075.10378	4382.05
2078.11255	4392.05
2081.11938	4375.75
2084.12426	4386.35
2087.12722	4383.35
2090.12824	4385.25
2093.12732	4373.45
2096.12447	4376.55
2099.11969	4375.55
2102.11299	4366.65
2105.10435	4391.35
2108.09379	4377.75
2111.08131	4366.05
2114.0669	4383.95
2117.05057	4368.35
2120.03233	4371.15
2123.01216	4396.75
2125.99008	4377.25
2128.96609	4386.05
2131.94018	4396.45
2134.91236	4391.85
2137.88263	4372.35
2140.851	4389.25
2143.81746	4409.85
2146.78201	4396.25
2149.74466	4378.35
2152.7054	4387.65
2155.66425	4372.25
2158.6212	4358.25
2161.57625	4345.85
2164.52941	4336.85
2167.48067	4340.85
2170.43004	4322.65
2173.37752	4360.75
2176.32311	4328.05
2179.26681	4368.95
2182.20863	4347.95
2185.14856	4356.35
2188.08661	4340.25
2191.02278	4352.55
2193.95707	4333.55
2196.88948	4303.95
2199.82001	4325.05
2202.74867	4321.35
2205.67545	4305.95
2208.60037	4321.45
2211.52341	4314.85
2214.44458	4286.05
2217.36388	4274.65
2220.28132	4269.15
2223.1969	4233.25
2226.11061	4238.35
2229.02246	4215.55
2231.93245	4221.25
2234.84058	4221.95
2237.74686	4202.25
2240.65128	4189.65
2243.55385	4197.35
2246.45456	4172.95
2249.35343	4195.35
2252.25044	4173.85
2255.14561	4159.45
2258.03893	4186.75
2260.93041	4165.65
2263.82004	4139.05
2266.70783	4160.65
2269.59378	4123.95
2272.4779	4109.85
2275.36017	4120.05
2278.24061	4105.05
2281.11922	4073.85
2283.996	4073.15
2286.87094	4065.85
2289.74405	4068.55
2292.61534	4066.75
2295.4848	4049.55
2298.35243	4057.65
2301.21824	4031.15
2304.08223	4029.85
2306.94439	4036.65
2309.80474	4026.45
2312.66327	4039.25
2315.51999	4014.65
2318.37489	4005.45
2321.22797	3978.15
2324.07925	3997.45
2326.92871	3979.05
2329.77637	3950.65
2332.62222	3945.45
2335.46626	3936.85
2338.3085	3921.85
2341.14893	3943.75
2343.98756	3956.95
2346.8244	3930.15
2349.65943	3916.95
2352.49267	3917.05
2355.32411	3930.55
2358.15376	3924.15
2360.98161	3928.95
2363.80768	3908.55
2366.63195	3926.65
2369.45444	3918.05
2372.27514	3924.95
2375.09405	3913.35
2377.91118	3884.65
2380.72652	3883.85
2383.54009	3887.15
2386.35187	3878.75
2389.16188	3846.75
2391.97011	3838.35
2394.77657	3823.05
2397.58125	3845.25
2400.38416	3818.15
2403.18529	3821.65
2405.98466	3792.25
2408.78226	3807.65
2411.57809	3783.65
2414.37216	3781.65
2417.16446	3772.75
2419.955	3762.55
2422.74378	3785.45
2425.5308	3752.45
2428.31606	3758.15
2431.09956	3762.05
2433.88131	3743.75
2436.6613	3750.15
2439.43954	3739.25
2442.21603	3721.55
2444.99077	3722.95
2447.76377	3733.45
2450.53501	3717.95
2453.30451	3714.95
2456.07226	3718.75
2458.83827	3705.35
2461.60254	3664.15
2464.36507	3693.15
2467.12586	3674.25
2469.88492	3683.45
2472.64224	3691.65
2475.39782	3665.15
2478.15167	3669.75
2480.90379	3669.55
2483.65417	3688.05
2486.40283	3692.05
2489.14976	3700.95
2491.89497	3678.15
2494.63845	3678.35
2497.3802	3673.55
2500.12024	3652.95
2502.85855	3644.35
2505.59514	3659.05
2508.33002	3644.15
2511.06318	3626.05
2513.79462	3612.95
2516.52435	3577.15
2519.25237	3565.25
2521.97867	3569.45
2524.70327	3588.65
2527.42616	3563.85
2530.14734	3582.05
2532.86681	3549.25
2535.58458	3559.25
2538.30065	3545.75
2541.01501	3566.35
2543.72768	3535.75
2546.43864	3548.35
2549.14791	3525.85
2551.85548	3502.15
2554.56136	3511.75
2557.26554	3518.15
2559.96803	3514.65
2562.66883	3504.15
2565.36794	3488.55
2568.06536	3462.05
2570.7611	3477.45
2573.45514	3474.55
2576.14751	3460.15
2578.83819	3446.75
2581.52719	3412.55
2584.21451	3428.85
2586.90015	3407.05
2589.58411	3396.45
2592.2664	3392.85
2594.94701	3408.65
2597.62594	3408.05
2600.30321	3330.75
2602.9788	3360.25
2605.65273	3360.55
2608.32498	3361.75
2610.99557	3377.75
2613.66449	3348.95
2616.33175	3341.35
2618.99734	3359.75
2621.66128	3344.45
2624.32355	3338.15
2626.98416	3319.75
2629.64311	3316.35
2632.30041	3298.95
2634.95605	3287.35
2637.61004	3271.75
2640.26238	3271.15
2642.91306	3263.85
2645.56209	3284.05
2648.20948	3284.35
2650.85521	3263.35
2653.4993	3279.25
2656.14175	3258.25
2658.78255	3268.85
2661.42171	3220.85
2664.05923	3282.65
2666.6951	3267.15
2669.32934	3272.65
2671.96194	3302.75
2674.59291	3278.35
2677.22224	3266.55
2679.84993	3281.45
2682.476	3264.35
2685.10043	3258.45
2687.72324	3239.55
2690.34441	3249.75
2692.96396	3232.25
2695.58188	3254.65
2698.19818	3243.65
2700.81285	3239.05
2703.4259	3226.05
2706.03733	3188.75
2708.64714	3212.75
2711.25533	3226.05
2713.86191	3236.35
2716.46687	3218.85
2719.07021	3221.65
2721.67194	3231.45
2724.27206	3241.65
2726.87057	3222.85
2729.46747	3216.55
2732.06276	3228.25
2734.65644	3200.75
2737.24852	3194.65
2739.83899	3187.75
2742.42786	3192.65
2745.01513	3205.85
2747.60079	3186.15
2750.18486	3159.55
2752.76733	3170.15
2755.3482	3166.45
2757.92747	3165.05
2760.50515	3141.85
2763.08123	3131.25
2765.65573	3129.15
2768.22863	3118.45
2770.79994	3114.65
2773.36967	3117.65
2775.9378	3093.45
2778.50435	3099.15
2781.06932	3098.95
2783.6327	3090.35
2786.1945	3109.15
2788.75471	3091.85
2791.31335	3085.25
2793.87041	3080.55
2796.42589	3056.95
2798.97979	3062.85
2801.53212	3056.75
2804.08288	3061.55
2806.63206	3054.45
2809.17967	3034.65
2811.72571	3037.55
2814.27018	3039.85
2816.81308	3014.45
2819.35442	2992.05
2821.89419	3016.45
2824.43239	2997.95
2826.96904	3030.15
2829.50412	2989.35
2832.03763	3000.55
2834.56959	2997.15
2837.1	2994.15
2839.62884	2984.15
2842.15613	2977.55
2844.68186	2994.45
2847.20604	2960.25
2849.72867	2961.55
2852.24974	2966.55
2854.76927	2932.05
2857.28724	2888.95
2859.80367	2962.35
2862.31855	2960.65
2864.83189	2931.25
2867.34368	2944.15
2869.85393	2938.25
2872.36264	2923.05
2874.8698	2926.55
2877.37543	2929.55
2879.87952	2922.25
2882.38207	2896.75
2884.88308	2917.45
2887.38256	2906.35
2889.88051	2908.05
2892.37692	2906.85
2894.8718	2887.15
2897.36515	2899.75
2899.85698	2905.55
2902.34727	2887.35
2904.83604	2899.35
2907.32328	2922.25
2909.809	2918.75
2912.29319	2909.45
2914.77587	2911.55
2917.25702	2923.15
2919.73665	2929.15
2922.21476	2927.15
2924.69136	2921.85
2927.16644	2911.65
2929.64	2905.05
2932.11205	2911.45
2934.58258	2884.65
2937.05161	2897.35
2939.51912	2888.75
2941.98513	2889.95
2944.44962	2883.25
2946.91261	2851.85
2949.37409	2870.45
2951.83407	2843.45
2954.29254	2849.05
2956.74951	2849.35
2959.20498	2839.15
2961.65895	2832.75
2964.11142	2830.95
2966.56239	2828.15
2969.01186	2822.05
2971.45984	2815.95
2973.90632	2797.55
2976.35131	2818.05
2978.7948	2812.75
2981.23681	2788.05
2983.67732	2807.55
2986.11635	2798.85
2988.55388	2765.25
2990.98993	2776.25
2993.4245	2763.65
2995.85758	2757.35
2998.28917	2732.25
3000.71928	2740.35
3003.14791	2729.65
3005.57506	2717.05
3008.00073	2704.65
3010.42493	2648.45
3012.84764	2702.45
3015.26888	2702.35
3017.68865	2689.25
3020.10694	2651.05
3022.52376	2658.15
3024.9391	2658.75
3027.35298	2648.25
3029.76539	2642.55
3032.17632	2633.85
3034.5858	2617.25
3036.9938	2637.65
3039.40034	2620.85
3041.80542	2611.75
3044.20903	2605.35
3046.61118	2592.05
3049.01187	2599.85
3051.4111	2596.05
3053.80888	2580.55
3056.20519	2570.45
3058.60005	2552.55
3060.99345	2575.35
3063.3854	2550.95
3065.7759	2543.25
3068.16494	2537.35
3070.55254	2526.65
3072.93868	2531.35
3075.32338	2534.65
3077.70662	2518.95
3080.08842	2498.15
3082.46878	2491.95
3084.84769	2505.55
3087.22515	2497.15
3089.60118	2504.65
3091.97576	2486.35
3094.3489	2484.05
3096.72061	2478.45
3099.09087	2475.25
3101.4597	2488.05
3103.82709	2476.45
3106.19305	2463.55
3108.55757	2465.75
3110.92066	2446.95
3113.28232	2463.95
3115.64255	2459.35
3118.00134	2454.15
3120.35871	2425.15
3122.71466	2414.75
3125.06917	2416.05
3127.42226	2420.05
3129.77393	2388.85
3132.12417	2406.95
3134.47299	2411.45
3136.82039	2392.35
3139.16636	2369.95
3141.51092	2392.95
3143.85406	2386.65
3146.19579	2375.15
3148.53609	2368.65
3150.87499	2379.75
3153.21246	2359.15
3155.54853	2367.75
3157.88318	2386.55
3160.21642	2388.15
3162.54826	2371.45
3164.87868	2380.95
3167.2077	2335.65
3169.5353	2351.95
3171.86151	2362.55
3174.18631	2339.75
3176.5097	2340.55
3178.83169	2354.35
3181.15228	2333.75
3183.47147	2324.85
3185.78926	2318.65
3188.10565	2313.95
3190.42065	2297.65
3192.73424	2307.85
3195.04645	2303.95
3197.35725	2282.95
3199.66667	2293.65
3201.97469	2289.25
3204.28132	2281.85
3206.58656	2301.15
3208.8904	2284.05
3211.19287	2290.75
3213.49394	2270.65
3215.79363	2276.25
3218.09193	2286.75
3220.38884	2273.35
3222.68438	2288.95
3224.97853	2258.45
3227.2713	2275.45
3229.56269	2253.85
3231.8527	2257.15
3234.14133	2251.45
3236.42858	2245.35
3238.71446	2219.75
3240.99896	2248.95
3243.28209	2214.75
3245.56384	2234.45
3247.84423	2216.75
3250.12324	2222.45
3252.40088	2209.95
3254.67715	2201.85
3256.95205	2197.65
3259.22558	2207.65
3261.49775	2199.95
3263.76855	2197.65
3266.03799	2198.05
3268.30606	2208.65
3270.57277	2193.05
3272.83812	2183.15
3275.10211	2177.35
3277.36474	2195.25
3279.62601	2176.95
3281.88593	2145.55
3284.14448	2139.25
3286.40168	2163.05
3288.65753	2146.75
3290.91202	2156.35
3293.16516	2123.45
3295.41695	2157.25
3297.66738	2148.85
3299.91647	2118.85
3302.16421	2120.35
3304.4106	2083.95
3306.65564	2107.35
3308.89933	2065.25
3311.14169	2056.65
3313.38269	2055.05
3315.62236	2028.35
3317.86068	2015.65
3320.09766	2000.75
3322.3333	1984.55
3324.5676	1970.25
3326.80056	1939.75
3329.03219	1933.45
3331.26248	-0.15
3333.49143	0.55
3335.71905	1.55
