Data from AgNPs_UA_5uM_CRN_500uM_SU_RamanShift__245__12-10-13-189.txt Node

Date: Thu Aug 04 12:10:13 BST 2022
User: TCL
Spectrometer: QEP01345
Trigger mode: 4
Integration Time (sec): 1.000000E0
Scans to average: 10
Electric dark correction enabled: true
Nonlinearity correction enabled: false
Boxcar width: 0
XAxis mode: Raman Shifts
Number of Pixels in Spectrum: 1044
>>>>>Begin Spectral Data<<<<<
46.04893	-0.95
50.45542	0.15
54.85868	0.65
59.25871	0.75
63.6555	-58.95
68.04907	-38.25
72.43941	-71.15
76.82654	-56.85
81.21044	-56.95
85.59113	-47.75
89.96862	-75.35
94.34289	-55.15
98.71396	-77.75
103.08183	-58.95
107.4465	-48.75
111.80798	-57.85
116.16626	-43.95
120.52136	-73.35
124.87327	-51.25
129.222	-63.45
133.56755	-49.75
137.90993	-63.15
142.24913	-51.05
146.58517	-43.15
150.91804	-41.35
155.24774	-29.55
159.57429	-12.05
163.89768	-6.05
168.21792	36.15
172.53501	52.85
176.84895	134.95
181.15975	265.25
185.46741	409.85
189.77193	594.05
194.07331	881.35
198.37157	1150.95
202.6667	1439.35
206.9587	1749.65
211.24758	2055.55
215.53334	2381.85
219.81599	2725.15
224.09553	3122.75
228.37195	3561.35
232.64527	4000.65
236.91549	4477.15
241.18261	4814.65
245.44663	5088.65
249.70755	5274.85
253.96539	5376.65
258.22014	5484.85
262.4718	5554.55
266.72039	5587.15
270.96589	5572.95
275.20832	5478.45
279.44768	5379.15
283.68397	5266.15
287.91719	5211.55
292.14735	5248.85
296.37445	5414.65
300.59849	5715.85
304.81948	6043.85
309.03742	6411.95
313.25231	6684.45
317.46415	6638.55
321.67296	6223.65
325.87872	5814.95
330.08145	5635.95
334.28114	5586.35
338.47781	5635.45
342.67145	5765.65
346.86207	5997.45
351.04966	6365.55
355.23424	6745.35
359.4158	7013.95
363.59435	7036.05
367.76989	6988.85
371.94243	6857.95
376.11196	6735.35
380.27849	6659.15
384.44203	6584.65
388.60257	6551.65
392.76012	6557.75
396.91468	6682.45
401.06626	6813.65
405.21485	6869.35
409.36047	6695.55
413.50311	6374.85
417.64277	6086.95
421.77947	5875.05
425.9132	5801.75
430.04396	5794.65
434.17176	5835.25
438.2966	5903.75
442.41849	5994.15
446.53742	6101.65
450.6534	6215.75
454.76644	6288.65
458.87653	6282.55
462.98368	6253.45
467.08789	6189.55
471.18916	6091.05
475.2875	5979.25
479.38291	5877.25
483.4754	5777.35
487.56496	5726.65
491.6516	5685.35
495.73531	5692.55
499.81612	5737.95
503.89401	5831.75
507.96899	5847.95
512.04106	5964.55
516.11023	6059.65
520.1765	6130.15
524.23987	6150.45
528.30034	6191.45
532.35792	6086.95
536.41261	6031.85
540.46441	5925.35
544.51333	5889.85
548.55936	5909.15
552.60252	6058.75
556.64279	6157.45
560.6802	6267.25
564.71473	6408.95
568.7464	6608.05
572.7752	6576.75
576.80114	6273.35
580.82422	6050.85
584.84444	5946.05
588.86181	5918.55
592.87633	5955.35
596.888	6063.35
600.89682	6437.85
604.9028	7395.85
608.90594	9496.55
612.90624	11856.45
616.90371	10992.85
620.89834	7925.35
624.89015	6575.85
628.87913	6338.95
632.86528	6514.45
636.84862	6654.75
640.82913	6546.35
644.80683	6178.95
648.78172	5988.15
652.75379	6022.25
656.72306	6258.45
660.68952	6510.15
664.65319	6429.45
668.61405	6172.95
672.57211	6103.75
676.52738	6102.05
680.47986	6010.05
684.42955	5907.45
688.37646	5879.45
692.32058	5876.45
696.26192	5943.25
700.20048	6025.55
704.13626	6086.15
708.06928	6043.85
711.99952	6011.55
715.927	5971.95
719.85171	6019.25
723.77365	6080.25
727.69284	6025.55
731.60928	6006.45
735.52295	5972.85
739.43388	6027.45
743.34206	6047.75
747.24749	6056.15
751.15017	6088.45
755.05012	6169.85
758.94733	6544.05
762.8418	7387.15
766.73354	8733.35
770.62254	9784.05
774.50882	9849.35
778.39237	9337.65
782.27321	8376.65
786.15132	7331.45
790.02671	6631.55
793.89938	6263.05
797.76935	6160.35
801.6366	6044.95
805.50115	5995.35
809.36299	5988.65
813.22213	5986.55
817.07857	5982.45
820.93231	5966.95
824.78336	6004.25
828.63172	6005.55
832.47738	6008.85
836.32036	6025.75
840.16066	5976.85
843.99827	5970.35
847.8332	5962.15
851.66546	5980.45
855.49504	5968.05
859.32195	6016.15
863.1462	5986.95
866.96777	5992.95
870.78668	5963.45
874.60293	5996.75
878.41652	6001.35
882.22745	6096.85
886.03573	6126.55
889.84136	6127.55
893.64433	6131.55
897.44466	6120.75
901.24235	6099.15
905.0374	6106.95
908.8298	6031.85
912.61957	6018.65
916.40671	5952.85
920.19121	6011.25
923.97308	6119.55
927.75233	6171.15
931.52895	6226.65
935.30295	6193.15
939.07433	6047.85
942.84309	5925.85
946.60924	5900.25
950.37278	5857.85
954.13371	5853.35
957.89203	5854.65
961.64774	5885.35
965.40086	5849.45
969.15137	5839.45
972.89929	5868.45
976.64461	5848.45
980.38733	5870.85
984.12747	5872.15
987.86502	5875.25
991.59999	5916.95
995.33237	5976.85
999.06217	6041.55
1002.78939	6122.35
1006.51404	6241.95
1010.23611	6360.25
1013.95561	6421.55
1017.67255	6420.35
1021.38692	6396.65
1025.09872	6309.25
1028.80796	6223.95
1032.51465	6246.75
1036.21877	6219.25
1039.92035	6284.15
1043.61937	6310.35
1047.31584	6352.25
1051.00976	6402.35
1054.70114	6402.85
1058.38998	6390.35
1062.07627	6409.75
1065.76003	6446.55
1069.44126	6506.85
1073.11995	6587.75
1076.79611	6718.05
1080.46974	6876.15
1084.14085	7040.25
1087.80943	7154.95
1091.47549	7211.95
1095.13903	7101.55
1098.80005	7008.15
1102.45857	6904.05
1106.11456	6870.45
1109.76805	6801.15
1113.41903	6929.75
1117.06751	7104.95
1120.71348	7361.95
1124.35696	7769.95
1127.99793	8047.25
1131.63641	7882.35
1135.2724	7479.25
1138.90589	7177.85
1142.5369	6970.35
1146.16542	6837.35
1149.79145	6739.05
1153.415	6688.75
1157.03607	6711.05
1160.65467	6809.35
1164.27079	7033.05
1167.88443	7281.35
1171.49561	7708.05
1175.10432	8319.65
1178.71056	9244.55
1182.31434	10055.15
1185.91565	10303.05
1189.51451	10148.05
1193.11091	9909.55
1196.70485	9637.05
1200.29634	9422.65
1203.88538	9120.25
1207.47197	8638.85
1211.05612	8187.45
1214.63782	7764.25
1218.21708	7490.05
1221.79391	7347.05
1225.36829	7268.25
1228.94024	7262.75
1232.50976	7282.75
1236.07685	7313.05
1239.6415	7339.35
1243.20374	7356.75
1246.76355	7396.35
1250.32093	7479.75
1253.8759	7516.85
1257.42845	7705.75
1260.97859	7915.25
1264.52631	8161.15
1268.07163	8304.95
1271.61453	8443.15
1275.15503	8509.45
1278.69312	8520.85
1282.22882	8565.95
1285.76211	8762.25
1289.29301	9013.05
1292.82151	9287.15
1296.34761	9509.85
1299.87133	9910.55
1303.39266	10625.45
1306.9116	11781.45
1310.42815	13013.15
1313.94233	13455.45
1317.45412	12672.05
1320.96354	11509.95
1324.47058	10501.45
1327.97525	9744.65
1331.47754	9340.55
1334.97747	9197.55
1338.47502	9332.05
1341.97022	9705.55
1345.46305	10421.75
1348.95352	11540.85
1352.44163	12847.95
1355.92738	14258.15
1359.41078	15950.25
1362.89183	17509.65
1366.37053	16887.05
1369.84688	13991.45
1373.32088	11255.35
1376.79254	9808.35
1380.26186	9112.45
1383.72883	8701.25
1387.19347	8297.25
1390.65578	7922.55
1394.11575	7694.85
1397.57339	7490.15
1401.0287	7402.45
1404.48168	7337.35
1407.93234	7365.25
1411.38068	7405.95
1414.82669	7460.55
1418.27039	7545.95
1421.71177	7533.15
1425.15083	7415.95
1428.58758	7366.15
1432.02203	7388.75
1435.45416	7471.15
1438.88399	7448.25
1442.31151	7465.55
1445.73673	7533.95
1449.15965	7554.25
1452.58027	7572.55
1455.9986	7572.85
1459.41463	7583.55
1462.82837	7690.15
1466.23982	7862.15
1469.64898	8075.65
1473.05586	8225.05
1476.46045	8332.95
1479.86276	8423.25
1483.26279	8537.35
1486.66054	8728.25
1490.05602	9006.95
1493.44922	9574.25
1496.84016	10470.45
1500.22882	11845.65
1503.61521	13612.05
1506.99934	15433.65
1510.38121	16640.65
1513.76081	16511.85
1517.13816	14915.35
1520.51324	12752.25
1523.88607	11026.35
1527.25665	10001.35
1530.62498	9510.95
1533.99105	9306.35
1537.35488	9168.35
1540.71647	9066.55
1544.07581	8957.05
1547.4329	8776.45
1550.78776	8653.15
1554.14038	8569.25
1557.49077	8544.95
1560.83892	8647.35
1564.18484	8898.15
1567.52853	9224.45
1570.86999	9570.35
1574.20922	9715.95
1577.54624	9614.15
1580.88103	9063.55
1584.2136	8352.25
1587.54395	7990.85
1590.87208	7902.85
1594.19801	8070.35
1597.52172	8437.25
1600.84321	8580.45
1604.16251	8424.35
1607.47959	8231.75
1610.79447	8036.55
1614.10715	7753.15
1617.41763	7468.15
1620.7259	7201.45
1624.03199	7038.25
1627.33587	6970.95
1630.63757	7009.65
1633.93707	7249.05
1637.23439	7663.75
1640.52951	8351.55
1643.82246	9330.05
1647.11321	10542.15
1650.40179	11246.45
1653.68819	10917.95
1656.97241	9668.05
1660.25446	8275.95
1663.53433	7269.15
1666.81203	6631.35
1670.08756	6305.25
1673.36092	6124.05
1676.63211	5968.15
1679.90115	5879.95
1683.16801	5808.35
1686.43272	5699.65
1689.69527	5680.65
1692.95567	5607.85
1696.2139	5598.05
1699.46999	5552.55
1702.72392	5545.15
1705.97571	5561.05
1709.22535	5530.05
1712.47284	5566.15
1715.71819	5566.15
1718.96139	5569.25
1722.20246	5541.45
1725.44139	5516.75
1728.67818	5497.45
1731.91284	5442.35
1735.14537	5423.95
1738.37576	5385.55
1741.60403	5364.65
1744.83017	5341.95
1748.05418	5335.15
1751.27607	5345.55
1754.49584	5293.55
1757.71349	5270.35
1760.92903	5279.75
1764.14244	5229.45
1767.35375	5237.35
1770.56294	5212.25
1773.77002	5192.95
1776.97499	5204.45
1780.17785	5183.75
1783.37861	5179.45
1786.57727	5191.95
1789.77382	5115.45
1792.96828	5153.95
1796.16064	5161.55
1799.3509	5126.55
1802.53907	5147.05
1805.72514	5103.05
1808.90913	5103.35
1812.09102	5082.35
1815.27083	5079.35
1818.44856	5058.95
1821.6242	5044.45
1824.79776	5046.55
1827.96924	5044.25
1831.13864	5008.85
1834.30597	5034.95
1837.47122	4988.75
1840.6344	4976.85
1843.7955	4971.25
1846.95454	4963.35
1850.11151	4988.35
1853.26642	4946.85
1856.41926	4959.45
1859.57004	4951.55
1862.71876	4941.15
1865.86542	4941.95
1869.01003	4945.45
1872.15258	4908.85
1875.29308	4936.15
1878.43152	4923.35
1881.56792	4910.45
1884.70227	4880.85
1887.83457	4899.95
1890.96482	4857.95
1894.09304	4858.15
1897.21921	4852.45
1900.34335	4869.75
1903.46544	4835.95
1906.58551	4860.25
1909.70353	4853.85
1912.81953	4838.85
1915.93349	4834.15
1919.04543	4829.05
1922.15534	4821.35
1925.26322	4796.75
1928.36908	4772.45
1931.47292	4792.95
1934.57473	4786.65
1937.67453	4762.55
1940.77232	4727.25
1943.86808	4709.45
1946.96184	4715.85
1950.05358	4688.75
1953.14331	4681.95
1956.23103	4691.25
1959.31675	4655.15
1962.40046	4585.85
1965.48217	4637.65
1968.56188	4611.45
1971.63959	4590.75
1974.7153	4593.55
1977.78901	4585.35
1980.86073	4569.15
1983.93046	4531.15
1986.99819	4449.75
1990.06394	4476.55
1993.1277	4504.95
1996.18947	4465.15
1999.24925	4440.25
2002.30706	4443.65
2005.36288	4427.05
2008.41672	4409.85
2011.46859	4376.15
2014.51848	4380.15
2017.56639	4361.45
2020.61233	4341.65
2023.6563	4337.65
2026.6983	4306.25
2029.73833	4313.05
2032.7764	4309.45
2035.8125	4268.35
2038.84664	4262.95
2041.87881	4253.15
2044.90903	4259.95
2047.93729	4254.55
2050.96359	4224.35
2053.98794	4228.25
2057.01034	4232.85
2060.03078	4217.65
2063.04927	4206.85
2066.06582	4211.15
2069.08042	4201.15
2072.09307	4193.85
2075.10378	4199.25
2078.11255	4205.65
2081.11938	4179.65
2084.12426	4170.75
2087.12722	4165.05
2090.12824	4167.25
2093.12732	4173.25
2096.12447	4185.85
2099.11969	4189.65
2102.11299	4165.65
2105.10435	4180.15
2108.09379	4161.95
2111.08131	4167.35
2114.0669	4165.75
2117.05057	4179.15
2120.03233	4161.15
2123.01216	4172.65
2125.99008	4169.85
2128.96609	4186.25
2131.94018	4196.45
2134.91236	4188.25
2137.88263	4184.75
2140.851	4172.85
2143.81746	4215.45
2146.78201	4198.95
2149.74466	4178.75
2152.7054	4187.05
2155.66425	4173.85
2158.6212	4172.55
2161.57625	4146.05
2164.52941	4125.75
2167.48067	4139.35
2170.43004	4135.15
2173.37752	4159.35
2176.32311	4135.85
2179.26681	4131.65
2182.20863	4156.45
2185.14856	4136.25
2188.08661	4144.75
2191.02278	4143.25
2193.95707	4125.05
2196.88948	4109.15
2199.82001	4128.25
2202.74867	4103.95
2205.67545	4121.25
2208.60037	4118.75
2211.52341	4112.45
2214.44458	4091.15
2217.36388	4075.55
2220.28132	4061.85
2223.1969	4049.85
2226.11061	4039.25
2229.02246	4030.25
2231.93245	4032.25
2234.84058	4010.15
2237.74686	4011.75
2240.65128	4003.25
2243.55385	4004.15
2246.45456	3979.75
2249.35343	3984.45
2252.25044	3975.05
2255.14561	3972.15
2258.03893	3977.05
2260.93041	3965.25
2263.82004	3964.95
2266.70783	3965.65
2269.59378	3944.85
2272.4779	3914.15
2275.36017	3930.55
2278.24061	3901.05
2281.11922	3872.45
2283.996	3904.25
2286.87094	3870.75
2289.74405	3878.25
2292.61534	3864.75
2295.4848	3856.25
2298.35243	3850.85
2301.21824	3833.65
2304.08223	3845.25
2306.94439	3842.45
2309.80474	3855.45
2312.66327	3840.55
2315.51999	3823.05
2318.37489	3821.45
2321.22797	3804.35
2324.07925	3790.85
2326.92871	3789.95
2329.77637	3771.05
2332.62222	3768.35
2335.46626	3743.85
2338.3085	3742.25
2341.14893	3749.25
2343.98756	3762.35
2346.8244	3731.75
2349.65943	3729.75
2352.49267	3732.05
2355.32411	3731.15
2358.15376	3723.35
2360.98161	3752.55
2363.80768	3713.95
2366.63195	3734.65
2369.45444	3739.05
2372.27514	3742.35
2375.09405	3737.75
2377.91118	3700.95
2380.72652	3703.25
2383.54009	3700.05
2386.35187	3703.35
2389.16188	3677.45
2391.97011	3663.65
2394.77657	3661.35
2397.58125	3655.45
2400.38416	3628.65
2403.18529	3630.35
2405.98466	3615.65
2408.78226	3619.65
2411.57809	3613.55
2414.37216	3599.35
2417.16446	3598.65
2419.955	3568.05
2422.74378	3608.25
2425.5308	3567.65
2428.31606	3584.65
2431.09956	3579.45
2433.88131	3568.85
2436.6613	3575.15
2439.43954	3562.85
2442.21603	3560.35
2444.99077	3554.75
2447.76377	3542.55
2450.53501	3543.65
2453.30451	3540.65
2456.07226	3533.15
2458.83827	3533.85
2461.60254	3498.55
2464.36507	3524.65
2467.12586	3508.15
2469.88492	3525.55
2472.64224	3508.35
2475.39782	3500.15
2478.15167	3509.15
2480.90379	3502.25
2483.65417	3526.15
2486.40283	3505.45
2489.14976	3534.45
2491.89497	3513.25
2494.63845	3498.35
2497.3802	3489.25
2500.12024	3488.45
2502.85855	3484.75
2505.59514	3487.95
2508.33002	3473.85
2511.06318	3448.65
2513.79462	3451.75
2516.52435	3422.55
2519.25237	3398.15
2521.97867	3392.15
2524.70327	3393.05
2527.42616	3404.25
2530.14734	3421.55
2532.86681	3379.65
2535.58458	3383.35
2538.30065	3383.65
2541.01501	3397.55
2543.72768	3375.75
2546.43864	3388.95
2549.14791	3355.45
2551.85548	3344.75
2554.56136	3346.75
2557.26554	3350.35
2559.96803	3340.45
2562.66883	3331.45
2565.36794	3313.45
2568.06536	3279.55
2570.7611	3316.65
2573.45514	3299.65
2576.14751	3287.65
2578.83819	3278.95
2581.52719	3264.85
2584.21451	3271.65
2586.90015	3253.65
2589.58411	3236.05
2592.2664	3233.35
2594.94701	3248.35
2597.62594	3242.45
2600.30321	3179.25
2602.9788	3196.25
2605.65273	3179.05
2608.32498	3196.05
2610.99557	3213.05
2613.66449	3189.05
2616.33175	3197.85
2618.99734	3194.35
2621.66128	3187.05
2624.32355	3175.55
2626.98416	3159.75
2629.64311	3159.45
2632.30041	3142.85
2634.95605	3136.95
2637.61004	3113.15
2640.26238	3107.35
2642.91306	3116.05
2645.56209	3127.35
2648.20948	3126.35
2650.85521	3102.65
2653.4993	3116.85
2656.14175	3123.35
2658.78255	3111.55
2661.42171	3074.95
2664.05923	3118.65
2666.6951	3108.45
2669.32934	3115.45
2671.96194	3124.15
2674.59291	3104.75
2677.22224	3117.45
2679.84993	3117.85
2682.476	3114.65
2685.10043	3106.45
2687.72324	3085.05
2690.34441	3091.15
2692.96396	3089.05
2695.58188	3104.15
2698.19818	3099.35
2700.81285	3083.55
2703.4259	3088.45
2706.03733	3038.35
2708.64714	3049.65
2711.25533	3090.95
2713.86191	3082.05
2716.46687	3073.25
2719.07021	3076.65
2721.67194	3080.55
2724.27206	3079.25
2726.87057	3070.85
2729.46747	3060.25
2732.06276	3067.35
2734.65644	3038.85
2737.24852	3040.05
2739.83899	3019.45
2742.42786	3043.45
2745.01513	3050.45
2747.60079	3036.95
2750.18486	3014.85
2752.76733	3018.75
2755.3482	3012.35
2757.92747	3009.45
2760.50515	2984.05
2763.08123	2987.05
2765.65573	2983.45
2768.22863	2972.95
2770.79994	2978.65
2773.36967	2962.75
2775.9378	2952.15
2778.50435	2951.15
2781.06932	2949.75
2783.6327	2947.35
2786.1945	2955.35
2788.75471	2950.45
2791.31335	2920.85
2793.87041	2927.05
2796.42589	2910.95
2798.97979	2898.65
2801.53212	2920.15
2804.08288	2920.35
2806.63206	2901.75
2809.17967	2885.25
2811.72571	2897.25
2814.27018	2885.65
2816.81308	2878.15
2819.35442	2842.55
2821.89419	2861.45
2824.43239	2851.95
2826.96904	2865.25
2829.50412	2855.65
2832.03763	2859.65
2834.56959	2868.15
2837.1	2842.55
2839.62884	2843.75
2842.15613	2836.65
2844.68186	2838.35
2847.20604	2827.85
2849.72867	2815.45
2852.24974	2833.35
2854.76927	2787.75
2857.28724	2738.85
2859.80367	2807.15
2862.31855	2818.05
2864.83189	2792.45
2867.34368	2806.75
2869.85393	2819.95
2872.36264	2778.95
2874.8698	2802.85
2877.37543	2800.35
2879.87952	2778.95
2882.38207	2769.25
2884.88308	2783.45
2887.38256	2781.75
2889.88051	2775.05
2892.37692	2759.35
2894.8718	2747.85
2897.36515	2764.55
2899.85698	2761.05
2902.34727	2750.75
2904.83604	2765.75
2907.32328	2783.75
2909.809	2779.65
2912.29319	2779.55
2914.77587	2779.85
2917.25702	2790.15
2919.73665	2798.35
2922.21476	2803.45
2924.69136	2791.25
2927.16644	2772.85
2929.64	2784.75
2932.11205	2758.45
2934.58258	2758.85
2937.05161	2749.65
2939.51912	2749.15
2941.98513	2759.35
2944.44962	2742.25
2946.91261	2719.55
2949.37409	2733.45
2951.83407	2703.55
2954.29254	2711.85
2956.74951	2711.95
2959.20498	2690.05
2961.65895	2692.95
2964.11142	2689.15
2966.56239	2695.15
2969.01186	2690.15
2971.45984	2695.25
2973.90632	2673.15
2976.35131	2693.25
2978.7948	2689.95
2981.23681	2669.35
2983.67732	2663.75
2986.11635	2670.25
2988.55388	2637.25
2990.98993	2646.85
2993.4245	2614.95
2995.85758	2613.75
2998.28917	2611.85
3000.71928	2608.85
3003.14791	2601.65
3005.57506	2586.65
3008.00073	2576.85
3010.42493	2511.05
3012.84764	2576.55
3015.26888	2575.35
3017.68865	2560.65
3020.10694	2515.95
3022.52376	2535.05
3024.9391	2518.65
3027.35298	2517.05
3029.76539	2504.05
3032.17632	2515.05
3034.5858	2507.05
3036.9938	2512.55
3039.40034	2514.75
3041.80542	2487.95
3044.20903	2469.85
3046.61118	2469.45
3049.01187	2478.65
3051.4111	2471.35
3053.80888	2455.45
3056.20519	2460.05
3058.60005	2435.65
3060.99345	2457.35
3063.3854	2429.95
3065.7759	2415.75
3068.16494	2418.15
3070.55254	2394.35
3072.93868	2410.85
3075.32338	2407.15
3077.70662	2389.95
3080.08842	2374.35
3082.46878	2373.75
3084.84769	2394.45
3087.22515	2366.35
3089.60118	2370.85
3091.97576	2363.35
3094.3489	2366.35
3096.72061	2371.65
3099.09087	2357.95
3101.4597	2356.55
3103.82709	2375.15
3106.19305	2347.85
3108.55757	2347.65
3110.92066	2320.55
3113.28232	2341.45
3115.64255	2342.55
3118.00134	2326.35
3120.35871	2317.75
3122.71466	2302.05
3125.06917	2311.55
3127.42226	2295.65
3129.77393	2286.55
3132.12417	2290.35
3134.47299	2296.45
3136.82039	2282.15
3139.16636	2252.05
3141.51092	2280.75
3143.85406	2280.95
3146.19579	2252.45
3148.53609	2261.65
3150.87499	2262.15
3153.21246	2257.05
3155.54853	2268.45
3157.88318	2264.85
3160.21642	2267.05
3162.54826	2269.25
3164.87868	2260.15
3167.2077	2218.35
3169.5353	2242.25
3171.86151	2255.15
3174.18631	2237.75
3176.5097	2237.55
3178.83169	2234.55
3181.15228	2230.35
3183.47147	2213.75
3185.78926	2200.95
3188.10565	2199.95
3190.42065	2187.65
3192.73424	2209.95
3195.04645	2193.35
3197.35725	2175.05
3199.66667	2198.25
3201.97469	2167.15
3204.28132	2164.65
3206.58656	2183.45
3208.8904	2177.45
3211.19287	2180.65
3213.49394	2170.85
3215.79363	2164.45
3218.09193	2176.05
3220.38884	2163.75
3222.68438	2160.45
3224.97853	2140.75
3227.2713	2172.65
3229.56269	2142.25
3231.8527	2158.75
3234.14133	2140.55
3236.42858	2133.15
3238.71446	2115.35
3240.99896	2142.35
3243.28209	2102.95
3245.56384	2131.55
3247.84423	2118.65
3250.12324	2120.85
3252.40088	2104.25
3254.67715	2106.45
3256.95205	2087.05
3259.22558	2101.65
3261.49775	2112.05
3263.76855	2095.85
3266.03799	2101.75
3268.30606	2093.05
3270.57277	2092.25
3272.83812	2080.25
3275.10211	2073.15
3277.36474	2076.75
3279.62601	2080.45
3281.88593	2045.85
3284.14448	2027.55
3286.40168	2060.25
3288.65753	2046.95
3290.91202	2053.85
3293.16516	2018.55
3295.41695	2044.15
3297.66738	2048.25
3299.91647	2021.65
3302.16421	2019.75
3304.4106	1979.75
3306.65564	2002.15
3308.89933	1964.15
3311.14169	1969.95
3313.38269	1955.45
3315.62236	1931.25
3317.86068	1914.35
3320.09766	1924.05
3322.3333	1881.65
3324.5676	1875.95
3326.80056	1855.45
3329.03219	1844.45
3331.26248	-0.65
3333.49143	-0.15
3335.71905	0.35
