Data from AgNPs_UA_20uM_CRN_500uM_SU_RamanShift__33__13-42-00-297.txt Node

Date: Thu Aug 04 13:42:00 BST 2022
User: TCL
Spectrometer: QEP01345
Trigger mode: 4
Integration Time (sec): 1.000000E0
Scans to average: 10
Electric dark correction enabled: true
Nonlinearity correction enabled: false
Boxcar width: 0
XAxis mode: Raman Shifts
Number of Pixels in Spectrum: 1044
>>>>>Begin Spectral Data<<<<<
46.04893	-1.95
50.45542	0.85
54.85868	0.45
59.25871	0.45
63.6555	18.55
68.04907	16.15
72.43941	19.45
76.82654	17.05
81.21044	18.05
85.59113	19.35
89.96862	21.35
94.34289	20.05
98.71396	22.05
103.08183	21.95
107.4465	20.85
111.80798	23.25
116.16626	24.25
120.52136	27.85
124.87327	24.45
129.222	30.55
133.56755	28.95
137.90993	31.55
142.24913	34.95
146.58517	37.15
150.91804	47.55
155.24774	57.15
159.57429	70.65
163.89768	92.95
168.21792	124.55
172.53501	167.85
176.84895	234.55
181.15975	331.15
185.46741	471.85
189.77193	658.55
194.07331	880.55
198.37157	1142.05
202.6667	1411.95
206.9587	1699.15
211.24758	1962.45
215.53334	2237.05
219.81599	2534.05
224.09553	2866.85
228.37195	3232.95
232.64527	3624.05
236.91549	4028.95
241.18261	4382.85
245.44663	4701.15
249.70755	4966.85
253.96539	5189.85
258.22014	5354.25
262.4718	5502.65
266.72039	5607.25
270.96589	5629.15
275.20832	5603.65
279.44768	5533.75
283.68397	5445.45
287.91719	5375.75
292.14735	5364.65
296.37445	5450.15
300.59849	5567.45
304.81948	5736.15
309.03742	5892.05
313.25231	5962.85
317.46415	5917.45
321.67296	5743.25
325.87872	5549.75
330.08145	5449.35
334.28114	5458.95
338.47781	5526.25
342.67145	5611.55
346.86207	5777.95
351.04966	5969.35
355.23424	6178.55
359.4158	6333.85
363.59435	6400.95
367.76989	6440.65
371.94243	6457.55
376.11196	6437.85
380.27849	6419.95
384.44203	6447.95
388.60257	6465.15
392.76012	6526.85
396.91468	6603.95
401.06626	6701.25
405.21485	6723.75
409.36047	6651.25
413.50311	6501.45
417.64277	6357.05
421.77947	6252.25
425.9132	6202.95
430.04396	6245.05
434.17176	6270.35
438.2966	6325.35
442.41849	6417.35
446.53742	6535.65
450.6534	6662.65
454.76644	6729.25
458.87653	6748.25
462.98368	6732.85
467.08789	6720.15
471.18916	6639.15
475.2875	6577.35
479.38291	6475.45
483.4754	6428.35
487.56496	6391.65
491.6516	6368.05
495.73531	6367.05
499.81612	6409.75
503.89401	6438.75
507.96899	6481.75
512.04106	6521.55
516.11023	6585.55
520.1765	6628.25
524.23987	6629.65
528.30034	6622.95
532.35792	6622.65
536.41261	6595.15
540.46441	6505.95
544.51333	6517.65
548.55936	6556.75
552.60252	6633.25
556.64279	6705.05
560.6802	6769.05
564.71473	6838.25
568.7464	6912.25
572.7752	6909.35
576.80114	6797.25
580.82422	6672.85
584.84444	6647.95
588.86181	6659.35
592.87633	6695.05
596.888	6801.85
600.89682	7064.45
604.9028	7676.45
608.90594	8965.75
612.90624	10279.85
616.90371	9622.05
620.89834	7807.35
624.89015	7000.15
628.87913	6944.65
632.86528	7083.45
636.84862	7173.75
640.82913	7088.95
644.80683	6912.15
648.78172	6786.15
652.75379	6774.25
656.72306	6942.25
660.68952	7088.65
664.65319	7050.35
668.61405	6961.45
672.57211	6956.45
676.52738	6985.85
680.47986	6900.25
684.42955	6816.75
688.37646	6787.75
692.32058	6816.85
696.26192	6907.35
700.20048	7024.65
704.13626	7050.35
708.06928	7018.05
711.99952	6980.65
715.927	6983.55
719.85171	7015.85
723.77365	7026.05
727.69284	6999.15
731.60928	6953.75
735.52295	6941.65
739.43388	6970.45
743.34206	6984.05
747.24749	6996.95
751.15017	7006.05
755.05012	7077.35
758.94733	7256.05
762.8418	7767.45
766.73354	8505.25
770.62254	9131.65
774.50882	9261.35
778.39237	8984.05
782.27321	8413.75
786.15132	7817.15
790.02671	7405.55
793.89938	7163.75
797.76935	7102.15
801.6366	7036.95
805.50115	7008.95
809.36299	7023.95
813.22213	6991.35
817.07857	7002.35
820.93231	7008.65
824.78336	7024.85
828.63172	7038.75
832.47738	7057.15
836.32036	7046.95
840.16066	7006.25
843.99827	7002.85
847.8332	7035.65
851.66546	7040.25
855.49504	7058.45
859.32195	7065.25
863.1462	7094.15
866.96777	7101.55
870.78668	7082.95
874.60293	7111.65
878.41652	7142.45
882.22745	7170.95
886.03573	7215.45
889.84136	7211.75
893.64433	7190.95
897.44466	7173.45
901.24235	7186.75
905.0374	7154.15
908.8298	7127.55
912.61957	7101.35
916.40671	7114.35
920.19121	7125.05
923.97308	7177.45
927.75233	7236.65
931.52895	7264.95
935.30295	7222.75
939.07433	7141.15
942.84309	7073.75
946.60924	7062.15
950.37278	7047.95
954.13371	7027.35
957.89203	7051.85
961.64774	7040.15
965.40086	7014.85
969.15137	7016.75
972.89929	7005.45
976.64461	7028.05
980.38733	7051.65
984.12747	7042.35
987.86502	7069.25
991.59999	7106.15
995.33237	7142.25
999.06217	7201.95
1002.78939	7296.65
1006.51404	7382.75
1010.23611	7493.95
1013.95561	7534.05
1017.67255	7538.85
1021.38692	7506.85
1025.09872	7455.85
1028.80796	7364.75
1032.51465	7350.65
1036.21877	7347.65
1039.92035	7364.95
1043.61937	7421.35
1047.31584	7424.55
1051.00976	7458.15
1054.70114	7467.85
1058.38998	7471.95
1062.07627	7505.05
1065.76003	7566.35
1069.44126	7655.05
1073.11995	7773.15
1076.79611	7874.55
1080.46974	7992.15
1084.14085	8053.95
1087.80943	8139.45
1091.47549	8169.85
1095.13903	8183.45
1098.80005	8156.25
1102.45857	8080.65
1106.11456	8007.75
1109.76805	7925.55
1113.41903	7954.95
1117.06751	8018.65
1120.71348	8140.75
1124.35696	8324.05
1127.99793	8422.95
1131.63641	8331.45
1135.2724	8117.25
1138.90589	7964.65
1142.5369	7883.75
1146.16542	7854.75
1149.79145	7828.75
1153.415	7757.35
1157.03607	7720.45
1160.65467	7758.55
1164.27079	7866.95
1167.88443	8032.25
1171.49561	8323.45
1175.10432	8718.85
1178.71056	9307.65
1182.31434	9842.35
1185.91565	9990.35
1189.51451	9934.45
1193.11091	9778.55
1196.70485	9626.55
1200.29634	9467.35
1203.88538	9266.55
1207.47197	9018.85
1211.05612	8749.75
1214.63782	8533.65
1218.21708	8374.65
1221.79391	8261.85
1225.36829	8189.15
1228.94024	8182.95
1232.50976	8170.75
1236.07685	8157.65
1239.6415	8201.55
1243.20374	8221.25
1246.76355	8276.15
1250.32093	8362.25
1253.8759	8474.35
1257.42845	8654.65
1260.97859	8827.95
1264.52631	8993.45
1268.07163	9106.15
1271.61453	9167.95
1275.15503	9210.65
1278.69312	9209.55
1282.22882	9202.15
1285.76211	9245.15
1289.29301	9360.15
1292.82151	9517.75
1296.34761	9679.85
1299.87133	9926.75
1303.39266	10367.15
1306.9116	10969.95
1310.42815	11603.75
1313.94233	11812.25
1317.45412	11464.45
1320.96354	10922.55
1324.47058	10387.35
1327.97525	9942.75
1331.47754	9720.55
1334.97747	9664.25
1338.47502	9773.25
1341.97022	10026.95
1345.46305	10500.25
1348.95352	11200.15
1352.44163	11882.55
1355.92738	12632.15
1359.41078	13482.05
1362.89183	14175.75
1366.37053	13722.65
1369.84688	12126.95
1373.32088	10619.35
1376.79254	9759.15
1380.26186	9327.45
1383.72883	9083.55
1387.19347	8865.95
1390.65578	8644.75
1394.11575	8463.95
1397.57339	8327.55
1401.0287	8240.95
1404.48168	8197.55
1407.93234	8179.25
1411.38068	8261.25
1414.82669	8333.05
1418.27039	8335.05
1421.71177	8312.75
1425.15083	8256.25
1428.58758	8193.45
1432.02203	8230.95
1435.45416	8264.05
1438.88399	8310.75
1442.31151	8340.65
1445.73673	8357.75
1449.15965	8376.15
1452.58027	8359.55
1455.9986	8334.05
1459.41463	8346.15
1462.82837	8404.25
1466.23982	8510.95
1469.64898	8676.45
1473.05586	8800.75
1476.46045	8840.95
1479.86276	8918.75
1483.26279	8991.55
1486.66054	9119.85
1490.05602	9344.15
1493.44922	9651.15
1496.84016	10153.15
1500.22882	10948.25
1503.61521	11910.75
1506.99934	12774.35
1510.38121	13246.85
1513.76081	13033.15
1517.13816	12146.65
1520.51324	11060.85
1523.88607	10212.15
1527.25665	9712.15
1530.62498	9444.45
1533.99105	9323.15
1537.35488	9234.05
1540.71647	9201.35
1544.07581	9141.85
1547.4329	9084.15
1550.78776	9009.25
1554.14038	8931.75
1557.49077	8899.75
1560.83892	8950.95
1564.18484	9107.55
1567.52853	9300.05
1570.86999	9486.05
1574.20922	9554.55
1577.54624	9455.65
1580.88103	9132.75
1584.2136	8760.95
1587.54395	8536.65
1590.87208	8530.75
1594.19801	8725.75
1597.52172	9002.65
1600.84321	9109.85
1604.16251	9094.95
1607.47959	8952.75
1610.79447	8746.55
1614.10715	8440.45
1617.41763	8151.45
1620.7259	7870.65
1624.03199	7782.15
1627.33587	7731.55
1630.63757	7787.55
1633.93707	7939.45
1637.23439	8211.05
1640.52951	8745.85
1643.82246	9421.85
1647.11321	10118.65
1650.40179	10534.05
1653.68819	10225.85
1656.97241	9377.95
1660.25446	8489.75
1663.53433	7868.95
1666.81203	7484.45
1670.08756	7271.65
1673.36092	7132.25
1676.63211	7050.45
1679.90115	6978.85
1683.16801	6941.85
1686.43272	6875.35
1689.69527	6847.55
1692.95567	6817.55
1696.2139	6818.75
1699.46999	6775.65
1702.72392	6769.15
1705.97571	6776.75
1709.22535	6767.15
1712.47284	6774.45
1715.71819	6745.95
1718.96139	6756.65
1722.20246	6734.95
1725.44139	6728.05
1728.67818	6688.85
1731.91284	6662.75
1735.14537	6635.65
1738.37576	6629.15
1741.60403	6594.95
1744.83017	6593.05
1748.05418	6609.95
1751.27607	6590.95
1754.49584	6546.55
1757.71349	6520.55
1760.92903	6540.75
1764.14244	6526.65
1767.35375	6534.75
1770.56294	6508.55
1773.77002	6503.35
1776.97499	6502.45
1780.17785	6482.25
1783.37861	6457.95
1786.57727	6427.75
1789.77382	6425.75
1792.96828	6430.75
1796.16064	6418.05
1799.3509	6390.35
1802.53907	6404.55
1805.72514	6380.75
1808.90913	6382.55
1812.09102	6375.85
1815.27083	6348.75
1818.44856	6340.75
1821.6242	6321.45
1824.79776	6321.45
1827.96924	6307.95
1831.13864	6295.45
1834.30597	6305.05
1837.47122	6294.15
1840.6344	6257.85
1843.7955	6233.15
1846.95454	6240.15
1850.11151	6248.05
1853.26642	6250.95
1856.41926	6241.05
1859.57004	6255.85
1862.71876	6237.95
1865.86542	6220.65
1869.01003	6223.45
1872.15258	6197.15
1875.29308	6196.85
1878.43152	6195.75
1881.56792	6207.25
1884.70227	6173.95
1887.83457	6177.85
1890.96482	6177.05
1894.09304	6163.65
1897.21921	6140.25
1900.34335	6136.15
1903.46544	6134.95
1906.58551	6121.15
1909.70353	6132.25
1912.81953	6122.65
1915.93349	6106.75
1919.04543	6104.65
1922.15534	6079.55
1925.26322	6068.45
1928.36908	6050.45
1931.47292	6058.05
1934.57473	6044.95
1937.67453	6045.25
1940.77232	6025.05
1943.86808	6016.75
1946.96184	5961.25
1950.05358	5968.75
1953.14331	5958.05
1956.23103	5930.75
1959.31675	5880.35
1962.40046	5882.05
1965.48217	5869.75
1968.56188	5846.35
1971.63959	5842.35
1974.7153	5849.75
1977.78901	5811.45
1980.86073	5804.55
1983.93046	5782.95
1986.99819	5776.35
1990.06394	5757.15
1993.1277	5731.35
1996.18947	5717.35
1999.24925	5702.65
2002.30706	5687.95
2005.36288	5660.15
2008.41672	5635.65
2011.46859	5622.65
2014.51848	5605.45
2017.56639	5588.95
2020.61233	5573.45
2023.6563	5570.85
2026.6983	5547.85
2029.73833	5530.55
2032.7764	5518.95
2035.8125	5496.75
2038.84664	5503.75
2041.87881	5481.95
2044.90903	5468.85
2047.93729	5450.05
2050.96359	5461.85
2053.98794	5449.85
2057.01034	5450.85
2060.03078	5436.95
2063.04927	5409.55
2066.06582	5415.25
2069.08042	5416.75
2072.09307	5403.35
2075.10378	5415.45
2078.11255	5406.75
2081.11938	5407.75
2084.12426	5383.15
2087.12722	5400.25
2090.12824	5388.95
2093.12732	5389.75
2096.12447	5401.05
2099.11969	5386.05
2102.11299	5403.25
2105.10435	5393.05
2108.09379	5397.15
2111.08131	5387.35
2114.0669	5391.95
2117.05057	5404.15
2120.03233	5399.35
2123.01216	5385.25
2125.99008	5419.45
2128.96609	5409.75
2131.94018	5437.45
2134.91236	5426.95
2137.88263	5417.15
2140.851	5407.45
2143.81746	5414.85
2146.78201	5411.35
2149.74466	5410.45
2152.7054	5403.15
2155.66425	5413.95
2158.6212	5440.55
2161.57625	5429.65
2164.52941	5431.95
2167.48067	5393.25
2170.43004	5405.25
2173.37752	5401.85
2176.32311	5391.75
2179.26681	5392.85
2182.20863	5391.65
2185.14856	5401.55
2188.08661	5401.25
2191.02278	5409.15
2193.95707	5384.25
2196.88948	5370.85
2199.82001	5389.45
2202.74867	5383.75
2205.67545	5389.95
2208.60037	5366.65
2211.52341	5358.45
2214.44458	5338.25
2217.36388	5320.25
2220.28132	5305.85
2223.1969	5287.95
2226.11061	5285.25
2229.02246	5271.95
2231.93245	5242.85
2234.84058	5261.75
2237.74686	5246.45
2240.65128	5242.05
2243.55385	5252.35
2246.45456	5255.45
2249.35343	5218.45
2252.25044	5206.65
2255.14561	5212.25
2258.03893	5219.15
2260.93041	5199.35
2263.82004	5179.85
2266.70783	5182.25
2269.59378	5168.35
2272.4779	5143.85
2275.36017	5134.85
2278.24061	5111.05
2281.11922	5113.85
2283.996	5093.75
2286.87094	5072.85
2289.74405	5084.15
2292.61534	5092.35
2295.4848	5070.15
2298.35243	5073.15
2301.21824	5052.85
2304.08223	5062.85
2306.94439	5066.25
2309.80474	5050.35
2312.66327	5044.95
2315.51999	5008.25
2318.37489	5006.95
2321.22797	5027.75
2324.07925	5003.65
2326.92871	4977.95
2329.77637	4968.35
2332.62222	4988.15
2335.46626	4969.25
2338.3085	4959.75
2341.14893	4960.05
2343.98756	4968.55
2346.8244	4951.65
2349.65943	4952.85
2352.49267	4942.75
2355.32411	4934.45
2358.15376	4921.15
2360.98161	4915.55
2363.80768	4937.85
2366.63195	4914.85
2369.45444	4915.15
2372.27514	4910.35
2375.09405	4919.65
2377.91118	4908.45
2380.72652	4903.55
2383.54009	4878.75
2386.35187	4876.85
2389.16188	4866.15
2391.97011	4838.35
2394.77657	4821.95
2397.58125	4825.85
2400.38416	4813.55
2403.18529	4799.15
2405.98466	4807.05
2408.78226	4798.75
2411.57809	4793.25
2414.37216	4788.35
2417.16446	4778.35
2419.955	4773.95
2422.74378	4772.35
2425.5308	4753.15
2428.31606	4735.85
2431.09956	4758.65
2433.88131	4723.65
2436.6613	4750.95
2439.43954	4739.05
2442.21603	4733.05
2444.99077	4744.25
2447.76377	4725.05
2450.53501	4713.95
2453.30451	4737.35
2456.07226	4712.25
2458.83827	4703.45
2461.60254	4709.65
2464.36507	4688.95
2467.12586	4681.95
2469.88492	4682.65
2472.64224	4693.95
2475.39782	4686.95
2478.15167	4686.45
2480.90379	4659.85
2483.65417	4664.55
2486.40283	4656.95
2489.14976	4679.65
2491.89497	4672.45
2494.63845	4662.55
2497.3802	4654.75
2500.12024	4637.15
2502.85855	4635.75
2505.59514	4619.95
2508.33002	4605.65
2511.06318	4590.05
2513.79462	4574.05
2516.52435	4584.25
2519.25237	4585.75
2521.97867	4554.95
2524.70327	4571.65
2527.42616	4561.85
2530.14734	4541.45
2532.86681	4546.75
2535.58458	4527.55
2538.30065	4536.35
2541.01501	4525.05
2543.72768	4536.35
2546.43864	4532.95
2549.14791	4514.05
2551.85548	4504.35
2554.56136	4518.45
2557.26554	4496.35
2559.96803	4497.35
2562.66883	4474.35
2565.36794	4466.25
2568.06536	4451.55
2570.7611	4424.85
2573.45514	4423.35
2576.14751	4419.55
2578.83819	4425.05
2581.52719	4398.25
2584.21451	4383.25
2586.90015	4371.15
2589.58411	4366.15
2592.2664	4346.85
2594.94701	4361.25
2597.62594	4358.55
2600.30321	4342.75
2602.9788	4349.05
2605.65273	4340.95
2608.32498	4332.55
2610.99557	4324.35
2613.66449	4311.75
2616.33175	4313.45
2618.99734	4296.35
2621.66128	4300.85
2624.32355	4279.95
2626.98416	4277.85
2629.64311	4264.85
2632.30041	4257.45
2634.95605	4263.75
2637.61004	4233.25
2640.26238	4239.95
2642.91306	4223.45
2645.56209	4214.35
2648.20948	4228.25
2650.85521	4226.55
2653.4993	4224.85
2656.14175	4219.35
2658.78255	4222.95
2661.42171	4213.15
2664.05923	4238.05
2666.6951	4245.25
2669.32934	4228.55
2671.96194	4228.05
2674.59291	4233.35
2677.22224	4210.95
2679.84993	4226.65
2682.476	4202.15
2685.10043	4202.55
2687.72324	4183.75
2690.34441	4194.75
2692.96396	4191.45
2695.58188	4195.05
2698.19818	4181.65
2700.81285	4189.05
2703.4259	4186.75
2706.03733	4196.75
2708.64714	4175.45
2711.25533	4167.85
2713.86191	4162.75
2716.46687	4174.35
2719.07021	4177.55
2721.67194	4185.25
2724.27206	4187.05
2726.87057	4200.95
2729.46747	4173.05
2732.06276	4177.85
2734.65644	4161.65
2737.24852	4152.65
2739.83899	4158.95
2742.42786	4162.55
2745.01513	4155.95
2747.60079	4139.85
2750.18486	4135.85
2752.76733	4126.05
2755.3482	4128.65
2757.92747	4114.15
2760.50515	4105.35
2763.08123	4105.45
2765.65573	4087.95
2768.22863	4092.45
2770.79994	4075.25
2773.36967	4082.85
2775.9378	4068.35
2778.50435	4067.55
2781.06932	4062.45
2783.6327	4050.65
2786.1945	4028.65
2788.75471	4025.05
2791.31335	4028.25
2793.87041	4009.65
2796.42589	4009.45
2798.97979	4002.45
2801.53212	3995.05
2804.08288	3988.85
2806.63206	3988.85
2809.17967	3982.05
2811.72571	3956.75
2814.27018	3963.95
2816.81308	3954.35
2819.35442	3938.15
2821.89419	3923.05
2824.43239	3906.35
2826.96904	3904.15
2829.50412	3905.75
2832.03763	3889.35
2834.56959	3881.55
2837.1	3876.45
2839.62884	3870.85
2842.15613	3862.55
2844.68186	3870.05
2847.20604	3869.85
2849.72867	3855.65
2852.24974	3846.45
2854.76927	3837.75
2857.28724	3827.85
2859.80367	3818.55
2862.31855	3824.35
2864.83189	3814.05
2867.34368	3801.15
2869.85393	3802.35
2872.36264	3797.55
2874.8698	3798.05
2877.37543	3794.45
2879.87952	3786.95
2882.38207	3789.25
2884.88308	3772.75
2887.38256	3779.25
2889.88051	3767.65
2892.37692	3772.75
2894.8718	3767.05
2897.36515	3764.35
2899.85698	3763.25
2902.34727	3769.85
2904.83604	3758.95
2907.32328	3770.55
2909.809	3768.35
2912.29319	3778.15
2914.77587	3772.45
2917.25702	3764.65
2919.73665	3767.45
2922.21476	3770.45
2924.69136	3763.45
2927.16644	3768.65
2929.64	3744.75
2932.11205	3740.65
2934.58258	3728.75
2937.05161	3731.05
2939.51912	3720.95
2941.98513	3717.15
2944.44962	3705.85
2946.91261	3707.85
2949.37409	3705.85
2951.83407	3717.75
2954.29254	3695.05
2956.74951	3711.05
2959.20498	3687.55
2961.65895	3687.35
2964.11142	3687.55
2966.56239	3682.75
2969.01186	3693.85
2971.45984	3692.45
2973.90632	3689.85
2976.35131	3679.75
2978.7948	3653.55
2981.23681	3655.15
2983.67732	3648.05
2986.11635	3638.65
2988.55388	3643.95
2990.98993	3644.95
2993.4245	3632.05
2995.85758	3627.25
2998.28917	3607.55
3000.71928	3602.65
3003.14791	3592.45
3005.57506	3589.85
3008.00073	3563.95
3010.42493	3559.45
3012.84764	3552.95
3015.26888	3539.95
3017.68865	3522.55
3020.10694	3530.55
3022.52376	3537.05
3024.9391	3526.85
3027.35298	3516.15
3029.76539	3496.65
3032.17632	3503.75
3034.5858	3483.05
3036.9938	3473.95
3039.40034	3485.65
3041.80542	3474.45
3044.20903	3458.75
3046.61118	3454.75
3049.01187	3449.05
3051.4111	3444.55
3053.80888	3442.55
3056.20519	3420.55
3058.60005	3410.65
3060.99345	3415.65
3063.3854	3403.65
3065.7759	3406.65
3068.16494	3411.95
3070.55254	3395.55
3072.93868	3384.65
3075.32338	3368.15
3077.70662	3352.95
3080.08842	3340.15
3082.46878	3327.25
3084.84769	3332.95
3087.22515	3329.75
3089.60118	3325.25
3091.97576	3343.45
3094.3489	3323.55
3096.72061	3324.05
3099.09087	3311.65
3101.4597	3309.55
3103.82709	3308.35
3106.19305	3308.85
3108.55757	3290.05
3110.92066	3285.45
3113.28232	3300.95
3115.64255	3278.95
3118.00134	3265.05
3120.35871	3264.85
3122.71466	3261.65
3125.06917	3254.85
3127.42226	3253.15
3129.77393	3240.05
3132.12417	3230.75
3134.47299	3240.05
3136.82039	3220.85
3139.16636	3207.95
3141.51092	3212.75
3143.85406	3220.65
3146.19579	3221.65
3148.53609	3230.55
3150.87499	3220.25
3153.21246	3208.25
3155.54853	3221.15
3157.88318	3210.95
3160.21642	3203.95
3162.54826	3205.65
3164.87868	3201.85
3167.2077	3194.75
3169.5353	3194.65
3171.86151	3191.45
3174.18631	3190.85
3176.5097	3179.45
3178.83169	3174.75
3181.15228	3178.55
3183.47147	3162.65
3185.78926	3156.25
3188.10565	3159.15
3190.42065	3150.25
3192.73424	3135.35
3195.04645	3134.15
3197.35725	3116.25
3199.66667	3114.25
3201.97469	3116.35
3204.28132	3107.95
3206.58656	3098.05
3208.8904	3117.85
3211.19287	3126.65
3213.49394	3117.35
3215.79363	3123.45
3218.09193	3122.55
3220.38884	3101.75
3222.68438	3097.25
3224.97853	3103.05
3227.2713	3111.05
3229.56269	3104.95
3231.8527	3087.85
3234.14133	3078.55
3236.42858	3084.45
3238.71446	3066.15
3240.99896	3061.45
3243.28209	3059.25
3245.56384	3052.95
3247.84423	3044.15
3250.12324	3042.55
3252.40088	3030.95
3254.67715	3025.95
3256.95205	3028.95
3259.22558	3032.15
3261.49775	3028.85
3263.76855	3036.55
3266.03799	3028.55
3268.30606	3037.55
3270.57277	3043.85
3272.83812	3016.85
3275.10211	3005.15
3277.36474	2989.45
3279.62601	2999.15
3281.88593	2969.65
3284.14448	2976.85
3286.40168	2972.15
3288.65753	2981.45
3290.91202	2965.45
3293.16516	2949.55
3295.41695	2950.25
3297.66738	2927.15
3299.91647	2914.85
3302.16421	2896.25
3304.4106	2896.05
3306.65564	2868.25
3308.89933	2833.75
3311.14169	2819.95
3313.38269	2791.85
3315.62236	2776.05
3317.86068	2751.95
3320.09766	2740.95
3322.3333	2708.45
3324.5676	2690.15
3326.80056	2656.65
3329.03219	2626.95
3331.26248	1.25
3333.49143	-0.35
3335.71905	-1.25
