Data from AgNPs_UA_50uM_CRN_500uM_SU_RamanShift__51__14-04-20-323.txt Node

Date: Thu Aug 04 14:04:20 BST 2022
User: TCL
Spectrometer: QEP01345
Trigger mode: 4
Integration Time (sec): 1.000000E0
Scans to average: 10
Electric dark correction enabled: true
Nonlinearity correction enabled: false
Boxcar width: 0
XAxis mode: Raman Shifts
Number of Pixels in Spectrum: 1044
>>>>>Begin Spectral Data<<<<<
46.04893	0.85
50.45542	-1.55
54.85868	-0.55
59.25871	-0.65
63.6555	17.15
68.04907	17.25
72.43941	17.55
76.82654	19.35
81.21044	19.75
85.59113	20.75
89.96862	22.55
94.34289	23.35
98.71396	22.45
103.08183	22.55
107.4465	23.45
111.80798	22.25
116.16626	25.95
120.52136	26.95
124.87327	28.65
129.222	32.55
133.56755	34.25
137.90993	38.05
142.24913	38.55
146.58517	46.95
150.91804	53.15
155.24774	65.95
159.57429	82.55
163.89768	108.05
168.21792	145.45
172.53501	204.75
176.84895	283.05
181.15975	407.95
185.46741	576.05
189.77193	801.35
194.07331	1078.45
198.37157	1396.05
202.6667	1730.55
206.9587	2066.55
211.24758	2401.55
215.53334	2744.55
219.81599	3129.05
224.09553	3546.35
228.37195	4004.55
232.64527	4483.45
236.91549	4982.95
241.18261	5387.25
245.44663	5702.85
249.70755	5942.35
253.96539	6153.75
258.22014	6330.65
262.4718	6520.45
266.72039	6644.75
270.96589	6663.15
275.20832	6629.15
279.44768	6495.35
283.68397	6396.95
287.91719	6327.75
292.14735	6337.95
296.37445	6447.85
300.59849	6691.35
304.81948	7013.85
309.03742	7300.25
313.25231	7482.85
317.46415	7368.05
321.67296	7043.65
325.87872	6680.95
330.08145	6470.95
334.28114	6455.45
338.47781	6544.15
342.67145	6699.05
346.86207	6929.05
351.04966	7238.75
355.23424	7589.05
359.4158	7780.95
363.59435	7889.65
367.76989	7872.75
371.94243	7810.85
376.11196	7738.15
380.27849	7699.85
384.44203	7677.45
388.60257	7699.95
392.76012	7735.05
396.91468	7839.75
401.06626	7976.95
405.21485	8021.75
409.36047	7867.75
413.50311	7553.75
417.64277	7276.75
421.77947	7100.45
425.9132	6993.45
430.04396	7000.15
434.17176	7014.55
438.2966	7104.95
442.41849	7238.35
446.53742	7406.35
450.6534	7532.15
454.76644	7638.15
458.87653	7681.55
462.98368	7667.45
467.08789	7621.25
471.18916	7469.75
475.2875	7301.65
479.38291	7135.45
483.4754	7055.95
487.56496	7002.45
491.6516	6971.55
495.73531	6953.05
499.81612	6965.05
503.89401	7043.55
507.96899	7088.55
512.04106	7147.15
516.11023	7232.35
520.1765	7277.05
524.23987	7292.75
528.30034	7282.15
532.35792	7234.25
536.41261	7164.65
540.46441	7077.75
544.51333	7025.05
548.55936	7097.15
552.60252	7182.15
556.64279	7329.65
560.6802	7431.75
564.71473	7565.05
568.7464	7724.65
572.7752	7656.35
576.80114	7385.75
580.82422	7168.15
584.84444	7059.65
588.86181	7044.65
592.87633	7118.15
596.888	7271.95
600.89682	7653.85
604.9028	8690.15
608.90594	10913.05
612.90624	13142.55
616.90371	12024.35
620.89834	8915.95
624.89015	7655.05
628.87913	7521.25
632.86528	7700.75
636.84862	7792.85
640.82913	7579.65
644.80683	7219.35
648.78172	7009.35
652.75379	7055.45
656.72306	7310.55
660.68952	7615.55
664.65319	7538.65
668.61405	7356.35
672.57211	7405.15
676.52738	7352.75
680.47986	7202.15
684.42955	7037.35
688.37646	6984.05
692.32058	7033.65
696.26192	7181.75
700.20048	7345.35
704.13626	7362.75
708.06928	7272.15
711.99952	7167.95
715.927	7169.55
719.85171	7223.75
723.77365	7243.05
727.69284	7168.95
731.60928	7077.15
735.52295	7063.35
739.43388	7076.05
743.34206	7129.45
747.24749	7129.55
751.15017	7143.25
755.05012	7225.05
758.94733	7556.75
762.8418	8373.85
766.73354	9558.45
770.62254	10469.85
774.50882	10620.85
778.39237	10168.25
782.27321	9305.05
786.15132	8357.05
790.02671	7675.35
793.89938	7336.75
797.76935	7178.25
801.6366	7089.15
805.50115	7065.65
809.36299	7033.75
813.22213	7010.45
817.07857	7003.15
820.93231	6994.85
824.78336	7017.45
828.63172	7049.15
832.47738	7054.45
836.32036	7022.75
840.16066	7015.75
843.99827	6983.45
847.8332	6968.55
851.66546	6972.05
855.49504	6989.65
859.32195	6959.65
863.1462	6981.85
866.96777	6981.25
870.78668	6979.85
874.60293	6995.65
878.41652	7026.45
882.22745	7105.85
886.03573	7115.25
889.84136	7094.25
893.64433	7071.05
897.44466	7047.95
901.24235	7036.55
905.0374	7012.45
908.8298	6990.05
912.61957	6967.45
916.40671	6979.95
920.19121	6991.55
923.97308	7043.35
927.75233	7164.35
931.52895	7208.25
935.30295	7151.95
939.07433	6994.95
942.84309	6881.65
946.60924	6861.15
950.37278	6812.35
954.13371	6813.55
957.89203	6805.65
961.64774	6802.25
965.40086	6791.85
969.15137	6772.95
972.89929	6739.85
976.64461	6775.85
980.38733	6764.35
984.12747	6772.65
987.86502	6807.35
991.59999	6856.75
995.33237	6912.55
999.06217	7007.15
1002.78939	7147.35
1006.51404	7274.75
1010.23611	7409.05
1013.95561	7445.85
1017.67255	7473.95
1021.38692	7445.15
1025.09872	7341.55
1028.80796	7305.75
1032.51465	7316.85
1036.21877	7347.25
1039.92035	7387.15
1043.61937	7377.85
1047.31584	7370.35
1051.00976	7369.85
1054.70114	7350.85
1058.38998	7357.25
1062.07627	7411.05
1065.76003	7449.05
1069.44126	7550.85
1073.11995	7688.95
1076.79611	7859.75
1080.46974	7985.55
1084.14085	8108.15
1087.80943	8221.65
1091.47549	8267.75
1095.13903	8202.75
1098.80005	8136.75
1102.45857	8143.35
1106.11456	8104.05
1109.76805	8020.65
1113.41903	8035.25
1117.06751	8169.65
1120.71348	8352.05
1124.35696	8622.45
1127.99793	8805.45
1131.63641	8610.45
1135.2724	8277.35
1138.90589	8000.55
1142.5369	7817.55
1146.16542	7728.05
1149.79145	7672.55
1153.415	7604.75
1157.03607	7557.75
1160.65467	7627.75
1164.27079	7819.05
1167.88443	8062.65
1171.49561	8481.35
1175.10432	9157.25
1178.71056	10050.05
1182.31434	10763.25
1185.91565	10977.35
1189.51451	10820.45
1193.11091	10501.05
1196.70485	10128.35
1200.29634	9809.95
1203.88538	9482.05
1207.47197	9071.05
1211.05612	8667.85
1214.63782	8404.55
1218.21708	8152.95
1221.79391	8052.75
1225.36829	7993.65
1228.94024	7971.65
1232.50976	7976.95
1236.07685	7966.05
1239.6415	8020.45
1243.20374	8055.15
1246.76355	8091.25
1250.32093	8204.15
1253.8759	8339.35
1257.42845	8600.35
1260.97859	8878.55
1264.52631	9157.35
1268.07163	9368.85
1271.61453	9442.15
1275.15503	9482.55
1278.69312	9466.85
1282.22882	9494.25
1285.76211	9639.95
1289.29301	9876.65
1292.82151	10055.35
1296.34761	10285.85
1299.87133	10685.35
1303.39266	11411.85
1306.9116	12482.85
1310.42815	13619.75
1313.94233	13943.75
1317.45412	13356.45
1320.96354	12340.55
1324.47058	11437.05
1327.97525	10716.75
1331.47754	10292.25
1334.97747	10141.95
1338.47502	10296.55
1341.97022	10715.35
1345.46305	11405.45
1348.95352	12381.65
1352.44163	13425.35
1355.92738	14636.65
1359.41078	16119.75
1362.89183	17268.45
1366.37053	16409.75
1369.84688	13832.65
1373.32088	11585.65
1376.79254	10312.25
1380.26186	9725.15
1383.72883	9374.05
1387.19347	9034.65
1390.65578	8699.75
1394.11575	8405.65
1397.57339	8184.55
1401.0287	8094.25
1404.48168	8047.45
1407.93234	8113.65
1411.38068	8274.45
1414.82669	8427.15
1418.27039	8519.05
1421.71177	8498.15
1425.15083	8437.95
1428.58758	8363.55
1432.02203	8422.55
1435.45416	8499.65
1438.88399	8503.85
1442.31151	8440.95
1445.73673	8433.35
1449.15965	8439.45
1452.58027	8388.95
1455.9986	8290.35
1459.41463	8231.85
1462.82837	8302.15
1466.23982	8451.35
1469.64898	8617.65
1473.05586	8767.85
1476.46045	8884.05
1479.86276	8970.75
1483.26279	9122.85
1486.66054	9342.05
1490.05602	9706.75
1493.44922	10228.25
1496.84016	11039.35
1500.22882	12204.95
1503.61521	13719.45
1506.99934	15217.75
1510.38121	16121.55
1513.76081	15939.65
1517.13816	14607.15
1520.51324	12759.35
1523.88607	11232.35
1527.25665	10271.15
1530.62498	9728.75
1533.99105	9465.65
1537.35488	9315.45
1540.71647	9193.35
1544.07581	9108.05
1547.4329	9013.85
1550.78776	8933.75
1554.14038	8904.85
1557.49077	8983.05
1560.83892	9122.15
1564.18484	9438.55
1567.52853	9767.85
1570.86999	10007.35
1574.20922	10015.05
1577.54624	9848.95
1580.88103	9339.55
1584.2136	8792.55
1587.54395	8465.25
1590.87208	8475.25
1594.19801	8787.35
1597.52172	9151.95
1600.84321	9325.25
1604.16251	9205.75
1607.47959	9012.65
1610.79447	8687.55
1614.10715	8267.15
1617.41763	7834.65
1620.7259	7576.25
1624.03199	7417.85
1627.33587	7396.95
1630.63757	7526.45
1633.93707	7819.15
1637.23439	8355.05
1640.52951	9220.15
1643.82246	10427.05
1647.11321	11696.95
1650.40179	12325.05
1653.68819	11719.35
1656.97241	10219.65
1660.25446	8744.35
1663.53433	7730.35
1666.81203	7138.65
1670.08756	6812.35
1673.36092	6576.65
1676.63211	6471.65
1679.90115	6376.95
1683.16801	6300.65
1686.43272	6237.85
1689.69527	6196.45
1692.95567	6154.95
1696.2139	6127.05
1699.46999	6120.15
1702.72392	6118.95
1705.97571	6106.25
1709.22535	6113.05
1712.47284	6103.05
1715.71819	6122.35
1718.96139	6090.45
1722.20246	6078.95
1725.44139	6049.95
1728.67818	5999.15
1731.91284	5977.95
1735.14537	5938.95
1738.37576	5930.45
1741.60403	5890.05
1744.83017	5872.15
1748.05418	5872.35
1751.27607	5832.85
1754.49584	5818.75
1757.71349	5805.95
1760.92903	5804.35
1764.14244	5797.45
1767.35375	5787.85
1770.56294	5769.95
1773.77002	5764.65
1776.97499	5745.05
1780.17785	5710.15
1783.37861	5711.75
1786.57727	5663.15
1789.77382	5660.35
1792.96828	5653.85
1796.16064	5658.05
1799.3509	5627.55
1802.53907	5638.75
1805.72514	5617.05
1808.90913	5605.05
1812.09102	5589.75
1815.27083	5561.45
1818.44856	5560.65
1821.6242	5537.35
1824.79776	5533.85
1827.96924	5518.35
1831.13864	5501.15
1834.30597	5471.25
1837.47122	5465.35
1840.6344	5473.75
1843.7955	5461.25
1846.95454	5454.15
1850.11151	5448.95
1853.26642	5448.25
1856.41926	5452.35
1859.57004	5439.25
1862.71876	5438.75
1865.86542	5424.45
1869.01003	5425.35
1872.15258	5408.85
1875.29308	5419.35
1878.43152	5407.55
1881.56792	5397.05
1884.70227	5393.15
1887.83457	5390.15
1890.96482	5380.45
1894.09304	5347.25
1897.21921	5358.05
1900.34335	5326.65
1903.46544	5342.95
1906.58551	5320.25
1909.70353	5304.25
1912.81953	5283.25
1915.93349	5301.15
1919.04543	5272.55
1922.15534	5268.65
1925.26322	5256.25
1928.36908	5257.65
1931.47292	5241.85
1934.57473	5230.55
1937.67453	5213.55
1940.77232	5183.35
1943.86808	5164.25
1946.96184	5158.95
1950.05358	5143.65
1953.14331	5128.45
1956.23103	5098.45
1959.31675	5083.95
1962.40046	5079.85
1965.48217	5067.75
1968.56188	5068.35
1971.63959	5030.75
1974.7153	5029.05
1977.78901	4995.65
1980.86073	5003.65
1983.93046	4978.15
1986.99819	4965.65
1990.06394	4944.45
1993.1277	4913.95
1996.18947	4913.95
1999.24925	4902.45
2002.30706	4872.55
2005.36288	4837.95
2008.41672	4831.45
2011.46859	4808.25
2014.51848	4812.15
2017.56639	4794.65
2020.61233	4771.55
2023.6563	4748.35
2026.6983	4746.85
2029.73833	4718.95
2032.7764	4717.25
2035.8125	4682.35
2038.84664	4680.25
2041.87881	4698.35
2044.90903	4675.05
2047.93729	4649.65
2050.96359	4653.75
2053.98794	4637.95
2057.01034	4638.25
2060.03078	4631.65
2063.04927	4627.15
2066.06582	4616.15
2069.08042	4629.25
2072.09307	4602.15
2075.10378	4583.35
2078.11255	4598.75
2081.11938	4596.65
2084.12426	4596.25
2087.12722	4589.15
2090.12824	4582.05
2093.12732	4582.65
2096.12447	4572.85
2099.11969	4604.45
2102.11299	4597.75
2105.10435	4582.85
2108.09379	4588.05
2111.08131	4584.05
2114.0669	4576.75
2117.05057	4585.75
2120.03233	4606.15
2123.01216	4586.55
2125.99008	4583.75
2128.96609	4600.25
2131.94018	4598.15
2134.91236	4582.25
2137.88263	4592.55
2140.851	4603.55
2143.81746	4599.85
2146.78201	4588.15
2149.74466	4581.45
2152.7054	4583.25
2155.66425	4574.15
2158.6212	4580.45
2161.57625	4570.15
2164.52941	4561.45
2167.48067	4566.55
2170.43004	4552.75
2173.37752	4555.65
2176.32311	4551.95
2179.26681	4554.65
2182.20863	4560.75
2185.14856	4552.45
2188.08661	4536.65
2191.02278	4546.55
2193.95707	4527.35
2196.88948	4543.25
2199.82001	4530.05
2202.74867	4519.95
2205.67545	4521.45
2208.60037	4529.15
2211.52341	4501.45
2214.44458	4490.55
2217.36388	4489.35
2220.28132	4486.05
2223.1969	4443.45
2226.11061	4434.65
2229.02246	4445.35
2231.93245	4429.75
2234.84058	4424.55
2237.74686	4406.15
2240.65128	4409.75
2243.55385	4391.35
2246.45456	4399.25
2249.35343	4400.25
2252.25044	4395.25
2255.14561	4370.35
2258.03893	4385.05
2260.93041	4366.45
2263.82004	4383.15
2266.70783	4362.55
2269.59378	4364.85
2272.4779	4339.35
2275.36017	4308.05
2278.24061	4289.05
2281.11922	4290.95
2283.996	4275.15
2286.87094	4267.95
2289.74405	4275.05
2292.61534	4263.85
2295.4848	4251.65
2298.35243	4264.85
2301.21824	4243.45
2304.08223	4236.35
2306.94439	4247.65
2309.80474	4234.95
2312.66327	4249.75
2315.51999	4226.35
2318.37489	4214.05
2321.22797	4214.15
2324.07925	4198.25
2326.92871	4182.25
2329.77637	4188.25
2332.62222	4179.75
2335.46626	4161.55
2338.3085	4162.05
2341.14893	4157.05
2343.98756	4159.45
2346.8244	4157.75
2349.65943	4134.65
2352.49267	4152.35
2355.32411	4153.05
2358.15376	4151.65
2360.98161	4143.75
2363.80768	4137.35
2366.63195	4162.95
2369.45444	4141.05
2372.27514	4140.95
2375.09405	4133.85
2377.91118	4123.85
2380.72652	4099.85
2383.54009	4090.05
2386.35187	4079.45
2389.16188	4076.65
2391.97011	4063.65
2394.77657	4057.35
2397.58125	4040.05
2400.38416	4024.65
2403.18529	4023.75
2405.98466	4020.15
2408.78226	4010.15
2411.57809	3992.65
2414.37216	4002.35
2417.16446	3984.75
2419.955	3980.35
2422.74378	3977.65
2425.5308	3988.85
2428.31606	3994.85
2431.09956	3983.05
2433.88131	3973.15
2436.6613	3962.85
2439.43954	3973.25
2442.21603	3970.65
2444.99077	3959.55
2447.76377	3957.45
2450.53501	3951.15
2453.30451	3968.75
2456.07226	3958.85
2458.83827	3941.25
2461.60254	3932.25
2464.36507	3929.85
2467.12586	3923.05
2469.88492	3931.75
2472.64224	3930.35
2475.39782	3914.05
2478.15167	3909.95
2480.90379	3909.45
2483.65417	3914.15
2486.40283	3917.85
2489.14976	3920.05
2491.89497	3919.55
2494.63845	3921.85
2497.3802	3899.55
2500.12024	3889.65
2502.85855	3883.45
2505.59514	3888.75
2508.33002	3887.95
2511.06318	3863.65
2513.79462	3860.55
2516.52435	3834.85
2519.25237	3827.95
2521.97867	3831.15
2524.70327	3817.55
2527.42616	3812.85
2530.14734	3811.75
2532.86681	3810.95
2535.58458	3825.35
2538.30065	3804.85
2541.01501	3794.65
2543.72768	3784.45
2546.43864	3787.25
2549.14791	3786.45
2551.85548	3786.85
2554.56136	3774.25
2557.26554	3760.05
2559.96803	3761.95
2562.66883	3740.05
2565.36794	3747.45
2568.06536	3735.75
2570.7611	3725.15
2573.45514	3712.55
2576.14751	3699.95
2578.83819	3696.85
2581.52719	3691.15
2584.21451	3678.95
2586.90015	3674.15
2589.58411	3686.05
2592.2664	3669.25
2594.94701	3660.85
2597.62594	3664.35
2600.30321	3658.65
2602.9788	3647.75
2605.65273	3641.25
2608.32498	3635.45
2610.99557	3650.05
2613.66449	3620.25
2616.33175	3632.15
2618.99734	3627.55
2621.66128	3604.35
2624.32355	3611.65
2626.98416	3594.35
2629.64311	3593.85
2632.30041	3576.35
2634.95605	3573.65
2637.61004	3572.15
2640.26238	3556.55
2642.91306	3558.25
2645.56209	3558.25
2648.20948	3557.85
2650.85521	3567.75
2653.4993	3553.55
2656.14175	3556.15
2658.78255	3559.95
2661.42171	3553.85
2664.05923	3559.95
2666.6951	3548.15
2669.32934	3557.15
2671.96194	3552.05
2674.59291	3541.35
2677.22224	3544.85
2679.84993	3535.35
2682.476	3539.05
2685.10043	3540.75
2687.72324	3539.95
2690.34441	3521.45
2692.96396	3525.95
2695.58188	3518.65
2698.19818	3529.25
2700.81285	3527.75
2703.4259	3521.65
2706.03733	3519.25
2708.64714	3522.95
2711.25533	3524.25
2713.86191	3505.65
2716.46687	3509.55
2719.07021	3513.35
2721.67194	3508.95
2724.27206	3510.45
2726.87057	3503.25
2729.46747	3504.95
2732.06276	3501.05
2734.65644	3495.15
2737.24852	3497.25
2739.83899	3487.05
2742.42786	3490.55
2745.01513	3470.15
2747.60079	3467.25
2750.18486	3463.15
2752.76733	3480.85
2755.3482	3459.55
2757.92747	3457.25
2760.50515	3444.25
2763.08123	3448.05
2765.65573	3432.75
2768.22863	3409.25
2770.79994	3414.95
2773.36967	3418.65
2775.9378	3410.45
2778.50435	3429.25
2781.06932	3410.85
2783.6327	3406.95
2786.1945	3384.45
2788.75471	3401.55
2791.31335	3371.95
2793.87041	3384.25
2796.42589	3373.95
2798.97979	3363.45
2801.53212	3363.25
2804.08288	3360.35
2806.63206	3355.85
2809.17967	3335.95
2811.72571	3335.35
2814.27018	3326.55
2816.81308	3327.75
2819.35442	3312.85
2821.89419	3318.65
2824.43239	3304.45
2826.96904	3303.95
2829.50412	3300.05
2832.03763	3272.05
2834.56959	3273.35
2837.1	3268.55
2839.62884	3266.55
2842.15613	3252.85
2844.68186	3269.45
2847.20604	3254.25
2849.72867	3257.75
2852.24974	3235.95
2854.76927	3248.45
2857.28724	3231.55
2859.80367	3228.85
2862.31855	3240.65
2864.83189	3227.15
2867.34368	3235.65
2869.85393	3217.05
2872.36264	3216.05
2874.8698	3215.85
2877.37543	3209.75
2879.87952	3205.25
2882.38207	3196.85
2884.88308	3181.35
2887.38256	3183.75
2889.88051	3183.65
2892.37692	3168.45
2894.8718	3165.25
2897.36515	3157.75
2899.85698	3168.75
2902.34727	3168.35
2904.83604	3169.25
2907.32328	3193.85
2909.809	3191.15
2912.29319	3184.75
2914.77587	3185.45
2917.25702	3196.75
2919.73665	3196.25
2922.21476	3179.25
2924.69136	3169.65
2927.16644	3170.65
2929.64	3162.55
2932.11205	3144.35
2934.58258	3142.25
2937.05161	3150.05
2939.51912	3152.75
2941.98513	3145.25
2944.44962	3125.25
2946.91261	3127.55
2949.37409	3134.05
2951.83407	3113.55
2954.29254	3139.15
2956.74951	3128.65
2959.20498	3131.45
2961.65895	3105.85
2964.11142	3111.55
2966.56239	3090.45
2969.01186	3111.95
2971.45984	3098.55
2973.90632	3103.65
2976.35131	3090.55
2978.7948	3096.15
2981.23681	3090.25
2983.67732	3088.25
2986.11635	3067.45
2988.55388	3064.75
2990.98993	3058.55
2993.4245	3046.75
2995.85758	3047.05
2998.28917	3036.85
3000.71928	3039.85
3003.14791	3018.45
3005.57506	3023.15
3008.00073	3002.45
3010.42493	3014.25
3012.84764	3000.95
3015.26888	2994.85
3017.68865	2993.85
3020.10694	2976.15
3022.52376	2968.45
3024.9391	2959.95
3027.35298	2938.75
3029.76539	2935.15
3032.17632	2922.05
3034.5858	2934.25
3036.9938	2913.95
3039.40034	2905.95
3041.80542	2912.45
3044.20903	2899.75
3046.61118	2905.85
3049.01187	2888.85
3051.4111	2879.35
3053.80888	2878.55
3056.20519	2870.05
3058.60005	2860.85
3060.99345	2860.85
3063.3854	2839.45
3065.7759	2840.55
3068.16494	2838.85
3070.55254	2831.05
3072.93868	2810.75
3075.32338	2817.15
3077.70662	2801.05
3080.08842	2798.65
3082.46878	2779.25
3084.84769	2775.35
3087.22515	2770.35
3089.60118	2777.15
3091.97576	2770.05
3094.3489	2769.25
3096.72061	2773.75
3099.09087	2769.85
3101.4597	2755.65
3103.82709	2767.95
3106.19305	2753.05
3108.55757	2748.25
3110.92066	2736.05
3113.28232	2746.75
3115.64255	2738.05
3118.00134	2738.75
3120.35871	2729.55
3122.71466	2715.95
3125.06917	2708.35
3127.42226	2708.35
3129.77393	2694.15
3132.12417	2689.15
3134.47299	2691.75
3136.82039	2689.55
3139.16636	2684.95
3141.51092	2675.05
3143.85406	2664.55
3146.19579	2675.75
3148.53609	2678.75
3150.87499	2679.85
3153.21246	2677.15
3155.54853	2680.25
3157.88318	2680.45
3160.21642	2673.65
3162.54826	2675.25
3164.87868	2668.95
3167.2077	2662.15
3169.5353	2660.85
3171.86151	2650.55
3174.18631	2649.45
3176.5097	2648.95
3178.83169	2643.65
3181.15228	2641.55
3183.47147	2630.75
3185.78926	2629.55
3188.10565	2610.95
3190.42065	2600.25
3192.73424	2615.45
3195.04645	2600.85
3197.35725	2589.15
3199.66667	2611.35
3201.97469	2605.15
3204.28132	2592.25
3206.58656	2602.35
3208.8904	2608.65
3211.19287	2591.55
3213.49394	2608.55
3215.79363	2599.75
3218.09193	2586.95
3220.38884	2602.55
3222.68438	2600.95
3224.97853	2582.25
3227.2713	2583.85
3229.56269	2577.05
3231.8527	2575.95
3234.14133	2563.55
3236.42858	2554.55
3238.71446	2565.65
3240.99896	2543.75
3243.28209	2541.45
3245.56384	2537.65
3247.84423	2536.35
3250.12324	2534.05
3252.40088	2535.65
3254.67715	2529.25
3256.95205	2518.85
3259.22558	2514.65
3261.49775	2517.85
3263.76855	2510.95
3266.03799	2515.25
3268.30606	2500.35
3270.57277	2512.45
3272.83812	2497.05
3275.10211	2490.35
3277.36474	2484.95
3279.62601	2478.05
3281.88593	2468.85
3284.14448	2475.45
3286.40168	2476.95
3288.65753	2488.85
3290.91202	2473.15
3293.16516	2473.55
3295.41695	2466.35
3297.66738	2450.45
3299.91647	2427.25
3302.16421	2409.15
3304.4106	2399.85
3306.65564	2386.05
3308.89933	2375.05
3311.14169	2347.55
3313.38269	2337.15
3315.62236	2315.65
3317.86068	2296.75
3320.09766	2282.95
3322.3333	2272.45
3324.5676	2256.65
3326.80056	2213.35
3329.03219	2211.05
3331.26248	0.25
3333.49143	1.15
3335.71905	0.55
