Data from AgNPs_UA_20uM_CRN_500uM_SU_RamanShift__45__13-44-00-300.txt Node

Date: Thu Aug 04 13:44:00 BST 2022
User: TCL
Spectrometer: QEP01345
Trigger mode: 4
Integration Time (sec): 1.000000E0
Scans to average: 10
Electric dark correction enabled: true
Nonlinearity correction enabled: false
Boxcar width: 0
XAxis mode: Raman Shifts
Number of Pixels in Spectrum: 1044
>>>>>Begin Spectral Data<<<<<
46.04893	-2.65
50.45542	0.65
54.85868	1.15
59.25871	-0.05
63.6555	18.45
68.04907	16.65
72.43941	21.35
76.82654	19.65
81.21044	21.55
85.59113	22.05
89.96862	22.55
94.34289	22.75
98.71396	23.35
103.08183	25.45
107.4465	26.45
111.80798	27.75
116.16626	28.15
120.52136	29.35
124.87327	29.45
129.222	34.95
133.56755	33.65
137.90993	36.25
142.24913	41.75
146.58517	46.15
150.91804	54.35
155.24774	66.25
159.57429	84.35
163.89768	108.95
168.21792	145.75
172.53501	200.55
176.84895	281.15
181.15975	402.45
185.46741	557.25
189.77193	782.95
194.07331	1043.85
198.37157	1349.05
202.6667	1672.95
206.9587	2000.65
211.24758	2325.95
215.53334	2634.75
219.81599	2990.75
224.09553	3377.45
228.37195	3798.45
232.64527	4253.15
236.91549	4704.95
241.18261	5138.25
245.44663	5485.05
249.70755	5766.25
253.96539	6031.25
258.22014	6254.45
262.4718	6446.15
266.72039	6568.45
270.96589	6606.75
275.20832	6588.95
279.44768	6517.25
283.68397	6392.65
287.91719	6320.85
292.14735	6308.35
296.37445	6393.45
300.59849	6557.35
304.81948	6763.35
309.03742	6954.95
313.25231	7032.55
317.46415	6972.45
321.67296	6744.45
325.87872	6487.45
330.08145	6374.75
334.28114	6361.55
338.47781	6468.25
342.67145	6594.15
346.86207	6786.35
351.04966	7000.65
355.23424	7258.35
359.4158	7441.35
363.59435	7534.35
367.76989	7604.25
371.94243	7606.25
376.11196	7610.65
380.27849	7622.35
384.44203	7599.05
388.60257	7656.95
392.76012	7729.45
396.91468	7831.45
401.06626	7914.95
405.21485	7984.85
409.36047	7875.95
413.50311	7640.25
417.64277	7475.95
421.77947	7350.65
425.9132	7285.65
430.04396	7271.75
434.17176	7319.25
438.2966	7410.05
442.41849	7536.95
446.53742	7713.45
450.6534	7888.95
454.76644	8002.65
458.87653	8040.35
462.98368	8040.15
467.08789	7971.65
471.18916	7857.05
475.2875	7683.55
479.38291	7554.75
483.4754	7462.25
487.56496	7400.75
491.6516	7374.85
495.73531	7366.05
499.81612	7372.25
503.89401	7451.25
507.96899	7471.55
512.04106	7540.05
516.11023	7567.65
520.1765	7597.65
524.23987	7634.55
528.30034	7623.05
532.35792	7573.75
536.41261	7523.95
540.46441	7479.45
544.51333	7426.75
548.55936	7475.25
552.60252	7587.55
556.64279	7678.05
560.6802	7783.75
564.71473	7864.95
568.7464	7954.55
572.7752	7913.05
576.80114	7765.05
580.82422	7602.85
584.84444	7566.55
588.86181	7607.45
592.87633	7667.85
596.888	7837.05
600.89682	8155.65
604.9028	9027.15
608.90594	10753.55
612.90624	12435.15
616.90371	11477.35
620.89834	9114.45
624.89015	8167.15
628.87913	8099.55
632.86528	8198.15
636.84862	8211.35
640.82913	8027.15
644.80683	7755.25
648.78172	7590.55
652.75379	7631.65
656.72306	7860.85
660.68952	8095.15
664.65319	8046.95
668.61405	7924.25
672.57211	7964.95
676.52738	7949.35
680.47986	7828.35
684.42955	7660.25
688.37646	7631.45
692.32058	7734.45
696.26192	7859.95
700.20048	7966.45
704.13626	7994.45
708.06928	7924.55
711.99952	7830.85
715.927	7825.85
719.85171	7873.85
723.77365	7859.25
727.69284	7823.85
731.60928	7746.45
735.52295	7755.95
739.43388	7792.15
743.34206	7801.15
747.24749	7863.85
751.15017	7846.25
755.05012	7942.05
758.94733	8189.55
762.8418	8797.15
766.73354	9723.85
770.62254	10484.45
774.50882	10658.05
778.39237	10301.25
782.27321	9631.05
786.15132	8862.95
790.02671	8323.75
793.89938	8041.75
797.76935	7921.85
801.6366	7862.05
805.50115	7828.25
809.36299	7786.75
813.22213	7779.45
817.07857	7787.45
820.93231	7787.75
824.78336	7799.95
828.63172	7820.65
832.47738	7823.85
836.32036	7808.55
840.16066	7797.65
843.99827	7813.75
847.8332	7839.45
851.66546	7843.65
855.49504	7820.85
859.32195	7843.75
863.1462	7841.45
866.96777	7831.35
870.78668	7822.35
874.60293	7830.35
878.41652	7885.85
882.22745	7921.95
886.03573	7943.75
889.84136	7963.25
893.64433	7920.05
897.44466	7895.05
901.24235	7887.65
905.0374	7850.55
908.8298	7820.55
912.61957	7793.75
916.40671	7801.35
920.19121	7855.45
923.97308	7923.45
927.75233	8015.45
931.52895	8049.65
935.30295	8031.05
939.07433	7896.45
942.84309	7812.25
946.60924	7736.75
950.37278	7730.05
954.13371	7701.95
957.89203	7686.65
961.64774	7697.55
965.40086	7687.65
969.15137	7668.75
972.89929	7662.45
976.64461	7673.15
980.38733	7676.65
984.12747	7683.65
987.86502	7758.35
991.59999	7811.85
995.33237	7907.85
999.06217	8018.65
1002.78939	8171.95
1006.51404	8318.15
1010.23611	8395.45
1013.95561	8456.55
1017.67255	8505.45
1021.38692	8501.85
1025.09872	8459.75
1028.80796	8470.25
1032.51465	8543.15
1036.21877	8610.55
1039.92035	8632.95
1043.61937	8590.45
1047.31584	8522.55
1051.00976	8447.65
1054.70114	8406.35
1058.38998	8425.45
1062.07627	8459.55
1065.76003	8515.95
1069.44126	8610.15
1073.11995	8714.85
1076.79611	8834.65
1080.46974	8957.25
1084.14085	9043.95
1087.80943	9134.85
1091.47549	9165.85
1095.13903	9125.25
1098.80005	9074.05
1102.45857	9040.75
1106.11456	9029.95
1109.76805	8932.35
1113.41903	8979.65
1117.06751	9047.35
1120.71348	9220.15
1124.35696	9384.35
1127.99793	9485.65
1131.63641	9353.85
1135.2724	9118.65
1138.90589	8900.85
1142.5369	8755.45
1146.16542	8667.75
1149.79145	8636.55
1153.415	8550.45
1157.03607	8538.65
1160.65467	8614.95
1164.27079	8789.55
1167.88443	9035.25
1171.49561	9419.35
1175.10432	10028.85
1178.71056	10823.05
1182.31434	11536.95
1185.91565	11819.15
1189.51451	11760.55
1193.11091	11532.55
1196.70485	11193.65
1200.29634	10877.05
1203.88538	10543.65
1207.47197	10129.25
1211.05612	9762.15
1214.63782	9474.95
1218.21708	9304.15
1221.79391	9241.65
1225.36829	9221.85
1228.94024	9212.15
1232.50976	9165.05
1236.07685	9173.75
1239.6415	9176.55
1243.20374	9221.05
1246.76355	9287.15
1250.32093	9397.45
1253.8759	9555.25
1257.42845	9792.55
1260.97859	10035.35
1264.52631	10292.25
1268.07163	10464.65
1271.61453	10589.55
1275.15503	10673.05
1278.69312	10734.45
1282.22882	10799.95
1285.76211	10889.05
1289.29301	11079.05
1292.82151	11245.95
1296.34761	11497.45
1299.87133	11863.65
1303.39266	12497.35
1306.9116	13420.45
1310.42815	14356.05
1313.94233	14706.75
1317.45412	14290.45
1320.96354	13550.55
1324.47058	12786.35
1327.97525	12120.15
1331.47754	11765.95
1334.97747	11752.15
1338.47502	11936.05
1341.97022	12355.05
1345.46305	12943.75
1348.95352	13672.75
1352.44163	14489.45
1355.92738	15392.55
1359.41078	16479.15
1362.89183	17254.35
1366.37053	16479.25
1369.84688	14381.15
1373.32088	12501.75
1376.79254	11402.15
1380.26186	10874.35
1383.72883	10558.15
1387.19347	10312.15
1390.65578	10032.25
1394.11575	9758.65
1397.57339	9567.25
1401.0287	9469.05
1404.48168	9489.75
1407.93234	9557.15
1411.38068	9705.95
1414.82669	9839.25
1418.27039	9904.95
1421.71177	9844.05
1425.15083	9774.35
1428.58758	9764.05
1432.02203	9843.15
1435.45416	9936.05
1438.88399	9936.85
1442.31151	9867.95
1445.73673	9853.85
1449.15965	9842.35
1452.58027	9753.25
1455.9986	9701.35
1459.41463	9670.55
1462.82837	9725.65
1466.23982	9864.15
1469.64898	10030.65
1473.05586	10221.45
1476.46045	10313.85
1479.86276	10410.25
1483.26279	10522.55
1486.66054	10753.55
1490.05602	11034.15
1493.44922	11505.25
1496.84016	12130.75
1500.22882	13061.75
1503.61521	14228.75
1506.99934	15308.05
1510.38121	15881.25
1513.76081	15624.85
1517.13816	14540.05
1520.51324	13158.35
1523.88607	12041.95
1527.25665	11357.35
1530.62498	11001.65
1533.99105	10809.45
1537.35488	10684.35
1540.71647	10595.55
1544.07581	10520.35
1547.4329	10416.35
1550.78776	10329.75
1554.14038	10274.85
1557.49077	10240.75
1560.83892	10337.75
1564.18484	10537.85
1567.52853	10750.85
1570.86999	10886.35
1574.20922	10920.45
1577.54624	10760.05
1580.88103	10394.85
1584.2136	9974.15
1587.54395	9764.35
1590.87208	9889.65
1594.19801	10307.25
1597.52172	10812.55
1600.84321	11084.25
1604.16251	10981.85
1607.47959	10718.65
1610.79447	10292.95
1614.10715	9765.15
1617.41763	9283.55
1620.7259	8925.75
1624.03199	8742.85
1627.33587	8733.05
1630.63757	8863.05
1633.93707	9193.45
1637.23439	9760.65
1640.52951	10561.75
1643.82246	11554.15
1647.11321	12529.15
1650.40179	12817.45
1653.68819	12139.95
1656.97241	10815.75
1660.25446	9553.35
1663.53433	8710.75
1666.81203	8201.65
1670.08756	7909.35
1673.36092	7743.15
1676.63211	7607.85
1679.90115	7517.75
1683.16801	7471.05
1686.43272	7392.95
1689.69527	7358.75
1692.95567	7327.55
1696.2139	7323.75
1699.46999	7288.65
1702.72392	7291.25
1705.97571	7282.25
1709.22535	7285.05
1712.47284	7267.85
1715.71819	7250.25
1718.96139	7249.55
1722.20246	7227.55
1725.44139	7201.35
1728.67818	7162.75
1731.91284	7138.55
1735.14537	7123.65
1738.37576	7090.55
1741.60403	7058.75
1744.83017	7049.65
1748.05418	7033.45
1751.27607	7051.25
1754.49584	6993.65
1757.71349	6954.25
1760.92903	6957.75
1764.14244	6971.75
1767.35375	6961.95
1770.56294	6938.75
1773.77002	6940.35
1776.97499	6927.85
1780.17785	6895.55
1783.37861	6881.45
1786.57727	6854.45
1789.77382	6847.85
1792.96828	6834.15
1796.16064	6828.25
1799.3509	6827.55
1802.53907	6810.45
1805.72514	6813.85
1808.90913	6792.95
1812.09102	6770.85
1815.27083	6782.75
1818.44856	6741.15
1821.6242	6721.35
1824.79776	6711.15
1827.96924	6704.65
1831.13864	6690.05
1834.30597	6675.35
1837.47122	6690.85
1840.6344	6650.95
1843.7955	6658.85
1846.95454	6634.95
1850.11151	6653.15
1853.26642	6638.85
1856.41926	6641.75
1859.57004	6640.25
1862.71876	6629.35
1865.86542	6617.05
1869.01003	6624.75
1872.15258	6606.05
1875.29308	6595.45
1878.43152	6588.95
1881.56792	6582.65
1884.70227	6573.75
1887.83457	6561.45
1890.96482	6545.25
1894.09304	6536.55
1897.21921	6520.15
1900.34335	6520.15
1903.46544	6521.65
1906.58551	6515.15
1909.70353	6509.95
1912.81953	6502.25
1915.93349	6486.05
1919.04543	6478.65
1922.15534	6477.05
1925.26322	6451.45
1928.36908	6423.55
1931.47292	6429.45
1934.57473	6418.45
1937.67453	6406.25
1940.77232	6402.85
1943.86808	6381.65
1946.96184	6354.45
1950.05358	6336.55
1953.14331	6327.05
1956.23103	6293.45
1959.31675	6258.05
1962.40046	6257.25
1965.48217	6239.05
1968.56188	6230.75
1971.63959	6205.95
1974.7153	6180.15
1977.78901	6184.35
1980.86073	6132.15
1983.93046	6137.05
1986.99819	6097.75
1990.06394	6107.25
1993.1277	6060.55
1996.18947	6054.95
1999.24925	6036.65
2002.30706	6017.85
2005.36288	5980.05
2008.41672	5967.95
2011.46859	5945.95
2014.51848	5923.75
2017.56639	5910.85
2020.61233	5909.55
2023.6563	5901.65
2026.6983	5901.55
2029.73833	5853.95
2032.7764	5836.45
2035.8125	5813.55
2038.84664	5813.55
2041.87881	5821.15
2044.90903	5793.35
2047.93729	5789.05
2050.96359	5789.15
2053.98794	5765.65
2057.01034	5769.45
2060.03078	5766.15
2063.04927	5742.35
2066.06582	5743.15
2069.08042	5728.55
2072.09307	5731.15
2075.10378	5725.05
2078.11255	5729.95
2081.11938	5703.35
2084.12426	5714.75
2087.12722	5706.35
2090.12824	5716.05
2093.12732	5713.55
2096.12447	5722.25
2099.11969	5717.85
2102.11299	5699.45
2105.10435	5700.75
2108.09379	5701.15
2111.08131	5703.45
2114.0669	5696.95
2117.05057	5715.45
2120.03233	5694.85
2123.01216	5695.45
2125.99008	5712.95
2128.96609	5725.25
2131.94018	5740.95
2134.91236	5704.75
2137.88263	5717.25
2140.851	5714.95
2143.81746	5723.45
2146.78201	5718.55
2149.74466	5710.95
2152.7054	5702.35
2155.66425	5692.75
2158.6212	5697.55
2161.57625	5726.95
2164.52941	5694.25
2167.48067	5710.55
2170.43004	5689.75
2173.37752	5690.05
2176.32311	5698.55
2179.26681	5690.85
2182.20863	5691.35
2185.14856	5676.35
2188.08661	5682.55
2191.02278	5694.25
2193.95707	5685.75
2196.88948	5693.75
2199.82001	5686.85
2202.74867	5668.15
2205.67545	5684.25
2208.60037	5663.75
2211.52341	5638.35
2214.44458	5631.85
2217.36388	5632.95
2220.28132	5609.45
2223.1969	5582.15
2226.11061	5568.45
2229.02246	5561.35
2231.93245	5554.05
2234.84058	5534.95
2237.74686	5536.95
2240.65128	5521.75
2243.55385	5546.95
2246.45456	5534.05
2249.35343	5511.95
2252.25044	5514.65
2255.14561	5506.65
2258.03893	5497.25
2260.93041	5487.05
2263.82004	5459.95
2266.70783	5476.45
2269.59378	5445.15
2272.4779	5422.65
2275.36017	5424.55
2278.24061	5393.75
2281.11922	5396.85
2283.996	5364.85
2286.87094	5363.65
2289.74405	5342.05
2292.61534	5365.35
2295.4848	5353.35
2298.35243	5353.05
2301.21824	5318.35
2304.08223	5327.35
2306.94439	5347.35
2309.80474	5354.25
2312.66327	5318.75
2315.51999	5314.65
2318.37489	5312.75
2321.22797	5298.15
2324.07925	5297.55
2326.92871	5273.65
2329.77637	5279.95
2332.62222	5286.45
2335.46626	5272.55
2338.3085	5249.45
2341.14893	5260.05
2343.98756	5259.05
2346.8244	5255.55
2349.65943	5250.75
2352.49267	5241.85
2355.32411	5243.75
2358.15376	5243.25
2360.98161	5238.55
2363.80768	5217.25
2366.63195	5231.65
2369.45444	5230.55
2372.27514	5222.95
2375.09405	5195.55
2377.91118	5210.25
2380.72652	5194.15
2383.54009	5150.85
2386.35187	5155.15
2389.16188	5137.45
2391.97011	5131.35
2394.77657	5119.65
2397.58125	5129.05
2400.38416	5114.25
2403.18529	5085.65
2405.98466	5092.35
2408.78226	5094.15
2411.57809	5069.65
2414.37216	5058.45
2417.16446	5056.15
2419.955	5049.05
2422.74378	5048.85
2425.5308	5021.45
2428.31606	5025.35
2431.09956	5025.95
2433.88131	5024.95
2436.6613	5004.05
2439.43954	5011.85
2442.21603	5010.05
2444.99077	5007.35
2447.76377	5003.05
2450.53501	5012.05
2453.30451	4979.45
2456.07226	4985.25
2458.83827	4983.55
2461.60254	4973.45
2464.36507	4983.65
2467.12586	4962.05
2469.88492	4964.15
2472.64224	4955.05
2475.39782	4959.25
2478.15167	4954.85
2480.90379	4944.55
2483.65417	4948.45
2486.40283	4932.05
2489.14976	4958.55
2491.89497	4934.15
2494.63845	4937.05
2497.3802	4946.45
2500.12024	4934.75
2502.85855	4931.55
2505.59514	4909.25
2508.33002	4900.25
2511.06318	4860.85
2513.79462	4860.85
2516.52435	4879.55
2519.25237	4866.15
2521.97867	4859.65
2524.70327	4859.75
2527.42616	4839.95
2530.14734	4834.15
2532.86681	4840.15
2535.58458	4830.85
2538.30065	4817.65
2541.01501	4830.65
2543.72768	4824.05
2546.43864	4814.75
2549.14791	4814.35
2551.85548	4812.95
2554.56136	4801.25
2557.26554	4793.35
2559.96803	4777.35
2562.66883	4767.05
2565.36794	4768.95
2568.06536	4743.05
2570.7611	4726.35
2573.45514	4718.45
2576.14751	4720.55
2578.83819	4702.45
2581.52719	4709.15
2584.21451	4697.35
2586.90015	4680.25
2589.58411	4670.05
2592.2664	4691.75
2594.94701	4682.45
2597.62594	4676.25
2600.30321	4659.35
2602.9788	4663.85
2605.65273	4643.35
2608.32498	4653.35
2610.99557	4626.15
2613.66449	4615.95
2616.33175	4604.45
2618.99734	4619.05
2621.66128	4612.45
2624.32355	4624.85
2626.98416	4619.35
2629.64311	4597.55
2632.30041	4589.75
2634.95605	4593.15
2637.61004	4565.45
2640.26238	4567.55
2642.91306	4570.95
2645.56209	4550.95
2648.20948	4562.75
2650.85521	4551.95
2653.4993	4549.25
2656.14175	4537.25
2658.78255	4539.65
2661.42171	4535.85
2664.05923	4560.15
2666.6951	4565.85
2669.32934	4561.75
2671.96194	4546.85
2674.59291	4539.35
2677.22224	4560.95
2679.84993	4556.05
2682.476	4550.25
2685.10043	4541.15
2687.72324	4521.15
2690.34441	4522.85
2692.96396	4533.35
2695.58188	4523.25
2698.19818	4520.35
2700.81285	4534.35
2703.4259	4533.65
2706.03733	4521.15
2708.64714	4505.85
2711.25533	4490.65
2713.86191	4502.35
2716.46687	4510.35
2719.07021	4515.55
2721.67194	4503.55
2724.27206	4501.65
2726.87057	4496.55
2729.46747	4509.25
2732.06276	4507.25
2734.65644	4507.85
2737.24852	4494.65
2739.83899	4486.35
2742.42786	4491.35
2745.01513	4486.35
2747.60079	4481.95
2750.18486	4457.35
2752.76733	4454.35
2755.3482	4460.95
2757.92747	4442.55
2760.50515	4424.75
2763.08123	4438.85
2765.65573	4428.45
2768.22863	4426.55
2770.79994	4419.95
2773.36967	4409.45
2775.9378	4408.85
2778.50435	4408.65
2781.06932	4398.45
2783.6327	4387.35
2786.1945	4387.85
2788.75471	4371.55
2791.31335	4351.35
2793.87041	4357.85
2796.42589	4366.65
2798.97979	4345.95
2801.53212	4331.75
2804.08288	4332.65
2806.63206	4327.65
2809.17967	4313.65
2811.72571	4324.65
2814.27018	4315.35
2816.81308	4293.15
2819.35442	4283.45
2821.89419	4261.55
2824.43239	4261.25
2826.96904	4255.65
2829.50412	4256.45
2832.03763	4255.75
2834.56959	4225.85
2837.1	4208.55
2839.62884	4220.15
2842.15613	4222.35
2844.68186	4223.75
2847.20604	4233.85
2849.72867	4204.35
2852.24974	4198.35
2854.76927	4177.95
2857.28724	4171.35
2859.80367	4167.35
2862.31855	4170.05
2864.83189	4153.95
2867.34368	4150.45
2869.85393	4156.35
2872.36264	4149.65
2874.8698	4150.65
2877.37543	4137.45
2879.87952	4124.05
2882.38207	4133.65
2884.88308	4124.35
2887.38256	4116.15
2889.88051	4114.95
2892.37692	4125.65
2894.8718	4112.75
2897.36515	4118.75
2899.85698	4117.15
2902.34727	4111.15
2904.83604	4104.75
2907.32328	4112.05
2909.809	4121.15
2912.29319	4125.85
2914.77587	4135.05
2917.25702	4122.15
2919.73665	4118.15
2922.21476	4123.75
2924.69136	4106.85
2927.16644	4104.55
2929.64	4107.35
2932.11205	4070.25
2934.58258	4062.55
2937.05161	4068.05
2939.51912	4072.15
2941.98513	4054.65
2944.44962	4057.75
2946.91261	4051.05
2949.37409	4066.25
2951.83407	4065.55
2954.29254	4060.05
2956.74951	4043.85
2959.20498	4035.55
2961.65895	4041.65
2964.11142	4033.35
2966.56239	4028.05
2969.01186	4020.95
2971.45984	4028.95
2973.90632	4029.55
2976.35131	4010.15
2978.7948	4001.75
2981.23681	3987.75
2983.67732	3978.15
2986.11635	3984.25
2988.55388	3987.15
2990.98993	3963.35
2993.4245	3964.45
2995.85758	3957.75
2998.28917	3946.85
3000.71928	3926.55
3003.14791	3907.55
3005.57506	3898.55
3008.00073	3896.75
3010.42493	3886.45
3012.84764	3863.15
3015.26888	3864.95
3017.68865	3852.55
3020.10694	3871.75
3022.52376	3842.95
3024.9391	3831.55
3027.35298	3817.25
3029.76539	3826.45
3032.17632	3806.65
3034.5858	3809.45
3036.9938	3797.05
3039.40034	3780.55
3041.80542	3782.35
3044.20903	3780.25
3046.61118	3780.55
3049.01187	3747.25
3051.4111	3759.25
3053.80888	3747.85
3056.20519	3735.55
3058.60005	3713.95
3060.99345	3723.15
3063.3854	3713.45
3065.7759	3700.75
3068.16494	3700.05
3070.55254	3681.15
3072.93868	3662.75
3075.32338	3650.15
3077.70662	3644.85
3080.08842	3619.95
3082.46878	3620.35
3084.84769	3612.95
3087.22515	3616.25
3089.60118	3619.95
3091.97576	3611.75
3094.3489	3616.35
3096.72061	3599.45
3099.09087	3597.95
3101.4597	3610.35
3103.82709	3595.05
3106.19305	3587.85
3108.55757	3584.65
3110.92066	3583.85
3113.28232	3584.15
3115.64255	3550.05
3118.00134	3541.15
3120.35871	3540.05
3122.71466	3536.15
3125.06917	3530.55
3127.42226	3525.35
3129.77393	3524.75
3132.12417	3524.05
3134.47299	3489.75
3136.82039	3492.75
3139.16636	3493.55
3141.51092	3491.85
3143.85406	3494.85
3146.19579	3491.35
3148.53609	3497.75
3150.87499	3497.15
3153.21246	3489.05
3155.54853	3489.25
3157.88318	3494.05
3160.21642	3489.15
3162.54826	3481.85
3164.87868	3477.15
3167.2077	3463.75
3169.5353	3459.85
3171.86151	3458.55
3174.18631	3450.45
3176.5097	3451.95
3178.83169	3433.65
3181.15228	3428.65
3183.47147	3426.55
3185.78926	3425.25
3188.10565	3406.85
3190.42065	3398.15
3192.73424	3397.35
3195.04645	3377.45
3197.35725	3393.35
3199.66667	3372.75
3201.97469	3391.05
3204.28132	3386.05
3206.58656	3370.25
3208.8904	3390.25
3211.19287	3405.05
3213.49394	3394.25
3215.79363	3378.35
3218.09193	3384.15
3220.38884	3377.65
3222.68438	3375.05
3224.97853	3372.55
3227.2713	3367.35
3229.56269	3376.15
3231.8527	3362.15
3234.14133	3359.25
3236.42858	3342.55
3238.71446	3332.75
3240.99896	3325.05
3243.28209	3319.65
3245.56384	3322.05
3247.84423	3314.85
3250.12324	3289.15
3252.40088	3295.05
3254.67715	3292.05
3256.95205	3290.25
3259.22558	3279.25
3261.49775	3277.55
3263.76855	3283.25
3266.03799	3292.45
3268.30606	3273.55
3270.57277	3283.95
3272.83812	3276.75
3275.10211	3258.15
3277.36474	3244.75
3279.62601	3242.95
3281.88593	3233.35
3284.14448	3241.85
3286.40168	3236.75
3288.65753	3233.85
3290.91202	3226.05
3293.16516	3210.05
3295.41695	3209.95
3297.66738	3197.65
3299.91647	3166.45
3302.16421	3164.95
3304.4106	3142.15
3306.65564	3106.15
3308.89933	3105.05
3311.14169	3080.65
3313.38269	3051.05
3315.62236	3016.75
3317.86068	2998.95
3320.09766	2964.95
3322.3333	2952.25
3324.5676	2923.55
3326.80056	2889.45
3329.03219	2868.85
3331.26248	1.55
3333.49143	-0.45
3335.71905	-0.75
