Data from AgNPs_UA_5uM_CRN_500uM_SU_RamanShift__125__11-50-13-164.txt Node

Date: Thu Aug 04 11:50:13 BST 2022
User: TCL
Spectrometer: QEP01345
Trigger mode: 4
Integration Time (sec): 1.000000E0
Scans to average: 10
Electric dark correction enabled: true
Nonlinearity correction enabled: false
Boxcar width: 0
XAxis mode: Raman Shifts
Number of Pixels in Spectrum: 1044
>>>>>Begin Spectral Data<<<<<
46.04893	-0.05
50.45542	0.95
54.85868	0.05
59.25871	-1.25
63.6555	-57.55
68.04907	-38.95
72.43941	-71.55
76.82654	-57.15
81.21044	-56.65
85.59113	-49.55
89.96862	-75.15
94.34289	-55.15
98.71396	-78.35
103.08183	-57.65
107.4465	-50.75
111.80798	-57.25
116.16626	-43.95
120.52136	-74.95
124.87327	-51.95
129.222	-64.45
133.56755	-50.45
137.90993	-63.45
142.24913	-51.45
146.58517	-44.05
150.91804	-40.25
155.24774	-30.15
159.57429	-12.35
163.89768	-9.75
168.21792	32.65
172.53501	48.15
176.84895	124.45
181.15975	251.55
185.46741	388.35
189.77193	560.85
194.07331	836.05
198.37157	1106.35
202.6667	1371.35
206.9587	1683.75
211.24758	1969.65
215.53334	2273.05
219.81599	2590.75
224.09553	2984.65
228.37195	3393.85
232.64527	3818.45
236.91549	4274.45
241.18261	4656.55
245.44663	4961.15
249.70755	5173.55
253.96539	5320.65
258.22014	5417.75
262.4718	5463.75
266.72039	5477.25
270.96589	5421.65
275.20832	5345.35
279.44768	5235.15
283.68397	5111.85
287.91719	5066.25
292.14735	5065.05
296.37445	5165.75
300.59849	5390.05
304.81948	5611.95
309.03742	5881.55
313.25231	6053.45
317.46415	6014.45
321.67296	5724.75
325.87872	5419.95
330.08145	5296.05
334.28114	5260.05
338.47781	5327.35
342.67145	5439.35
346.86207	5636.55
351.04966	5923.95
355.23424	6237.05
359.4158	6457.75
363.59435	6503.85
367.76989	6457.05
371.94243	6373.55
376.11196	6297.35
380.27849	6277.75
384.44203	6230.75
388.60257	6205.75
392.76012	6230.95
396.91468	6370.95
401.06626	6478.95
405.21485	6521.75
409.36047	6394.35
413.50311	6173.55
417.64277	5958.55
421.77947	5797.45
425.9132	5762.75
430.04396	5753.55
434.17176	5818.25
438.2966	5895.15
442.41849	5994.75
446.53742	6103.85
450.6534	6174.15
454.76644	6265.25
458.87653	6277.25
462.98368	6265.85
467.08789	6227.65
471.18916	6195.35
475.2875	6128.65
479.38291	6009.65
483.4754	5944.95
487.56496	5884.05
491.6516	5855.95
495.73531	5835.15
499.81612	5855.55
503.89401	5923.35
507.96899	5966.95
512.04106	6045.05
516.11023	6132.25
520.1765	6205.65
524.23987	6238.35
528.30034	6249.35
532.35792	6179.95
536.41261	6179.15
540.46441	6081.75
544.51333	6061.25
548.55936	6105.45
552.60252	6201.05
556.64279	6268.75
560.6802	6379.25
564.71473	6485.15
568.7464	6601.25
572.7752	6579.25
576.80114	6326.65
580.82422	6145.25
584.84444	6099.95
588.86181	6066.95
592.87633	6118.05
596.888	6212.25
600.89682	6518.15
604.9028	7267.05
608.90594	8831.25
612.90624	10586.45
616.90371	9902.45
620.89834	7616.25
624.89015	6644.65
628.87913	6507.95
632.86528	6630.45
636.84862	6757.95
640.82913	6672.85
644.80683	6406.65
648.78172	6292.95
652.75379	6310.15
656.72306	6496.25
660.68952	6663.15
664.65319	6625.35
668.61405	6438.05
672.57211	6408.15
676.52738	6427.75
680.47986	6336.75
684.42955	6285.45
688.37646	6242.85
692.32058	6253.95
696.26192	6309.35
700.20048	6389.65
704.13626	6416.85
708.06928	6377.95
711.99952	6345.05
715.927	6329.35
719.85171	6359.65
723.77365	6413.15
727.69284	6374.95
731.60928	6385.55
735.52295	6374.25
739.43388	6410.45
743.34206	6424.05
747.24749	6427.75
751.15017	6429.05
755.05012	6484.05
758.94733	6758.65
762.8418	7368.55
766.73354	8357.85
770.62254	9091.65
774.50882	9162.75
778.39237	8788.55
782.27321	8118.45
786.15132	7366.05
790.02671	6862.95
793.89938	6541.85
797.76935	6480.15
801.6366	6411.75
805.50115	6387.65
809.36299	6381.35
813.22213	6401.35
817.07857	6374.85
820.93231	6387.85
824.78336	6396.35
828.63172	6411.75
832.47738	6422.95
836.32036	6431.85
840.16066	6441.95
843.99827	6401.95
847.8332	6412.45
851.66546	6427.45
855.49504	6431.35
859.32195	6452.85
863.1462	6455.95
866.96777	6473.75
870.78668	6452.65
874.60293	6491.45
878.41652	6498.55
882.22745	6570.45
886.03573	6596.95
889.84136	6590.75
893.64433	6605.75
897.44466	6560.55
901.24235	6564.55
905.0374	6574.55
908.8298	6524.05
912.61957	6496.25
916.40671	6455.75
920.19121	6493.95
923.97308	6568.95
927.75233	6609.55
931.52895	6666.35
935.30295	6658.55
939.07433	6558.05
942.84309	6452.35
946.60924	6430.75
950.37278	6387.35
954.13371	6406.75
957.89203	6386.85
961.64774	6413.95
965.40086	6403.55
969.15137	6379.25
972.89929	6400.85
976.64461	6383.35
980.38733	6401.65
984.12747	6427.55
987.86502	6435.75
991.59999	6493.55
995.33237	6537.35
999.06217	6617.95
1002.78939	6712.25
1006.51404	6846.25
1010.23611	6963.65
1013.95561	6981.55
1017.67255	7025.05
1021.38692	7024.35
1025.09872	6940.15
1028.80796	6861.65
1032.51465	6855.65
1036.21877	6829.35
1039.92035	6877.85
1043.61937	6909.05
1047.31584	6948.55
1051.00976	6980.15
1054.70114	6973.75
1058.38998	6988.95
1062.07627	6986.85
1065.76003	7025.35
1069.44126	7124.75
1073.11995	7196.45
1076.79611	7337.65
1080.46974	7453.25
1084.14085	7549.65
1087.80943	7620.05
1091.47549	7662.95
1095.13903	7658.55
1098.80005	7600.45
1102.45857	7504.25
1106.11456	7427.85
1109.76805	7343.45
1113.41903	7406.85
1117.06751	7522.25
1120.71348	7704.15
1124.35696	7958.15
1127.99793	8156.65
1131.63641	8079.85
1135.2724	7791.15
1138.90589	7566.95
1142.5369	7447.75
1146.16542	7411.35
1149.79145	7349.25
1153.415	7276.15
1157.03607	7225.55
1160.65467	7296.85
1164.27079	7445.95
1167.88443	7592.55
1171.49561	7918.85
1175.10432	8347.35
1178.71056	9000.35
1182.31434	9573.45
1185.91565	9794.25
1189.51451	9717.05
1193.11091	9588.35
1196.70485	9463.85
1200.29634	9333.05
1203.88538	9172.05
1207.47197	8881.85
1211.05612	8569.35
1214.63782	8303.15
1218.21708	8126.55
1221.79391	7952.45
1225.36829	7828.15
1228.94024	7797.85
1232.50976	7798.25
1236.07685	7814.45
1239.6415	7863.55
1243.20374	7880.45
1246.76355	7924.35
1250.32093	8007.25
1253.8759	8108.85
1257.42845	8280.45
1260.97859	8479.85
1264.52631	8655.05
1268.07163	8746.45
1271.61453	8827.35
1275.15503	8873.05
1278.69312	8843.95
1282.22882	8908.85
1285.76211	9070.45
1289.29301	9219.55
1292.82151	9431.15
1296.34761	9584.65
1299.87133	9911.25
1303.39266	10452.85
1306.9116	11267.95
1310.42815	12135.45
1313.94233	12438.65
1317.45412	11889.45
1320.96354	11094.65
1324.47058	10406.65
1327.97525	9859.55
1331.47754	9592.05
1334.97747	9538.95
1338.47502	9646.65
1341.97022	9953.95
1345.46305	10530.45
1348.95352	11341.35
1352.44163	12263.85
1355.92738	13113.55
1359.41078	14245.25
1362.89183	15182.35
1366.37053	14600.35
1369.84688	12469.45
1373.32088	10612.55
1376.79254	9623.85
1380.26186	9156.35
1383.72883	8869.15
1387.19347	8575.05
1390.65578	8324.05
1394.11575	8165.25
1397.57339	8031.25
1401.0287	7933.95
1404.48168	7932.85
1407.93234	7936.45
1411.38068	7953.75
1414.82669	8038.45
1418.27039	8081.45
1421.71177	8081.05
1425.15083	7964.25
1428.58758	7913.15
1432.02203	7953.35
1435.45416	8041.65
1438.88399	8049.65
1442.31151	8055.95
1445.73673	8133.85
1449.15965	8196.95
1452.58027	8226.15
1455.9986	8189.75
1459.41463	8219.85
1462.82837	8293.75
1466.23982	8461.55
1469.64898	8623.45
1473.05586	8729.75
1476.46045	8806.35
1479.86276	8856.05
1483.26279	8880.45
1486.66054	8995.35
1490.05602	9178.05
1493.44922	9551.45
1496.84016	10200.65
1500.22882	11180.55
1503.61521	12403.15
1506.99934	13603.95
1510.38121	14361.15
1513.76081	14244.85
1517.13816	13158.25
1520.51324	11693.95
1523.88607	10512.95
1527.25665	9789.15
1530.62498	9445.95
1533.99105	9321.65
1537.35488	9254.85
1540.71647	9234.65
1544.07581	9190.55
1547.4329	9129.65
1550.78776	9014.75
1554.14038	8890.25
1557.49077	8822.75
1560.83892	8830.15
1564.18484	8992.65
1567.52853	9174.75
1570.86999	9408.45
1574.20922	9485.25
1577.54624	9400.25
1580.88103	9019.85
1584.2136	8567.55
1587.54395	8346.35
1590.87208	8351.45
1594.19801	8489.85
1597.52172	8823.05
1600.84321	8977.55
1604.16251	8926.45
1607.47959	8794.35
1610.79447	8629.85
1614.10715	8322.85
1617.41763	8023.05
1620.7259	7764.35
1624.03199	7619.55
1627.33587	7552.55
1630.63757	7592.05
1633.93707	7780.05
1637.23439	8139.85
1640.52951	8668.45
1643.82246	9404.55
1647.11321	10228.55
1650.40179	10684.45
1653.68819	10390.55
1656.97241	9421.15
1660.25446	8399.05
1663.53433	7637.45
1666.81203	7184.45
1670.08756	6913.45
1673.36092	6777.55
1676.63211	6685.85
1679.90115	6588.05
1683.16801	6524.95
1686.43272	6435.65
1689.69527	6385.25
1692.95567	6323.35
1696.2139	6310.95
1699.46999	6245.55
1702.72392	6266.65
1705.97571	6274.95
1709.22535	6231.45
1712.47284	6269.15
1715.71819	6279.25
1718.96139	6289.45
1722.20246	6280.85
1725.44139	6264.15
1728.67818	6230.35
1731.91284	6190.55
1735.14537	6166.05
1738.37576	6141.55
1741.60403	6116.95
1744.83017	6090.95
1748.05418	6100.55
1751.27607	6114.25
1754.49584	6070.95
1757.71349	6034.25
1760.92903	6059.95
1764.14244	6009.85
1767.35375	6026.15
1770.56294	5988.65
1773.77002	5969.05
1776.97499	6003.95
1780.17785	5983.85
1783.37861	5970.55
1786.57727	5971.35
1789.77382	5914.85
1792.96828	5951.35
1796.16064	5951.85
1799.3509	5924.05
1802.53907	5952.75
1805.72514	5903.15
1808.90913	5889.15
1812.09102	5890.85
1815.27083	5870.75
1818.44856	5869.05
1821.6242	5861.45
1824.79776	5840.45
1827.96924	5821.15
1831.13864	5804.95
1834.30597	5822.65
1837.47122	5806.75
1840.6344	5785.65
1843.7955	5771.05
1846.95454	5766.65
1850.11151	5796.65
1853.26642	5725.55
1856.41926	5748.35
1859.57004	5756.85
1862.71876	5752.45
1865.86542	5747.45
1869.01003	5736.45
1872.15258	5720.95
1875.29308	5733.95
1878.43152	5737.65
1881.56792	5694.75
1884.70227	5692.85
1887.83457	5697.55
1890.96482	5656.95
1894.09304	5670.15
1897.21921	5672.75
1900.34335	5664.95
1903.46544	5635.15
1906.58551	5652.15
1909.70353	5643.15
1912.81953	5643.85
1915.93349	5625.85
1919.04543	5612.15
1922.15534	5601.95
1925.26322	5609.45
1928.36908	5572.65
1931.47292	5603.05
1934.57473	5613.05
1937.67453	5559.95
1940.77232	5535.15
1943.86808	5534.45
1946.96184	5514.05
1950.05358	5486.75
1953.14331	5471.65
1956.23103	5477.55
1959.31675	5440.25
1962.40046	5406.15
1965.48217	5426.65
1968.56188	5390.45
1971.63959	5405.95
1974.7153	5387.45
1977.78901	5369.65
1980.86073	5343.05
1983.93046	5305.65
1986.99819	5227.85
1990.06394	5244.15
1993.1277	5281.05
1996.18947	5265.25
1999.24925	5214.85
2002.30706	5226.45
2005.36288	5207.75
2008.41672	5177.45
2011.46859	5164.95
2014.51848	5149.45
2017.56639	5148.85
2020.61233	5121.25
2023.6563	5115.35
2026.6983	5067.05
2029.73833	5072.75
2032.7764	5067.35
2035.8125	5020.25
2038.84664	5032.85
2041.87881	5025.25
2044.90903	5035.25
2047.93729	5014.05
2050.96359	4984.15
2053.98794	5001.15
2057.01034	4997.95
2060.03078	4973.05
2063.04927	4961.05
2066.06582	4978.65
2069.08042	4967.05
2072.09307	4964.85
2075.10378	4935.65
2078.11255	4923.45
2081.11938	4952.05
2084.12426	4950.75
2087.12722	4935.25
2090.12824	4922.05
2093.12732	4951.15
2096.12447	4944.75
2099.11969	4933.15
2102.11299	4922.75
2105.10435	4956.05
2108.09379	4947.65
2111.08131	4938.35
2114.0669	4933.45
2117.05057	4945.25
2120.03233	4924.85
2123.01216	4958.95
2125.99008	4946.45
2128.96609	4935.25
2131.94018	4960.45
2134.91236	4962.35
2137.88263	4937.25
2140.851	4949.75
2143.81746	4983.35
2146.78201	4969.65
2149.74466	4934.15
2152.7054	4977.95
2155.66425	4955.95
2158.6212	4934.65
2161.57625	4914.75
2164.52941	4901.45
2167.48067	4925.95
2170.43004	4924.15
2173.37752	4938.25
2176.32311	4918.25
2179.26681	4925.65
2182.20863	4923.75
2185.14856	4928.85
2188.08661	4922.95
2191.02278	4931.35
2193.95707	4898.75
2196.88948	4896.75
2199.82001	4902.35
2202.74867	4879.05
2205.67545	4879.25
2208.60037	4900.15
2211.52341	4867.15
2214.44458	4871.45
2217.36388	4852.45
2220.28132	4838.85
2223.1969	4805.85
2226.11061	4810.25
2229.02246	4791.45
2231.93245	4802.25
2234.84058	4783.75
2237.74686	4764.75
2240.65128	4782.55
2243.55385	4767.95
2246.45456	4742.85
2249.35343	4763.25
2252.25044	4740.85
2255.14561	4743.05
2258.03893	4738.45
2260.93041	4714.95
2263.82004	4706.35
2266.70783	4717.75
2269.59378	4670.15
2272.4779	4688.75
2275.36017	4682.75
2278.24061	4667.95
2281.11922	4622.95
2283.996	4637.35
2286.87094	4613.55
2289.74405	4618.15
2292.61534	4621.65
2295.4848	4609.35
2298.35243	4612.95
2301.21824	4601.85
2304.08223	4587.65
2306.94439	4588.15
2309.80474	4604.05
2312.66327	4597.15
2315.51999	4558.05
2318.37489	4564.05
2321.22797	4545.25
2324.07925	4546.55
2326.92871	4531.45
2329.77637	4503.05
2332.62222	4510.35
2335.46626	4479.25
2338.3085	4481.05
2341.14893	4480.75
2343.98756	4511.75
2346.8244	4474.65
2349.65943	4459.75
2352.49267	4464.25
2355.32411	4469.75
2358.15376	4471.05
2360.98161	4468.15
2363.80768	4444.85
2366.63195	4450.95
2369.45444	4451.85
2372.27514	4465.35
2375.09405	4449.35
2377.91118	4418.25
2380.72652	4411.85
2383.54009	4421.45
2386.35187	4413.05
2389.16188	4382.15
2391.97011	4380.45
2394.77657	4391.45
2397.58125	4384.95
2400.38416	4369.05
2403.18529	4347.25
2405.98466	4330.65
2408.78226	4337.85
2411.57809	4329.65
2414.37216	4309.75
2417.16446	4323.75
2419.955	4292.15
2422.74378	4317.85
2425.5308	4306.35
2428.31606	4293.35
2431.09956	4290.75
2433.88131	4247.55
2436.6613	4277.65
2439.43954	4275.75
2442.21603	4255.45
2444.99077	4254.55
2447.76377	4262.95
2450.53501	4240.15
2453.30451	4232.45
2456.07226	4250.85
2458.83827	4219.45
2461.60254	4188.05
2464.36507	4212.15
2467.12586	4210.55
2469.88492	4214.05
2472.64224	4213.75
2475.39782	4189.35
2478.15167	4199.25
2480.90379	4199.75
2483.65417	4189.55
2486.40283	4205.35
2489.14976	4201.65
2491.89497	4188.25
2494.63845	4184.25
2497.3802	4178.85
2500.12024	4171.45
2502.85855	4166.85
2505.59514	4170.65
2508.33002	4157.95
2511.06318	4125.65
2513.79462	4130.65
2516.52435	4111.15
2519.25237	4079.15
2521.97867	4092.25
2524.70327	4091.65
2527.42616	4096.35
2530.14734	4101.25
2532.86681	4068.65
2535.58458	4080.75
2538.30065	4084.75
2541.01501	4085.85
2543.72768	4049.65
2546.43864	4074.05
2549.14791	4054.95
2551.85548	4031.25
2554.56136	4019.85
2557.26554	4026.35
2559.96803	4025.55
2562.66883	4024.25
2565.36794	3997.15
2568.06536	3969.15
2570.7611	3993.05
2573.45514	3966.75
2576.14751	3970.45
2578.83819	3938.85
2581.52719	3924.45
2584.21451	3951.95
2586.90015	3928.45
2589.58411	3901.05
2592.2664	3917.25
2594.94701	3903.75
2597.62594	3909.75
2600.30321	3849.85
2602.9788	3857.25
2605.65273	3860.85
2608.32498	3858.85
2610.99557	3873.35
2613.66449	3848.55
2616.33175	3846.95
2618.99734	3851.15
2621.66128	3862.65
2624.32355	3831.75
2626.98416	3825.25
2629.64311	3808.95
2632.30041	3799.55
2634.95605	3794.35
2637.61004	3775.55
2640.26238	3763.65
2642.91306	3759.35
2645.56209	3779.95
2648.20948	3772.65
2650.85521	3767.95
2653.4993	3779.25
2656.14175	3773.05
2658.78255	3754.35
2661.42171	3729.95
2664.05923	3756.45
2666.6951	3764.75
2669.32934	3762.55
2671.96194	3785.05
2674.59291	3756.25
2677.22224	3771.85
2679.84993	3762.55
2682.476	3762.15
2685.10043	3750.55
2687.72324	3739.55
2690.34441	3742.35
2692.96396	3713.55
2695.58188	3731.35
2698.19818	3734.45
2700.81285	3733.95
2703.4259	3726.25
2706.03733	3691.25
2708.64714	3707.75
2711.25533	3714.95
2713.86191	3726.35
2716.46687	3714.55
2719.07021	3710.45
2721.67194	3719.25
2724.27206	3734.45
2726.87057	3696.85
2729.46747	3706.45
2732.06276	3709.55
2734.65644	3683.65
2737.24852	3691.15
2739.83899	3672.45
2742.42786	3691.75
2745.01513	3688.95
2747.60079	3666.95
2750.18486	3647.65
2752.76733	3657.15
2755.3482	3642.05
2757.92747	3662.25
2760.50515	3624.05
2763.08123	3632.25
2765.65573	3628.45
2768.22863	3599.15
2770.79994	3596.65
2773.36967	3601.15
2775.9378	3604.25
2778.50435	3582.65
2781.06932	3579.55
2783.6327	3567.15
2786.1945	3584.25
2788.75471	3566.05
2791.31335	3565.95
2793.87041	3553.35
2796.42589	3542.65
2798.97979	3520.15
2801.53212	3534.35
2804.08288	3544.65
2806.63206	3532.85
2809.17967	3510.75
2811.72571	3506.25
2814.27018	3500.25
2816.81308	3482.65
2819.35442	3457.05
2821.89419	3460.55
2824.43239	3453.45
2826.96904	3473.05
2829.50412	3448.85
2832.03763	3448.95
2834.56959	3438.85
2837.1	3430.55
2839.62884	3439.05
2842.15613	3429.95
2844.68186	3444.65
2847.20604	3394.85
2849.72867	3393.75
2852.24974	3394.55
2854.76927	3384.25
2857.28724	3320.15
2859.80367	3377.55
2862.31855	3383.95
2864.83189	3370.35
2867.34368	3378.75
2869.85393	3392.85
2872.36264	3347.65
2874.8698	3354.35
2877.37543	3358.55
2879.87952	3350.25
2882.38207	3323.15
2884.88308	3338.25
2887.38256	3345.75
2889.88051	3337.25
2892.37692	3339.45
2894.8718	3311.55
2897.36515	3340.65
2899.85698	3324.35
2902.34727	3321.45
2904.83604	3332.75
2907.32328	3330.85
2909.809	3339.35
2912.29319	3320.35
2914.77587	3321.15
2917.25702	3346.35
2919.73665	3353.15
2922.21476	3357.05
2924.69136	3335.05
2927.16644	3312.85
2929.64	3332.35
2932.11205	3317.05
2934.58258	3309.95
2937.05161	3300.65
2939.51912	3304.45
2941.98513	3332.65
2944.44962	3302.65
2946.91261	3266.95
2949.37409	3292.65
2951.83407	3280.35
2954.29254	3265.25
2956.74951	3273.45
2959.20498	3254.45
2961.65895	3242.75
2964.11142	3250.55
2966.56239	3247.05
2969.01186	3249.25
2971.45984	3243.85
2973.90632	3227.75
2976.35131	3247.85
2978.7948	3222.85
2981.23681	3201.25
2983.67732	3218.25
2986.11635	3211.15
2988.55388	3178.15
2990.98993	3184.05
2993.4245	3165.65
2995.85758	3153.45
2998.28917	3156.65
3000.71928	3140.35
3003.14791	3140.15
3005.57506	3135.15
3008.00073	3109.25
3010.42493	3062.45
3012.84764	3126.55
3015.26888	3102.45
3017.68865	3092.85
3020.10694	3049.65
3022.52376	3065.75
3024.9391	3060.75
3027.35298	3046.95
3029.76539	3031.05
3032.17632	3035.85
3034.5858	3021.45
3036.9938	3033.35
3039.40034	3017.65
3041.80542	3002.75
3044.20903	2992.35
3046.61118	3001.05
3049.01187	3000.15
3051.4111	2988.75
3053.80888	2970.85
3056.20519	2964.55
3058.60005	2945.25
3060.99345	2969.65
3063.3854	2927.25
3065.7759	2926.35
3068.16494	2925.05
3070.55254	2906.45
3072.93868	2932.85
3075.32338	2906.45
3077.70662	2891.95
3080.08842	2888.15
3082.46878	2887.05
3084.84769	2883.05
3087.22515	2869.75
3089.60118	2893.55
3091.97576	2861.45
3094.3489	2871.65
3096.72061	2854.25
3099.09087	2850.55
3101.4597	2878.55
3103.82709	2856.05
3106.19305	2841.55
3108.55757	2843.25
3110.92066	2823.05
3113.28232	2843.55
3115.64255	2838.95
3118.00134	2836.15
3120.35871	2802.75
3122.71466	2776.15
3125.06917	2792.95
3127.42226	2778.75
3129.77393	2763.65
3132.12417	2791.85
3134.47299	2778.65
3136.82039	2757.05
3139.16636	2740.85
3141.51092	2768.15
3143.85406	2760.85
3146.19579	2741.15
3148.53609	2745.35
3150.87499	2754.95
3153.21246	2732.25
3155.54853	2755.55
3157.88318	2747.95
3160.21642	2761.95
3162.54826	2739.85
3164.87868	2744.65
3167.2077	2707.35
3169.5353	2724.55
3171.86151	2737.85
3174.18631	2732.75
3176.5097	2706.55
3178.83169	2721.05
3181.15228	2712.05
3183.47147	2680.15
3185.78926	2663.25
3188.10565	2684.75
3190.42065	2660.25
3192.73424	2671.45
3195.04645	2661.15
3197.35725	2648.85
3199.66667	2661.75
3201.97469	2643.55
3204.28132	2634.55
3206.58656	2650.55
3208.8904	2662.25
3211.19287	2633.65
3213.49394	2623.75
3215.79363	2625.25
3218.09193	2640.55
3220.38884	2637.05
3222.68438	2633.75
3224.97853	2603.05
3227.2713	2629.85
3229.56269	2617.25
3231.8527	2611.15
3234.14133	2593.95
3236.42858	2594.55
3238.71446	2573.55
3240.99896	2584.05
3243.28209	2566.25
3245.56384	2580.35
3247.84423	2563.95
3250.12324	2570.25
3252.40088	2557.75
3254.67715	2551.65
3256.95205	2539.35
3259.22558	2556.05
3261.49775	2545.55
3263.76855	2545.15
3266.03799	2533.85
3268.30606	2544.05
3270.57277	2542.75
3272.83812	2512.95
3275.10211	2519.35
3277.36474	2529.65
3279.62601	2521.65
3281.88593	2494.05
3284.14448	2473.95
3286.40168	2494.05
3288.65753	2477.75
3290.91202	2492.75
3293.16516	2457.75
3295.41695	2477.45
3297.66738	2481.35
3299.91647	2451.95
3302.16421	2443.65
3304.4106	2407.75
3306.65564	2421.85
3308.89933	2395.15
3311.14169	2374.95
3313.38269	2361.65
3315.62236	2333.15
3317.86068	2323.65
3320.09766	2310.75
3322.3333	2275.45
3324.5676	2276.95
3326.80056	2232.35
3329.03219	2223.05
3331.26248	-1.05
3333.49143	-0.15
3335.71905	0.45
