Data from AgNPs_UA_5uM_CRN_500uM_SU_RamanShift__74__11-41-43-153.txt Node

Date: Thu Aug 04 11:41:43 BST 2022
User: TCL
Spectrometer: QEP01345
Trigger mode: 4
Integration Time (sec): 1.000000E0
Scans to average: 10
Electric dark correction enabled: true
Nonlinearity correction enabled: false
Boxcar width: 0
XAxis mode: Raman Shifts
Number of Pixels in Spectrum: 1044
>>>>>Begin Spectral Data<<<<<
46.04893	0.05
50.45542	0.25
54.85868	0.55
59.25871	-0.85
63.6555	-56.45
68.04907	-39.25
72.43941	-72.95
76.82654	-55.45
81.21044	-54.75
85.59113	-47.25
89.96862	-75.15
94.34289	-54.65
98.71396	-77.65
103.08183	-56.85
107.4465	-50.25
111.80798	-56.85
116.16626	-43.65
120.52136	-73.75
124.87327	-50.05
129.222	-63.25
133.56755	-48.35
137.90993	-61.75
142.24913	-49.35
146.58517	-41.35
150.91804	-37.35
155.24774	-25.55
159.57429	-4.15
163.89768	0.15
168.21792	48.85
172.53501	74.65
176.84895	161.95
181.15975	296.65
185.46741	462.15
189.77193	659.15
194.07331	962.25
198.37157	1269.35
202.6667	1575.75
206.9587	1927.25
211.24758	2277.05
215.53334	2651.45
219.81599	3071.45
224.09553	3551.65
228.37195	4059.55
232.64527	4540.95
236.91549	5016.05
241.18261	5321.75
245.44663	5560.75
249.70755	5696.95
253.96539	5847.75
258.22014	5983.25
262.4718	6115.95
266.72039	6160.75
270.96589	6136.65
275.20832	6006.35
279.44768	5844.95
283.68397	5697.35
287.91719	5647.25
292.14735	5672.35
296.37445	5898.25
300.59849	6276.95
304.81948	6800.55
309.03742	7431.65
313.25231	7875.85
317.46415	7809.95
321.67296	7167.65
325.87872	6426.05
330.08145	6023.45
334.28114	5917.75
338.47781	6073.85
342.67145	6316.35
346.86207	6732.85
351.04966	7360.35
355.23424	7979.25
359.4158	8280.75
363.59435	8132.35
367.76989	7819.55
371.94243	7521.85
376.11196	7267.65
380.27849	7094.45
384.44203	6970.15
388.60257	6924.15
392.76012	6946.75
396.91468	7128.65
401.06626	7315.95
405.21485	7323.35
409.36047	7073.45
413.50311	6670.95
417.64277	6244.15
421.77947	5994.95
425.9132	5865.55
430.04396	5808.35
434.17176	5812.75
438.2966	5903.65
442.41849	6011.05
446.53742	6132.25
450.6534	6216.85
454.76644	6281.05
458.87653	6283.85
462.98368	6227.45
467.08789	6175.35
471.18916	6059.55
475.2875	5957.95
479.38291	5841.65
483.4754	5780.05
487.56496	5772.65
491.6516	5715.85
495.73531	5712.75
499.81612	5757.85
503.89401	5867.55
507.96899	5936.85
512.04106	6061.65
516.11023	6202.15
520.1765	6305.05
524.23987	6342.25
528.30034	6333.85
532.35792	6243.35
536.41261	6210.95
540.46441	6125.95
544.51333	6031.25
548.55936	6049.35
552.60252	6140.35
556.64279	6259.95
560.6802	6466.75
564.71473	6838.35
568.7464	7322.75
572.7752	7290.25
576.80114	6654.25
580.82422	6145.05
584.84444	5921.95
588.86181	5860.25
592.87633	5890.15
596.888	6004.65
600.89682	6416.25
604.9028	7631.95
608.90594	10513.45
612.90624	13994.55
616.90371	13007.65
620.89834	8633.05
624.89015	6735.65
628.87913	6520.05
632.86528	6815.45
636.84862	6980.35
640.82913	6664.05
644.80683	6191.45
648.78172	6013.15
652.75379	6055.25
656.72306	6412.65
660.68952	6752.75
664.65319	6608.45
668.61405	6213.25
672.57211	6075.35
676.52738	6099.55
680.47986	6031.05
684.42955	5949.65
688.37646	5911.45
692.32058	5926.75
696.26192	6022.85
700.20048	6106.05
704.13626	6138.05
708.06928	6087.85
711.99952	6067.75
715.927	6078.75
719.85171	6173.35
723.77365	6244.45
727.69284	6181.45
731.60928	6119.45
735.52295	6101.95
739.43388	6154.15
743.34206	6177.05
747.24749	6187.35
751.15017	6217.75
755.05012	6330.15
758.94733	6906.95
762.8418	8114.35
766.73354	9821.65
770.62254	10729.95
774.50882	10443.65
778.39237	9830.95
782.27321	8921.35
786.15132	7685.65
790.02671	6830.05
793.89938	6387.05
797.76935	6282.25
801.6366	6192.95
805.50115	6147.85
809.36299	6148.95
813.22213	6152.95
817.07857	6147.75
820.93231	6146.25
824.78336	6213.85
828.63172	6260.25
832.47738	6269.85
836.32036	6277.15
840.16066	6193.95
843.99827	6142.05
847.8332	6113.65
851.66546	6133.95
855.49504	6139.55
859.32195	6146.25
863.1462	6113.15
866.96777	6125.25
870.78668	6130.05
874.60293	6160.05
878.41652	6209.35
882.22745	6274.95
886.03573	6322.35
889.84136	6294.75
893.64433	6291.45
897.44466	6293.45
901.24235	6291.65
905.0374	6288.45
908.8298	6196.05
912.61957	6165.65
916.40671	6083.85
920.19121	6128.45
923.97308	6228.15
927.75233	6365.75
931.52895	6535.85
935.30295	6490.55
939.07433	6227.05
942.84309	6032.75
946.60924	5984.55
950.37278	5947.85
954.13371	5936.95
957.89203	5940.75
961.64774	5955.15
965.40086	5929.35
969.15137	5918.15
972.89929	5951.05
976.64461	5930.15
980.38733	5931.35
984.12747	5922.25
987.86502	5918.45
991.59999	5941.85
995.33237	5999.85
999.06217	6080.75
1002.78939	6147.05
1006.51404	6299.05
1010.23611	6369.35
1013.95561	6329.05
1017.67255	6287.95
1021.38692	6203.65
1025.09872	6145.15
1028.80796	6070.95
1032.51465	6115.75
1036.21877	6120.65
1039.92035	6168.95
1043.61937	6197.45
1047.31584	6249.05
1051.00976	6275.35
1054.70114	6271.25
1058.38998	6251.65
1062.07627	6253.95
1065.76003	6243.45
1069.44126	6305.15
1073.11995	6380.25
1076.79611	6531.25
1080.46974	6761.25
1084.14085	7048.15
1087.80943	7296.55
1091.47549	7305.35
1095.13903	7094.75
1098.80005	6887.75
1102.45857	6759.75
1106.11456	6730.55
1109.76805	6729.35
1113.41903	6864.35
1117.06751	7104.65
1120.71348	7532.95
1124.35696	8153.85
1127.99793	8602.85
1131.63641	8269.75
1135.2724	7599.95
1138.90589	7113.45
1142.5369	6847.05
1146.16542	6688.35
1149.79145	6567.85
1153.415	6496.15
1157.03607	6491.15
1160.65467	6595.85
1164.27079	6784.65
1167.88443	7040.05
1171.49561	7513.55
1175.10432	8305.65
1178.71056	9375.95
1182.31434	10181.05
1185.91565	10150.35
1189.51451	9520.45
1193.11091	8857.05
1196.70485	8390.45
1200.29634	8193.15
1203.88538	7933.85
1207.47197	7481.35
1211.05612	7061.75
1214.63782	6767.35
1218.21708	6639.05
1221.79391	6582.75
1225.36829	6539.85
1228.94024	6552.55
1232.50976	6528.95
1236.07685	6557.65
1239.6415	6582.65
1243.20374	6647.55
1246.76355	6716.75
1250.32093	6836.75
1253.8759	6937.65
1257.42845	7187.05
1260.97859	7467.85
1264.52631	7757.45
1268.07163	7933.85
1271.61453	7993.15
1275.15503	7925.35
1278.69312	7809.35
1282.22882	7871.45
1285.76211	8237.25
1289.29301	8679.55
1292.82151	9044.85
1296.34761	9191.95
1299.87133	9544.15
1303.39266	10405.95
1306.9116	12036.55
1310.42815	14001.15
1313.94233	14709.55
1317.45412	13254.25
1320.96354	11214.45
1324.47058	9633.35
1327.97525	8604.15
1331.47754	8048.45
1334.97747	7846.95
1338.47502	7882.25
1341.97022	8323.05
1345.46305	9267.15
1348.95352	10570.75
1352.44163	11885.25
1355.92738	13417.15
1359.41078	15988.15
1362.89183	18826.85
1366.37053	18217.95
1369.84688	14187.85
1373.32088	10704.95
1376.79254	9154.55
1380.26186	8412.35
1383.72883	7881.25
1387.19347	7347.05
1390.65578	6956.25
1394.11575	6708.95
1397.57339	6590.95
1401.0287	6493.45
1404.48168	6429.05
1407.93234	6418.75
1411.38068	6464.85
1414.82669	6620.25
1418.27039	6817.25
1421.71177	6857.55
1425.15083	6760.15
1428.58758	6728.65
1432.02203	6891.05
1435.45416	7020.65
1438.88399	6912.85
1442.31151	6771.15
1445.73673	6740.85
1449.15965	6733.65
1452.58027	6675.65
1455.9986	6619.95
1459.41463	6568.55
1462.82837	6570.35
1466.23982	6685.85
1469.64898	6847.15
1473.05586	6912.45
1476.46045	6924.75
1479.86276	6999.55
1483.26279	7111.05
1486.66054	7416.15
1490.05602	7823.05
1493.44922	8526.35
1496.84016	9589.75
1500.22882	11213.35
1503.61521	13456.55
1506.99934	16258.75
1510.38121	18871.25
1513.76081	19740.65
1517.13816	17820.45
1520.51324	14453.15
1523.88607	11450.45
1527.25665	9574.15
1530.62498	8521.65
1533.99105	7911.95
1537.35488	7531.15
1540.71647	7269.75
1544.07581	7177.25
1547.4329	7182.75
1550.78776	7239.65
1554.14038	7351.45
1557.49077	7586.25
1560.83892	7936.45
1564.18484	8514.35
1567.52853	9131.95
1570.86999	9552.85
1574.20922	9637.25
1577.54624	9362.55
1580.88103	8614.95
1584.2136	7671.05
1587.54395	7170.25
1590.87208	7049.75
1594.19801	7188.65
1597.52172	7539.65
1600.84321	7581.35
1604.16251	7269.45
1607.47959	6945.55
1610.79447	6733.65
1614.10715	6534.05
1617.41763	6389.95
1620.7259	6270.45
1624.03199	6266.65
1627.33587	6294.05
1630.63757	6423.25
1633.93707	6717.85
1637.23439	7239.35
1640.52951	8207.05
1643.82246	9735.85
1647.11321	11779.45
1650.40179	13333.45
1653.68819	13093.65
1656.97241	11161.75
1660.25446	8986.65
1663.53433	7466.35
1666.81203	6637.45
1670.08756	6226.45
1673.36092	5998.75
1676.63211	5846.75
1679.90115	5755.75
1683.16801	5662.55
1686.43272	5598.15
1689.69527	5554.25
1692.95567	5509.15
1696.2139	5506.45
1699.46999	5444.75
1702.72392	5448.05
1705.97571	5470.85
1709.22535	5462.85
1712.47284	5496.95
1715.71819	5519.75
1718.96139	5537.65
1722.20246	5525.55
1725.44139	5494.85
1728.67818	5464.65
1731.91284	5407.95
1735.14537	5393.85
1738.37576	5359.15
1741.60403	5356.25
1744.83017	5339.25
1748.05418	5331.75
1751.27607	5313.95
1754.49584	5287.95
1757.71349	5254.05
1760.92903	5239.35
1764.14244	5193.95
1767.35375	5205.65
1770.56294	5202.05
1773.77002	5168.75
1776.97499	5171.55
1780.17785	5151.35
1783.37861	5144.45
1786.57727	5144.95
1789.77382	5090.35
1792.96828	5131.65
1796.16064	5134.75
1799.3509	5112.55
1802.53907	5135.25
1805.72514	5089.85
1808.90913	5075.95
1812.09102	5076.85
1815.27083	5069.35
1818.44856	5061.25
1821.6242	5046.95
1824.79776	5023.65
1827.96924	5011.55
1831.13864	4992.55
1834.30597	4988.35
1837.47122	4971.15
1840.6344	4962.95
1843.7955	4953.75
1846.95454	4958.55
1850.11151	4983.25
1853.26642	4928.65
1856.41926	4944.75
1859.57004	4940.85
1862.71876	4940.95
1865.86542	4947.45
1869.01003	4934.25
1872.15258	4912.75
1875.29308	4941.05
1878.43152	4927.95
1881.56792	4910.25
1884.70227	4896.15
1887.83457	4891.55
1890.96482	4850.25
1894.09304	4863.15
1897.21921	4873.75
1900.34335	4844.85
1903.46544	4831.55
1906.58551	4869.15
1909.70353	4837.75
1912.81953	4841.85
1915.93349	4816.95
1919.04543	4820.35
1922.15534	4788.55
1925.26322	4800.65
1928.36908	4785.65
1931.47292	4772.55
1934.57473	4781.25
1937.67453	4756.65
1940.77232	4706.35
1943.86808	4700.55
1946.96184	4722.45
1950.05358	4674.15
1953.14331	4670.85
1956.23103	4656.95
1959.31675	4622.45
1962.40046	4594.25
1965.48217	4621.25
1968.56188	4597.25
1971.63959	4591.95
1974.7153	4606.65
1977.78901	4567.55
1980.86073	4573.95
1983.93046	4497.95
1986.99819	4451.15
1990.06394	4466.25
1993.1277	4497.35
1996.18947	4463.15
1999.24925	4417.15
2002.30706	4428.05
2005.36288	4433.45
2008.41672	4412.15
2011.46859	4380.45
2014.51848	4368.85
2017.56639	4373.75
2020.61233	4345.65
2023.6563	4347.55
2026.6983	4310.05
2029.73833	4306.05
2032.7764	4296.55
2035.8125	4259.15
2038.84664	4252.05
2041.87881	4251.25
2044.90903	4262.15
2047.93729	4253.95
2050.96359	4211.05
2053.98794	4239.15
2057.01034	4231.25
2060.03078	4206.65
2063.04927	4200.05
2066.06582	4204.15
2069.08042	4181.55
2072.09307	4196.55
2075.10378	4183.35
2078.11255	4192.25
2081.11938	4179.45
2084.12426	4169.65
2087.12722	4176.05
2090.12824	4180.55
2093.12732	4179.65
2096.12447	4195.65
2099.11969	4195.25
2102.11299	4180.25
2105.10435	4187.35
2108.09379	4182.75
2111.08131	4180.45
2114.0669	4176.05
2117.05057	4182.15
2120.03233	4180.95
2123.01216	4192.05
2125.99008	4197.65
2128.96609	4204.85
2131.94018	4227.35
2134.91236	4221.85
2137.88263	4208.75
2140.851	4217.35
2143.81746	4210.15
2146.78201	4215.65
2149.74466	4188.55
2152.7054	4219.35
2155.66425	4209.25
2158.6212	4185.75
2161.57625	4167.85
2164.52941	4144.75
2167.48067	4156.45
2170.43004	4158.05
2173.37752	4170.25
2176.32311	4171.05
2179.26681	4181.55
2182.20863	4187.25
2185.14856	4158.35
2188.08661	4178.75
2191.02278	4177.65
2193.95707	4157.25
2196.88948	4125.95
2199.82001	4145.05
2202.74867	4131.45
2205.67545	4145.35
2208.60037	4135.75
2211.52341	4127.95
2214.44458	4116.05
2217.36388	4112.45
2220.28132	4093.35
2223.1969	4072.25
2226.11061	4074.05
2229.02246	4059.05
2231.93245	4055.45
2234.84058	4047.65
2237.74686	4049.55
2240.65128	4039.15
2243.55385	4043.45
2246.45456	4004.85
2249.35343	4029.15
2252.25044	4023.65
2255.14561	4033.65
2258.03893	4046.65
2260.93041	4031.45
2263.82004	4032.35
2266.70783	4048.35
2269.59378	4007.05
2272.4779	3995.35
2275.36017	3993.05
2278.24061	3973.85
2281.11922	3925.35
2283.996	3956.85
2286.87094	3941.45
2289.74405	3937.55
2292.61534	3936.55
2295.4848	3928.25
2298.35243	3913.95
2301.21824	3893.55
2304.08223	3902.25
2306.94439	3908.25
2309.80474	3909.85
2312.66327	3893.45
2315.51999	3877.25
2318.37489	3879.55
2321.22797	3858.95
2324.07925	3850.45
2326.92871	3840.05
2329.77637	3847.95
2332.62222	3823.55
2335.46626	3812.55
2338.3085	3802.15
2341.14893	3813.05
2343.98756	3830.55
2346.8244	3803.25
2349.65943	3791.55
2352.49267	3798.75
2355.32411	3811.25
2358.15376	3801.65
2360.98161	3809.35
2363.80768	3790.05
2366.63195	3804.85
2369.45444	3809.75
2372.27514	3801.75
2375.09405	3824.75
2377.91118	3780.35
2380.72652	3789.35
2383.54009	3774.35
2386.35187	3784.75
2389.16188	3755.65
2391.97011	3746.25
2394.77657	3732.85
2397.58125	3730.75
2400.38416	3727.85
2403.18529	3695.15
2405.98466	3678.75
2408.78226	3698.45
2411.57809	3665.75
2414.37216	3666.25
2417.16446	3671.25
2419.955	3645.65
2422.74378	3672.85
2425.5308	3646.15
2428.31606	3662.15
2431.09956	3669.55
2433.88131	3633.95
2436.6613	3653.35
2439.43954	3644.45
2442.21603	3633.85
2444.99077	3622.15
2447.76377	3655.15
2450.53501	3628.35
2453.30451	3629.05
2456.07226	3640.95
2458.83827	3612.25
2461.60254	3585.95
2464.36507	3605.35
2467.12586	3586.65
2469.88492	3604.85
2472.64224	3588.75
2475.39782	3569.85
2478.15167	3599.05
2480.90379	3573.85
2483.65417	3591.85
2486.40283	3614.05
2489.14976	3613.55
2491.89497	3582.55
2494.63845	3594.05
2497.3802	3578.45
2500.12024	3568.95
2502.85855	3576.05
2505.59514	3568.25
2508.33002	3548.95
2511.06318	3519.15
2513.79462	3519.05
2516.52435	3472.15
2519.25237	3458.75
2521.97867	3447.85
2524.70327	3465.15
2527.42616	3467.25
2530.14734	3456.45
2532.86681	3433.05
2535.58458	3445.55
2538.30065	3434.35
2541.01501	3440.05
2543.72768	3420.95
2546.43864	3436.45
2549.14791	3421.75
2551.85548	3399.55
2554.56136	3404.25
2557.26554	3415.25
2559.96803	3406.55
2562.66883	3402.35
2565.36794	3382.15
2568.06536	3364.35
2570.7611	3387.25
2573.45514	3356.75
2576.14751	3353.95
2578.83819	3334.25
2581.52719	3337.75
2584.21451	3331.55
2586.90015	3315.05
2589.58411	3288.35
2592.2664	3317.45
2594.94701	3302.95
2597.62594	3314.45
2600.30321	3240.95
2602.9788	3260.95
2605.65273	3256.45
2608.32498	3262.45
2610.99557	3275.55
2613.66449	3235.55
2616.33175	3261.15
2618.99734	3249.65
2621.66128	3260.65
2624.32355	3238.55
2626.98416	3216.15
2629.64311	3201.95
2632.30041	3198.85
2634.95605	3191.45
2637.61004	3167.45
2640.26238	3161.95
2642.91306	3153.75
2645.56209	3176.25
2648.20948	3162.35
2650.85521	3156.15
2653.4993	3162.75
2656.14175	3163.25
2658.78255	3154.85
2661.42171	3118.05
2664.05923	3162.95
2666.6951	3176.55
2669.32934	3174.95
2671.96194	3172.05
2674.59291	3156.35
2677.22224	3184.65
2679.84993	3171.15
2682.476	3152.65
2685.10043	3146.05
2687.72324	3133.85
2690.34441	3137.85
2692.96396	3146.75
2695.58188	3146.05
2698.19818	3147.85
2700.81285	3132.25
2703.4259	3117.45
2706.03733	3089.65
2708.64714	3098.25
2711.25533	3113.85
2713.86191	3139.95
2716.46687	3128.95
2719.07021	3116.15
2721.67194	3107.65
2724.27206	3135.05
2726.87057	3113.65
2729.46747	3097.25
2732.06276	3108.75
2734.65644	3095.85
2737.24852	3094.95
2739.83899	3078.55
2742.42786	3085.55
2745.01513	3090.35
2747.60079	3065.45
2750.18486	3055.45
2752.76733	3065.55
2755.3482	3044.95
2757.92747	3046.05
2760.50515	3029.25
2763.08123	3016.95
2765.65573	3020.95
2768.22863	3011.05
2770.79994	3008.65
2773.36967	2992.15
2775.9378	2993.85
2778.50435	2975.75
2781.06932	2984.55
2783.6327	2954.45
2786.1945	2975.35
2788.75471	2967.75
2791.31335	2972.95
2793.87041	2963.45
2796.42589	2948.65
2798.97979	2929.85
2801.53212	2935.25
2804.08288	2952.25
2806.63206	2945.05
2809.17967	2921.85
2811.72571	2928.15
2814.27018	2938.95
2816.81308	2924.35
2819.35442	2896.25
2821.89419	2906.25
2824.43239	2893.15
2826.96904	2928.75
2829.50412	2898.25
2832.03763	2897.65
2834.56959	2895.55
2837.1	2891.85
2839.62884	2887.55
2842.15613	2882.95
2844.68186	2895.55
2847.20604	2856.45
2849.72867	2859.85
2852.24974	2863.25
2854.76927	2836.45
2857.28724	2783.75
2859.80367	2859.85
2862.31855	2869.85
2864.83189	2850.75
2867.34368	2855.85
2869.85393	2871.85
2872.36264	2843.05
2874.8698	2860.95
2877.37543	2843.45
2879.87952	2841.45
2882.38207	2827.15
2884.88308	2815.95
2887.38256	2829.85
2889.88051	2817.85
2892.37692	2818.45
2894.8718	2801.05
2897.36515	2815.95
2899.85698	2802.45
2902.34727	2802.95
2904.83604	2790.55
2907.32328	2813.05
2909.809	2815.65
2912.29319	2815.05
2914.77587	2829.05
2917.25702	2834.35
2919.73665	2838.55
2922.21476	2829.85
2924.69136	2817.85
2927.16644	2784.55
2929.64	2794.05
2932.11205	2781.35
2934.58258	2776.25
2937.05161	2764.05
2939.51912	2760.25
2941.98513	2781.75
2944.44962	2768.75
2946.91261	2742.75
2949.37409	2760.55
2951.83407	2752.85
2954.29254	2747.35
2956.74951	2755.15
2959.20498	2747.05
2961.65895	2746.65
2964.11142	2738.35
2966.56239	2741.85
2969.01186	2746.05
2971.45984	2739.95
2973.90632	2727.75
2976.35131	2743.85
2978.7948	2730.25
2981.23681	2722.35
2983.67732	2728.95
2986.11635	2736.15
2988.55388	2694.65
2990.98993	2708.45
2993.4245	2683.55
2995.85758	2681.85
2998.28917	2697.45
3000.71928	2679.05
3003.14791	2672.25
3005.57506	2658.85
3008.00073	2654.75
3010.42493	2590.95
3012.84764	2653.85
3015.26888	2641.55
3017.68865	2637.85
3020.10694	2586.15
3022.52376	2614.65
3024.9391	2611.75
3027.35298	2602.65
3029.76539	2586.95
3032.17632	2589.45
3034.5858	2571.85
3036.9938	2578.25
3039.40034	2569.95
3041.80542	2558.95
3044.20903	2541.25
3046.61118	2537.75
3049.01187	2546.35
3051.4111	2531.35
3053.80888	2513.95
3056.20519	2506.95
3058.60005	2488.85
3060.99345	2517.75
3063.3854	2498.35
3065.7759	2485.45
3068.16494	2469.65
3070.55254	2455.35
3072.93868	2475.05
3075.32338	2463.15
3077.70662	2459.35
3080.08842	2452.15
3082.46878	2433.15
3084.84769	2459.85
3087.22515	2438.35
3089.60118	2446.85
3091.97576	2430.35
3094.3489	2438.25
3096.72061	2436.35
3099.09087	2426.15
3101.4597	2439.65
3103.82709	2418.95
3106.19305	2409.05
3108.55757	2432.25
3110.92066	2412.05
3113.28232	2421.55
3115.64255	2414.05
3118.00134	2416.75
3120.35871	2394.25
3122.71466	2385.75
3125.06917	2391.45
3127.42226	2379.45
3129.77393	2362.45
3132.12417	2379.75
3134.47299	2377.35
3136.82039	2357.55
3139.16636	2324.15
3141.51092	2366.65
3143.85406	2365.95
3146.19579	2333.05
3148.53609	2352.35
3150.87499	2344.75
3153.21246	2339.65
3155.54853	2364.55
3157.88318	2355.25
3160.21642	2358.45
3162.54826	2351.95
3164.87868	2365.95
3167.2077	2312.35
3169.5353	2345.55
3171.86151	2350.15
3174.18631	2328.15
3176.5097	2316.25
3178.83169	2323.95
3181.15228	2323.05
3183.47147	2297.55
3185.78926	2285.85
3188.10565	2307.55
3190.42065	2285.55
3192.73424	2286.95
3195.04645	2287.75
3197.35725	2275.45
3199.66667	2276.45
3201.97469	2271.85
3204.28132	2258.55
3206.58656	2281.55
3208.8904	2290.45
3211.19287	2276.35
3213.49394	2268.35
3215.79363	2269.15
3218.09193	2280.15
3220.38884	2280.05
3222.68438	2284.05
3224.97853	2244.15
3227.2713	2280.45
3229.56269	2255.05
3231.8527	2264.45
3234.14133	2239.75
3236.42858	2243.55
3238.71446	2224.85
3240.99896	2244.45
3243.28209	2217.55
3245.56384	2229.45
3247.84423	2223.45
3250.12324	2222.15
3252.40088	2217.05
3254.67715	2208.35
3256.95205	2191.55
3259.22558	2211.55
3261.49775	2208.95
3263.76855	2206.35
3266.03799	2210.15
3268.30606	2209.65
3270.57277	2206.85
3272.83812	2185.85
3275.10211	2197.05
3277.36474	2205.85
3279.62601	2186.45
3281.88593	2177.05
3284.14448	2156.35
3286.40168	2174.55
3288.65753	2159.85
3290.91202	2170.05
3293.16516	2152.15
3295.41695	2186.35
3297.66738	2166.55
3299.91647	2151.85
3302.16421	2149.55
3304.4106	2104.15
3306.65564	2131.35
3308.89933	2091.85
3311.14169	2089.15
3313.38269	2068.85
3315.62236	2057.25
3317.86068	2040.55
3320.09766	2035.25
3322.3333	1997.75
3324.5676	1996.45
3326.80056	1967.75
3329.03219	1968.05
3331.26248	-0.45
3333.49143	-0.95
3335.71905	1.85
