Data from AgNPs_UA_5uM_CRN_500uM_SU_RamanShift__239__12-09-13-187.txt Node

Date: Thu Aug 04 12:09:13 BST 2022
User: TCL
Spectrometer: QEP01345
Trigger mode: 4
Integration Time (sec): 1.000000E0
Scans to average: 10
Electric dark correction enabled: true
Nonlinearity correction enabled: false
Boxcar width: 0
XAxis mode: Raman Shifts
Number of Pixels in Spectrum: 1044
>>>>>Begin Spectral Data<<<<<
46.04893	-0.35
50.45542	-0.35
54.85868	0.65
59.25871	-1.25
63.6555	-58.05
68.04907	-38.95
72.43941	-70.25
76.82654	-54.95
81.21044	-55.45
85.59113	-49.15
89.96862	-74.75
94.34289	-56.15
98.71396	-77.05
103.08183	-56.65
107.4465	-48.15
111.80798	-56.55
116.16626	-44.15
120.52136	-73.35
124.87327	-50.95
129.222	-62.45
133.56755	-48.75
137.90993	-64.05
142.24913	-52.45
146.58517	-44.45
150.91804	-42.05
155.24774	-31.35
159.57429	-11.75
163.89768	-7.45
168.21792	36.05
172.53501	54.45
176.84895	136.85
181.15975	264.75
185.46741	412.55
189.77193	588.75
194.07331	884.75
198.37157	1169.75
202.6667	1452.45
206.9587	1754.45
211.24758	2060.65
215.53334	2374.75
219.81599	2733.75
224.09553	3145.45
228.37195	3574.95
232.64527	4032.95
236.91549	4489.95
241.18261	4850.25
245.44663	5118.45
249.70755	5274.65
253.96539	5401.65
258.22014	5508.95
262.4718	5566.65
266.72039	5599.05
270.96589	5586.85
275.20832	5499.35
279.44768	5370.15
283.68397	5276.45
287.91719	5231.05
292.14735	5258.55
296.37445	5440.95
300.59849	5719.65
304.81948	6070.95
309.03742	6428.45
313.25231	6686.75
317.46415	6641.05
321.67296	6250.45
325.87872	5839.85
330.08145	5650.05
334.28114	5602.15
338.47781	5655.85
342.67145	5796.85
346.86207	6026.85
351.04966	6391.45
355.23424	6770.45
359.4158	7034.75
363.59435	7069.75
367.76989	6996.85
371.94243	6877.45
376.11196	6753.45
380.27849	6682.15
384.44203	6622.25
388.60257	6588.05
392.76012	6581.75
396.91468	6716.05
401.06626	6873.15
405.21485	6896.55
409.36047	6709.25
413.50311	6385.35
417.64277	6102.05
421.77947	5895.65
425.9132	5846.65
430.04396	5831.05
434.17176	5865.05
438.2966	5937.85
442.41849	6030.85
446.53742	6129.65
450.6534	6259.95
454.76644	6319.05
458.87653	6323.15
462.98368	6289.85
467.08789	6229.55
471.18916	6147.95
475.2875	6027.35
479.38291	5900.75
483.4754	5835.05
487.56496	5793.25
491.6516	5732.25
495.73531	5743.05
499.81612	5775.75
503.89401	5858.55
507.96899	5911.75
512.04106	6004.05
516.11023	6109.75
520.1765	6191.45
524.23987	6198.85
528.30034	6212.95
532.35792	6136.65
536.41261	6065.35
540.46441	5963.55
544.51333	5914.35
548.55936	5976.15
552.60252	6107.55
556.64279	6176.95
560.6802	6300.15
564.71473	6453.75
568.7464	6635.15
572.7752	6612.85
576.80114	6306.55
580.82422	6095.05
584.84444	5972.55
588.86181	5972.45
592.87633	5996.55
596.888	6103.95
600.89682	6497.15
604.9028	7451.55
608.90594	9544.05
612.90624	11899.85
616.90371	11048.95
620.89834	7936.25
624.89015	6613.75
628.87913	6410.25
632.86528	6547.95
636.84862	6700.25
640.82913	6588.25
644.80683	6223.35
648.78172	6053.45
652.75379	6072.85
656.72306	6318.25
660.68952	6551.35
664.65319	6455.05
668.61405	6219.85
672.57211	6152.15
676.52738	6161.75
680.47986	6060.45
684.42955	5961.05
688.37646	5902.45
692.32058	5924.15
696.26192	5972.95
700.20048	6075.05
704.13626	6132.85
708.06928	6095.55
711.99952	6051.55
715.927	6034.05
719.85171	6064.35
723.77365	6133.15
727.69284	6083.35
731.60928	6065.65
735.52295	6038.55
739.43388	6077.45
743.34206	6092.05
747.24749	6118.95
751.15017	6120.65
755.05012	6210.15
758.94733	6589.05
762.8418	7460.95
766.73354	8800.05
770.62254	9839.45
774.50882	9916.55
778.39237	9371.95
782.27321	8414.45
786.15132	7366.65
790.02671	6692.05
793.89938	6305.85
797.76935	6188.05
801.6366	6076.45
805.50115	6042.95
809.36299	6031.45
813.22213	6030.45
817.07857	6028.15
820.93231	6015.95
824.78336	6039.85
828.63172	6046.55
832.47738	6055.85
836.32036	6066.85
840.16066	6029.65
843.99827	6026.55
847.8332	6016.35
851.66546	6012.55
855.49504	6023.35
859.32195	6046.85
863.1462	6033.65
866.96777	6046.95
870.78668	6030.15
874.60293	6041.55
878.41652	6047.65
882.22745	6139.45
886.03573	6165.85
889.84136	6168.05
893.64433	6171.75
897.44466	6140.65
901.24235	6158.75
905.0374	6139.05
908.8298	6066.85
912.61957	6054.25
916.40671	6016.45
920.19121	6070.05
923.97308	6168.05
927.75233	6218.05
931.52895	6274.15
935.30295	6244.05
939.07433	6093.45
942.84309	5967.75
946.60924	5941.95
950.37278	5911.35
954.13371	5915.35
957.89203	5892.65
961.64774	5902.85
965.40086	5893.95
969.15137	5877.35
972.89929	5916.25
976.64461	5895.85
980.38733	5912.25
984.12747	5927.35
987.86502	5915.45
991.59999	5964.65
995.33237	6025.15
999.06217	6077.85
1002.78939	6163.85
1006.51404	6296.35
1010.23611	6398.95
1013.95561	6479.55
1017.67255	6460.35
1021.38692	6448.65
1025.09872	6373.85
1028.80796	6288.05
1032.51465	6285.45
1036.21877	6292.45
1039.92035	6338.25
1043.61937	6363.45
1047.31584	6425.95
1051.00976	6451.55
1054.70114	6454.15
1058.38998	6457.05
1062.07627	6473.25
1065.76003	6496.35
1069.44126	6582.25
1073.11995	6641.25
1076.79611	6764.95
1080.46974	6920.95
1084.14085	7100.95
1087.80943	7218.25
1091.47549	7265.15
1095.13903	7177.55
1098.80005	7041.05
1102.45857	6961.65
1106.11456	6906.55
1109.76805	6860.05
1113.41903	6982.05
1117.06751	7155.95
1120.71348	7405.05
1124.35696	7796.75
1127.99793	8096.65
1131.63641	7938.55
1135.2724	7501.35
1138.90589	7214.95
1142.5369	7022.25
1146.16542	6897.45
1149.79145	6796.15
1153.415	6757.65
1157.03607	6755.15
1160.65467	6862.25
1164.27079	7067.15
1167.88443	7332.55
1171.49561	7755.95
1175.10432	8382.05
1178.71056	9294.25
1182.31434	10097.25
1185.91565	10364.85
1189.51451	10209.35
1193.11091	9948.45
1196.70485	9717.15
1200.29634	9467.35
1203.88538	9160.15
1207.47197	8715.95
1211.05612	8236.85
1214.63782	7798.05
1218.21708	7529.95
1221.79391	7415.85
1225.36829	7326.65
1228.94024	7310.25
1232.50976	7358.25
1236.07685	7369.35
1239.6415	7401.55
1243.20374	7420.75
1246.76355	7455.85
1250.32093	7529.25
1253.8759	7566.55
1257.42845	7749.55
1260.97859	7963.25
1264.52631	8181.45
1268.07163	8377.55
1271.61453	8497.85
1275.15503	8537.15
1278.69312	8546.05
1282.22882	8621.85
1285.76211	8819.85
1289.29301	9067.55
1292.82151	9345.75
1296.34761	9555.05
1299.87133	9955.95
1303.39266	10671.05
1306.9116	11820.25
1310.42815	13070.55
1313.94233	13492.15
1317.45412	12713.85
1320.96354	11546.45
1324.47058	10522.25
1327.97525	9788.65
1331.47754	9372.75
1334.97747	9277.85
1338.47502	9377.85
1341.97022	9745.95
1345.46305	10494.55
1348.95352	11604.35
1352.44163	12927.45
1355.92738	14306.85
1359.41078	15978.15
1362.89183	17505.55
1366.37053	16898.35
1369.84688	14018.95
1373.32088	11282.45
1376.79254	9853.95
1380.26186	9163.65
1383.72883	8732.35
1387.19347	8313.85
1390.65578	7988.45
1394.11575	7718.45
1397.57339	7545.85
1401.0287	7433.25
1404.48168	7401.35
1407.93234	7410.45
1411.38068	7440.05
1414.82669	7524.45
1418.27039	7582.05
1421.71177	7578.85
1425.15083	7470.75
1428.58758	7402.95
1432.02203	7435.05
1435.45416	7488.95
1438.88399	7518.55
1442.31151	7514.55
1445.73673	7562.45
1449.15965	7616.65
1452.58027	7625.85
1455.9986	7639.05
1459.41463	7635.65
1462.82837	7744.15
1466.23982	7920.15
1469.64898	8123.15
1473.05586	8285.75
1476.46045	8389.75
1479.86276	8460.15
1483.26279	8567.05
1486.66054	8775.85
1490.05602	9047.85
1493.44922	9624.05
1496.84016	10484.65
1500.22882	11901.35
1503.61521	13687.05
1506.99934	15496.55
1510.38121	16699.65
1513.76081	16542.35
1517.13816	14940.25
1520.51324	12778.25
1523.88607	11044.45
1527.25665	10062.55
1530.62498	9559.05
1533.99105	9313.75
1537.35488	9203.85
1540.71647	9116.95
1544.07581	8970.85
1547.4329	8838.75
1550.78776	8716.45
1554.14038	8619.85
1557.49077	8607.25
1560.83892	8693.75
1564.18484	8920.75
1567.52853	9258.05
1570.86999	9574.25
1574.20922	9758.85
1577.54624	9651.65
1580.88103	9105.35
1584.2136	8420.45
1587.54395	8024.65
1590.87208	7957.55
1594.19801	8112.15
1597.52172	8487.15
1600.84321	8614.45
1604.16251	8489.05
1607.47959	8270.35
1610.79447	8077.35
1614.10715	7805.75
1617.41763	7527.25
1620.7259	7233.25
1624.03199	7065.15
1627.33587	7020.45
1630.63757	7085.25
1633.93707	7293.15
1637.23439	7706.15
1640.52951	8400.95
1643.82246	9401.95
1647.11321	10558.05
1650.40179	11301.55
1653.68819	10969.05
1656.97241	9715.05
1660.25446	8322.35
1663.53433	7319.45
1666.81203	6688.95
1670.08756	6346.15
1673.36092	6169.45
1676.63211	6007.55
1679.90115	5915.05
1683.16801	5848.25
1686.43272	5749.05
1689.69527	5724.45
1692.95567	5651.25
1696.2139	5634.65
1699.46999	5571.75
1702.72392	5586.85
1705.97571	5583.25
1709.22535	5571.95
1712.47284	5613.25
1715.71819	5603.95
1718.96139	5616.05
1722.20246	5591.95
1725.44139	5568.85
1728.67818	5539.05
1731.91284	5490.75
1735.14537	5461.65
1738.37576	5422.45
1741.60403	5406.45
1744.83017	5379.55
1748.05418	5391.05
1751.27607	5378.75
1754.49584	5354.35
1757.71349	5304.55
1760.92903	5319.05
1764.14244	5253.35
1767.35375	5264.95
1770.56294	5256.45
1773.77002	5235.55
1776.97499	5243.25
1780.17785	5211.25
1783.37861	5200.75
1786.57727	5226.95
1789.77382	5161.25
1792.96828	5201.15
1796.16064	5200.25
1799.3509	5178.25
1802.53907	5201.85
1805.72514	5151.75
1808.90913	5123.65
1812.09102	5125.25
1815.27083	5113.55
1818.44856	5101.45
1821.6242	5114.65
1824.79776	5071.85
1827.96924	5070.05
1831.13864	5058.25
1834.30597	5069.35
1837.47122	5040.55
1840.6344	5038.15
1843.7955	5003.55
1846.95454	5001.55
1850.11151	5012.45
1853.26642	5003.95
1856.41926	4987.95
1859.57004	4980.05
1862.71876	4976.85
1865.86542	4988.55
1869.01003	4966.85
1872.15258	4951.25
1875.29308	4976.55
1878.43152	4978.55
1881.56792	4953.45
1884.70227	4936.75
1887.83457	4932.55
1890.96482	4888.75
1894.09304	4910.15
1897.21921	4899.45
1900.34335	4904.15
1903.46544	4886.85
1906.58551	4906.35
1909.70353	4884.85
1912.81953	4872.95
1915.93349	4866.75
1919.04543	4855.85
1922.15534	4836.75
1925.26322	4838.35
1928.36908	4826.65
1931.47292	4817.85
1934.57473	4828.05
1937.67453	4790.85
1940.77232	4763.65
1943.86808	4773.95
1946.96184	4754.15
1950.05358	4728.45
1953.14331	4724.25
1956.23103	4724.05
1959.31675	4684.15
1962.40046	4632.75
1965.48217	4672.15
1968.56188	4648.15
1971.63959	4653.05
1974.7153	4655.55
1977.78901	4624.35
1980.86073	4601.75
1983.93046	4561.15
1986.99819	4496.55
1990.06394	4499.95
1993.1277	4521.25
1996.18947	4515.75
1999.24925	4486.35
2002.30706	4487.25
2005.36288	4475.75
2008.41672	4448.45
2011.46859	4422.35
2014.51848	4412.15
2017.56639	4384.95
2020.61233	4382.45
2023.6563	4384.25
2026.6983	4318.95
2029.73833	4333.75
2032.7764	4352.05
2035.8125	4300.15
2038.84664	4306.25
2041.87881	4283.25
2044.90903	4299.05
2047.93729	4296.75
2050.96359	4264.45
2053.98794	4271.55
2057.01034	4273.15
2060.03078	4243.15
2063.04927	4239.25
2066.06582	4244.25
2069.08042	4230.65
2072.09307	4230.65
2075.10378	4232.05
2078.11255	4215.05
2081.11938	4227.25
2084.12426	4219.15
2087.12722	4214.15
2090.12824	4203.05
2093.12732	4209.25
2096.12447	4219.35
2099.11969	4212.45
2102.11299	4192.75
2105.10435	4214.35
2108.09379	4221.05
2111.08131	4208.25
2114.0669	4213.85
2117.05057	4210.45
2120.03233	4197.35
2123.01216	4220.65
2125.99008	4214.85
2128.96609	4218.65
2131.94018	4227.95
2134.91236	4234.95
2137.88263	4219.35
2140.851	4223.15
2143.81746	4246.85
2146.78201	4231.25
2149.74466	4211.55
2152.7054	4213.25
2155.66425	4207.75
2158.6212	4204.25
2161.57625	4184.15
2164.52941	4164.45
2167.48067	4188.75
2170.43004	4167.55
2173.37752	4190.15
2176.32311	4195.85
2179.26681	4173.35
2182.20863	4180.05
2185.14856	4181.05
2188.08661	4192.15
2191.02278	4182.95
2193.95707	4162.45
2196.88948	4149.35
2199.82001	4160.95
2202.74867	4152.15
2205.67545	4161.65
2208.60037	4160.05
2211.52341	4135.35
2214.44458	4119.15
2217.36388	4124.45
2220.28132	4098.35
2223.1969	4072.85
2226.11061	4080.95
2229.02246	4057.45
2231.93245	4069.05
2234.84058	4062.35
2237.74686	4033.05
2240.65128	4019.65
2243.55385	4030.55
2246.45456	4011.05
2249.35343	4021.45
2252.25044	4010.75
2255.14561	4005.95
2258.03893	4010.85
2260.93041	4009.05
2263.82004	3992.55
2266.70783	3993.75
2269.59378	3973.05
2272.4779	3959.95
2275.36017	3956.55
2278.24061	3945.15
2281.11922	3909.65
2283.996	3931.15
2286.87094	3900.25
2289.74405	3908.55
2292.61534	3897.65
2295.4848	3895.75
2298.35243	3889.15
2301.21824	3873.25
2304.08223	3874.65
2306.94439	3884.55
2309.80474	3879.85
2312.66327	3860.55
2315.51999	3848.65
2318.37489	3848.15
2321.22797	3829.25
2324.07925	3825.75
2326.92871	3830.85
2329.77637	3803.35
2332.62222	3806.75
2335.46626	3767.75
2338.3085	3767.95
2341.14893	3786.55
2343.98756	3797.05
2346.8244	3776.05
2349.65943	3754.75
2352.49267	3777.55
2355.32411	3770.65
2358.15376	3767.15
2360.98161	3785.05
2363.80768	3744.65
2366.63195	3766.45
2369.45444	3770.75
2372.27514	3775.25
2375.09405	3771.75
2377.91118	3734.35
2380.72652	3733.35
2383.54009	3727.95
2386.35187	3733.35
2389.16188	3685.75
2391.97011	3697.35
2394.77657	3694.35
2397.58125	3689.05
2400.38416	3675.75
2403.18529	3666.45
2405.98466	3649.55
2408.78226	3648.75
2411.57809	3638.75
2414.37216	3623.05
2417.16446	3624.45
2419.955	3602.95
2422.74378	3626.65
2425.5308	3594.25
2428.31606	3607.15
2431.09956	3607.05
2433.88131	3595.15
2436.6613	3606.25
2439.43954	3582.05
2442.21603	3579.55
2444.99077	3561.35
2447.76377	3586.05
2450.53501	3566.15
2453.30451	3560.75
2456.07226	3572.15
2458.83827	3553.05
2461.60254	3526.75
2464.36507	3552.75
2467.12586	3530.65
2469.88492	3550.05
2472.64224	3548.85
2475.39782	3520.65
2478.15167	3541.25
2480.90379	3537.45
2483.65417	3539.75
2486.40283	3539.95
2489.14976	3554.75
2491.89497	3540.55
2494.63845	3542.05
2497.3802	3523.25
2500.12024	3530.35
2502.85855	3512.15
2505.59514	3523.75
2508.33002	3509.25
2511.06318	3477.65
2513.79462	3486.25
2516.52435	3445.05
2519.25237	3429.05
2521.97867	3427.85
2524.70327	3450.55
2527.42616	3441.65
2530.14734	3448.95
2532.86681	3422.05
2535.58458	3409.75
2538.30065	3409.25
2541.01501	3420.65
2543.72768	3402.75
2546.43864	3397.65
2549.14791	3386.05
2551.85548	3366.15
2554.56136	3360.95
2557.26554	3379.55
2559.96803	3366.65
2562.66883	3353.15
2565.36794	3353.25
2568.06536	3312.55
2570.7611	3334.05
2573.45514	3334.75
2576.14751	3307.75
2578.83819	3293.95
2581.52719	3286.25
2584.21451	3299.45
2586.90015	3283.35
2589.58411	3265.05
2592.2664	3278.65
2594.94701	3264.15
2597.62594	3268.45
2600.30321	3201.55
2602.9788	3225.15
2605.65273	3221.95
2608.32498	3222.25
2610.99557	3232.55
2613.66449	3203.25
2616.33175	3225.35
2618.99734	3230.55
2621.66128	3226.65
2624.32355	3198.65
2626.98416	3192.95
2629.64311	3178.25
2632.30041	3184.05
2634.95605	3160.25
2637.61004	3152.45
2640.26238	3136.85
2642.91306	3141.15
2645.56209	3168.25
2648.20948	3154.65
2650.85521	3136.85
2653.4993	3151.85
2656.14175	3131.15
2658.78255	3125.05
2661.42171	3101.15
2664.05923	3143.15
2666.6951	3140.45
2669.32934	3149.95
2671.96194	3153.85
2674.59291	3139.45
2677.22224	3144.25
2679.84993	3147.75
2682.476	3132.95
2685.10043	3135.55
2687.72324	3111.65
2690.34441	3120.55
2692.96396	3116.05
2695.58188	3122.85
2698.19818	3112.25
2700.81285	3102.25
2703.4259	3090.75
2706.03733	3086.45
2708.64714	3091.45
2711.25533	3106.65
2713.86191	3092.75
2716.46687	3110.35
2719.07021	3096.75
2721.67194	3107.75
2724.27206	3104.05
2726.87057	3109.85
2729.46747	3097.05
2732.06276	3102.45
2734.65644	3070.45
2737.24852	3077.55
2739.83899	3043.05
2742.42786	3069.05
2745.01513	3063.05
2747.60079	3057.05
2750.18486	3045.75
2752.76733	3051.45
2755.3482	3038.65
2757.92747	3037.85
2760.50515	3018.15
2763.08123	3002.05
2765.65573	3008.55
2768.22863	3006.05
2770.79994	2986.15
2773.36967	2994.65
2775.9378	2984.65
2778.50435	2976.35
2781.06932	2968.85
2783.6327	2968.75
2786.1945	2987.25
2788.75471	2973.75
2791.31335	2958.45
2793.87041	2956.25
2796.42589	2934.95
2798.97979	2938.85
2801.53212	2928.35
2804.08288	2954.95
2806.63206	2920.35
2809.17967	2913.85
2811.72571	2936.85
2814.27018	2917.25
2816.81308	2903.85
2819.35442	2876.25
2821.89419	2890.85
2824.43239	2872.35
2826.96904	2906.25
2829.50412	2873.25
2832.03763	2886.85
2834.56959	2869.65
2837.1	2868.55
2839.62884	2878.75
2842.15613	2862.05
2844.68186	2874.65
2847.20604	2845.85
2849.72867	2843.55
2852.24974	2852.25
2854.76927	2822.75
2857.28724	2769.35
2859.80367	2828.95
2862.31855	2834.15
2864.83189	2835.65
2867.34368	2839.15
2869.85393	2831.85
2872.36264	2804.15
2874.8698	2814.05
2877.37543	2810.05
2879.87952	2809.75
2882.38207	2793.35
2884.88308	2800.05
2887.38256	2801.75
2889.88051	2787.85
2892.37692	2784.45
2894.8718	2786.05
2897.36515	2795.65
2899.85698	2770.75
2902.34727	2774.85
2904.83604	2780.65
2907.32328	2795.45
2909.809	2804.65
2912.29319	2792.25
2914.77587	2800.95
2917.25702	2817.35
2919.73665	2812.65
2922.21476	2823.75
2924.69136	2811.85
2927.16644	2793.75
2929.64	2799.25
2932.11205	2779.55
2934.58258	2794.45
2937.05161	2768.15
2939.51912	2777.75
2941.98513	2797.25
2944.44962	2774.05
2946.91261	2736.95
2949.37409	2749.95
2951.83407	2736.45
2954.29254	2736.55
2956.74951	2734.35
2959.20498	2706.75
2961.65895	2732.35
2964.11142	2702.25
2966.56239	2705.85
2969.01186	2718.85
2971.45984	2712.65
2973.90632	2685.85
2976.35131	2711.55
2978.7948	2702.65
2981.23681	2687.95
2983.67732	2692.25
2986.11635	2677.85
2988.55388	2658.05
2990.98993	2657.75
2993.4245	2663.65
2995.85758	2643.35
2998.28917	2624.05
3000.71928	2631.85
3003.14791	2625.35
3005.57506	2605.55
3008.00073	2600.05
3010.42493	2539.25
3012.84764	2595.05
3015.26888	2596.65
3017.68865	2582.55
3020.10694	2545.15
3022.52376	2554.65
3024.9391	2551.45
3027.35298	2532.75
3029.76539	2534.55
3032.17632	2549.05
3034.5858	2521.75
3036.9938	2528.15
3039.40034	2515.55
3041.80542	2509.75
3044.20903	2506.55
3046.61118	2484.75
3049.01187	2522.85
3051.4111	2491.35
3053.80888	2476.55
3056.20519	2464.75
3058.60005	2457.35
3060.99345	2483.85
3063.3854	2445.95
3065.7759	2442.75
3068.16494	2431.05
3070.55254	2414.55
3072.93868	2436.45
3075.32338	2423.15
3077.70662	2420.15
3080.08842	2389.05
3082.46878	2402.35
3084.84769	2408.45
3087.22515	2395.65
3089.60118	2398.75
3091.97576	2382.75
3094.3489	2399.55
3096.72061	2380.25
3099.09087	2376.05
3101.4597	2386.75
3103.82709	2370.15
3106.19305	2365.35
3108.55757	2369.85
3110.92066	2357.45
3113.28232	2376.45
3115.64255	2354.15
3118.00134	2358.55
3120.35871	2326.25
3122.71466	2309.75
3125.06917	2324.85
3127.42226	2315.15
3129.77393	2299.65
3132.12417	2325.65
3134.47299	2320.05
3136.82039	2295.75
3139.16636	2266.55
3141.51092	2294.15
3143.85406	2302.05
3146.19579	2275.75
3148.53609	2276.75
3150.87499	2281.25
3153.21246	2272.65
3155.54853	2285.15
3157.88318	2276.95
3160.21642	2286.35
3162.54826	2283.75
3164.87868	2279.25
3167.2077	2233.95
3169.5353	2265.25
3171.86151	2277.75
3174.18631	2252.35
3176.5097	2249.05
3178.83169	2252.25
3181.15228	2249.65
3183.47147	2221.65
3185.78926	2215.45
3188.10565	2223.05
3190.42065	2201.95
3192.73424	2227.55
3195.04645	2212.95
3197.35725	2182.65
3199.66667	2199.75
3201.97469	2196.05
3204.28132	2178.55
3206.58656	2191.55
3208.8904	2208.55
3211.19287	2198.35
3213.49394	2182.45
3215.79363	2176.25
3218.09193	2185.95
3220.38884	2184.65
3222.68438	2183.55
3224.97853	2175.15
3227.2713	2193.55
3229.56269	2168.35
3231.8527	2177.95
3234.14133	2154.35
3236.42858	2146.05
3238.71446	2129.25
3240.99896	2162.75
3243.28209	2131.95
3245.56384	2142.25
3247.84423	2121.15
3250.12324	2133.25
3252.40088	2128.95
3254.67715	2118.85
3256.95205	2108.25
3259.22558	2120.95
3261.49775	2120.85
3263.76855	2107.85
3266.03799	2114.05
3268.30606	2108.05
3270.57277	2101.45
3272.83812	2095.35
3275.10211	2097.85
3277.36474	2099.45
3279.62601	2097.05
3281.88593	2075.15
3284.14448	2059.65
3286.40168	2078.45
3288.65753	2056.85
3290.91202	2056.85
3293.16516	2037.15
3295.41695	2066.15
3297.66738	2074.15
3299.91647	2046.35
3302.16421	2043.65
3304.4106	2002.35
3306.65564	2017.35
3308.89933	1978.85
3311.14169	1984.15
3313.38269	1961.65
3315.62236	1940.85
3317.86068	1935.55
3320.09766	1939.05
3322.3333	1900.45
3324.5676	1899.45
3326.80056	1864.65
3329.03219	1859.25
3331.26248	0.25
3333.49143	0.15
3335.71905	0.75
