Data from AgNPs_UA_5uM_CRN_500uM_SU_RamanShift__153__11-54-53-170.txt Node

Date: Thu Aug 04 11:54:53 BST 2022
User: TCL
Spectrometer: QEP01345
Trigger mode: 4
Integration Time (sec): 1.000000E0
Scans to average: 10
Electric dark correction enabled: true
Nonlinearity correction enabled: false
Boxcar width: 0
XAxis mode: Raman Shifts
Number of Pixels in Spectrum: 1044
>>>>>Begin Spectral Data<<<<<
46.04893	-0.55
50.45542	0.45
54.85868	0.25
59.25871	-1.35
63.6555	-56.95
68.04907	-40.55
72.43941	-70.75
76.82654	-56.25
81.21044	-54.55
85.59113	-49.75
89.96862	-73.95
94.34289	-55.45
98.71396	-79.25
103.08183	-58.45
107.4465	-47.65
111.80798	-56.35
116.16626	-45.35
120.52136	-74.05
124.87327	-51.05
129.222	-63.95
133.56755	-50.75
137.90993	-64.35
142.24913	-50.85
146.58517	-42.65
150.91804	-39.85
155.24774	-30.65
159.57429	-10.95
163.89768	-8.15
168.21792	38.55
172.53501	56.45
176.84895	137.25
181.15975	263.55
185.46741	413.65
189.77193	594.55
194.07331	886.05
198.37157	1168.95
202.6667	1456.55
206.9587	1759.95
211.24758	2071.85
215.53334	2390.05
219.81599	2737.55
224.09553	3147.85
228.37195	3591.25
232.64527	4017.35
236.91549	4498.75
241.18261	4850.75
245.44663	5138.85
249.70755	5324.15
253.96539	5470.15
258.22014	5568.35
262.4718	5650.65
266.72039	5658.85
270.96589	5619.35
275.20832	5527.45
279.44768	5420.45
283.68397	5308.75
287.91719	5254.45
292.14735	5290.65
296.37445	5412.25
300.59849	5693.35
304.81948	6010.75
309.03742	6362.35
313.25231	6597.75
317.46415	6537.75
321.67296	6158.15
325.87872	5776.25
330.08145	5606.05
334.28114	5560.95
338.47781	5613.75
342.67145	5755.85
346.86207	6006.05
351.04966	6341.05
355.23424	6730.95
359.4158	6987.85
363.59435	7043.65
367.76989	6974.55
371.94243	6853.45
376.11196	6736.55
380.27849	6669.55
384.44203	6622.25
388.60257	6562.25
392.76012	6580.45
396.91468	6690.95
401.06626	6833.65
405.21485	6869.85
409.36047	6736.55
413.50311	6423.15
417.64277	6154.85
421.77947	5954.35
425.9132	5886.25
430.04396	5891.15
434.17176	5927.05
438.2966	6019.65
442.41849	6110.85
446.53742	6239.95
450.6534	6332.15
454.76644	6415.15
458.87653	6406.45
462.98368	6384.15
467.08789	6341.05
471.18916	6267.05
475.2875	6164.25
479.38291	6056.55
483.4754	5943.35
487.56496	5918.25
491.6516	5867.45
495.73531	5867.25
499.81612	5904.35
503.89401	5983.75
507.96899	6044.85
512.04106	6133.15
516.11023	6235.05
520.1765	6315.05
524.23987	6322.85
528.30034	6358.35
532.35792	6262.05
536.41261	6196.85
540.46441	6111.35
544.51333	6089.65
548.55936	6118.85
552.60252	6239.15
556.64279	6332.35
560.6802	6443.65
564.71473	6590.65
568.7464	6795.25
572.7752	6738.05
576.80114	6421.45
580.82422	6211.45
584.84444	6112.45
588.86181	6093.85
592.87633	6125.45
596.888	6237.05
600.89682	6584.55
604.9028	7494.05
608.90594	9471.95
612.90624	11712.95
616.90371	10892.45
620.89834	7997.25
624.89015	6758.85
628.87913	6563.75
632.86528	6702.15
636.84862	6858.45
640.82913	6739.15
644.80683	6423.35
648.78172	6243.65
652.75379	6271.45
656.72306	6502.35
660.68952	6719.35
664.65319	6657.95
668.61405	6415.75
672.57211	6358.45
676.52738	6367.55
680.47986	6280.65
684.42955	6199.55
688.37646	6154.75
692.32058	6177.05
696.26192	6221.25
700.20048	6321.55
704.13626	6378.95
708.06928	6299.95
711.99952	6287.85
715.927	6242.85
719.85171	6298.05
723.77365	6348.35
727.69284	6337.25
731.60928	6305.45
735.52295	6282.35
739.43388	6327.45
743.34206	6352.45
747.24749	6361.95
751.15017	6367.05
755.05012	6434.75
758.94733	6788.55
762.8418	7566.15
766.73354	8797.95
770.62254	9716.35
774.50882	9811.45
778.39237	9374.75
782.27321	8491.65
786.15132	7526.65
790.02671	6870.55
793.89938	6523.25
797.76935	6407.75
801.6366	6322.35
805.50115	6303.45
809.36299	6289.75
813.22213	6294.65
817.07857	6294.95
820.93231	6296.45
824.78336	6316.45
828.63172	6337.55
832.47738	6324.15
836.32036	6348.95
840.16066	6314.45
843.99827	6309.85
847.8332	6288.25
851.66546	6292.35
855.49504	6308.25
859.32195	6351.15
863.1462	6331.55
866.96777	6331.35
870.78668	6324.65
874.60293	6354.55
878.41652	6394.75
882.22745	6426.25
886.03573	6454.15
889.84136	6468.75
893.64433	6464.85
897.44466	6456.15
901.24235	6446.75
905.0374	6452.95
908.8298	6382.15
912.61957	6361.65
916.40671	6309.75
920.19121	6370.55
923.97308	6455.25
927.75233	6505.45
931.52895	6575.75
935.30295	6567.15
939.07433	6405.35
942.84309	6280.15
946.60924	6264.65
950.37278	6228.75
954.13371	6230.55
957.89203	6221.95
961.64774	6240.45
965.40086	6208.75
969.15137	6204.15
972.89929	6239.25
976.64461	6208.45
980.38733	6254.55
984.12747	6255.15
987.86502	6274.15
991.59999	6293.65
995.33237	6362.85
999.06217	6425.35
1002.78939	6507.65
1006.51404	6649.15
1010.23611	6760.65
1013.95561	6821.75
1017.67255	6814.75
1021.38692	6785.75
1025.09872	6718.05
1028.80796	6636.55
1032.51465	6644.35
1036.21877	6635.85
1039.92035	6682.45
1043.61937	6709.85
1047.31584	6770.55
1051.00976	6784.75
1054.70114	6791.35
1058.38998	6786.35
1062.07627	6786.85
1065.76003	6824.15
1069.44126	6895.75
1073.11995	6979.75
1076.79611	7101.55
1080.46974	7244.15
1084.14085	7410.65
1087.80943	7532.05
1091.47549	7566.75
1095.13903	7491.15
1098.80005	7382.55
1102.45857	7306.85
1106.11456	7261.75
1109.76805	7194.45
1113.41903	7305.45
1117.06751	7448.75
1120.71348	7682.25
1124.35696	8040.45
1127.99793	8314.75
1131.63641	8159.25
1135.2724	7789.35
1138.90589	7505.75
1142.5369	7315.85
1146.16542	7218.75
1149.79145	7121.85
1153.415	7049.25
1157.03607	7069.95
1160.65467	7133.05
1164.27079	7336.25
1167.88443	7549.75
1171.49561	7935.75
1175.10432	8489.65
1178.71056	9331.05
1182.31434	10047.85
1185.91565	10279.45
1189.51451	10152.45
1193.11091	9935.05
1196.70485	9677.85
1200.29634	9522.35
1203.88538	9272.65
1207.47197	8871.95
1211.05612	8453.75
1214.63782	8115.45
1218.21708	7881.75
1221.79391	7726.15
1225.36829	7625.75
1228.94024	7593.65
1232.50976	7616.95
1236.07685	7631.65
1239.6415	7673.45
1243.20374	7698.85
1246.76355	7744.95
1250.32093	7800.75
1253.8759	7892.95
1257.42845	8089.35
1260.97859	8241.75
1264.52631	8460.35
1268.07163	8615.65
1271.61453	8746.15
1275.15503	8787.35
1278.69312	8765.55
1282.22882	8838.05
1285.76211	9047.45
1289.29301	9272.35
1292.82151	9503.95
1296.34761	9724.45
1299.87133	10074.75
1303.39266	10752.25
1306.9116	11792.25
1310.42815	12937.35
1313.94233	13355.55
1317.45412	12585.35
1320.96354	11537.95
1324.47058	10617.75
1327.97525	9889.45
1331.47754	9544.15
1334.97747	9449.25
1338.47502	9582.95
1341.97022	9930.25
1345.46305	10594.85
1348.95352	11588.95
1352.44163	12740.15
1355.92738	13926.45
1359.41078	15467.45
1362.89183	16818.45
1366.37053	16191.05
1369.84688	13578.35
1373.32088	11112.05
1376.79254	9850.15
1380.26186	9274.25
1383.72883	8893.35
1387.19347	8530.95
1390.65578	8212.55
1394.11575	7991.15
1397.57339	7821.15
1401.0287	7765.65
1404.48168	7695.65
1407.93234	7750.95
1411.38068	7747.85
1414.82669	7815.85
1418.27039	7902.35
1421.71177	7914.05
1425.15083	7801.05
1428.58758	7723.25
1432.02203	7763.45
1435.45416	7853.85
1438.88399	7854.45
1442.31151	7845.25
1445.73673	7899.95
1449.15965	7961.35
1452.58027	7983.55
1455.9986	7974.85
1459.41463	7972.15
1462.82837	8076.35
1466.23982	8222.95
1469.64898	8442.15
1473.05586	8581.95
1476.46045	8672.85
1479.86276	8723.75
1483.26279	8805.75
1486.66054	8960.75
1490.05602	9225.75
1493.44922	9687.35
1496.84016	10506.95
1500.22882	11744.85
1503.61521	13308.85
1506.99934	14953.05
1510.38121	16051.75
1513.76081	15942.65
1517.13816	14533.15
1520.51324	12573.65
1523.88607	10994.25
1527.25665	10072.75
1530.62498	9611.55
1533.99105	9416.35
1537.35488	9275.35
1540.71647	9219.85
1544.07581	9124.15
1547.4329	9012.75
1550.78776	8901.45
1554.14038	8823.85
1557.49077	8772.05
1560.83892	8868.75
1564.18484	9050.25
1567.52853	9335.55
1570.86999	9652.15
1574.20922	9761.15
1577.54624	9673.15
1580.88103	9187.25
1584.2136	8617.85
1587.54395	8269.05
1590.87208	8218.55
1594.19801	8365.65
1597.52172	8729.75
1600.84321	8903.65
1604.16251	8775.05
1607.47959	8579.95
1610.79447	8380.95
1614.10715	8119.85
1617.41763	7808.25
1620.7259	7568.55
1624.03199	7403.35
1627.33587	7344.55
1630.63757	7403.25
1633.93707	7614.95
1637.23439	8012.75
1640.52951	8645.45
1643.82246	9569.15
1647.11321	10657.75
1650.40179	11265.25
1653.68819	10957.85
1656.97241	9792.05
1660.25446	8495.15
1663.53433	7562.05
1666.81203	7005.75
1670.08756	6709.55
1673.36092	6540.75
1676.63211	6421.55
1679.90115	6303.55
1683.16801	6225.55
1686.43272	6159.45
1689.69527	6128.15
1692.95567	6055.75
1696.2139	6025.85
1699.46999	5981.15
1702.72392	5965.95
1705.97571	5969.55
1709.22535	5952.85
1712.47284	5991.25
1715.71819	5988.65
1718.96139	6004.45
1722.20246	5983.75
1725.44139	5956.45
1728.67818	5936.55
1731.91284	5873.15
1735.14537	5866.65
1738.37576	5846.55
1741.60403	5828.15
1744.83017	5777.65
1748.05418	5783.55
1751.27607	5798.75
1754.49584	5756.25
1757.71349	5722.35
1760.92903	5750.05
1764.14244	5672.45
1767.35375	5690.75
1770.56294	5669.85
1773.77002	5656.75
1776.97499	5666.25
1780.17785	5644.25
1783.37861	5642.55
1786.57727	5647.35
1789.77382	5571.85
1792.96828	5622.55
1796.16064	5624.55
1799.3509	5584.15
1802.53907	5610.35
1805.72514	5569.85
1808.90913	5527.85
1812.09102	5537.75
1815.27083	5535.25
1818.44856	5530.25
1821.6242	5511.35
1824.79776	5495.45
1827.96924	5500.45
1831.13864	5454.45
1834.30597	5470.45
1837.47122	5453.05
1840.6344	5442.55
1843.7955	5451.75
1846.95454	5413.45
1850.11151	5429.65
1853.26642	5403.25
1856.41926	5418.65
1859.57004	5412.15
1862.71876	5411.85
1865.86542	5408.65
1869.01003	5393.35
1872.15258	5388.05
1875.29308	5383.45
1878.43152	5394.75
1881.56792	5371.35
1884.70227	5344.95
1887.83457	5349.25
1890.96482	5338.65
1894.09304	5323.65
1897.21921	5332.15
1900.34335	5322.65
1903.46544	5306.05
1906.58551	5332.25
1909.70353	5318.95
1912.81953	5297.25
1915.93349	5293.95
1919.04543	5272.65
1922.15534	5247.85
1925.26322	5250.55
1928.36908	5252.15
1931.47292	5259.95
1934.57473	5255.85
1937.67453	5202.75
1940.77232	5192.85
1943.86808	5172.15
1946.96184	5185.55
1950.05358	5146.35
1953.14331	5132.25
1956.23103	5128.85
1959.31675	5091.15
1962.40046	5059.35
1965.48217	5071.55
1968.56188	5059.85
1971.63959	5056.75
1974.7153	5041.25
1977.78901	5045.45
1980.86073	5018.75
1983.93046	4967.05
1986.99819	4912.05
1990.06394	4921.55
1993.1277	4943.75
1996.18947	4915.55
1999.24925	4875.85
2002.30706	4876.25
2005.36288	4882.55
2008.41672	4874.95
2011.46859	4822.25
2014.51848	4831.45
2017.56639	4798.25
2020.61233	4769.75
2023.6563	4774.05
2026.6983	4729.05
2029.73833	4717.55
2032.7764	4731.45
2035.8125	4696.55
2038.84664	4709.45
2041.87881	4692.35
2044.90903	4681.95
2047.93729	4694.75
2050.96359	4656.75
2053.98794	4654.65
2057.01034	4671.35
2060.03078	4643.45
2063.04927	4634.25
2066.06582	4639.55
2069.08042	4625.85
2072.09307	4632.05
2075.10378	4631.65
2078.11255	4614.95
2081.11938	4609.05
2084.12426	4601.45
2087.12722	4600.95
2090.12824	4602.05
2093.12732	4597.15
2096.12447	4616.25
2099.11969	4606.25
2102.11299	4600.75
2105.10435	4606.75
2108.09379	4610.65
2111.08131	4606.35
2114.0669	4607.65
2117.05057	4617.15
2120.03233	4578.25
2123.01216	4622.55
2125.99008	4605.05
2128.96609	4615.25
2131.94018	4636.55
2134.91236	4622.85
2137.88263	4608.25
2140.851	4620.45
2143.81746	4643.65
2146.78201	4625.65
2149.74466	4599.95
2152.7054	4616.05
2155.66425	4607.15
2158.6212	4599.45
2161.57625	4592.35
2164.52941	4567.05
2167.48067	4568.95
2170.43004	4583.65
2173.37752	4580.65
2176.32311	4559.95
2179.26681	4580.45
2182.20863	4584.55
2185.14856	4566.05
2188.08661	4577.15
2191.02278	4577.75
2193.95707	4556.35
2196.88948	4547.75
2199.82001	4560.85
2202.74867	4543.25
2205.67545	4531.55
2208.60037	4546.85
2211.52341	4538.35
2214.44458	4519.65
2217.36388	4514.25
2220.28132	4500.75
2223.1969	4469.35
2226.11061	4474.85
2229.02246	4461.95
2231.93245	4449.95
2234.84058	4438.45
2237.74686	4448.95
2240.65128	4425.85
2243.55385	4432.15
2246.45456	4410.75
2249.35343	4431.45
2252.25044	4406.75
2255.14561	4404.55
2258.03893	4406.25
2260.93041	4389.15
2263.82004	4373.55
2266.70783	4382.35
2269.59378	4348.75
2272.4779	4330.15
2275.36017	4342.65
2278.24061	4322.35
2281.11922	4299.45
2283.996	4304.65
2286.87094	4284.15
2289.74405	4292.45
2292.61534	4284.45
2295.4848	4258.75
2298.35243	4273.95
2301.21824	4256.15
2304.08223	4249.35
2306.94439	4266.85
2309.80474	4248.15
2312.66327	4267.65
2315.51999	4224.05
2318.37489	4218.75
2321.22797	4195.15
2324.07925	4197.45
2326.92871	4198.85
2329.77637	4186.55
2332.62222	4171.15
2335.46626	4151.25
2338.3085	4158.75
2341.14893	4173.45
2343.98756	4164.35
2346.8244	4147.85
2349.65943	4131.75
2352.49267	4150.45
2355.32411	4147.05
2358.15376	4132.25
2360.98161	4158.25
2363.80768	4130.45
2366.63195	4139.45
2369.45444	4145.95
2372.27514	4137.05
2375.09405	4151.75
2377.91118	4111.15
2380.72652	4108.05
2383.54009	4099.35
2386.35187	4096.75
2389.16188	4075.85
2391.97011	4066.35
2394.77657	4049.15
2397.58125	4043.55
2400.38416	4048.65
2403.18529	4026.15
2405.98466	4007.25
2408.78226	4017.35
2411.57809	3998.15
2414.37216	3996.85
2417.16446	3992.35
2419.955	3989.45
2422.74378	3979.05
2425.5308	3952.25
2428.31606	3962.25
2431.09956	3981.75
2433.88131	3943.35
2436.6613	3959.25
2439.43954	3951.75
2442.21603	3943.25
2444.99077	3926.55
2447.76377	3941.15
2450.53501	3932.75
2453.30451	3934.55
2456.07226	3942.35
2458.83827	3905.35
2461.60254	3868.25
2464.36507	3911.55
2467.12586	3880.85
2469.88492	3897.35
2472.64224	3894.05
2475.39782	3878.55
2478.15167	3891.55
2480.90379	3886.45
2483.65417	3894.35
2486.40283	3893.75
2489.14976	3893.95
2491.89497	3859.35
2494.63845	3875.85
2497.3802	3872.75
2500.12024	3858.65
2502.85855	3856.65
2505.59514	3854.75
2508.33002	3849.55
2511.06318	3836.45
2513.79462	3818.85
2516.52435	3799.95
2519.25237	3767.65
2521.97867	3786.25
2524.70327	3779.95
2527.42616	3784.75
2530.14734	3782.75
2532.86681	3767.75
2535.58458	3742.95
2538.30065	3753.35
2541.01501	3784.85
2543.72768	3746.45
2546.43864	3743.55
2549.14791	3745.95
2551.85548	3721.35
2554.56136	3702.35
2557.26554	3717.95
2559.96803	3723.35
2562.66883	3718.05
2565.36794	3685.15
2568.06536	3650.75
2570.7611	3675.95
2573.45514	3669.65
2576.14751	3656.05
2578.83819	3645.45
2581.52719	3624.85
2584.21451	3634.65
2586.90015	3627.75
2589.58411	3600.15
2592.2664	3600.65
2594.94701	3592.45
2597.62594	3590.35
2600.30321	3539.85
2602.9788	3561.95
2605.65273	3552.65
2608.32498	3554.85
2610.99557	3567.65
2613.66449	3546.65
2616.33175	3555.75
2618.99734	3560.45
2621.66128	3542.95
2624.32355	3550.75
2626.98416	3514.15
2629.64311	3514.85
2632.30041	3505.65
2634.95605	3486.65
2637.61004	3476.45
2640.26238	3450.05
2642.91306	3475.05
2645.56209	3474.85
2648.20948	3473.15
2650.85521	3457.15
2653.4993	3477.75
2656.14175	3472.45
2658.78255	3455.75
2661.42171	3430.55
2664.05923	3472.35
2666.6951	3474.55
2669.32934	3480.55
2671.96194	3482.95
2674.59291	3460.25
2677.22224	3477.35
2679.84993	3461.95
2682.476	3450.15
2685.10043	3449.05
2687.72324	3430.95
2690.34441	3431.85
2692.96396	3431.65
2695.58188	3452.35
2698.19818	3446.65
2700.81285	3422.65
2703.4259	3424.65
2706.03733	3390.55
2708.64714	3393.65
2711.25533	3425.55
2713.86191	3428.55
2716.46687	3413.35
2719.07021	3415.15
2721.67194	3419.25
2724.27206	3430.85
2726.87057	3411.55
2729.46747	3404.55
2732.06276	3419.05
2734.65644	3402.45
2737.24852	3380.35
2739.83899	3377.25
2742.42786	3384.95
2745.01513	3385.25
2747.60079	3367.25
2750.18486	3353.45
2752.76733	3363.65
2755.3482	3354.85
2757.92747	3343.65
2760.50515	3326.35
2763.08123	3330.45
2765.65573	3322.55
2768.22863	3317.15
2770.79994	3304.95
2773.36967	3296.35
2775.9378	3294.05
2778.50435	3292.35
2781.06932	3293.05
2783.6327	3278.55
2786.1945	3296.35
2788.75471	3273.35
2791.31335	3271.45
2793.87041	3258.05
2796.42589	3253.95
2798.97979	3242.65
2801.53212	3227.25
2804.08288	3258.55
2806.63206	3230.65
2809.17967	3218.75
2811.72571	3227.85
2814.27018	3224.85
2816.81308	3202.95
2819.35442	3164.75
2821.89419	3186.65
2824.43239	3169.05
2826.96904	3199.25
2829.50412	3171.25
2832.03763	3179.65
2834.56959	3178.75
2837.1	3165.35
2839.62884	3154.75
2842.15613	3152.95
2844.68186	3169.35
2847.20604	3132.45
2849.72867	3129.45
2852.24974	3135.55
2854.76927	3103.55
2857.28724	3073.25
2859.80367	3122.15
2862.31855	3121.25
2864.83189	3117.15
2867.34368	3114.05
2869.85393	3117.45
2872.36264	3095.65
2874.8698	3105.75
2877.37543	3104.75
2879.87952	3098.35
2882.38207	3074.25
2884.88308	3100.95
2887.38256	3078.65
2889.88051	3055.75
2892.37692	3068.05
2894.8718	3042.75
2897.36515	3062.45
2899.85698	3056.05
2902.34727	3059.95
2904.83604	3068.25
2907.32328	3076.45
2909.809	3078.75
2912.29319	3075.55
2914.77587	3069.85
2917.25702	3099.65
2919.73665	3090.95
2922.21476	3093.75
2924.69136	3087.85
2927.16644	3077.15
2929.64	3072.25
2932.11205	3049.05
2934.58258	3051.75
2937.05161	3049.85
2939.51912	3042.55
2941.98513	3066.45
2944.44962	3043.35
2946.91261	2994.45
2949.37409	3023.45
2951.83407	3011.35
2954.29254	3017.45
2956.74951	3004.25
2959.20498	3013.75
2961.65895	2991.25
2964.11142	2988.45
2966.56239	2986.95
2969.01186	3004.45
2971.45984	2977.55
2973.90632	2971.45
2976.35131	2987.05
2978.7948	2978.55
2981.23681	2959.05
2983.67732	2958.65
2986.11635	2959.35
2988.55388	2944.65
2990.98993	2937.35
2993.4245	2918.45
2995.85758	2905.75
2998.28917	2906.15
3000.71928	2890.65
3003.14791	2892.65
3005.57506	2881.15
3008.00073	2857.95
3010.42493	2809.85
3012.84764	2858.95
3015.26888	2863.55
3017.68865	2858.85
3020.10694	2804.85
3022.52376	2818.55
3024.9391	2811.95
3027.35298	2804.95
3029.76539	2790.15
3032.17632	2798.35
3034.5858	2792.75
3036.9938	2793.25
3039.40034	2787.95
3041.80542	2759.35
3044.20903	2753.75
3046.61118	2745.75
3049.01187	2758.75
3051.4111	2739.65
3053.80888	2724.95
3056.20519	2722.75
3058.60005	2705.15
3060.99345	2729.85
3063.3854	2712.75
3065.7759	2693.65
3068.16494	2673.05
3070.55254	2680.25
3072.93868	2681.45
3075.32338	2687.55
3077.70662	2666.25
3080.08842	2655.45
3082.46878	2644.55
3084.84769	2648.95
3087.22515	2626.65
3089.60118	2647.45
3091.97576	2639.25
3094.3489	2631.55
3096.72061	2623.45
3099.09087	2615.35
3101.4597	2626.85
3103.82709	2615.35
3106.19305	2598.15
3108.55757	2631.55
3110.92066	2604.95
3113.28232	2600.55
3115.64255	2599.35
3118.00134	2593.85
3120.35871	2570.65
3122.71466	2566.85
3125.06917	2561.95
3127.42226	2570.35
3129.77393	2542.95
3132.12417	2553.05
3134.47299	2554.95
3136.82039	2531.25
3139.16636	2507.55
3141.51092	2534.55
3143.85406	2538.05
3146.19579	2511.15
3148.53609	2521.55
3150.87499	2526.15
3153.21246	2497.25
3155.54853	2517.75
3157.88318	2523.85
3160.21642	2523.45
3162.54826	2521.05
3164.87868	2523.85
3167.2077	2483.05
3169.5353	2503.45
3171.86151	2498.05
3174.18631	2493.65
3176.5097	2488.15
3178.83169	2486.05
3181.15228	2486.25
3183.47147	2467.95
3185.78926	2447.85
3188.10565	2462.35
3190.42065	2436.85
3192.73424	2455.45
3195.04645	2445.65
3197.35725	2415.95
3199.66667	2436.75
3201.97469	2434.35
3204.28132	2419.75
3206.58656	2420.75
3208.8904	2430.75
3211.19287	2420.25
3213.49394	2412.95
3215.79363	2401.95
3218.09193	2418.65
3220.38884	2419.45
3222.68438	2408.85
3224.97853	2388.45
3227.2713	2411.55
3229.56269	2391.55
3231.8527	2392.85
3234.14133	2375.35
3236.42858	2378.35
3238.71446	2366.45
3240.99896	2377.55
3243.28209	2362.85
3245.56384	2360.95
3247.84423	2352.15
3250.12324	2351.55
3252.40088	2357.75
3254.67715	2335.75
3256.95205	2327.15
3259.22558	2338.65
3261.49775	2340.45
3263.76855	2329.25
3266.03799	2337.25
3268.30606	2334.05
3270.57277	2338.95
3272.83812	2309.15
3275.10211	2308.55
3277.36474	2313.45
3279.62601	2305.15
3281.88593	2292.55
3284.14448	2271.85
3286.40168	2284.65
3288.65753	2272.35
3290.91202	2273.45
3293.16516	2254.75
3295.41695	2274.55
3297.66738	2264.95
3299.91647	2249.35
3302.16421	2251.45
3304.4106	2203.35
3306.65564	2231.95
3308.89933	2181.65
3311.14169	2179.95
3313.38269	2169.15
3315.62236	2151.95
3317.86068	2130.25
3320.09766	2125.55
3322.3333	2091.05
3324.5676	2070.75
3326.80056	2049.15
3329.03219	2044.45
3331.26248	0.05
3333.49143	0.45
3335.71905	0.55
