Data from AgNPs_UA_10uM_CRN_500uM_SU_RamanShift__68__13-16-40-267.txt Node

Date: Thu Aug 04 13:16:40 BST 2022
User: TCL
Spectrometer: QEP01345
Trigger mode: 4
Integration Time (sec): 1.000000E0
Scans to average: 10
Electric dark correction enabled: true
Nonlinearity correction enabled: false
Boxcar width: 0
XAxis mode: Raman Shifts
Number of Pixels in Spectrum: 1044
>>>>>Begin Spectral Data<<<<<
46.04893	1.05
50.45542	-0.85
54.85868	0.35
59.25871	-0.45
63.6555	23.75
68.04907	23.05
72.43941	24.25
76.82654	24.15
81.21044	25.25
85.59113	28.15
89.96862	29.55
94.34289	28.25
98.71396	27.95
103.08183	31.85
107.4465	31.55
111.80798	32.75
116.16626	33.95
120.52136	34.95
124.87327	37.55
129.222	38.45
133.56755	41.45
137.90993	46.85
142.24913	52.45
146.58517	56.95
150.91804	67.75
155.24774	82.65
159.57429	103.65
163.89768	135.75
168.21792	181.55
172.53501	249.85
176.84895	349.75
181.15975	504.35
185.46741	705.95
189.77193	985.15
194.07331	1331.25
198.37157	1705.85
202.6667	2125.85
206.9587	2546.85
211.24758	2946.15
215.53334	3360.45
219.81599	3805.75
224.09553	4274.25
228.37195	4839.65
232.64527	5415.75
236.91549	6004.35
241.18261	6542.05
245.44663	6978.85
249.70755	7365.55
253.96539	7711.45
258.22014	7974.55
262.4718	8231.45
266.72039	8338.15
270.96589	8401.25
275.20832	8379.25
279.44768	8259.95
283.68397	8137.85
287.91719	8044.15
292.14735	8026.25
296.37445	8113.85
300.59849	8290.55
304.81948	8518.15
309.03742	8726.35
313.25231	8854.55
317.46415	8787.75
321.67296	8547.35
325.87872	8279.55
330.08145	8177.85
334.28114	8168.05
338.47781	8242.75
342.67145	8355.85
346.86207	8578.05
351.04966	8842.05
355.23424	9150.95
359.4158	9387.25
363.59435	9496.75
367.76989	9556.15
371.94243	9564.05
376.11196	9577.45
380.27849	9589.65
384.44203	9657.85
388.60257	9764.85
392.76012	9836.05
396.91468	9981.55
401.06626	10105.45
405.21485	10165.85
409.36047	10105.35
413.50311	9877.35
417.64277	9674.65
421.77947	9512.55
425.9132	9428.45
430.04396	9417.65
434.17176	9426.95
438.2966	9493.15
442.41849	9635.95
446.53742	9806.45
450.6534	9996.05
454.76644	10150.95
458.87653	10235.15
462.98368	10260.45
467.08789	10227.95
471.18916	10150.25
475.2875	9952.75
479.38291	9787.75
483.4754	9675.65
487.56496	9628.35
491.6516	9582.75
495.73531	9601.05
499.81612	9645.75
503.89401	9721.65
507.96899	9774.85
512.04106	9835.95
516.11023	9818.35
520.1765	9864.55
524.23987	9885.55
528.30034	9838.75
532.35792	9850.95
536.41261	9795.35
540.46441	9718.85
544.51333	9702.85
548.55936	9768.95
552.60252	9851.75
556.64279	10016.25
560.6802	10123.55
564.71473	10216.65
568.7464	10275.45
572.7752	10179.05
576.80114	9978.85
580.82422	9778.15
584.84444	9748.45
588.86181	9735.55
592.87633	9751.95
596.888	9945.85
600.89682	10374.75
604.9028	11408.25
608.90594	13430.95
612.90624	15289.35
616.90371	14189.45
620.89834	11533.65
624.89015	10448.85
628.87913	10370.55
632.86528	10575.75
636.84862	10701.25
640.82913	10518.85
644.80683	10157.75
648.78172	9973.25
652.75379	9974.15
656.72306	10235.55
660.68952	10517.25
664.65319	10495.15
668.61405	10475.15
672.57211	10623.75
676.52738	10625.85
680.47986	10347.85
684.42955	10077.75
688.37646	10026.75
692.32058	10105.45
696.26192	10320.95
700.20048	10525.25
704.13626	10541.55
708.06928	10436.55
711.99952	10309.25
715.927	10283.05
719.85171	10332.85
723.77365	10339.65
727.69284	10282.15
731.60928	10216.45
735.52295	10198.05
739.43388	10226.25
743.34206	10252.55
747.24749	10256.75
751.15017	10233.85
755.05012	10312.55
758.94733	10607.65
762.8418	11286.65
766.73354	12298.35
770.62254	13170.75
774.50882	13378.15
778.39237	13192.95
782.27321	12636.35
786.15132	11776.15
790.02671	11052.45
793.89938	10662.45
797.76935	10451.15
801.6366	10363.45
805.50115	10277.45
809.36299	10252.15
813.22213	10282.65
817.07857	10261.75
820.93231	10236.15
824.78336	10233.25
828.63172	10287.25
832.47738	10274.95
836.32036	10262.85
840.16066	10265.25
843.99827	10230.15
847.8332	10260.15
851.66546	10272.25
855.49504	10287.85
859.32195	10289.15
863.1462	10301.45
866.96777	10301.95
870.78668	10287.35
874.60293	10351.85
878.41652	10397.45
882.22745	10456.75
886.03573	10531.45
889.84136	10490.35
893.64433	10460.55
897.44466	10455.45
901.24235	10422.85
905.0374	10426.45
908.8298	10383.25
912.61957	10363.65
916.40671	10367.55
920.19121	10366.45
923.97308	10399.15
927.75233	10464.25
931.52895	10530.05
935.30295	10478.15
939.07433	10359.85
942.84309	10313.45
946.60924	10247.65
950.37278	10248.15
954.13371	10217.25
957.89203	10239.45
961.64774	10245.75
965.40086	10247.55
969.15137	10216.85
972.89929	10239.05
976.64461	10222.65
980.38733	10240.75
984.12747	10237.55
987.86502	10271.35
991.59999	10325.65
995.33237	10367.65
999.06217	10424.75
1002.78939	10533.35
1006.51404	10671.65
1010.23611	10857.35
1013.95561	10949.55
1017.67255	11008.85
1021.38692	10978.75
1025.09872	10942.15
1028.80796	10816.75
1032.51465	10784.35
1036.21877	10765.65
1039.92035	10812.05
1043.61937	10854.55
1047.31584	10905.45
1051.00976	10936.65
1054.70114	10996.35
1058.38998	11047.35
1062.07627	11102.35
1065.76003	11157.05
1069.44126	11277.45
1073.11995	11481.65
1076.79611	11736.05
1080.46974	11904.55
1084.14085	11951.25
1087.80943	12015.75
1091.47549	12066.65
1095.13903	12159.75
1098.80005	12356.25
1102.45857	12555.05
1106.11456	12539.65
1109.76805	12271.35
1113.41903	12150.85
1117.06751	12222.95
1120.71348	12305.85
1124.35696	12399.85
1127.99793	12417.15
1131.63641	12253.45
1135.2724	12006.85
1138.90589	11754.65
1142.5369	11641.15
1146.16542	11522.05
1149.79145	11470.85
1153.415	11339.95
1157.03607	11302.85
1160.65467	11336.75
1164.27079	11515.75
1167.88443	11823.95
1171.49561	12253.75
1175.10432	12825.15
1178.71056	13670.75
1182.31434	14389.05
1185.91565	14718.95
1189.51451	14759.75
1193.11091	14734.15
1196.70485	14561.45
1200.29634	14325.75
1203.88538	13946.75
1207.47197	13551.65
1211.05612	13085.85
1214.63782	12660.85
1218.21708	12316.05
1221.79391	12091.65
1225.36829	11997.65
1228.94024	11926.85
1232.50976	11948.45
1236.07685	12028.55
1239.6415	12077.75
1243.20374	12179.75
1246.76355	12220.75
1250.32093	12275.55
1253.8759	12422.05
1257.42845	12686.45
1260.97859	13015.25
1264.52631	13324.05
1268.07163	13545.55
1271.61453	13631.35
1275.15503	13651.85
1278.69312	13583.05
1282.22882	13552.25
1285.76211	13556.35
1289.29301	13707.05
1292.82151	13911.15
1296.34761	14093.45
1299.87133	14407.85
1303.39266	14973.45
1306.9116	15861.35
1310.42815	16747.25
1313.94233	17137.75
1317.45412	16716.35
1320.96354	16107.55
1324.47058	15444.95
1327.97525	14818.65
1331.47754	14397.35
1334.97747	14249.45
1338.47502	14420.95
1341.97022	14879.35
1345.46305	15710.55
1348.95352	16957.35
1352.44163	18194.65
1355.92738	19311.75
1359.41078	20298.25
1362.89183	20863.45
1366.37053	19883.05
1369.84688	17574.15
1373.32088	15485.55
1376.79254	14285.95
1380.26186	13703.65
1383.72883	13281.95
1387.19347	12884.25
1390.65578	12531.45
1394.11575	12215.15
1397.57339	11960.85
1401.0287	11865.45
1404.48168	11856.95
1407.93234	11956.65
1411.38068	12146.75
1414.82669	12338.15
1418.27039	12384.65
1421.71177	12403.65
1425.15083	12319.65
1428.58758	12159.95
1432.02203	12115.15
1435.45416	12043.05
1438.88399	11973.55
1442.31151	11963.55
1445.73673	11973.85
1449.15965	12003.55
1452.58027	12022.85
1455.9986	11967.55
1459.41463	11965.75
1462.82837	12085.85
1466.23982	12278.45
1469.64898	12485.35
1473.05586	12691.15
1476.46045	12851.55
1479.86276	12988.15
1483.26279	13145.35
1486.66054	13370.35
1490.05602	13729.65
1493.44922	14263.25
1496.84016	15098.15
1500.22882	16241.15
1503.61521	17523.65
1506.99934	18616.75
1510.38121	19136.85
1513.76081	18718.65
1517.13816	17548.25
1520.51324	16062.85
1523.88607	14837.65
1527.25665	14086.85
1530.62498	13669.85
1533.99105	13513.65
1537.35488	13429.15
1540.71647	13324.25
1544.07581	13222.95
1547.4329	13097.35
1550.78776	12941.65
1554.14038	12804.75
1557.49077	12780.25
1560.83892	12933.45
1564.18484	13168.25
1567.52853	13442.45
1570.86999	13615.55
1574.20922	13717.75
1577.54624	13586.35
1580.88103	13140.35
1584.2136	12640.55
1587.54395	12326.55
1590.87208	12305.25
1594.19801	12555.45
1597.52172	12872.65
1600.84321	13011.05
1604.16251	12927.85
1607.47959	12812.45
1610.79447	12561.85
1614.10715	12164.95
1617.41763	11752.25
1620.7259	11390.15
1624.03199	11166.45
1627.33587	11074.15
1630.63757	11128.05
1633.93707	11399.35
1637.23439	11852.85
1640.52951	12667.05
1643.82246	13773.85
1647.11321	14856.65
1650.40179	15335.75
1653.68819	14740.15
1656.97241	13412.95
1660.25446	12081.05
1663.53433	11177.35
1666.81203	10640.95
1670.08756	10335.75
1673.36092	10128.45
1676.63211	10008.75
1679.90115	9893.45
1683.16801	9801.45
1686.43272	9713.15
1689.69527	9669.65
1692.95567	9615.75
1696.2139	9606.95
1699.46999	9577.35
1702.72392	9542.45
1705.97571	9548.15
1709.22535	9515.15
1712.47284	9535.25
1715.71819	9547.15
1718.96139	9529.65
1722.20246	9532.95
1725.44139	9493.95
1728.67818	9419.25
1731.91284	9380.25
1735.14537	9337.15
1738.37576	9303.65
1741.60403	9290.55
1744.83017	9239.15
1748.05418	9241.55
1751.27607	9209.75
1754.49584	9190.65
1757.71349	9215.05
1760.92903	9196.35
1764.14244	9159.25
1767.35375	9136.25
1770.56294	9110.55
1773.77002	9117.05
1776.97499	9081.35
1780.17785	9062.85
1783.37861	9015.05
1786.57727	9021.95
1789.77382	8998.35
1792.96828	8966.15
1796.16064	8955.35
1799.3509	8937.25
1802.53907	8942.35
1805.72514	8918.85
1808.90913	8888.15
1812.09102	8877.85
1815.27083	8837.85
1818.44856	8802.65
1821.6242	8782.65
1824.79776	8797.15
1827.96924	8769.55
1831.13864	8750.15
1834.30597	8734.55
1837.47122	8711.75
1840.6344	8712.25
1843.7955	8700.45
1846.95454	8675.75
1850.11151	8678.55
1853.26642	8680.25
1856.41926	8672.15
1859.57004	8648.85
1862.71876	8668.65
1865.86542	8646.65
1869.01003	8663.85
1872.15258	8615.55
1875.29308	8586.45
1878.43152	8606.35
1881.56792	8587.55
1884.70227	8541.15
1887.83457	8531.15
1890.96482	8498.85
1894.09304	8487.85
1897.21921	8482.25
1900.34335	8488.45
1903.46544	8466.25
1906.58551	8436.95
1909.70353	8421.35
1912.81953	8426.55
1915.93349	8422.05
1919.04543	8381.25
1922.15534	8367.65
1925.26322	8374.65
1928.36908	8351.15
1931.47292	8298.35
1934.57473	8284.85
1937.67453	8265.65
1940.77232	8244.95
1943.86808	8208.45
1946.96184	8194.85
1950.05358	8184.85
1953.14331	8166.75
1956.23103	8128.65
1959.31675	8090.35
1962.40046	8079.55
1965.48217	8045.75
1968.56188	8016.15
1971.63959	8001.15
1974.7153	7971.55
1977.78901	7968.25
1980.86073	7964.65
1983.93046	7889.35
1986.99819	7871.75
1990.06394	7847.15
1993.1277	7809.05
1996.18947	7781.55
1999.24925	7767.65
2002.30706	7732.25
2005.36288	7696.65
2008.41672	7661.75
2011.46859	7648.55
2014.51848	7619.85
2017.56639	7588.75
2020.61233	7551.85
2023.6563	7545.05
2026.6983	7520.05
2029.73833	7504.45
2032.7764	7471.55
2035.8125	7464.95
2038.84664	7448.45
2041.87881	7414.05
2044.90903	7421.05
2047.93729	7404.15
2050.96359	7368.15
2053.98794	7353.15
2057.01034	7343.05
2060.03078	7325.55
2063.04927	7331.35
2066.06582	7314.05
2069.08042	7303.65
2072.09307	7295.95
2075.10378	7295.15
2078.11255	7277.25
2081.11938	7284.65
2084.12426	7262.45
2087.12722	7244.15
2090.12824	7238.85
2093.12732	7255.05
2096.12447	7246.45
2099.11969	7269.45
2102.11299	7272.45
2105.10435	7253.75
2108.09379	7279.85
2111.08131	7261.05
2114.0669	7230.05
2117.05057	7260.75
2120.03233	7269.35
2123.01216	7269.15
2125.99008	7254.55
2128.96609	7271.05
2131.94018	7288.55
2134.91236	7282.25
2137.88263	7259.65
2140.851	7249.05
2143.81746	7255.45
2146.78201	7259.05
2149.74466	7233.65
2152.7054	7237.55
2155.66425	7241.55
2158.6212	7242.05
2161.57625	7221.25
2164.52941	7223.25
2167.48067	7204.95
2170.43004	7206.85
2173.37752	7175.35
2176.32311	7196.25
2179.26681	7187.65
2182.20863	7204.45
2185.14856	7209.45
2188.08661	7202.15
2191.02278	7209.85
2193.95707	7194.15
2196.88948	7167.15
2199.82001	7164.25
2202.74867	7175.75
2205.67545	7160.65
2208.60037	7145.55
2211.52341	7127.55
2214.44458	7090.75
2217.36388	7076.65
2220.28132	7056.35
2223.1969	7020.95
2226.11061	7001.85
2229.02246	6983.05
2231.93245	6998.35
2234.84058	6959.85
2237.74686	6949.55
2240.65128	6937.75
2243.55385	6924.65
2246.45456	6900.75
2249.35343	6897.45
2252.25044	6891.85
2255.14561	6882.05
2258.03893	6889.15
2260.93041	6868.75
2263.82004	6863.95
2266.70783	6829.85
2269.59378	6802.75
2272.4779	6780.05
2275.36017	6770.75
2278.24061	6767.65
2281.11922	6745.35
2283.996	6736.15
2286.87094	6724.25
2289.74405	6705.45
2292.61534	6683.95
2295.4848	6678.45
2298.35243	6669.15
2301.21824	6650.55
2304.08223	6640.85
2306.94439	6648.35
2309.80474	6619.25
2312.66327	6608.55
2315.51999	6607.35
2318.37489	6607.85
2321.22797	6593.25
2324.07925	6560.85
2326.92871	6545.95
2329.77637	6539.95
2332.62222	6516.05
2335.46626	6511.85
2338.3085	6496.35
2341.14893	6485.45
2343.98756	6496.55
2346.8244	6479.15
2349.65943	6458.35
2352.49267	6443.65
2355.32411	6468.65
2358.15376	6444.05
2360.98161	6450.35
2363.80768	6429.95
2366.63195	6450.95
2369.45444	6432.05
2372.27514	6425.85
2375.09405	6405.65
2377.91118	6402.15
2380.72652	6385.05
2383.54009	6355.55
2386.35187	6355.35
2389.16188	6327.55
2391.97011	6307.35
2394.77657	6281.45
2397.58125	6266.15
2400.38416	6280.35
2403.18529	6267.75
2405.98466	6248.35
2408.78226	6229.55
2411.57809	6216.75
2414.37216	6211.85
2417.16446	6207.35
2419.955	6184.05
2422.74378	6184.05
2425.5308	6198.75
2428.31606	6186.55
2431.09956	6162.45
2433.88131	6153.45
2436.6613	6142.85
2439.43954	6156.25
2442.21603	6128.45
2444.99077	6139.85
2447.76377	6124.05
2450.53501	6128.05
2453.30451	6146.05
2456.07226	6107.05
2458.83827	6082.15
2461.60254	6068.15
2464.36507	6070.35
2467.12586	6041.05
2469.88492	6048.55
2472.64224	6047.15
2475.39782	6054.55
2478.15167	6019.35
2480.90379	6030.65
2483.65417	5998.75
2486.40283	6009.15
2489.14976	6024.35
2491.89497	5996.05
2494.63845	5995.55
2497.3802	5985.05
2500.12024	5978.25
2502.85855	5952.85
2505.59514	5968.35
2508.33002	5961.75
2511.06318	5923.15
2513.79462	5921.35
2516.52435	5916.45
2519.25237	5905.45
2521.97867	5870.25
2524.70327	5873.85
2527.42616	5848.25
2530.14734	5838.05
2532.86681	5824.15
2535.58458	5847.35
2538.30065	5843.55
2541.01501	5816.05
2543.72768	5803.05
2546.43864	5800.55
2549.14791	5784.65
2551.85548	5772.05
2554.56136	5778.15
2557.26554	5784.65
2559.96803	5743.15
2562.66883	5733.55
2565.36794	5705.95
2568.06536	5689.15
2570.7611	5691.35
2573.45514	5673.65
2576.14751	5662.45
2578.83819	5647.35
2581.52719	5623.45
2584.21451	5618.45
2586.90015	5611.55
2589.58411	5590.65
2592.2664	5600.95
2594.94701	5556.95
2597.62594	5559.35
2600.30321	5554.25
2602.9788	5540.25
2605.65273	5531.55
2608.32498	5528.35
2610.99557	5511.05
2613.66449	5512.65
2616.33175	5494.85
2618.99734	5480.45
2621.66128	5459.55
2624.32355	5462.35
2626.98416	5424.85
2629.64311	5417.25
2632.30041	5416.05
2634.95605	5395.75
2637.61004	5392.75
2640.26238	5387.35
2642.91306	5363.45
2645.56209	5379.45
2648.20948	5345.45
2650.85521	5365.25
2653.4993	5358.55
2656.14175	5346.55
2658.78255	5333.55
2661.42171	5326.95
2664.05923	5323.65
2666.6951	5355.15
2669.32934	5346.65
2671.96194	5344.85
2674.59291	5343.85
2677.22224	5344.35
2679.84993	5330.35
2682.476	5327.65
2685.10043	5330.35
2687.72324	5326.95
2690.34441	5329.05
2692.96396	5325.45
2695.58188	5307.25
2698.19818	5298.25
2700.81285	5298.05
2703.4259	5295.25
2706.03733	5297.45
2708.64714	5266.05
2711.25533	5268.35
2713.86191	5275.05
2716.46687	5275.25
2719.07021	5278.45
2721.67194	5270.25
2724.27206	5284.05
2726.87057	5279.05
2729.46747	5264.55
2732.06276	5254.25
2734.65644	5252.85
2737.24852	5241.45
2739.83899	5230.35
2742.42786	5217.95
2745.01513	5222.15
2747.60079	5205.85
2750.18486	5183.85
2752.76733	5188.65
2755.3482	5164.25
2757.92747	5150.35
2760.50515	5160.55
2763.08123	5146.15
2765.65573	5126.15
2768.22863	5102.65
2770.79994	5101.65
2773.36967	5091.15
2775.9378	5081.15
2778.50435	5071.15
2781.06932	5054.55
2783.6327	5050.45
2786.1945	5071.75
2788.75471	5045.75
2791.31335	5028.55
2793.87041	5025.05
2796.42589	4998.95
2798.97979	4983.75
2801.53212	4978.15
2804.08288	4962.55
2806.63206	4947.05
2809.17967	4954.05
2811.72571	4936.05
2814.27018	4929.55
2816.81308	4911.55
2819.35442	4905.85
2821.89419	4901.05
2824.43239	4884.05
2826.96904	4860.65
2829.50412	4855.75
2832.03763	4839.35
2834.56959	4846.55
2837.1	4830.75
2839.62884	4808.95
2842.15613	4804.75
2844.68186	4820.45
2847.20604	4796.05
2849.72867	4794.25
2852.24974	4760.15
2854.76927	4755.45
2857.28724	4760.65
2859.80367	4753.25
2862.31855	4741.15
2864.83189	4743.45
2867.34368	4746.15
2869.85393	4730.75
2872.36264	4715.35
2874.8698	4725.85
2877.37543	4699.85
2879.87952	4689.65
2882.38207	4683.25
2884.88308	4669.55
2887.38256	4672.35
2889.88051	4676.25
2892.37692	4655.15
2894.8718	4654.45
2897.36515	4651.35
2899.85698	4654.35
2902.34727	4648.65
2904.83604	4657.35
2907.32328	4668.45
2909.809	4661.65
2912.29319	4670.85
2914.77587	4655.25
2917.25702	4664.85
2919.73665	4660.85
2922.21476	4645.45
2924.69136	4646.85
2927.16644	4636.25
2929.64	4625.25
2932.11205	4616.25
2934.58258	4592.85
2937.05161	4604.25
2939.51912	4597.35
2941.98513	4602.15
2944.44962	4575.55
2946.91261	4553.75
2949.37409	4565.85
2951.83407	4566.15
2954.29254	4546.15
2956.74951	4532.35
2959.20498	4557.25
2961.65895	4550.95
2964.11142	4546.95
2966.56239	4521.55
2969.01186	4547.15
2971.45984	4535.25
2973.90632	4524.45
2976.35131	4500.55
2978.7948	4516.15
2981.23681	4497.65
2983.67732	4485.75
2986.11635	4490.25
2988.55388	4466.25
2990.98993	4451.15
2993.4245	4450.05
2995.85758	4433.75
2998.28917	4424.85
3000.71928	4413.35
3003.14791	4387.95
3005.57506	4391.35
3008.00073	4374.65
3010.42493	4346.25
3012.84764	4348.95
3015.26888	4342.85
3017.68865	4341.75
3020.10694	4313.35
3022.52376	4302.65
3024.9391	4302.55
3027.35298	4272.35
3029.76539	4267.95
3032.17632	4261.15
3034.5858	4249.65
3036.9938	4255.65
3039.40034	4225.65
3041.80542	4208.55
3044.20903	4195.55
3046.61118	4207.45
3049.01187	4182.95
3051.4111	4168.45
3053.80888	4166.35
3056.20519	4154.15
3058.60005	4137.85
3060.99345	4139.95
3063.3854	4137.15
3065.7759	4120.95
3068.16494	4093.25
3070.55254	4096.55
3072.93868	4086.45
3075.32338	4064.85
3077.70662	4062.35
3080.08842	4042.45
3082.46878	4043.35
3084.84769	4022.05
3087.22515	4010.45
3089.60118	4029.75
3091.97576	4009.25
3094.3489	4010.05
3096.72061	4012.95
3099.09087	3996.55
3101.4597	3979.55
3103.82709	4004.55
3106.19305	3998.35
3108.55757	3990.25
3110.92066	3977.85
3113.28232	3963.65
3115.64255	3940.75
3118.00134	3942.15
3120.35871	3943.05
3122.71466	3936.05
3125.06917	3904.45
3127.42226	3891.35
3129.77393	3897.05
3132.12417	3886.05
3134.47299	3884.45
3136.82039	3861.95
3139.16636	3880.55
3141.51092	3865.15
3143.85406	3883.25
3146.19579	3863.45
3148.53609	3862.25
3150.87499	3847.35
3153.21246	3846.95
3155.54853	3859.85
3157.88318	3843.25
3160.21642	3841.75
3162.54826	3846.15
3164.87868	3826.05
3167.2077	3818.75
3169.5353	3813.55
3171.86151	3821.45
3174.18631	3803.35
3176.5097	3795.85
3178.83169	3785.85
3181.15228	3786.75
3183.47147	3767.75
3185.78926	3764.85
3188.10565	3738.85
3190.42065	3731.15
3192.73424	3727.85
3195.04645	3721.75
3197.35725	3717.45
3199.66667	3700.15
3201.97469	3709.15
3204.28132	3698.55
3206.58656	3724.35
3208.8904	3707.95
3211.19287	3714.75
3213.49394	3722.55
3215.79363	3703.55
3218.09193	3711.35
3220.38884	3687.95
3222.68438	3700.45
3224.97853	3678.35
3227.2713	3683.35
3229.56269	3683.45
3231.8527	3674.25
3234.14133	3658.95
3236.42858	3634.25
3238.71446	3635.35
3240.99896	3628.65
3243.28209	3609.15
3245.56384	3606.85
3247.84423	3603.95
3250.12324	3590.05
3252.40088	3584.35
3254.67715	3589.85
3256.95205	3570.35
3259.22558	3570.95
3261.49775	3568.35
3263.76855	3568.35
3266.03799	3553.95
3268.30606	3568.15
3270.57277	3567.25
3272.83812	3550.65
3275.10211	3546.55
3277.36474	3517.25
3279.62601	3505.95
3281.88593	3508.75
3284.14448	3503.65
3286.40168	3495.45
3288.65753	3489.55
3290.91202	3489.35
3293.16516	3482.35
3295.41695	3479.25
3297.66738	3455.55
3299.91647	3443.85
3302.16421	3429.75
3304.4106	3407.55
3306.65564	3393.75
3308.89933	3348.25
3311.14169	3319.75
3313.38269	3282.15
3315.62236	3277.35
3317.86068	3245.25
3320.09766	3237.25
3322.3333	3198.55
3324.5676	3177.15
3326.80056	3117.25
3329.03219	3098.55
3331.26248	-0.05
3333.49143	0.25
3335.71905	-0.25
