Data from AgNPs_UA_5uM_CRN_500uM_SU_RamanShift__269__12-14-13-194.txt Node

Date: Thu Aug 04 12:14:13 BST 2022
User: TCL
Spectrometer: QEP01345
Trigger mode: 4
Integration Time (sec): 1.000000E0
Scans to average: 10
Electric dark correction enabled: true
Nonlinearity correction enabled: false
Boxcar width: 0
XAxis mode: Raman Shifts
Number of Pixels in Spectrum: 1044
>>>>>Begin Spectral Data<<<<<
46.04893	-0.15
50.45542	0.65
54.85868	0.45
59.25871	-1.45
63.6555	-57.15
68.04907	-40.15
72.43941	-71.75
76.82654	-56.85
81.21044	-57.25
85.59113	-49.35
89.96862	-73.75
94.34289	-56.85
98.71396	-77.35
103.08183	-58.25
107.4465	-48.85
111.80798	-57.25
116.16626	-44.45
120.52136	-74.45
124.87327	-51.65
129.222	-61.55
133.56755	-51.05
137.90993	-62.85
142.24913	-51.75
146.58517	-43.95
150.91804	-40.35
155.24774	-32.95
159.57429	-10.35
163.89768	-7.55
168.21792	35.95
172.53501	55.15
176.84895	140.05
181.15975	265.95
185.46741	418.75
189.77193	594.65
194.07331	893.95
198.37157	1176.05
202.6667	1450.55
206.9587	1775.35
211.24758	2079.55
215.53334	2397.15
219.81599	2760.55
224.09553	3162.95
228.37195	3571.45
232.64527	4047.05
236.91549	4508.95
241.18261	4869.95
245.44663	5134.15
249.70755	5331.15
253.96539	5428.05
258.22014	5524.15
262.4718	5601.85
266.72039	5635.55
270.96589	5613.55
275.20832	5520.45
279.44768	5414.05
283.68397	5303.15
287.91719	5254.35
292.14735	5294.95
296.37445	5458.65
300.59849	5748.05
304.81948	6126.85
309.03742	6483.05
313.25231	6729.65
317.46415	6698.95
321.67296	6295.75
325.87872	5882.05
330.08145	5692.25
334.28114	5650.25
338.47781	5682.35
342.67145	5851.65
346.86207	6069.45
351.04966	6420.15
355.23424	6794.05
359.4158	7072.15
363.59435	7120.05
367.76989	7040.25
371.94243	6926.55
376.11196	6795.45
380.27849	6695.15
384.44203	6640.65
388.60257	6616.85
392.76012	6633.95
396.91468	6741.15
401.06626	6901.25
405.21485	6942.05
409.36047	6761.55
413.50311	6427.85
417.64277	6124.15
421.77947	5924.65
425.9132	5841.95
430.04396	5855.65
434.17176	5879.55
438.2966	5956.85
442.41849	6061.35
446.53742	6165.25
450.6534	6256.75
454.76644	6342.55
458.87653	6344.75
462.98368	6304.65
467.08789	6232.35
471.18916	6134.85
475.2875	6009.45
479.38291	5911.35
483.4754	5815.45
487.56496	5774.55
491.6516	5740.85
495.73531	5743.05
499.81612	5770.55
503.89401	5864.15
507.96899	5898.65
512.04106	6004.95
516.11023	6110.25
520.1765	6183.75
524.23987	6217.15
528.30034	6199.25
532.35792	6117.35
536.41261	6069.25
540.46441	5961.65
544.51333	5910.55
548.55936	5979.85
552.60252	6110.55
556.64279	6209.85
560.6802	6317.75
564.71473	6437.75
568.7464	6650.75
572.7752	6637.05
576.80114	6333.55
580.82422	6077.45
584.84444	5992.65
588.86181	5978.75
592.87633	5992.75
596.888	6110.95
600.89682	6501.15
604.9028	7471.35
608.90594	9625.25
612.90624	11970.25
616.90371	11115.85
620.89834	7968.75
624.89015	6600.35
628.87913	6396.85
632.86528	6550.95
636.84862	6716.15
640.82913	6567.85
644.80683	6229.85
648.78172	6043.25
652.75379	6046.25
656.72306	6321.25
660.68952	6559.45
664.65319	6459.65
668.61405	6205.15
672.57211	6142.35
676.52738	6137.55
680.47986	6050.95
684.42955	5950.65
688.37646	5884.75
692.32058	5880.35
696.26192	5962.45
700.20048	6082.15
704.13626	6120.55
708.06928	6058.65
711.99952	6031.55
715.927	6000.35
719.85171	6065.25
723.77365	6095.45
727.69284	6053.95
731.60928	6049.55
735.52295	6017.15
739.43388	6049.05
743.34206	6082.55
747.24749	6099.85
751.15017	6121.55
755.05012	6172.85
758.94733	6606.55
762.8418	7471.75
766.73354	8836.55
770.62254	9867.65
774.50882	9954.75
778.39237	9420.35
782.27321	8439.15
786.15132	7386.25
790.02671	6688.35
793.89938	6293.35
797.76935	6180.35
801.6366	6084.45
805.50115	6031.05
809.36299	6024.85
813.22213	5994.35
817.07857	5991.55
820.93231	6002.45
824.78336	6042.45
828.63172	6039.35
832.47738	6043.85
836.32036	6027.35
840.16066	6003.35
843.99827	6004.05
847.8332	5976.15
851.66546	5977.55
855.49504	5996.25
859.32195	6028.35
863.1462	6013.95
866.96777	5992.25
870.78668	5994.75
874.60293	6031.55
878.41652	6031.85
882.22745	6138.55
886.03573	6154.55
889.84136	6145.95
893.64433	6154.65
897.44466	6117.75
901.24235	6127.65
905.0374	6133.25
908.8298	6068.45
912.61957	6045.65
916.40671	5991.75
920.19121	6039.85
923.97308	6138.05
927.75233	6197.85
931.52895	6261.85
935.30295	6217.65
939.07433	6067.55
942.84309	5960.35
946.60924	5923.55
950.37278	5872.35
954.13371	5877.65
957.89203	5857.85
961.64774	5897.45
965.40086	5862.05
969.15137	5845.75
972.89929	5880.95
976.64461	5861.45
980.38733	5898.35
984.12747	5880.55
987.86502	5901.25
991.59999	5931.75
995.33237	5991.55
999.06217	6048.55
1002.78939	6142.35
1006.51404	6276.95
1010.23611	6387.05
1013.95561	6436.75
1017.67255	6430.95
1021.38692	6403.95
1025.09872	6322.25
1028.80796	6250.65
1032.51465	6249.15
1036.21877	6237.05
1039.92035	6268.05
1043.61937	6327.25
1047.31584	6387.05
1051.00976	6419.75
1054.70114	6415.65
1058.38998	6430.25
1062.07627	6435.95
1065.76003	6457.85
1069.44126	6524.95
1073.11995	6625.95
1076.79611	6721.55
1080.46974	6907.65
1084.14085	7058.65
1087.80943	7214.25
1091.47549	7247.35
1095.13903	7145.45
1098.80005	7014.35
1102.45857	6924.05
1106.11456	6903.35
1109.76805	6831.85
1113.41903	6941.95
1117.06751	7123.85
1120.71348	7410.05
1124.35696	7794.35
1127.99793	8059.65
1131.63641	7903.55
1135.2724	7489.05
1138.90589	7211.95
1142.5369	6992.55
1146.16542	6875.25
1149.79145	6766.15
1153.415	6716.15
1157.03607	6726.55
1160.65467	6847.15
1164.27079	7047.15
1167.88443	7321.15
1171.49561	7752.35
1175.10432	8405.85
1178.71056	9336.85
1182.31434	10165.95
1185.91565	10432.45
1189.51451	10279.85
1193.11091	10005.65
1196.70485	9730.65
1200.29634	9479.55
1203.88538	9196.05
1207.47197	8729.35
1211.05612	8221.15
1214.63782	7790.85
1218.21708	7527.25
1221.79391	7394.15
1225.36829	7318.45
1228.94024	7300.35
1232.50976	7325.25
1236.07685	7357.65
1239.6415	7387.35
1243.20374	7382.95
1246.76355	7436.15
1250.32093	7509.45
1253.8759	7563.95
1257.42845	7756.55
1260.97859	7943.65
1264.52631	8185.65
1268.07163	8359.05
1271.61453	8503.45
1275.15503	8561.25
1278.69312	8551.35
1282.22882	8615.15
1285.76211	8841.05
1289.29301	9087.55
1292.82151	9333.05
1296.34761	9572.65
1299.87133	9975.35
1303.39266	10702.65
1306.9116	11866.95
1310.42815	13132.05
1313.94233	13556.55
1317.45412	12810.35
1320.96354	11607.15
1324.47058	10589.25
1327.97525	9802.15
1331.47754	9376.75
1334.97747	9273.65
1338.47502	9376.45
1341.97022	9770.85
1345.46305	10517.45
1348.95352	11649.05
1352.44163	12996.65
1355.92738	14438.85
1359.41078	16160.45
1362.89183	17714.15
1366.37053	17108.15
1369.84688	14205.25
1373.32088	11385.35
1376.79254	9893.75
1380.26186	9185.85
1383.72883	8727.55
1387.19347	8323.05
1390.65578	7960.25
1394.11575	7722.45
1397.57339	7543.35
1401.0287	7413.05
1404.48168	7404.15
1407.93234	7402.35
1411.38068	7424.35
1414.82669	7482.65
1418.27039	7579.15
1421.71177	7557.35
1425.15083	7443.65
1428.58758	7386.95
1432.02203	7415.65
1435.45416	7470.25
1438.88399	7486.35
1442.31151	7461.65
1445.73673	7526.45
1449.15965	7557.75
1452.58027	7596.65
1455.9986	7594.55
1459.41463	7607.55
1462.82837	7729.75
1466.23982	7887.35
1469.64898	8103.45
1473.05586	8239.65
1476.46045	8364.25
1479.86276	8425.25
1483.26279	8582.05
1486.66054	8781.95
1490.05602	9085.65
1493.44922	9672.45
1496.84016	10567.75
1500.22882	11971.55
1503.61521	13787.95
1506.99934	15642.05
1510.38121	16882.85
1513.76081	16689.25
1517.13816	15069.65
1520.51324	12868.15
1523.88607	11118.05
1527.25665	10104.75
1530.62498	9595.15
1533.99105	9387.55
1537.35488	9247.55
1540.71647	9157.55
1544.07581	9021.85
1547.4329	8877.05
1550.78776	8717.15
1554.14038	8634.25
1557.49077	8620.05
1560.83892	8706.55
1564.18484	8941.25
1567.52853	9296.85
1570.86999	9635.25
1574.20922	9778.25
1577.54624	9674.95
1580.88103	9115.25
1584.2136	8418.05
1587.54395	8021.65
1590.87208	7909.75
1594.19801	8095.25
1597.52172	8477.55
1600.84321	8619.85
1604.16251	8472.15
1607.47959	8251.75
1610.79447	8083.35
1614.10715	7775.85
1617.41763	7488.85
1620.7259	7205.85
1624.03199	7058.35
1627.33587	6972.55
1630.63757	7037.85
1633.93707	7254.55
1637.23439	7659.65
1640.52951	8369.75
1643.82246	9383.95
1647.11321	10601.15
1650.40179	11354.55
1653.68819	11016.05
1656.97241	9744.85
1660.25446	8317.45
1663.53433	7290.05
1666.81203	6641.25
1670.08756	6295.25
1673.36092	6125.45
1676.63211	5957.15
1679.90115	5881.85
1683.16801	5788.35
1686.43272	5687.85
1689.69527	5675.75
1692.95567	5592.45
1696.2139	5565.95
1699.46999	5534.35
1702.72392	5539.45
1705.97571	5545.45
1709.22535	5540.05
1712.47284	5552.15
1715.71819	5554.65
1718.96139	5557.85
1722.20246	5538.65
1725.44139	5502.15
1728.67818	5486.05
1731.91284	5419.65
1735.14537	5418.85
1738.37576	5358.15
1741.60403	5330.55
1744.83017	5321.55
1748.05418	5317.35
1751.27607	5321.35
1754.49584	5290.35
1757.71349	5237.25
1760.92903	5268.35
1764.14244	5201.15
1767.35375	5211.35
1770.56294	5204.25
1773.77002	5190.45
1776.97499	5192.45
1780.17785	5162.15
1783.37861	5170.55
1786.57727	5168.35
1789.77382	5103.15
1792.96828	5139.05
1796.16064	5152.95
1799.3509	5124.85
1802.53907	5119.65
1805.72514	5096.95
1808.90913	5071.55
1812.09102	5074.95
1815.27083	5055.25
1818.44856	5042.95
1821.6242	5036.65
1824.79776	5021.05
1827.96924	5018.65
1831.13864	4984.05
1834.30597	5002.45
1837.47122	4990.45
1840.6344	4967.25
1843.7955	4953.85
1846.95454	4950.65
1850.11151	4969.75
1853.26642	4910.95
1856.41926	4929.15
1859.57004	4939.35
1862.71876	4923.75
1865.86542	4933.95
1869.01003	4922.65
1872.15258	4887.85
1875.29308	4907.95
1878.43152	4904.55
1881.56792	4897.15
1884.70227	4865.45
1887.83457	4860.65
1890.96482	4853.55
1894.09304	4843.85
1897.21921	4827.75
1900.34335	4846.45
1903.46544	4827.35
1906.58551	4846.95
1909.70353	4825.55
1912.81953	4822.75
1915.93349	4810.15
1919.04543	4806.05
1922.15534	4794.15
1925.26322	4777.15
1928.36908	4764.65
1931.47292	4746.35
1934.57473	4774.65
1937.67453	4727.85
1940.77232	4713.85
1943.86808	4704.25
1946.96184	4695.35
1950.05358	4657.85
1953.14331	4653.75
1956.23103	4665.95
1959.31675	4615.35
1962.40046	4579.85
1965.48217	4600.55
1968.56188	4584.25
1971.63959	4577.75
1974.7153	4591.25
1977.78901	4552.05
1980.86073	4555.45
1983.93046	4515.55
1986.99819	4434.25
1990.06394	4447.15
1993.1277	4459.95
1996.18947	4450.15
1999.24925	4413.85
2002.30706	4434.35
2005.36288	4416.05
2008.41672	4390.45
2011.46859	4364.15
2014.51848	4354.45
2017.56639	4337.15
2020.61233	4308.95
2023.6563	4316.45
2026.6983	4263.15
2029.73833	4290.65
2032.7764	4288.65
2035.8125	4241.65
2038.84664	4252.45
2041.87881	4224.25
2044.90903	4252.25
2047.93729	4231.75
2050.96359	4207.25
2053.98794	4221.85
2057.01034	4212.55
2060.03078	4209.25
2063.04927	4180.95
2066.06582	4189.45
2069.08042	4160.15
2072.09307	4175.75
2075.10378	4171.65
2078.11255	4180.55
2081.11938	4156.05
2084.12426	4150.05
2087.12722	4149.25
2090.12824	4160.15
2093.12732	4149.75
2096.12447	4170.95
2099.11969	4165.75
2102.11299	4147.35
2105.10435	4172.45
2108.09379	4148.75
2111.08131	4141.45
2114.0669	4160.45
2117.05057	4152.55
2120.03233	4143.15
2123.01216	4156.05
2125.99008	4171.95
2128.96609	4153.65
2131.94018	4182.15
2134.91236	4172.15
2137.88263	4175.05
2140.851	4157.95
2143.81746	4202.55
2146.78201	4160.95
2149.74466	4152.35
2152.7054	4150.25
2155.66425	4159.45
2158.6212	4146.65
2161.57625	4129.55
2164.52941	4115.55
2167.48067	4126.95
2170.43004	4108.35
2173.37752	4129.15
2176.32311	4108.25
2179.26681	4117.55
2182.20863	4125.75
2185.14856	4121.95
2188.08661	4124.55
2191.02278	4124.25
2193.95707	4115.15
2196.88948	4091.75
2199.82001	4113.05
2202.74867	4088.75
2205.67545	4092.35
2208.60037	4092.85
2211.52341	4087.25
2214.44458	4067.05
2217.36388	4059.05
2220.28132	4050.55
2223.1969	4026.85
2226.11061	4008.05
2229.02246	4008.15
2231.93245	4003.35
2234.84058	3996.05
2237.74686	3976.05
2240.65128	3971.05
2243.55385	3977.35
2246.45456	3944.75
2249.35343	3972.75
2252.25044	3962.15
2255.14561	3954.75
2258.03893	3958.45
2260.93041	3946.65
2263.82004	3938.35
2266.70783	3934.65
2269.59378	3926.95
2272.4779	3902.45
2275.36017	3899.65
2278.24061	3895.05
2281.11922	3852.55
2283.996	3875.65
2286.87094	3854.25
2289.74405	3859.55
2292.61534	3848.95
2295.4848	3840.15
2298.35243	3832.85
2301.21824	3823.45
2304.08223	3820.05
2306.94439	3824.75
2309.80474	3822.95
2312.66327	3812.65
2315.51999	3783.95
2318.37489	3806.05
2321.22797	3791.15
2324.07925	3774.45
2326.92871	3762.05
2329.77637	3749.55
2332.62222	3754.25
2335.46626	3715.55
2338.3085	3724.65
2341.14893	3745.35
2343.98756	3738.45
2346.8244	3721.45
2349.65943	3702.75
2352.49267	3720.15
2355.32411	3720.05
2358.15376	3712.25
2360.98161	3720.85
2363.80768	3708.85
2366.63195	3710.65
2369.45444	3724.15
2372.27514	3723.45
2375.09405	3726.35
2377.91118	3679.65
2380.72652	3687.05
2383.54009	3676.25
2386.35187	3678.05
2389.16188	3642.95
2391.97011	3665.35
2394.77657	3634.15
2397.58125	3633.85
2400.38416	3649.65
2403.18529	3601.75
2405.98466	3582.55
2408.78226	3602.65
2411.57809	3586.15
2414.37216	3576.45
2417.16446	3569.95
2419.955	3557.45
2422.74378	3557.95
2425.5308	3537.55
2428.31606	3559.75
2431.09956	3553.45
2433.88131	3537.65
2436.6613	3561.35
2439.43954	3535.95
2442.21603	3540.75
2444.99077	3522.45
2447.76377	3528.25
2450.53501	3532.35
2453.30451	3510.65
2456.07226	3526.25
2458.83827	3504.75
2461.60254	3498.65
2464.36507	3500.85
2467.12586	3473.65
2469.88492	3494.75
2472.64224	3494.85
2475.39782	3482.65
2478.15167	3482.75
2480.90379	3489.05
2483.65417	3489.75
2486.40283	3495.25
2489.14976	3510.35
2491.89497	3486.05
2494.63845	3484.35
2497.3802	3472.75
2500.12024	3475.25
2502.85855	3458.85
2505.59514	3461.25
2508.33002	3449.05
2511.06318	3430.85
2513.79462	3421.95
2516.52435	3391.75
2519.25237	3380.05
2521.97867	3387.95
2524.70327	3384.95
2527.42616	3385.15
2530.14734	3399.75
2532.86681	3370.15
2535.58458	3376.95
2538.30065	3361.05
2541.01501	3382.75
2543.72768	3350.45
2546.43864	3357.45
2549.14791	3352.15
2551.85548	3326.65
2554.56136	3319.25
2557.26554	3330.55
2559.96803	3312.85
2562.66883	3317.05
2565.36794	3304.45
2568.06536	3276.85
2570.7611	3290.25
2573.45514	3276.05
2576.14751	3266.05
2578.83819	3252.25
2581.52719	3252.25
2584.21451	3259.75
2586.90015	3232.35
2589.58411	3216.45
2592.2664	3219.25
2594.94701	3228.75
2597.62594	3212.95
2600.30321	3161.35
2602.9788	3195.65
2605.65273	3176.95
2608.32498	3181.75
2610.99557	3196.25
2613.66449	3172.15
2616.33175	3171.05
2618.99734	3163.35
2621.66128	3168.85
2624.32355	3153.65
2626.98416	3135.95
2629.64311	3134.15
2632.30041	3133.35
2634.95605	3114.95
2637.61004	3102.55
2640.26238	3103.85
2642.91306	3088.75
2645.56209	3113.45
2648.20948	3087.45
2650.85521	3085.95
2653.4993	3106.25
2656.14175	3099.85
2658.78255	3068.05
2661.42171	3055.05
2664.05923	3099.05
2666.6951	3094.95
2669.32934	3096.85
2671.96194	3108.35
2674.59291	3091.45
2677.22224	3106.85
2679.84993	3089.25
2682.476	3076.15
2685.10043	3083.25
2687.72324	3068.55
2690.34441	3072.75
2692.96396	3067.15
2695.58188	3074.45
2698.19818	3070.75
2700.81285	3061.35
2703.4259	3056.85
2706.03733	3021.35
2708.64714	3037.75
2711.25533	3050.35
2713.86191	3056.35
2716.46687	3052.55
2719.07021	3064.25
2721.67194	3056.15
2724.27206	3069.65
2726.87057	3053.75
2729.46747	3054.25
2732.06276	3045.75
2734.65644	3016.65
2737.24852	3031.95
2739.83899	3016.05
2742.42786	3015.85
2745.01513	3018.25
2747.60079	3006.85
2750.18486	2995.65
2752.76733	3007.65
2755.3482	2989.15
2757.92747	2993.35
2760.50515	2964.25
2763.08123	2969.65
2765.65573	2972.95
2768.22863	2953.05
2770.79994	2949.85
2773.36967	2946.25
2775.9378	2936.35
2778.50435	2940.45
2781.06932	2927.85
2783.6327	2921.55
2786.1945	2945.25
2788.75471	2917.55
2791.31335	2919.25
2793.87041	2914.45
2796.42589	2893.25
2798.97979	2895.65
2801.53212	2887.35
2804.08288	2893.95
2806.63206	2874.15
2809.17967	2861.85
2811.72571	2881.75
2814.27018	2866.05
2816.81308	2871.25
2819.35442	2825.25
2821.89419	2837.25
2824.43239	2844.25
2826.96904	2851.35
2829.50412	2850.75
2832.03763	2832.55
2834.56959	2847.35
2837.1	2829.55
2839.62884	2835.65
2842.15613	2817.75
2844.68186	2831.75
2847.20604	2793.85
2849.72867	2793.55
2852.24974	2802.05
2854.76927	2768.95
2857.28724	2743.95
2859.80367	2788.15
2862.31855	2801.75
2864.83189	2791.35
2867.34368	2799.45
2869.85393	2801.25
2872.36264	2769.45
2874.8698	2780.25
2877.37543	2785.65
2879.87952	2774.85
2882.38207	2752.35
2884.88308	2764.55
2887.38256	2759.35
2889.88051	2742.25
2892.37692	2756.95
2894.8718	2739.25
2897.36515	2755.35
2899.85698	2745.35
2902.34727	2737.95
2904.83604	2744.35
2907.32328	2773.75
2909.809	2752.55
2912.29319	2760.05
2914.77587	2772.05
2917.25702	2774.05
2919.73665	2775.25
2922.21476	2781.75
2924.69136	2776.75
2927.16644	2766.25
2929.64	2760.25
2932.11205	2751.75
2934.58258	2743.55
2937.05161	2736.15
2939.51912	2737.45
2941.98513	2753.05
2944.44962	2726.25
2946.91261	2703.65
2949.37409	2707.35
2951.83407	2691.15
2954.29254	2695.85
2956.74951	2708.35
2959.20498	2685.75
2961.65895	2683.55
2964.11142	2673.55
2966.56239	2678.75
2969.01186	2679.85
2971.45984	2671.75
2973.90632	2666.55
2976.35131	2664.65
2978.7948	2670.95
2981.23681	2654.25
2983.67732	2645.55
2986.11635	2654.75
2988.55388	2614.75
2990.98993	2615.35
2993.4245	2614.65
2995.85758	2603.65
2998.28917	2597.95
3000.71928	2589.35
3003.14791	2580.65
3005.57506	2563.75
3008.00073	2568.45
3010.42493	2505.65
3012.84764	2560.75
3015.26888	2550.95
3017.68865	2559.45
3020.10694	2506.65
3022.52376	2517.85
3024.9391	2516.35
3027.35298	2503.95
3029.76539	2490.45
3032.17632	2502.65
3034.5858	2486.55
3036.9938	2496.85
3039.40034	2493.65
3041.80542	2486.15
3044.20903	2460.15
3046.61118	2454.75
3049.01187	2469.35
3051.4111	2451.05
3053.80888	2435.55
3056.20519	2438.95
3058.60005	2424.45
3060.99345	2443.85
3063.3854	2416.35
3065.7759	2406.95
3068.16494	2396.15
3070.55254	2376.25
3072.93868	2408.55
3075.32338	2391.55
3077.70662	2375.35
3080.08842	2379.35
3082.46878	2364.95
3084.84769	2385.65
3087.22515	2353.65
3089.60118	2370.35
3091.97576	2348.85
3094.3489	2349.75
3096.72061	2349.25
3099.09087	2331.95
3101.4597	2347.25
3103.82709	2341.55
3106.19305	2323.85
3108.55757	2342.45
3110.92066	2308.45
3113.28232	2337.35
3115.64255	2326.85
3118.00134	2323.95
3120.35871	2304.45
3122.71466	2278.45
3125.06917	2292.95
3127.42226	2281.75
3129.77393	2258.05
3132.12417	2281.65
3134.47299	2285.65
3136.82039	2253.45
3139.16636	2235.95
3141.51092	2262.05
3143.85406	2263.85
3146.19579	2253.05
3148.53609	2248.95
3150.87499	2242.65
3153.21246	2236.35
3155.54853	2252.55
3157.88318	2245.65
3160.21642	2263.15
3162.54826	2254.65
3164.87868	2248.85
3167.2077	2217.15
3169.5353	2236.15
3171.86151	2235.35
3174.18631	2229.65
3176.5097	2226.75
3178.83169	2227.85
3181.15228	2226.15
3183.47147	2190.75
3185.78926	2181.25
3188.10565	2193.55
3190.42065	2170.25
3192.73424	2179.65
3195.04645	2174.45
3197.35725	2154.55
3199.66667	2168.65
3201.97469	2163.65
3204.28132	2148.85
3206.58656	2162.05
3208.8904	2162.75
3211.19287	2168.65
3213.49394	2158.95
3215.79363	2146.55
3218.09193	2158.95
3220.38884	2153.55
3222.68438	2157.65
3224.97853	2128.15
3227.2713	2149.55
3229.56269	2137.85
3231.8527	2150.15
3234.14133	2125.65
3236.42858	2122.95
3238.71446	2103.95
3240.99896	2123.95
3243.28209	2097.25
3245.56384	2108.25
3247.84423	2096.55
3250.12324	2105.45
3252.40088	2093.05
3254.67715	2087.55
3256.95205	2080.35
3259.22558	2092.25
3261.49775	2081.75
3263.76855	2084.75
3266.03799	2091.25
3268.30606	2078.15
3270.57277	2090.65
3272.83812	2053.95
3275.10211	2062.65
3277.36474	2071.25
3279.62601	2075.55
3281.88593	2045.55
3284.14448	2021.55
3286.40168	2052.15
3288.65753	2040.45
3290.91202	2034.55
3293.16516	2027.65
3295.41695	2042.55
3297.66738	2030.85
3299.91647	2016.85
3302.16421	1999.55
3304.4106	1973.85
3306.65564	1982.65
3308.89933	1959.35
3311.14169	1950.85
3313.38269	1947.65
3315.62236	1931.15
3317.86068	1916.05
3320.09766	1900.85
3322.3333	1869.95
3324.5676	1863.05
3326.80056	1848.75
3329.03219	1824.75
3331.26248	-0.45
3333.49143	-0.15
3335.71905	0.55
