Data from AgNPs_UA_10uM_CRN_500uM_SU_RamanShift__98__13-21-40-272.txt Node

Date: Thu Aug 04 13:21:40 BST 2022
User: TCL
Spectrometer: QEP01345
Trigger mode: 4
Integration Time (sec): 1.000000E0
Scans to average: 10
Electric dark correction enabled: true
Nonlinearity correction enabled: false
Boxcar width: 0
XAxis mode: Raman Shifts
Number of Pixels in Spectrum: 1044
>>>>>Begin Spectral Data<<<<<
46.04893	-0.95
50.45542	-0.95
54.85868	0.15
59.25871	0.25
63.6555	19.45
68.04907	21.45
72.43941	21.45
76.82654	22.35
81.21044	22.75
85.59113	24.65
89.96862	26.25
94.34289	26.55
98.71396	24.95
103.08183	28.15
107.4465	28.35
111.80798	28.35
116.16626	29.25
120.52136	33.55
124.87327	32.55
129.222	35.55
133.56755	38.15
137.90993	41.45
142.24913	45.75
146.58517	53.25
150.91804	58.85
155.24774	76.55
159.57429	92.05
163.89768	122.75
168.21792	158.55
172.53501	223.05
176.84895	313.85
181.15975	442.45
185.46741	627.65
189.77193	873.35
194.07331	1173.55
198.37157	1518.25
202.6667	1880.15
206.9587	2236.85
211.24758	2575.45
215.53334	2951.35
219.81599	3336.25
224.09553	3768.15
228.37195	4216.05
232.64527	4743.65
236.91549	5238.65
241.18261	5721.95
245.44663	6101.75
249.70755	6434.65
253.96539	6737.75
258.22014	6979.55
262.4718	7186.75
266.72039	7351.65
270.96589	7385.45
275.20832	7374.75
279.44768	7289.15
283.68397	7156.75
287.91719	7098.75
292.14735	7098.85
296.37445	7185.55
300.59849	7344.55
304.81948	7551.25
309.03742	7752.35
313.25231	7839.05
317.46415	7764.65
321.67296	7528.95
325.87872	7308.15
330.08145	7185.95
334.28114	7199.15
338.47781	7268.35
342.67145	7415.45
346.86207	7584.25
351.04966	7828.15
355.23424	8117.25
359.4158	8329.85
363.59435	8431.35
367.76989	8486.25
371.94243	8517.75
376.11196	8529.25
380.27849	8536.55
384.44203	8571.75
388.60257	8618.55
392.76012	8674.95
396.91468	8814.35
401.06626	8931.65
405.21485	8991.25
409.36047	8888.45
413.50311	8697.45
417.64277	8482.55
421.77947	8367.95
425.9132	8289.45
430.04396	8293.35
434.17176	8359.55
438.2966	8449.95
442.41849	8606.65
446.53742	8841.55
450.6534	9041.05
454.76644	9191.35
458.87653	9228.05
462.98368	9206.15
467.08789	9134.25
471.18916	8980.55
475.2875	8787.45
479.38291	8655.05
483.4754	8522.75
487.56496	8456.45
491.6516	8432.35
495.73531	8416.75
499.81612	8447.55
503.89401	8515.05
507.96899	8554.55
512.04106	8594.55
516.11023	8622.15
520.1765	8693.95
524.23987	8698.85
528.30034	8697.35
532.35792	8693.65
536.41261	8625.45
540.46441	8521.25
544.51333	8533.15
548.55936	8575.95
552.60252	8677.45
556.64279	8823.55
560.6802	8941.35
564.71473	8999.75
568.7464	9064.65
572.7752	9043.25
576.80114	8873.05
580.82422	8764.85
584.84444	8751.95
588.86181	8827.25
592.87633	8933.05
596.888	9116.05
600.89682	9456.25
604.9028	10391.55
608.90594	12272.65
612.90624	13949.65
616.90371	12898.25
620.89834	10424.55
624.89015	9479.25
628.87913	9426.85
632.86528	9482.55
636.84862	9465.35
640.82913	9237.55
644.80683	8882.55
648.78172	8750.75
652.75379	8788.55
656.72306	9040.65
660.68952	9281.85
664.65319	9252.25
668.61405	9158.85
672.57211	9203.25
676.52738	9192.85
680.47986	9021.95
684.42955	8870.35
688.37646	8848.65
692.32058	8954.45
696.26192	9076.55
700.20048	9241.25
704.13626	9272.25
708.06928	9148.75
711.99952	9035.65
715.927	9042.65
719.85171	9108.45
723.77365	9120.95
727.69284	9034.15
731.60928	8966.05
735.52295	8979.15
739.43388	9020.25
743.34206	9085.95
747.24749	9106.05
751.15017	9114.75
755.05012	9211.05
758.94733	9478.15
762.8418	10136.15
766.73354	11134.25
770.62254	11934.95
774.50882	12130.05
778.39237	11744.15
782.27321	11042.15
786.15132	10263.35
790.02671	9672.65
793.89938	9387.45
797.76935	9278.55
801.6366	9184.25
805.50115	9136.65
809.36299	9103.85
813.22213	9082.85
817.07857	9037.85
820.93231	9073.95
824.78336	9060.85
828.63172	9076.05
832.47738	9119.15
836.32036	9117.55
840.16066	9112.35
843.99827	9133.15
847.8332	9129.65
851.66546	9130.75
855.49504	9116.75
859.32195	9139.55
863.1462	9108.95
866.96777	9111.65
870.78668	9128.15
874.60293	9144.05
878.41652	9189.65
882.22745	9239.95
886.03573	9297.95
889.84136	9305.65
893.64433	9272.45
897.44466	9225.75
901.24235	9204.65
905.0374	9183.85
908.8298	9163.25
912.61957	9179.65
916.40671	9158.25
920.19121	9229.95
923.97308	9311.95
927.75233	9405.55
931.52895	9473.15
935.30295	9394.45
939.07433	9280.05
942.84309	9172.55
946.60924	9150.15
950.37278	9116.35
954.13371	9112.05
957.89203	9065.25
961.64774	9062.45
965.40086	9044.65
969.15137	9028.75
972.89929	9042.25
976.64461	9049.45
980.38733	9054.15
984.12747	9102.55
987.86502	9144.25
991.59999	9234.25
995.33237	9373.25
999.06217	9555.65
1002.78939	9744.35
1006.51404	9910.65
1010.23611	9994.85
1013.95561	10114.25
1017.67255	10163.95
1021.38692	10177.55
1025.09872	10175.75
1028.80796	10240.15
1032.51465	10415.45
1036.21877	10526.45
1039.92035	10501.05
1043.61937	10388.55
1047.31584	10234.75
1051.00976	10106.05
1054.70114	10027.75
1058.38998	10061.75
1062.07627	10064.95
1065.76003	10135.15
1069.44126	10178.25
1073.11995	10315.05
1076.79611	10466.25
1080.46974	10587.65
1084.14085	10699.25
1087.80943	10760.65
1091.47549	10794.65
1095.13903	10737.15
1098.80005	10722.35
1102.45857	10716.45
1106.11456	10708.05
1109.76805	10638.35
1113.41903	10647.15
1117.06751	10740.65
1120.71348	10906.15
1124.35696	11045.35
1127.99793	11158.25
1131.63641	11028.25
1135.2724	10786.75
1138.90589	10571.35
1142.5369	10411.25
1146.16542	10297.15
1149.79145	10230.55
1153.415	10177.45
1157.03607	10175.05
1160.65467	10255.55
1164.27079	10485.35
1167.88443	10794.35
1171.49561	11298.95
1175.10432	12040.45
1178.71056	13002.95
1182.31434	13823.45
1185.91565	14204.25
1189.51451	14225.35
1193.11091	13911.65
1196.70485	13478.35
1200.29634	13045.85
1203.88538	12636.15
1207.47197	12210.05
1211.05612	11779.95
1214.63782	11445.45
1218.21708	11267.15
1221.79391	11226.15
1225.36829	11251.15
1228.94024	11225.75
1232.50976	11148.45
1236.07685	11084.65
1239.6415	11098.25
1243.20374	11116.55
1246.76355	11207.45
1250.32093	11314.35
1253.8759	11527.85
1257.42845	11819.75
1260.97859	12124.95
1264.52631	12407.25
1268.07163	12649.85
1271.61453	12837.35
1275.15503	12988.95
1278.69312	13107.75
1282.22882	13264.55
1285.76211	13381.85
1289.29301	13503.65
1292.82151	13714.25
1296.34761	13930.85
1299.87133	14382.95
1303.39266	15207.55
1306.9116	16349.95
1310.42815	17547.85
1313.94233	18117.05
1317.45412	17737.45
1320.96354	16874.85
1324.47058	15952.25
1327.97525	15142.35
1331.47754	14664.15
1334.97747	14512.35
1338.47502	14665.35
1341.97022	15073.35
1345.46305	15722.05
1348.95352	16583.95
1352.44163	17531.45
1355.92738	18551.85
1359.41078	19782.95
1362.89183	20542.35
1366.37053	19573.95
1369.84688	17276.45
1373.32088	15084.75
1376.79254	13839.75
1380.26186	13289.35
1383.72883	12943.05
1387.19347	12640.65
1390.65578	12276.25
1394.11575	11960.05
1397.57339	11750.65
1401.0287	11701.35
1404.48168	11751.15
1407.93234	11874.85
1411.38068	12054.05
1414.82669	12200.25
1418.27039	12223.35
1421.71177	12159.15
1425.15083	12050.15
1428.58758	12024.75
1432.02203	12143.55
1435.45416	12236.25
1438.88399	12236.85
1442.31151	12203.35
1445.73673	12166.15
1449.15965	12132.15
1452.58027	12042.55
1455.9986	11995.25
1459.41463	11995.35
1462.82837	12064.15
1466.23982	12247.85
1469.64898	12445.25
1473.05586	12618.05
1476.46045	12768.75
1479.86276	12874.85
1483.26279	13007.25
1486.66054	13203.45
1490.05602	13496.55
1493.44922	13963.95
1496.84016	14633.85
1500.22882	15597.85
1503.61521	16743.95
1506.99934	17884.25
1510.38121	18464.55
1513.76081	18235.95
1517.13816	17081.55
1520.51324	15658.75
1523.88607	14526.55
1527.25665	13798.75
1530.62498	13449.95
1533.99105	13274.25
1537.35488	13161.35
1540.71647	13085.75
1544.07581	12976.85
1547.4329	12859.65
1550.78776	12720.65
1554.14038	12592.05
1557.49077	12543.55
1560.83892	12646.65
1564.18484	12848.75
1567.52853	13061.25
1570.86999	13179.85
1574.20922	13217.15
1577.54624	13007.95
1580.88103	12607.35
1584.2136	12181.75
1587.54395	12054.75
1590.87208	12271.65
1594.19801	12886.45
1597.52172	13565.35
1600.84321	13875.65
1604.16251	13781.95
1607.47959	13350.15
1610.79447	12786.15
1614.10715	12102.95
1617.41763	11473.15
1620.7259	11017.95
1624.03199	10799.75
1627.33587	10763.85
1630.63757	10953.75
1633.93707	11422.65
1637.23439	12142.45
1640.52951	13132.05
1643.82246	14321.45
1647.11321	15303.65
1650.40179	15496.45
1653.68819	14598.25
1656.97241	13019.75
1660.25446	11574.75
1663.53433	10600.35
1666.81203	10040.35
1670.08756	9668.45
1673.36092	9490.15
1676.63211	9320.15
1679.90115	9214.55
1683.16801	9128.75
1686.43272	9040.75
1689.69527	8992.85
1692.95567	8958.85
1696.2139	8934.35
1699.46999	8902.25
1702.72392	8879.45
1705.97571	8853.65
1709.22535	8896.45
1712.47284	8880.95
1715.71819	8887.55
1718.96139	8876.35
1722.20246	8869.65
1725.44139	8844.25
1728.67818	8786.05
1731.91284	8754.05
1735.14537	8702.75
1738.37576	8687.85
1741.60403	8649.45
1744.83017	8615.05
1748.05418	8607.65
1751.27607	8605.55
1754.49584	8573.35
1757.71349	8568.55
1760.92903	8562.95
1764.14244	8534.95
1767.35375	8538.95
1770.56294	8518.05
1773.77002	8535.45
1776.97499	8495.45
1780.17785	8458.55
1783.37861	8437.75
1786.57727	8432.15
1789.77382	8433.25
1792.96828	8406.55
1796.16064	8424.95
1799.3509	8413.65
1802.53907	8396.25
1805.72514	8371.55
1808.90913	8337.95
1812.09102	8320.85
1815.27083	8301.75
1818.44856	8273.15
1821.6242	8262.55
1824.79776	8255.75
1827.96924	8261.15
1831.13864	8241.95
1834.30597	8198.75
1837.47122	8194.25
1840.6344	8205.45
1843.7955	8169.05
1846.95454	8194.05
1850.11151	8199.45
1853.26642	8209.45
1856.41926	8181.55
1859.57004	8196.35
1862.71876	8185.05
1865.86542	8203.95
1869.01003	8179.65
1872.15258	8157.25
1875.29308	8149.95
1878.43152	8131.45
1881.56792	8124.65
1884.70227	8087.95
1887.83457	8088.35
1890.96482	8086.95
1894.09304	8069.75
1897.21921	8042.95
1900.34335	8055.25
1903.46544	8034.85
1906.58551	8034.35
1909.70353	8040.15
1912.81953	8034.75
1915.93349	8004.65
1919.04543	8004.15
1922.15534	7975.45
1925.26322	7996.85
1928.36908	7962.05
1931.47292	7948.45
1934.57473	7938.95
1937.67453	7905.05
1940.77232	7893.25
1943.86808	7868.55
1946.96184	7833.65
1950.05358	7833.95
1953.14331	7821.55
1956.23103	7782.65
1959.31675	7778.85
1962.40046	7740.25
1965.48217	7715.55
1968.56188	7692.95
1971.63959	7665.95
1974.7153	7657.05
1977.78901	7652.45
1980.86073	7656.95
1983.93046	7583.45
1986.99819	7574.15
1990.06394	7544.45
1993.1277	7539.15
1996.18947	7497.85
1999.24925	7471.95
2002.30706	7435.35
2005.36288	7428.05
2008.41672	7414.95
2011.46859	7382.75
2014.51848	7360.05
2017.56639	7328.75
2020.61233	7318.95
2023.6563	7301.05
2026.6983	7299.55
2029.73833	7270.65
2032.7764	7237.85
2035.8125	7231.55
2038.84664	7227.35
2041.87881	7194.65
2044.90903	7174.95
2047.93729	7173.65
2050.96359	7151.45
2053.98794	7155.65
2057.01034	7135.75
2060.03078	7157.25
2063.04927	7132.15
2066.06582	7136.65
2069.08042	7125.05
2072.09307	7106.85
2075.10378	7110.45
2078.11255	7099.55
2081.11938	7093.95
2084.12426	7079.35
2087.12722	7071.85
2090.12824	7078.35
2093.12732	7063.85
2096.12447	7092.95
2099.11969	7091.55
2102.11299	7099.15
2105.10435	7082.75
2108.09379	7081.15
2111.08131	7072.65
2114.0669	7098.55
2117.05057	7106.65
2120.03233	7097.15
2123.01216	7110.05
2125.99008	7104.25
2128.96609	7104.25
2131.94018	7141.85
2134.91236	7119.55
2137.88263	7108.95
2140.851	7128.65
2143.81746	7130.75
2146.78201	7112.85
2149.74466	7109.55
2152.7054	7104.05
2155.66425	7109.55
2158.6212	7107.45
2161.57625	7087.35
2164.52941	7093.35
2167.48067	7100.65
2170.43004	7076.65
2173.37752	7074.55
2176.32311	7084.25
2179.26681	7093.85
2182.20863	7106.15
2185.14856	7090.45
2188.08661	7100.15
2191.02278	7085.05
2193.95707	7081.05
2196.88948	7082.95
2199.82001	7083.35
2202.74867	7073.55
2205.67545	7103.55
2208.60037	7067.85
2211.52341	7072.65
2214.44458	7051.15
2217.36388	7026.35
2220.28132	6996.25
2223.1969	6989.25
2226.11061	6985.15
2229.02246	6959.25
2231.93245	6960.25
2234.84058	6936.65
2237.74686	6932.35
2240.65128	6913.75
2243.55385	6901.75
2246.45456	6912.15
2249.35343	6887.85
2252.25044	6868.85
2255.14561	6855.95
2258.03893	6872.35
2260.93041	6841.95
2263.82004	6838.55
2266.70783	6817.65
2269.59378	6793.35
2272.4779	6787.85
2275.36017	6761.15
2278.24061	6759.05
2281.11922	6744.15
2283.996	6700.45
2286.87094	6681.65
2289.74405	6720.85
2292.61534	6717.85
2295.4848	6683.55
2298.35243	6687.45
2301.21824	6687.05
2304.08223	6655.25
2306.94439	6668.95
2309.80474	6670.85
2312.66327	6677.05
2315.51999	6674.35
2318.37489	6682.75
2321.22797	6646.05
2324.07925	6651.45
2326.92871	6625.35
2329.77637	6638.35
2332.62222	6621.65
2335.46626	6600.35
2338.3085	6600.75
2341.14893	6614.55
2343.98756	6609.15
2346.8244	6603.85
2349.65943	6602.35
2352.49267	6607.35
2355.32411	6608.65
2358.15376	6591.15
2360.98161	6584.05
2363.80768	6587.85
2366.63195	6563.55
2369.45444	6543.75
2372.27514	6544.45
2375.09405	6536.95
2377.91118	6516.75
2380.72652	6495.65
2383.54009	6493.75
2386.35187	6497.85
2389.16188	6453.25
2391.97011	6458.45
2394.77657	6431.15
2397.58125	6416.05
2400.38416	6405.65
2403.18529	6397.95
2405.98466	6416.35
2408.78226	6352.05
2411.57809	6358.85
2414.37216	6342.75
2417.16446	6365.15
2419.955	6341.85
2422.74378	6340.75
2425.5308	6333.95
2428.31606	6338.75
2431.09956	6305.25
2433.88131	6294.95
2436.6613	6310.05
2439.43954	6296.75
2442.21603	6304.55
2444.99077	6288.75
2447.76377	6292.65
2450.53501	6274.25
2453.30451	6280.35
2456.07226	6270.85
2458.83827	6261.55
2461.60254	6239.95
2464.36507	6247.55
2467.12586	6230.55
2469.88492	6232.05
2472.64224	6230.75
2475.39782	6236.15
2478.15167	6219.05
2480.90379	6215.05
2483.65417	6204.85
2486.40283	6202.65
2489.14976	6234.85
2491.89497	6228.25
2494.63845	6229.65
2497.3802	6226.35
2500.12024	6185.55
2502.85855	6186.85
2505.59514	6186.25
2508.33002	6189.75
2511.06318	6167.45
2513.79462	6148.85
2516.52435	6138.95
2519.25237	6131.75
2521.97867	6146.05
2524.70327	6113.85
2527.42616	6109.85
2530.14734	6088.05
2532.86681	6092.65
2535.58458	6096.35
2538.30065	6102.15
2541.01501	6097.95
2543.72768	6088.75
2546.43864	6076.35
2549.14791	6048.95
2551.85548	6057.95
2554.56136	6059.15
2557.26554	6048.05
2559.96803	6018.25
2562.66883	6024.85
2565.36794	5995.35
2568.06536	5999.65
2570.7611	5966.25
2573.45514	5961.65
2576.14751	5961.65
2578.83819	5941.35
2581.52719	5952.75
2584.21451	5946.15
2586.90015	5950.05
2589.58411	5934.05
2592.2664	5930.65
2594.94701	5898.65
2597.62594	5917.95
2600.30321	5894.95
2602.9788	5894.35
2605.65273	5887.55
2608.32498	5872.95
2610.99557	5879.95
2613.66449	5868.55
2616.33175	5866.45
2618.99734	5876.05
2621.66128	5855.55
2624.32355	5862.55
2626.98416	5848.35
2629.64311	5855.05
2632.30041	5834.95
2634.95605	5821.45
2637.61004	5802.15
2640.26238	5818.75
2642.91306	5805.45
2645.56209	5801.05
2648.20948	5792.75
2650.85521	5782.05
2653.4993	5766.55
2656.14175	5769.25
2658.78255	5774.15
2661.42171	5759.95
2664.05923	5791.85
2666.6951	5785.35
2669.32934	5805.55
2671.96194	5784.95
2674.59291	5809.85
2677.22224	5789.95
2679.84993	5778.65
2682.476	5772.85
2685.10043	5786.75
2687.72324	5781.15
2690.34441	5759.15
2692.96396	5768.15
2695.58188	5756.55
2698.19818	5764.35
2700.81285	5741.85
2703.4259	5729.85
2706.03733	5713.25
2708.64714	5719.95
2711.25533	5724.75
2713.86191	5707.45
2716.46687	5719.25
2719.07021	5742.35
2721.67194	5731.65
2724.27206	5726.15
2726.87057	5722.95
2729.46747	5732.45
2732.06276	5731.05
2734.65644	5717.65
2737.24852	5713.45
2739.83899	5703.55
2742.42786	5690.65
2745.01513	5667.45
2747.60079	5664.45
2750.18486	5674.65
2752.76733	5658.65
2755.3482	5649.05
2757.92747	5653.05
2760.50515	5633.35
2763.08123	5625.95
2765.65573	5612.05
2768.22863	5607.55
2770.79994	5619.55
2773.36967	5604.75
2775.9378	5598.55
2778.50435	5595.55
2781.06932	5592.35
2783.6327	5609.05
2786.1945	5593.45
2788.75471	5582.95
2791.31335	5572.45
2793.87041	5566.55
2796.42589	5539.65
2798.97979	5530.25
2801.53212	5514.15
2804.08288	5498.35
2806.63206	5494.75
2809.17967	5477.25
2811.72571	5474.05
2814.27018	5480.35
2816.81308	5451.55
2819.35442	5434.35
2821.89419	5429.45
2824.43239	5427.85
2826.96904	5410.05
2829.50412	5417.95
2832.03763	5392.95
2834.56959	5406.15
2837.1	5376.65
2839.62884	5366.35
2842.15613	5365.85
2844.68186	5363.25
2847.20604	5374.15
2849.72867	5359.75
2852.24974	5355.35
2854.76927	5333.15
2857.28724	5317.15
2859.80367	5306.25
2862.31855	5296.25
2864.83189	5320.45
2867.34368	5319.45
2869.85393	5297.35
2872.36264	5297.75
2874.8698	5286.35
2877.37543	5287.45
2879.87952	5274.45
2882.38207	5268.45
2884.88308	5258.15
2887.38256	5261.65
2889.88051	5256.25
2892.37692	5265.55
2894.8718	5256.45
2897.36515	5262.55
2899.85698	5270.05
2902.34727	5263.45
2904.83604	5255.95
2907.32328	5275.05
2909.809	5266.05
2912.29319	5272.85
2914.77587	5282.55
2917.25702	5303.75
2919.73665	5285.45
2922.21476	5273.65
2924.69136	5262.95
2927.16644	5267.85
2929.64	5237.35
2932.11205	5233.75
2934.58258	5205.85
2937.05161	5203.95
2939.51912	5213.75
2941.98513	5222.65
2944.44962	5202.85
2946.91261	5177.85
2949.37409	5185.95
2951.83407	5190.55
2954.29254	5192.35
2956.74951	5192.75
2959.20498	5185.55
2961.65895	5187.05
2964.11142	5187.05
2966.56239	5158.65
2969.01186	5178.45
2971.45984	5162.35
2973.90632	5153.35
2976.35131	5138.75
2978.7948	5146.95
2981.23681	5120.75
2983.67732	5126.75
2986.11635	5106.75
2988.55388	5091.85
2990.98993	5083.55
2993.4245	5062.75
2995.85758	5058.05
2998.28917	5034.25
3000.71928	5017.85
3003.14791	5014.25
3005.57506	4988.55
3008.00073	4992.15
3010.42493	4977.25
3012.84764	4977.95
3015.26888	4964.75
3017.68865	4967.15
3020.10694	4944.45
3022.52376	4920.25
3024.9391	4919.45
3027.35298	4897.15
3029.76539	4884.75
3032.17632	4874.75
3034.5858	4884.65
3036.9938	4874.35
3039.40034	4851.75
3041.80542	4855.25
3044.20903	4842.25
3046.61118	4819.45
3049.01187	4801.75
3051.4111	4803.65
3053.80888	4798.65
3056.20519	4785.85
3058.60005	4774.15
3060.99345	4782.35
3063.3854	4757.05
3065.7759	4736.05
3068.16494	4721.75
3070.55254	4723.45
3072.93868	4687.05
3075.32338	4679.55
3077.70662	4654.65
3080.08842	4661.15
3082.46878	4673.25
3084.84769	4632.85
3087.22515	4643.85
3089.60118	4650.55
3091.97576	4644.55
3094.3489	4645.15
3096.72061	4622.55
3099.09087	4626.75
3101.4597	4608.35
3103.82709	4639.45
3106.19305	4612.95
3108.55757	4613.15
3110.92066	4596.55
3113.28232	4591.35
3115.64255	4579.65
3118.00134	4579.75
3120.35871	4564.55
3122.71466	4548.55
3125.06917	4543.35
3127.42226	4536.05
3129.77393	4520.55
3132.12417	4511.55
3134.47299	4496.05
3136.82039	4501.25
3139.16636	4502.75
3141.51092	4483.45
3143.85406	4494.95
3146.19579	4479.95
3148.53609	4488.45
3150.87499	4475.85
3153.21246	4469.35
3155.54853	4471.45
3157.88318	4472.95
3160.21642	4472.85
3162.54826	4468.35
3164.87868	4469.55
3167.2077	4450.35
3169.5353	4441.45
3171.86151	4445.55
3174.18631	4427.65
3176.5097	4436.15
3178.83169	4411.65
3181.15228	4428.85
3183.47147	4392.75
3185.78926	4385.65
3188.10565	4369.75
3190.42065	4360.85
3192.73424	4351.15
3195.04645	4363.35
3197.35725	4354.95
3199.66667	4346.15
3201.97469	4347.25
3204.28132	4343.35
3206.58656	4359.95
3208.8904	4358.15
3211.19287	4343.05
3213.49394	4355.75
3215.79363	4341.55
3218.09193	4348.25
3220.38884	4346.15
3222.68438	4366.15
3224.97853	4341.95
3227.2713	4329.05
3229.56269	4334.25
3231.8527	4328.85
3234.14133	4302.55
3236.42858	4298.25
3238.71446	4288.15
3240.99896	4274.75
3243.28209	4279.25
3245.56384	4262.55
3247.84423	4258.75
3250.12324	4250.05
3252.40088	4231.65
3254.67715	4230.85
3256.95205	4229.75
3259.22558	4237.65
3261.49775	4239.35
3263.76855	4231.05
3266.03799	4228.75
3268.30606	4237.65
3270.57277	4226.55
3272.83812	4218.65
3275.10211	4200.75
3277.36474	4205.75
3279.62601	4185.05
3281.88593	4181.85
3284.14448	4166.25
3286.40168	4152.05
3288.65753	4172.25
3290.91202	4150.65
3293.16516	4145.65
3295.41695	4160.05
3297.66738	4122.35
3299.91647	4091.25
3302.16421	4078.15
3304.4106	4051.95
3306.65564	4038.45
3308.89933	3995.05
3311.14169	3972.75
3313.38269	3936.45
3315.62236	3910.35
3317.86068	3887.05
3320.09766	3857.95
3322.3333	3829.95
3324.5676	3807.65
3326.80056	3740.25
3329.03219	3718.05
3331.26248	2.35
3333.49143	-0.65
3335.71905	0.65
