Data from AgNPs_UA_5uM_CRN_500uM_SU_RamanShift__49__11-37-33-148.txt Node

Date: Thu Aug 04 11:37:33 BST 2022
User: TCL
Spectrometer: QEP01345
Trigger mode: 4
Integration Time (sec): 1.000000E0
Scans to average: 10
Electric dark correction enabled: true
Nonlinearity correction enabled: false
Boxcar width: 0
XAxis mode: Raman Shifts
Number of Pixels in Spectrum: 1044
>>>>>Begin Spectral Data<<<<<
46.04893	0.05
50.45542	-0.85
54.85868	0.15
59.25871	0.05
63.6555	-55.95
68.04907	-37.35
72.43941	-69.35
76.82654	-54.15
81.21044	-54.35
85.59113	-47.15
89.96862	-72.55
94.34289	-53.75
98.71396	-74.35
103.08183	-52.95
107.4465	-47.35
111.80798	-51.25
116.16626	-39.55
120.52136	-68.75
124.87327	-44.25
129.222	-56.25
133.56755	-43.05
137.90993	-54.55
142.24913	-38.35
146.58517	-29.25
150.91804	-24.25
155.24774	-9.65
159.57429	21.95
163.89768	34.85
168.21792	92.35
172.53501	139.85
176.84895	253.25
181.15975	434.75
185.46741	656.85
189.77193	916.95
194.07331	1335.85
198.37157	1752.25
202.6667	2184.85
206.9587	2675.85
211.24758	3188.55
215.53334	3748.75
219.81599	4399.35
224.09553	5153.85
228.37195	5926.15
232.64527	6671.55
236.91549	7284.85
241.18261	7622.95
245.44663	7729.75
249.70755	7739.75
253.96539	7756.05
258.22014	7808.15
262.4718	7877.55
266.72039	7895.15
270.96589	7729.25
275.20832	7443.35
279.44768	7142.85
283.68397	6908.25
287.91719	6834.55
292.14735	6989.45
296.37445	7453.35
300.59849	8307.15
304.81948	9477.35
309.03742	10806.55
313.25231	11757.15
317.46415	11605.55
321.67296	10249.25
325.87872	8683.65
330.08145	7768.05
334.28114	7560.75
338.47781	7826.45
342.67145	8318.55
346.86207	9149.45
351.04966	10455.05
355.23424	11718.75
359.4158	12236.45
363.59435	11841.45
367.76989	11093.25
371.94243	10361.85
376.11196	9743.75
380.27849	9298.25
384.44203	8973.05
388.60257	8791.15
392.76012	8805.05
396.91468	9106.25
401.06626	9481.85
405.21485	9473.85
409.36047	8911.85
413.50311	7949.55
417.64277	7069.65
421.77947	6496.05
425.9132	6249.15
430.04396	6126.65
434.17176	6086.75
438.2966	6209.35
442.41849	6389.75
446.53742	6584.15
450.6534	6732.55
454.76644	6748.95
458.87653	6668.45
462.98368	6530.85
467.08789	6406.55
471.18916	6224.05
475.2875	5939.35
479.38291	5719.75
483.4754	5589.15
487.56496	5533.15
491.6516	5483.65
495.73531	5457.95
499.81612	5539.25
503.89401	5683.35
507.96899	5871.75
512.04106	6107.45
516.11023	6353.25
520.1765	6582.85
524.23987	6643.05
528.30034	6587.85
532.35792	6441.85
536.41261	6310.65
540.46441	6088.35
544.51333	5959.85
548.55936	5953.25
552.60252	6106.45
556.64279	6298.45
560.6802	6667.55
564.71473	7525.35
568.7464	8585.75
572.7752	8519.85
576.80114	7136.65
580.82422	5997.05
584.84444	5511.05
588.86181	5364.45
592.87633	5381.45
596.888	5579.45
600.89682	6275.05
604.9028	8668.85
608.90594	14663.75
612.90624	21937.55
616.90371	19944.95
620.89834	10915.95
624.89015	6960.95
628.87913	6515.85
632.86528	7072.65
636.84862	7339.15
640.82913	6687.55
644.80683	5730.35
648.78172	5296.85
652.75379	5423.05
656.72306	6122.55
660.68952	6826.45
664.65319	6431.35
668.61405	5570.55
672.57211	5206.25
676.52738	5218.65
680.47986	5146.15
684.42955	4980.25
688.37646	4913.75
692.32058	4919.75
696.26192	5020.75
700.20048	5134.45
704.13626	5173.65
708.06928	5089.45
711.99952	5062.55
715.927	5091.65
719.85171	5288.35
723.77365	5421.45
727.69284	5287.15
731.60928	5172.65
735.52295	5104.15
739.43388	5152.15
743.34206	5194.25
747.24749	5208.55
751.15017	5252.15
755.05012	5518.15
758.94733	6681.55
762.8418	9315.85
766.73354	12791.35
770.62254	14565.95
774.50882	13896.25
778.39237	12601.05
782.27321	10632.75
786.15132	8035.05
790.02671	6301.35
793.89938	5478.45
797.76935	5233.95
801.6366	5080.45
805.50115	4995.35
809.36299	4956.15
813.22213	4936.05
817.07857	4940.65
820.93231	4972.85
824.78336	5066.95
828.63172	5152.45
832.47738	5221.55
836.32036	5132.55
840.16066	4945.75
843.99827	4836.85
847.8332	4797.25
851.66546	4785.55
855.49504	4776.95
859.32195	4771.95
863.1462	4725.45
866.96777	4724.15
870.78668	4705.15
874.60293	4742.45
878.41652	4803.25
882.22745	4947.15
886.03573	5021.85
889.84136	5003.35
893.64433	4986.95
897.44466	4982.85
901.24235	4986.25
905.0374	4919.45
908.8298	4742.35
912.61957	4644.75
916.40671	4574.15
920.19121	4615.05
923.97308	4808.75
927.75233	5121.85
931.52895	5503.65
935.30295	5328.35
939.07433	4784.05
942.84309	4437.15
946.60924	4320.55
950.37278	4253.75
954.13371	4255.35
957.89203	4239.85
961.64774	4246.95
965.40086	4227.35
969.15137	4195.85
972.89929	4218.35
976.64461	4194.15
980.38733	4208.15
984.12747	4189.75
987.86502	4191.35
991.59999	4224.05
995.33237	4295.45
999.06217	4389.35
1002.78939	4552.25
1006.51404	4815.45
1010.23611	4957.95
1013.95561	4857.05
1017.67255	4688.45
1021.38692	4543.85
1025.09872	4411.85
1028.80796	4312.15
1032.51465	4374.85
1036.21877	4403.25
1039.92035	4461.55
1043.61937	4528.35
1047.31584	4596.45
1051.00976	4608.85
1054.70114	4556.95
1058.38998	4512.95
1062.07627	4491.45
1065.76003	4485.25
1069.44126	4563.55
1073.11995	4647.05
1076.79611	4913.55
1080.46974	5368.85
1084.14085	6005.65
1087.80943	6556.25
1091.47549	6539.95
1095.13903	6024.95
1098.80005	5487.05
1102.45857	5202.25
1106.11456	5160.15
1109.76805	5224.25
1113.41903	5579.65
1117.06751	6137.15
1120.71348	7036.55
1124.35696	8434.85
1127.99793	9391.15
1131.63641	8669.05
1135.2724	7206.85
1138.90589	6246.25
1142.5369	5681.25
1146.16542	5336.65
1149.79145	5073.35
1153.415	5000.45
1157.03607	5041.75
1160.65467	5240.05
1164.27079	5615.45
1167.88443	6123.55
1171.49561	7039.75
1175.10432	8587.15
1178.71056	10802.95
1182.31434	12352.35
1185.91565	12127.85
1189.51451	10754.85
1193.11091	9252.45
1196.70485	8349.55
1200.29634	7943.25
1203.88538	7473.85
1207.47197	6569.35
1211.05612	5722.55
1214.63782	5187.85
1218.21708	4954.25
1221.79391	4856.95
1225.36829	4809.35
1228.94024	4839.55
1232.50976	4820.45
1236.07685	4833.45
1239.6415	4875.15
1243.20374	4973.15
1246.76355	5122.05
1250.32093	5305.55
1253.8759	5542.45
1257.42845	5994.35
1260.97859	6556.65
1264.52631	7148.15
1268.07163	7441.55
1271.61453	7492.95
1275.15503	7326.65
1278.69312	7116.75
1282.22882	7264.85
1285.76211	8042.95
1289.29301	9126.15
1292.82151	9863.45
1296.34761	10179.95
1299.87133	10926.25
1303.39266	12778.05
1306.9116	16291.95
1310.42815	20505.85
1313.94233	21884.55
1317.45412	18622.05
1320.96354	14017.85
1324.47058	10544.45
1327.97525	8383.75
1331.47754	7296.75
1334.97747	6943.25
1338.47502	7084.65
1341.97022	7923.85
1345.46305	9799.35
1348.95352	12494.85
1352.44163	15249.55
1355.92738	18562.85
1359.41078	24320.35
1362.89183	30648.45
1366.37053	29359.05
1369.84688	20529.55
1373.32088	13191.65
1376.79254	9997.15
1380.26186	8610.35
1383.72883	7523.55
1387.19347	6525.95
1390.65578	5755.45
1394.11575	5323.65
1397.57339	5105.25
1401.0287	4955.75
1404.48168	4828.85
1407.93234	4804.55
1411.38068	4859.45
1414.82669	5170.65
1418.27039	5548.65
1421.71177	5641.65
1425.15083	5464.15
1428.58758	5444.65
1432.02203	5826.85
1435.45416	6137.45
1438.88399	5912.15
1442.31151	5607.65
1445.73673	5572.95
1449.15965	5526.95
1452.58027	5443.25
1455.9986	5290.35
1459.41463	5165.05
1462.82837	5171.95
1466.23982	5394.85
1469.64898	5711.65
1473.05586	5846.35
1476.46045	5821.85
1479.86276	5850.65
1483.26279	6080.35
1486.66054	6663.45
1490.05602	7483.85
1493.44922	8911.15
1496.84016	11154.15
1500.22882	14628.65
1503.61521	19445.95
1506.99934	25553.95
1510.38121	31451.65
1513.76081	33545.25
1517.13816	29493.55
1520.51324	22044.85
1523.88607	15492.95
1527.25665	11348.15
1530.62498	9058.75
1533.99105	7712.05
1537.35488	6840.35
1540.71647	6359.35
1544.07581	6137.55
1547.4329	6172.75
1550.78776	6327.55
1554.14038	6597.85
1557.49077	7053.15
1560.83892	7831.35
1564.18484	9066.25
1567.52853	10436.35
1570.86999	11309.55
1574.20922	11460.15
1577.54624	10937.45
1580.88103	9314.25
1584.2136	7340.85
1587.54395	6167.95
1590.87208	5880.55
1594.19801	6212.55
1597.52172	6826.75
1600.84321	6842.95
1604.16251	6184.65
1607.47959	5533.85
1610.79447	5146.45
1614.10715	4822.25
1617.41763	4602.75
1620.7259	4465.05
1624.03199	4509.45
1627.33587	4640.45
1630.63757	4939.75
1633.93707	5524.65
1637.23439	6548.35
1640.52951	8438.75
1643.82246	11681.15
1647.11321	16057.05
1650.40179	19612.35
1653.68819	19287.95
1656.97241	15260.75
1660.25446	10572.35
1663.53433	7357.55
1666.81203	5588.35
1670.08756	4712.55
1673.36092	4244.45
1676.63211	3911.85
1679.90115	3729.25
1683.16801	3599.15
1686.43272	3485.45
1689.69527	3396.95
1692.95567	3330.05
1696.2139	3308.35
1699.46999	3252.45
1702.72392	3241.95
1705.97571	3245.75
1709.22535	3227.05
1712.47284	3271.95
1715.71819	3312.85
1718.96139	3302.55
1722.20246	3280.45
1725.44139	3235.95
1728.67818	3174.75
1731.91284	3112.85
1735.14537	3059.75
1738.37576	3037.65
1741.60403	3011.85
1744.83017	2985.95
1748.05418	2967.45
1751.27607	2955.05
1754.49584	2920.45
1757.71349	2861.65
1760.92903	2836.55
1764.14244	2778.15
1767.35375	2754.35
1770.56294	2708.65
1773.77002	2689.75
1776.97499	2685.15
1780.17785	2638.75
1783.37861	2601.25
1786.57727	2619.25
1789.77382	2560.15
1792.96828	2581.25
1796.16064	2593.45
1799.3509	2574.15
1802.53907	2587.75
1805.72514	2542.45
1808.90913	2534.85
1812.09102	2531.85
1815.27083	2520.55
1818.44856	2501.65
1821.6242	2500.75
1824.79776	2483.25
1827.96924	2468.05
1831.13864	2444.85
1834.30597	2444.25
1837.47122	2413.15
1840.6344	2388.45
1843.7955	2367.95
1846.95454	2358.25
1850.11151	2369.95
1853.26642	2324.05
1856.41926	2332.55
1859.57004	2347.05
1862.71876	2342.75
1865.86542	2347.95
1869.01003	2343.65
1872.15258	2328.65
1875.29308	2352.55
1878.43152	2355.85
1881.56792	2342.95
1884.70227	2315.35
1887.83457	2310.25
1890.96482	2289.55
1894.09304	2285.65
1897.21921	2276.05
1900.34335	2292.75
1903.46544	2266.05
1906.58551	2285.45
1909.70353	2282.35
1912.81953	2270.85
1915.93349	2258.55
1919.04543	2253.95
1922.15534	2234.25
1925.26322	2237.35
1928.36908	2212.25
1931.47292	2196.45
1934.57473	2185.05
1937.67453	2149.15
1940.77232	2120.25
1943.86808	2108.65
1946.96184	2107.65
1950.05358	2089.45
1953.14331	2078.85
1956.23103	2085.95
1959.31675	2068.75
1962.40046	2044.65
1965.48217	2077.15
1968.56188	2098.45
1971.63959	2092.85
1974.7153	2111.85
1977.78901	2101.85
1980.86073	2067.85
1983.93046	2020.25
1986.99819	1946.35
1990.06394	1949.45
1993.1277	1972.45
1996.18947	1942.15
1999.24925	1928.75
2002.30706	1930.75
2005.36288	1933.45
2008.41672	1909.95
2011.46859	1888.85
2014.51848	1880.25
2017.56639	1865.75
2020.61233	1842.15
2023.6563	1865.75
2026.6983	1815.25
2029.73833	1829.85
2032.7764	1840.35
2035.8125	1795.95
2038.84664	1805.85
2041.87881	1809.55
2044.90903	1815.55
2047.93729	1804.55
2050.96359	1774.95
2053.98794	1772.05
2057.01034	1790.55
2060.03078	1763.95
2063.04927	1742.65
2066.06582	1740.45
2069.08042	1735.55
2072.09307	1728.45
2075.10378	1730.55
2078.11255	1729.45
2081.11938	1720.75
2084.12426	1716.95
2087.12722	1723.25
2090.12824	1713.25
2093.12732	1720.65
2096.12447	1725.35
2099.11969	1723.65
2102.11299	1706.65
2105.10435	1737.35
2108.09379	1726.05
2111.08131	1717.95
2114.0669	1729.35
2117.05057	1724.25
2120.03233	1727.25
2123.01216	1764.15
2125.99008	1764.75
2128.96609	1771.35
2131.94018	1777.05
2134.91236	1756.65
2137.88263	1735.15
2140.851	1733.45
2143.81746	1741.45
2146.78201	1716.85
2149.74466	1690.75
2152.7054	1690.95
2155.66425	1669.85
2158.6212	1669.05
2161.57625	1644.05
2164.52941	1614.55
2167.48067	1643.05
2170.43004	1647.95
2173.37752	1660.25
2176.32311	1655.15
2179.26681	1665.85
2182.20863	1676.75
2185.14856	1672.65
2188.08661	1664.35
2191.02278	1666.05
2193.95707	1640.05
2196.88948	1612.45
2199.82001	1625.55
2202.74867	1610.85
2205.67545	1615.55
2208.60037	1625.95
2211.52341	1613.55
2214.44458	1604.45
2217.36388	1603.25
2220.28132	1591.25
2223.1969	1571.25
2226.11061	1577.95
2229.02246	1567.15
2231.93245	1568.75
2234.84058	1553.05
2237.74686	1552.85
2240.65128	1550.35
2243.55385	1550.65
2246.45456	1541.55
2249.35343	1559.25
2252.25044	1582.85
2255.14561	1590.25
2258.03893	1598.25
2260.93041	1628.35
2263.82004	1626.05
2266.70783	1637.35
2269.59378	1610.75
2272.4779	1602.85
2275.36017	1619.45
2278.24061	1599.25
2281.11922	1572.25
2283.996	1578.25
2286.87094	1553.55
2289.74405	1550.75
2292.61534	1542.05
2295.4848	1538.35
2298.35243	1520.75
2301.21824	1503.75
2304.08223	1498.45
2306.94439	1503.45
2309.80474	1512.75
2312.66327	1500.75
2315.51999	1491.55
2318.37489	1487.65
2321.22797	1470.15
2324.07925	1464.25
2326.92871	1471.35
2329.77637	1459.55
2332.62222	1468.75
2335.46626	1452.85
2338.3085	1442.35
2341.14893	1469.65
2343.98756	1484.55
2346.8244	1467.65
2349.65943	1463.75
2352.49267	1476.05
2355.32411	1501.85
2358.15376	1495.65
2360.98161	1516.55
2363.80768	1514.05
2366.63195	1531.45
2369.45444	1551.25
2372.27514	1557.15
2375.09405	1571.65
2377.91118	1524.85
2380.72652	1517.95
2383.54009	1517.85
2386.35187	1514.85
2389.16188	1480.65
2391.97011	1458.45
2394.77657	1449.15
2397.58125	1449.55
2400.38416	1435.45
2403.18529	1420.85
2405.98466	1407.15
2408.78226	1420.45
2411.57809	1399.25
2414.37216	1401.35
2417.16446	1403.35
2419.955	1383.25
2422.74378	1404.35
2425.5308	1392.75
2428.31606	1399.95
2431.09956	1411.85
2433.88131	1404.95
2436.6613	1418.75
2439.43954	1422.65
2442.21603	1422.55
2444.99077	1417.15
2447.76377	1435.65
2450.53501	1425.25
2453.30451	1421.45
2456.07226	1441.65
2458.83827	1430.35
2461.60254	1394.65
2464.36507	1430.55
2467.12586	1406.15
2469.88492	1429.75
2472.64224	1416.75
2475.39782	1415.45
2478.15167	1437.35
2480.90379	1441.85
2483.65417	1473.75
2486.40283	1489.55
2489.14976	1507.55
2491.89497	1492.85
2494.63845	1492.45
2497.3802	1483.85
2500.12024	1474.25
2502.85855	1461.15
2505.59514	1453.45
2508.33002	1429.45
2511.06318	1387.25
2513.79462	1373.65
2516.52435	1328.25
2519.25237	1292.55
2521.97867	1288.95
2524.70327	1289.45
2527.42616	1286.45
2530.14734	1283.15
2532.86681	1264.55
2535.58458	1268.55
2538.30065	1267.95
2541.01501	1294.45
2543.72768	1275.25
2546.43864	1288.95
2549.14791	1275.05
2551.85548	1279.25
2554.56136	1277.95
2557.26554	1290.85
2559.96803	1299.15
2562.66883	1304.85
2565.36794	1285.65
2568.06536	1279.65
2570.7611	1304.95
2573.45514	1287.55
2576.14751	1282.15
2578.83819	1272.45
2581.52719	1262.45
2584.21451	1266.05
2586.90015	1242.65
2589.58411	1231.55
2592.2664	1250.75
2594.94701	1245.45
2597.62594	1243.25
2600.30321	1197.55
2602.9788	1215.95
2605.65273	1218.15
2608.32498	1224.25
2610.99557	1241.85
2613.66449	1213.85
2616.33175	1229.15
2618.99734	1237.75
2621.66128	1230.45
2624.32355	1216.85
2626.98416	1199.75
2629.64311	1200.45
2632.30041	1191.95
2634.95605	1166.75
2637.61004	1151.25
2640.26238	1140.55
2642.91306	1140.25
2645.56209	1155.85
2648.20948	1149.55
2650.85521	1129.25
2653.4993	1163.95
2656.14175	1163.45
2658.78255	1154.75
2661.42171	1131.55
2664.05923	1168.55
2666.6951	1182.55
2669.32934	1193.45
2671.96194	1202.45
2674.59291	1188.25
2677.22224	1192.65
2679.84993	1187.65
2682.476	1172.25
2685.10043	1180.95
2687.72324	1167.75
2690.34441	1155.75
2692.96396	1154.55
2695.58188	1158.85
2698.19818	1156.15
2700.81285	1143.75
2703.4259	1137.35
2706.03733	1111.55
2708.64714	1118.25
2711.25533	1152.65
2713.86191	1157.65
2716.46687	1155.25
2719.07021	1156.15
2721.67194	1147.35
2724.27206	1156.05
2726.87057	1138.25
2729.46747	1126.95
2732.06276	1134.25
2734.65644	1111.35
2737.24852	1121.95
2739.83899	1092.15
2742.42786	1098.25
2745.01513	1100.45
2747.60079	1085.95
2750.18486	1067.75
2752.76733	1065.55
2755.3482	1063.45
2757.92747	1061.55
2760.50515	1042.05
2763.08123	1034.35
2765.65573	1038.55
2768.22863	1031.95
2770.79994	1022.25
2773.36967	1024.55
2775.9378	1020.15
2778.50435	1029.85
2781.06932	1024.15
2783.6327	1012.65
2786.1945	1041.45
2788.75471	1032.35
2791.31335	1031.45
2793.87041	1040.85
2796.42589	1025.15
2798.97979	1022.75
2801.53212	1036.35
2804.08288	1057.75
2806.63206	1053.95
2809.17967	1044.85
2811.72571	1081.55
2814.27018	1078.55
2816.81308	1090.85
2819.35442	1069.55
2821.89419	1098.15
2824.43239	1100.85
2826.96904	1120.85
2829.50412	1102.85
2832.03763	1107.25
2834.56959	1092.35
2837.1	1085.85
2839.62884	1077.85
2842.15613	1075.85
2844.68186	1076.25
2847.20604	1060.05
2849.72867	1062.45
2852.24974	1071.65
2854.76927	1061.55
2857.28724	1028.05
2859.80367	1099.55
2862.31855	1124.85
2864.83189	1121.15
2867.34368	1139.85
2869.85393	1162.05
2872.36264	1144.35
2874.8698	1155.55
2877.37543	1154.55
2879.87952	1133.65
2882.38207	1112.55
2884.88308	1102.55
2887.38256	1103.35
2889.88051	1097.35
2892.37692	1084.55
2894.8718	1065.75
2897.36515	1078.95
2899.85698	1080.55
2902.34727	1077.75
2904.83604	1088.65
2907.32328	1108.45
2909.809	1132.85
2912.29319	1140.25
2914.77587	1150.65
2917.25702	1153.65
2919.73665	1149.05
2922.21476	1137.45
2924.69136	1121.25
2927.16644	1093.35
2929.64	1082.45
2932.11205	1056.05
2934.58258	1061.45
2937.05161	1053.95
2939.51912	1050.25
2941.98513	1062.95
2944.44962	1052.25
2946.91261	1023.05
2949.37409	1040.75
2951.83407	1041.25
2954.29254	1035.25
2956.74951	1052.45
2959.20498	1037.25
2961.65895	1031.55
2964.11142	1038.55
2966.56239	1031.55
2969.01186	1024.55
2971.45984	1024.05
2973.90632	1013.75
2976.35131	1027.15
2978.7948	1026.85
2981.23681	1022.75
2983.67732	1036.45
2986.11635	1038.25
2988.55388	1006.15
2990.98993	1026.45
2993.4245	1017.25
2995.85758	1018.75
2998.28917	1019.75
3000.71928	1016.55
3003.14791	1012.95
3005.57506	1012.25
3008.00073	1001.15
3010.42493	940.65
3012.84764	1003.55
3015.26888	1000.65
3017.68865	1000.15
3020.10694	944.35
3022.52376	968.35
3024.9391	964.85
3027.35298	955.55
3029.76539	934.25
3032.17632	927.75
3034.5858	907.55
3036.9938	912.85
3039.40034	906.45
3041.80542	882.15
3044.20903	868.05
3046.61118	857.05
3049.01187	877.45
3051.4111	862.75
3053.80888	857.55
3056.20519	850.25
3058.60005	841.55
3060.99345	868.35
3063.3854	836.65
3065.7759	834.45
3068.16494	823.85
3070.55254	817.85
3072.93868	833.25
3075.32338	830.85
3077.70662	824.65
3080.08842	813.15
3082.46878	799.65
3084.84769	817.55
3087.22515	801.15
3089.60118	807.45
3091.97576	789.55
3094.3489	808.85
3096.72061	797.75
3099.09087	779.75
3101.4597	797.55
3103.82709	787.65
3106.19305	776.35
3108.55757	777.95
3110.92066	772.15
3113.28232	788.45
3115.64255	795.15
3118.00134	799.45
3120.35871	776.05
3122.71466	762.65
3125.06917	781.45
3127.42226	774.25
3129.77393	755.35
3132.12417	776.55
3134.47299	781.05
3136.82039	764.55
3139.16636	743.15
3141.51092	759.95
3143.85406	770.75
3146.19579	754.35
3148.53609	762.35
3150.87499	765.15
3153.21246	765.95
3155.54853	777.05
3157.88318	772.25
3160.21642	773.95
3162.54826	771.45
3164.87868	776.05
3167.2077	737.95
3169.5353	754.45
3171.86151	760.75
3174.18631	740.75
3176.5097	738.15
3178.83169	736.85
3181.15228	736.25
3183.47147	713.95
3185.78926	699.05
3188.10565	709.85
3190.42065	694.55
3192.73424	708.65
3195.04645	694.65
3197.35725	682.05
3199.66667	703.25
3201.97469	692.25
3204.28132	693.05
3206.58656	706.75
3208.8904	716.75
3211.19287	713.05
3213.49394	696.95
3215.79363	698.55
3218.09193	715.75
3220.38884	707.65
3222.68438	707.35
3224.97853	692.85
3227.2713	713.65
3229.56269	689.75
3231.8527	694.25
3234.14133	683.25
3236.42858	682.85
3238.71446	668.85
3240.99896	690.45
3243.28209	668.35
3245.56384	680.45
3247.84423	669.35
3250.12324	679.95
3252.40088	670.55
3254.67715	661.65
3256.95205	658.45
3259.22558	671.65
3261.49775	674.05
3263.76855	663.65
3266.03799	664.05
3268.30606	671.85
3270.57277	678.45
3272.83812	667.35
3275.10211	667.65
3277.36474	691.75
3279.62601	684.15
3281.88593	669.85
3284.14448	658.85
3286.40168	688.35
3288.65753	679.05
3290.91202	686.65
3293.16516	675.55
3295.41695	707.85
3297.66738	721.65
3299.91647	710.65
3302.16421	721.05
3304.4106	681.25
3306.65564	713.75
3308.89933	686.95
3311.14169	698.05
3313.38269	697.75
3315.62236	685.25
3317.86068	687.95
3320.09766	696.95
3322.3333	675.05
3324.5676	685.65
3326.80056	680.45
3329.03219	691.45
3331.26248	0.05
3333.49143	-0.15
3335.71905	0.55
