Data from AgNPs_UA_5uM_CRN_500uM_SU_RamanShift__123__11-49-53-164.txt Node

Date: Thu Aug 04 11:49:53 BST 2022
User: TCL
Spectrometer: QEP01345
Trigger mode: 4
Integration Time (sec): 1.000000E0
Scans to average: 10
Electric dark correction enabled: true
Nonlinearity correction enabled: false
Boxcar width: 0
XAxis mode: Raman Shifts
Number of Pixels in Spectrum: 1044
>>>>>Begin Spectral Data<<<<<
46.04893	-1.25
50.45542	-0.25
54.85868	0.15
59.25871	0.25
63.6555	-58.95
68.04907	-39.45
72.43941	-72.85
76.82654	-57.05
81.21044	-55.75
85.59113	-51.15
89.96862	-74.45
94.34289	-55.95
98.71396	-77.55
103.08183	-58.75
107.4465	-49.85
111.80798	-56.05
116.16626	-46.05
120.52136	-74.15
124.87327	-52.45
129.222	-63.75
133.56755	-53.45
137.90993	-64.45
142.24913	-54.25
146.58517	-45.45
150.91804	-44.05
155.24774	-31.95
159.57429	-12.85
163.89768	-13.35
168.21792	28.65
172.53501	45.75
176.84895	120.85
181.15975	244.45
185.46741	375.25
189.77193	539.35
194.07331	815.95
198.37157	1075.55
202.6667	1333.65
206.9587	1629.65
211.24758	1918.45
215.53334	2214.75
219.81599	2530.95
224.09553	2897.35
228.37195	3299.85
232.64527	3719.85
236.91549	4167.05
241.18261	4523.95
245.44663	4852.05
249.70755	5044.15
253.96539	5188.75
258.22014	5308.55
262.4718	5331.35
266.72039	5356.35
270.96589	5312.85
275.20832	5210.05
279.44768	5102.35
283.68397	4988.55
287.91719	4929.65
292.14735	4923.75
296.37445	5038.55
300.59849	5227.15
304.81948	5450.75
309.03742	5705.65
313.25231	5863.65
317.46415	5819.25
321.67296	5537.35
325.87872	5266.55
330.08145	5130.95
334.28114	5130.45
338.47781	5209.25
342.67145	5295.85
346.86207	5476.25
351.04966	5765.95
355.23424	6030.55
359.4158	6235.75
363.59435	6268.65
367.76989	6248.95
371.94243	6197.65
376.11196	6116.95
380.27849	6096.85
384.44203	6060.55
388.60257	6071.55
392.76012	6076.25
396.91468	6152.85
401.06626	6298.95
405.21485	6321.95
409.36047	6223.75
413.50311	6026.55
417.64277	5816.05
421.77947	5668.95
425.9132	5649.85
430.04396	5625.95
434.17176	5669.45
438.2966	5776.05
442.41849	5866.95
446.53742	5963.65
450.6534	6046.55
454.76644	6126.65
458.87653	6143.75
462.98368	6146.25
467.08789	6124.45
471.18916	6083.25
475.2875	6008.95
479.38291	5927.85
483.4754	5843.55
487.56496	5793.45
491.6516	5756.05
495.73531	5728.95
499.81612	5768.95
503.89401	5824.05
507.96899	5851.35
512.04106	5927.55
516.11023	6017.15
520.1765	6063.45
524.23987	6116.85
528.30034	6122.45
532.35792	6067.55
536.41261	6040.65
540.46441	5979.75
544.51333	5948.55
548.55936	5982.25
552.60252	6081.75
556.64279	6173.85
560.6802	6249.25
564.71473	6351.55
568.7464	6461.25
572.7752	6431.15
576.80114	6199.15
580.82422	6047.25
584.84444	5995.05
588.86181	5971.65
592.87633	6001.95
596.888	6104.95
600.89682	6379.35
604.9028	7083.55
608.90594	8568.75
612.90624	10234.25
616.90371	9581.05
620.89834	7439.45
624.89015	6507.75
628.87913	6391.15
632.86528	6491.55
636.84862	6628.05
640.82913	6541.55
644.80683	6298.35
648.78172	6185.45
652.75379	6201.15
656.72306	6372.05
660.68952	6534.45
664.65319	6473.85
668.61405	6334.25
672.57211	6304.15
676.52738	6336.55
680.47986	6264.25
684.42955	6195.05
688.37646	6144.35
692.32058	6142.05
696.26192	6212.95
700.20048	6288.85
704.13626	6321.85
708.06928	6272.35
711.99952	6272.25
715.927	6221.55
719.85171	6247.95
723.77365	6302.45
727.69284	6288.15
731.60928	6273.95
735.52295	6265.85
739.43388	6317.45
743.34206	6309.85
747.24749	6330.95
751.15017	6346.55
755.05012	6391.05
758.94733	6658.35
762.8418	7215.85
766.73354	8128.25
770.62254	8829.45
774.50882	8918.35
778.39237	8557.35
782.27321	7913.35
786.15132	7199.35
790.02671	6726.55
793.89938	6451.25
797.76935	6369.55
801.6366	6316.85
805.50115	6287.95
809.36299	6284.55
813.22213	6294.95
817.07857	6281.95
820.93231	6295.05
824.78336	6302.65
828.63172	6319.35
832.47738	6319.55
836.32036	6354.85
840.16066	6320.65
843.99827	6308.95
847.8332	6324.85
851.66546	6323.85
855.49504	6350.55
859.32195	6370.55
863.1462	6351.05
866.96777	6368.25
870.78668	6350.35
874.60293	6379.65
878.41652	6389.65
882.22745	6463.15
886.03573	6481.15
889.84136	6480.95
893.64433	6490.75
897.44466	6485.75
901.24235	6469.15
905.0374	6468.45
908.8298	6426.15
912.61957	6381.65
916.40671	6367.45
920.19121	6403.05
923.97308	6491.95
927.75233	6506.05
931.52895	6559.75
935.30295	6547.95
939.07433	6441.95
942.84309	6375.35
946.60924	6350.85
950.37278	6315.45
954.13371	6323.55
957.89203	6327.35
961.64774	6334.95
965.40086	6307.45
969.15137	6275.75
972.89929	6312.95
976.64461	6300.35
980.38733	6323.85
984.12747	6340.55
987.86502	6371.55
991.59999	6384.25
995.33237	6471.25
999.06217	6539.55
1002.78939	6622.25
1006.51404	6761.95
1010.23611	6858.55
1013.95561	6936.35
1017.67255	6955.35
1021.38692	6932.15
1025.09872	6880.65
1028.80796	6763.75
1032.51465	6776.45
1036.21877	6754.35
1039.92035	6791.65
1043.61937	6804.45
1047.31584	6858.15
1051.00976	6893.15
1054.70114	6867.65
1058.38998	6886.05
1062.07627	6888.75
1065.76003	6941.85
1069.44126	7014.35
1073.11995	7105.45
1076.79611	7225.05
1080.46974	7352.65
1084.14085	7456.35
1087.80943	7523.25
1091.47549	7567.85
1095.13903	7558.65
1098.80005	7499.45
1102.45857	7393.55
1106.11456	7310.85
1109.76805	7241.55
1113.41903	7287.85
1117.06751	7383.85
1120.71348	7561.05
1124.35696	7802.65
1127.99793	7978.75
1131.63641	7909.25
1135.2724	7641.45
1138.90589	7470.35
1142.5369	7342.65
1146.16542	7291.55
1149.79145	7258.45
1153.415	7180.25
1157.03607	7147.15
1160.65467	7176.25
1164.27079	7301.35
1167.88443	7472.15
1171.49561	7743.85
1175.10432	8183.65
1178.71056	8786.15
1182.31434	9358.35
1185.91565	9559.45
1189.51451	9528.65
1193.11091	9388.85
1196.70485	9292.55
1200.29634	9165.85
1203.88538	8995.85
1207.47197	8720.65
1211.05612	8442.65
1214.63782	8195.15
1218.21708	8021.65
1221.79391	7862.15
1225.36829	7742.95
1228.94024	7677.55
1232.50976	7672.85
1236.07685	7700.45
1239.6415	7723.25
1243.20374	7761.25
1246.76355	7830.95
1250.32093	7905.75
1253.8759	7984.65
1257.42845	8188.05
1260.97859	8354.15
1264.52631	8537.35
1268.07163	8612.95
1271.61453	8685.25
1275.15503	8708.45
1278.69312	8708.45
1282.22882	8780.85
1285.76211	8905.45
1289.29301	9054.65
1292.82151	9261.05
1296.34761	9423.55
1299.87133	9723.75
1303.39266	10236.55
1306.9116	11006.05
1310.42815	11805.85
1313.94233	12089.85
1317.45412	11572.95
1320.96354	10857.95
1324.47058	10193.75
1327.97525	9691.05
1331.47754	9413.75
1334.97747	9366.95
1338.47502	9475.35
1341.97022	9816.05
1345.46305	10373.85
1348.95352	11105.55
1352.44163	11962.85
1355.92738	12801.95
1359.41078	13793.35
1362.89183	14670.65
1366.37053	14116.95
1369.84688	12136.85
1373.32088	10365.95
1376.79254	9442.45
1380.26186	8983.05
1383.72883	8693.25
1387.19347	8433.45
1390.65578	8198.55
1394.11575	8030.15
1397.57339	7914.55
1401.0287	7827.35
1404.48168	7787.65
1407.93234	7824.75
1411.38068	7857.65
1414.82669	7901.25
1418.27039	7970.85
1421.71177	7954.55
1425.15083	7869.85
1428.58758	7791.75
1432.02203	7831.85
1435.45416	7930.55
1438.88399	7934.55
1442.31151	7934.15
1445.73673	8044.05
1449.15965	8094.25
1452.58027	8105.25
1455.9986	8110.55
1459.41463	8117.95
1462.82837	8197.85
1466.23982	8342.65
1469.64898	8524.75
1473.05586	8625.75
1476.46045	8674.15
1479.86276	8736.45
1483.26279	8744.85
1486.66054	8863.95
1490.05602	9004.15
1493.44922	9383.75
1496.84016	9984.75
1500.22882	10902.85
1503.61521	12018.85
1506.99934	13135.75
1510.38121	13845.75
1513.76081	13760.15
1517.13816	12758.05
1520.51324	11355.25
1523.88607	10248.55
1527.25665	9612.15
1530.62498	9282.75
1533.99105	9138.35
1537.35488	9104.35
1540.71647	9071.65
1544.07581	9069.35
1547.4329	8984.45
1550.78776	8880.65
1554.14038	8761.15
1557.49077	8672.95
1560.83892	8678.85
1564.18484	8798.15
1567.52853	9001.15
1570.86999	9188.65
1574.20922	9270.25
1577.54624	9211.45
1580.88103	8864.75
1584.2136	8419.45
1587.54395	8215.75
1590.87208	8213.25
1594.19801	8377.25
1597.52172	8673.35
1600.84321	8845.35
1604.16251	8815.05
1607.47959	8686.85
1610.79447	8511.95
1614.10715	8227.85
1617.41763	7930.85
1620.7259	7668.85
1624.03199	7533.55
1627.33587	7444.65
1630.63757	7495.05
1633.93707	7674.65
1637.23439	8002.45
1640.52951	8546.45
1643.82246	9222.25
1647.11321	10003.65
1650.40179	10418.75
1653.68819	10116.65
1656.97241	9205.85
1660.25446	8224.65
1663.53433	7523.35
1666.81203	7074.45
1670.08756	6825.15
1673.36092	6708.45
1676.63211	6580.15
1679.90115	6539.25
1683.16801	6468.45
1686.43272	6377.55
1689.69527	6336.05
1692.95567	6264.65
1696.2139	6247.05
1699.46999	6206.25
1702.72392	6180.55
1705.97571	6191.45
1709.22535	6185.35
1712.47284	6211.75
1715.71819	6223.25
1718.96139	6212.15
1722.20246	6208.55
1725.44139	6173.95
1728.67818	6151.15
1731.91284	6112.45
1735.14537	6098.45
1738.37576	6069.05
1741.60403	6052.95
1744.83017	6034.35
1748.05418	6035.05
1751.27607	6039.65
1754.49584	6027.35
1757.71349	5965.85
1760.92903	5995.45
1764.14244	5956.25
1767.35375	5945.45
1770.56294	5961.65
1773.77002	5919.65
1776.97499	5943.65
1780.17785	5916.75
1783.37861	5902.95
1786.57727	5913.55
1789.77382	5855.95
1792.96828	5894.25
1796.16064	5898.75
1799.3509	5883.75
1802.53907	5885.45
1805.72514	5853.25
1808.90913	5827.65
1812.09102	5832.45
1815.27083	5830.45
1818.44856	5814.05
1821.6242	5802.75
1824.79776	5789.55
1827.96924	5786.25
1831.13864	5748.15
1834.30597	5758.95
1837.47122	5753.45
1840.6344	5719.55
1843.7955	5704.85
1846.95454	5707.45
1850.11151	5734.95
1853.26642	5692.75
1856.41926	5706.65
1859.57004	5704.75
1862.71876	5695.55
1865.86542	5690.45
1869.01003	5677.25
1872.15258	5665.75
1875.29308	5686.65
1878.43152	5687.05
1881.56792	5646.05
1884.70227	5632.95
1887.83457	5644.85
1890.96482	5608.45
1894.09304	5608.35
1897.21921	5627.65
1900.34335	5615.55
1903.46544	5589.65
1906.58551	5620.75
1909.70353	5591.95
1912.81953	5607.35
1915.93349	5573.05
1919.04543	5565.75
1922.15534	5548.85
1925.26322	5557.15
1928.36908	5532.45
1931.47292	5534.85
1934.57473	5550.05
1937.67453	5510.85
1940.77232	5493.95
1943.86808	5475.75
1946.96184	5474.25
1950.05358	5449.95
1953.14331	5443.15
1956.23103	5431.35
1959.31675	5383.95
1962.40046	5362.45
1965.48217	5364.45
1968.56188	5354.25
1971.63959	5338.35
1974.7153	5335.55
1977.78901	5312.95
1980.86073	5309.25
1983.93046	5260.15
1986.99819	5203.35
1990.06394	5205.95
1993.1277	5236.45
1996.18947	5210.65
1999.24925	5164.25
2002.30706	5163.55
2005.36288	5166.05
2008.41672	5137.45
2011.46859	5107.45
2014.51848	5110.95
2017.56639	5079.85
2020.61233	5069.15
2023.6563	5087.25
2026.6983	5017.25
2029.73833	5039.55
2032.7764	5045.25
2035.8125	4980.95
2038.84664	4985.15
2041.87881	4973.95
2044.90903	4987.15
2047.93729	4969.85
2050.96359	4949.75
2053.98794	4946.05
2057.01034	4952.55
2060.03078	4936.85
2063.04927	4921.55
2066.06582	4932.35
2069.08042	4922.25
2072.09307	4937.05
2075.10378	4924.15
2078.11255	4922.65
2081.11938	4891.55
2084.12426	4901.25
2087.12722	4899.65
2090.12824	4887.45
2093.12732	4897.85
2096.12447	4924.55
2099.11969	4893.25
2102.11299	4889.55
2105.10435	4913.15
2108.09379	4904.45
2111.08131	4895.65
2114.0669	4897.25
2117.05057	4897.55
2120.03233	4877.25
2123.01216	4914.25
2125.99008	4914.65
2128.96609	4918.95
2131.94018	4918.75
2134.91236	4907.85
2137.88263	4927.75
2140.851	4908.15
2143.81746	4931.75
2146.78201	4907.85
2149.74466	4916.55
2152.7054	4916.45
2155.66425	4920.25
2158.6212	4906.95
2161.57625	4889.05
2164.52941	4866.55
2167.48067	4891.55
2170.43004	4879.55
2173.37752	4907.85
2176.32311	4877.85
2179.26681	4896.05
2182.20863	4878.35
2185.14856	4886.35
2188.08661	4871.05
2191.02278	4892.55
2193.95707	4873.05
2196.88948	4851.85
2199.82001	4866.15
2202.74867	4851.75
2205.67545	4852.65
2208.60037	4859.75
2211.52341	4841.45
2214.44458	4829.15
2217.36388	4814.45
2220.28132	4798.05
2223.1969	4787.55
2226.11061	4764.25
2229.02246	4789.25
2231.93245	4786.45
2234.84058	4750.45
2237.74686	4735.55
2240.65128	4728.25
2243.55385	4726.35
2246.45456	4709.45
2249.35343	4745.15
2252.25044	4698.25
2255.14561	4704.05
2258.03893	4711.55
2260.93041	4684.05
2263.82004	4675.45
2266.70783	4679.25
2269.59378	4655.85
2272.4779	4633.25
2275.36017	4643.85
2278.24061	4620.05
2281.11922	4579.25
2283.996	4610.85
2286.87094	4586.25
2289.74405	4587.45
2292.61534	4574.05
2295.4848	4578.05
2298.35243	4570.75
2301.21824	4565.85
2304.08223	4567.55
2306.94439	4553.55
2309.80474	4576.35
2312.66327	4549.65
2315.51999	4538.85
2318.37489	4529.45
2321.22797	4517.45
2324.07925	4518.65
2326.92871	4504.85
2329.77637	4483.15
2332.62222	4469.95
2335.46626	4446.95
2338.3085	4428.25
2341.14893	4470.55
2343.98756	4475.15
2346.8244	4441.35
2349.65943	4432.85
2352.49267	4452.25
2355.32411	4445.05
2358.15376	4429.25
2360.98161	4441.35
2363.80768	4429.25
2366.63195	4433.95
2369.45444	4438.55
2372.27514	4424.25
2375.09405	4431.75
2377.91118	4381.85
2380.72652	4401.45
2383.54009	4378.75
2386.35187	4384.45
2389.16188	4371.05
2391.97011	4354.45
2394.77657	4354.45
2397.58125	4352.55
2400.38416	4327.65
2403.18529	4329.05
2405.98466	4320.55
2408.78226	4307.65
2411.57809	4300.95
2414.37216	4273.45
2417.16446	4292.25
2419.955	4260.95
2422.74378	4285.15
2425.5308	4258.45
2428.31606	4258.35
2431.09956	4262.15
2433.88131	4226.35
2436.6613	4252.35
2439.43954	4234.25
2442.21603	4232.45
2444.99077	4223.85
2447.76377	4234.35
2450.53501	4216.95
2453.30451	4212.55
2456.07226	4214.85
2458.83827	4194.55
2461.60254	4164.05
2464.36507	4197.75
2467.12586	4175.55
2469.88492	4189.85
2472.64224	4169.45
2475.39782	4154.15
2478.15167	4181.25
2480.90379	4183.55
2483.65417	4172.95
2486.40283	4166.35
2489.14976	4177.75
2491.89497	4160.05
2494.63845	4164.75
2497.3802	4151.65
2500.12024	4153.15
2502.85855	4130.15
2505.59514	4137.45
2508.33002	4143.85
2511.06318	4098.05
2513.79462	4119.05
2516.52435	4084.45
2519.25237	4067.85
2521.97867	4086.75
2524.70327	4079.65
2527.42616	4065.85
2530.14734	4093.25
2532.86681	4058.55
2535.58458	4042.95
2538.30065	4045.65
2541.01501	4066.15
2543.72768	4039.75
2546.43864	4043.65
2549.14791	4029.75
2551.85548	3999.95
2554.56136	4008.05
2557.26554	4019.15
2559.96803	4002.75
2562.66883	3988.45
2565.36794	3979.65
2568.06536	3958.35
2570.7611	3968.15
2573.45514	3946.15
2576.14751	3950.15
2578.83819	3918.65
2581.52719	3917.05
2584.21451	3913.75
2586.90015	3901.85
2589.58411	3891.15
2592.2664	3885.55
2594.94701	3882.95
2597.62594	3896.45
2600.30321	3817.45
2602.9788	3834.35
2605.65273	3834.85
2608.32498	3846.75
2610.99557	3848.95
2613.66449	3807.75
2616.33175	3840.95
2618.99734	3825.85
2621.66128	3814.45
2624.32355	3813.05
2626.98416	3797.75
2629.64311	3796.55
2632.30041	3787.95
2634.95605	3765.65
2637.61004	3758.95
2640.26238	3739.15
2642.91306	3744.35
2645.56209	3760.75
2648.20948	3736.55
2650.85521	3748.25
2653.4993	3758.15
2656.14175	3747.55
2658.78255	3735.95
2661.42171	3697.45
2664.05923	3741.05
2666.6951	3754.85
2669.32934	3742.15
2671.96194	3754.95
2674.59291	3729.95
2677.22224	3747.95
2679.84993	3738.85
2682.476	3715.55
2685.10043	3726.75
2687.72324	3714.05
2690.34441	3715.05
2692.96396	3712.15
2695.58188	3718.25
2698.19818	3722.25
2700.81285	3709.85
2703.4259	3709.55
2706.03733	3677.85
2708.64714	3672.15
2711.25533	3706.35
2713.86191	3698.85
2716.46687	3693.05
2719.07021	3691.55
2721.67194	3684.35
2724.27206	3695.35
2726.87057	3690.35
2729.46747	3681.35
2732.06276	3682.45
2734.65644	3663.95
2737.24852	3670.05
2739.83899	3638.75
2742.42786	3664.15
2745.01513	3660.05
2747.60079	3636.55
2750.18486	3631.95
2752.76733	3638.45
2755.3482	3624.25
2757.92747	3630.15
2760.50515	3609.95
2763.08123	3601.15
2765.65573	3594.85
2768.22863	3586.55
2770.79994	3585.35
2773.36967	3579.25
2775.9378	3572.85
2778.50435	3569.45
2781.06932	3552.55
2783.6327	3536.45
2786.1945	3565.85
2788.75471	3542.05
2791.31335	3543.15
2793.87041	3542.85
2796.42589	3521.25
2798.97979	3507.45
2801.53212	3514.95
2804.08288	3526.65
2806.63206	3508.55
2809.17967	3479.75
2811.72571	3484.05
2814.27018	3490.55
2816.81308	3475.85
2819.35442	3431.05
2821.89419	3451.45
2824.43239	3420.75
2826.96904	3452.05
2829.50412	3437.75
2832.03763	3441.75
2834.56959	3419.95
2837.1	3412.25
2839.62884	3420.65
2842.15613	3412.15
2844.68186	3430.75
2847.20604	3384.65
2849.72867	3386.85
2852.24974	3376.65
2854.76927	3356.55
2857.28724	3314.55
2859.80367	3371.45
2862.31855	3383.55
2864.83189	3357.85
2867.34368	3351.45
2869.85393	3355.85
2872.36264	3327.85
2874.8698	3330.45
2877.37543	3346.25
2879.87952	3315.45
2882.38207	3323.05
2884.88308	3322.35
2887.38256	3329.15
2889.88051	3309.85
2892.37692	3323.35
2894.8718	3298.65
2897.36515	3317.75
2899.85698	3317.75
2902.34727	3298.25
2904.83604	3301.55
2907.32328	3320.15
2909.809	3328.05
2912.29319	3309.65
2914.77587	3310.55
2917.25702	3317.45
2919.73665	3317.65
2922.21476	3323.65
2924.69136	3324.95
2927.16644	3308.45
2929.64	3302.75
2932.11205	3285.55
2934.58258	3289.15
2937.05161	3269.15
2939.51912	3284.75
2941.98513	3295.35
2944.44962	3283.75
2946.91261	3247.05
2949.37409	3270.15
2951.83407	3252.95
2954.29254	3262.45
2956.74951	3264.95
2959.20498	3237.65
2961.65895	3231.65
2964.11142	3230.15
2966.56239	3227.65
2969.01186	3230.65
2971.45984	3223.85
2973.90632	3216.65
2976.35131	3209.95
2978.7948	3204.45
2981.23681	3201.45
2983.67732	3197.85
2986.11635	3192.75
2988.55388	3174.75
2990.98993	3174.75
2993.4245	3155.35
2995.85758	3142.55
2998.28917	3140.05
3000.71928	3115.95
3003.14791	3121.85
3005.57506	3116.55
3008.00073	3088.55
3010.42493	3037.85
3012.84764	3084.05
3015.26888	3077.45
3017.68865	3068.95
3020.10694	3026.65
3022.52376	3057.05
3024.9391	3049.45
3027.35298	3030.95
3029.76539	3008.65
3032.17632	3036.55
3034.5858	3009.85
3036.9938	3013.95
3039.40034	2999.75
3041.80542	3004.95
3044.20903	2986.35
3046.61118	2983.25
3049.01187	2981.35
3051.4111	2974.95
3053.80888	2960.95
3056.20519	2951.45
3058.60005	2931.85
3060.99345	2953.55
3063.3854	2916.25
3065.7759	2917.65
3068.16494	2896.25
3070.55254	2882.15
3072.93868	2899.55
3075.32338	2902.45
3077.70662	2885.25
3080.08842	2883.85
3082.46878	2855.95
3084.84769	2880.65
3087.22515	2854.35
3089.60118	2875.95
3091.97576	2848.45
3094.3489	2861.15
3096.72061	2849.45
3099.09087	2839.65
3101.4597	2849.05
3103.82709	2836.95
3106.19305	2818.55
3108.55757	2842.35
3110.92066	2820.35
3113.28232	2823.85
3115.64255	2825.55
3118.00134	2809.35
3120.35871	2787.85
3122.71466	2771.85
3125.06917	2779.05
3127.42226	2767.55
3129.77393	2744.15
3132.12417	2764.55
3134.47299	2768.95
3136.82039	2739.85
3139.16636	2727.85
3141.51092	2755.35
3143.85406	2738.75
3146.19579	2721.25
3148.53609	2722.05
3150.87499	2727.95
3153.21246	2735.65
3155.54853	2749.75
3157.88318	2729.05
3160.21642	2735.05
3162.54826	2740.75
3164.87868	2726.35
3167.2077	2703.95
3169.5353	2713.75
3171.86151	2726.15
3174.18631	2700.95
3176.5097	2691.85
3178.83169	2689.55
3181.15228	2695.65
3183.47147	2674.55
3185.78926	2652.35
3188.10565	2669.85
3190.42065	2649.35
3192.73424	2660.25
3195.04645	2649.95
3197.35725	2628.05
3199.66667	2639.15
3201.97469	2625.55
3204.28132	2623.35
3206.58656	2637.95
3208.8904	2642.85
3211.19287	2633.15
3213.49394	2623.25
3215.79363	2610.15
3218.09193	2631.05
3220.38884	2613.45
3222.68438	2618.15
3224.97853	2607.45
3227.2713	2619.95
3229.56269	2599.15
3231.8527	2591.45
3234.14133	2588.85
3236.42858	2575.95
3238.71446	2559.75
3240.99896	2568.05
3243.28209	2562.45
3245.56384	2557.25
3247.84423	2543.45
3250.12324	2543.55
3252.40088	2537.35
3254.67715	2532.85
3256.95205	2533.75
3259.22558	2534.85
3261.49775	2544.95
3263.76855	2526.25
3266.03799	2542.55
3268.30606	2529.55
3270.57277	2533.95
3272.83812	2504.45
3275.10211	2501.55
3277.36474	2508.95
3279.62601	2506.25
3281.88593	2478.75
3284.14448	2458.15
3286.40168	2492.25
3288.65753	2467.35
3290.91202	2482.65
3293.16516	2449.95
3295.41695	2473.25
3297.66738	2464.65
3299.91647	2441.15
3302.16421	2432.65
3304.4106	2394.35
3306.65564	2415.75
3308.89933	2374.05
3311.14169	2359.85
3313.38269	2347.55
3315.62236	2326.35
3317.86068	2307.35
3320.09766	2303.95
3322.3333	2257.15
3324.5676	2257.95
3326.80056	2226.25
3329.03219	2204.55
3331.26248	0.35
3333.49143	-0.05
3335.71905	0.55
