Data from AgNPs_UA_5uM_CRN_500uM_SU_RamanShift__229__12-07-33-185.txt Node

Date: Thu Aug 04 12:07:33 BST 2022
User: TCL
Spectrometer: QEP01345
Trigger mode: 4
Integration Time (sec): 1.000000E0
Scans to average: 10
Electric dark correction enabled: true
Nonlinearity correction enabled: false
Boxcar width: 0
XAxis mode: Raman Shifts
Number of Pixels in Spectrum: 1044
>>>>>Begin Spectral Data<<<<<
46.04893	0.85
50.45542	-0.35
54.85868	-0.45
59.25871	-1.05
63.6555	-58.35
68.04907	-39.05
72.43941	-72.05
76.82654	-58.15
81.21044	-57.05
85.59113	-51.25
89.96862	-74.75
94.34289	-55.65
98.71396	-80.65
103.08183	-58.65
107.4465	-50.95
111.80798	-56.85
116.16626	-44.55
120.52136	-74.45
124.87327	-49.85
129.222	-64.05
133.56755	-50.45
137.90993	-65.15
142.24913	-53.25
146.58517	-44.25
150.91804	-42.05
155.24774	-31.45
159.57429	-9.65
163.89768	-6.55
168.21792	35.75
172.53501	51.25
176.84895	131.15
181.15975	261.15
185.46741	411.25
189.77193	586.05
194.07331	873.45
198.37157	1153.75
202.6667	1425.15
206.9587	1748.35
211.24758	2051.15
215.53334	2364.65
219.81599	2712.85
224.09553	3110.85
228.37195	3536.15
232.64527	3987.15
236.91549	4450.45
241.18261	4784.15
245.44663	5076.65
249.70755	5246.05
253.96539	5373.35
258.22014	5474.25
262.4718	5529.05
266.72039	5583.15
270.96589	5549.85
275.20832	5450.35
279.44768	5339.05
283.68397	5241.45
287.91719	5180.85
292.14735	5218.15
296.37445	5384.65
300.59849	5673.75
304.81948	6024.65
309.03742	6395.25
313.25231	6631.95
317.46415	6580.75
321.67296	6207.05
325.87872	5792.55
330.08145	5582.15
334.28114	5553.95
338.47781	5613.45
342.67145	5734.55
346.86207	5975.15
351.04966	6325.05
355.23424	6715.95
359.4158	6984.65
363.59435	7001.85
367.76989	6946.55
371.94243	6830.15
376.11196	6707.65
380.27849	6633.45
384.44203	6535.65
388.60257	6529.55
392.76012	6538.05
396.91468	6649.85
401.06626	6796.55
405.21485	6833.75
409.36047	6669.85
413.50311	6351.45
417.64277	6060.55
421.77947	5857.95
425.9132	5794.55
430.04396	5790.45
434.17176	5801.35
438.2966	5898.35
442.41849	5987.85
446.53742	6086.05
450.6534	6218.05
454.76644	6299.05
458.87653	6281.35
462.98368	6233.75
467.08789	6167.45
471.18916	6086.45
475.2875	5961.75
479.38291	5856.45
483.4754	5775.05
487.56496	5731.35
491.6516	5708.35
495.73531	5698.65
499.81612	5735.45
503.89401	5806.35
507.96899	5862.75
512.04106	5950.05
516.11023	6049.65
520.1765	6134.55
524.23987	6161.05
528.30034	6165.95
532.35792	6081.35
536.41261	6034.05
540.46441	5923.85
544.51333	5890.15
548.55936	5929.25
552.60252	6035.75
556.64279	6146.95
560.6802	6269.15
564.71473	6404.45
568.7464	6594.95
572.7752	6577.45
576.80114	6268.35
580.82422	6029.45
584.84444	5932.65
588.86181	5924.55
592.87633	5936.75
596.888	6064.15
600.89682	6430.85
604.9028	7391.25
608.90594	9469.25
612.90624	11800.25
616.90371	10936.35
620.89834	7892.65
624.89015	6557.55
628.87913	6367.35
632.86528	6481.15
636.84862	6663.25
640.82913	6534.25
644.80683	6193.45
648.78172	6009.05
652.75379	6030.25
656.72306	6249.75
660.68952	6496.95
664.65319	6417.45
668.61405	6172.95
672.57211	6103.45
676.52738	6112.95
680.47986	6014.55
684.42955	5939.85
688.37646	5880.35
692.32058	5875.75
696.26192	5939.35
700.20048	6055.85
704.13626	6085.35
708.06928	6047.85
711.99952	6014.05
715.927	5997.35
719.85171	6026.15
723.77365	6104.45
727.69284	6019.15
731.60928	6016.05
735.52295	6011.75
739.43388	6050.05
743.34206	6057.25
747.24749	6087.05
751.15017	6109.45
755.05012	6163.25
758.94733	6539.05
762.8418	7385.05
766.73354	8721.05
770.62254	9732.15
774.50882	9815.25
778.39237	9293.35
782.27321	8363.75
786.15132	7331.75
790.02671	6647.05
793.89938	6261.35
797.76935	6140.75
801.6366	6062.55
805.50115	6007.35
809.36299	6005.35
813.22213	5978.65
817.07857	5981.75
820.93231	5984.45
824.78336	6015.35
828.63172	6045.35
832.47738	6024.45
836.32036	6043.45
840.16066	6003.75
843.99827	5967.65
847.8332	5973.25
851.66546	5990.05
855.49504	5982.65
859.32195	6011.05
863.1462	5998.35
866.96777	6010.35
870.78668	5993.65
874.60293	6013.75
878.41652	6042.75
882.22745	6110.45
886.03573	6146.45
889.84136	6128.55
893.64433	6137.25
897.44466	6130.75
901.24235	6116.25
905.0374	6129.35
908.8298	6048.35
912.61957	6026.65
916.40671	5992.75
920.19121	6046.65
923.97308	6131.15
927.75233	6187.25
931.52895	6228.95
935.30295	6236.15
939.07433	6061.85
942.84309	5953.95
946.60924	5912.15
950.37278	5896.35
954.13371	5883.55
957.89203	5877.55
961.64774	5878.55
965.40086	5879.55
969.15137	5862.55
972.89929	5882.65
976.64461	5861.65
980.38733	5903.85
984.12747	5881.65
987.86502	5896.35
991.59999	5926.65
995.33237	5986.55
999.06217	6063.25
1002.78939	6141.05
1006.51404	6265.75
1010.23611	6395.15
1013.95561	6426.15
1017.67255	6414.45
1021.38692	6397.05
1025.09872	6333.35
1028.80796	6250.55
1032.51465	6271.25
1036.21877	6263.95
1039.92035	6284.45
1043.61937	6309.75
1047.31584	6395.35
1051.00976	6423.45
1054.70114	6417.95
1058.38998	6420.65
1062.07627	6422.05
1065.76003	6441.45
1069.44126	6521.25
1073.11995	6611.15
1076.79611	6734.75
1080.46974	6887.95
1084.14085	7055.65
1087.80943	7176.95
1091.47549	7214.75
1095.13903	7143.15
1098.80005	7006.65
1102.45857	6900.45
1106.11456	6885.95
1109.76805	6817.05
1113.41903	6925.55
1117.06751	7115.05
1120.71348	7368.55
1124.35696	7755.65
1127.99793	8040.65
1131.63641	7871.05
1135.2724	7460.45
1138.90589	7178.55
1142.5369	6967.75
1146.16542	6865.55
1149.79145	6782.05
1153.415	6708.25
1157.03607	6720.85
1160.65467	6820.65
1164.27079	7016.55
1167.88443	7289.85
1171.49561	7700.95
1175.10432	8318.65
1178.71056	9211.15
1182.31434	10016.75
1185.91565	10259.15
1189.51451	10136.45
1193.11091	9872.25
1196.70485	9617.65
1200.29634	9371.45
1203.88538	9096.75
1207.47197	8647.85
1211.05612	8163.75
1214.63782	7763.95
1218.21708	7506.65
1221.79391	7390.75
1225.36829	7287.25
1228.94024	7290.35
1232.50976	7293.35
1236.07685	7326.35
1239.6415	7337.35
1243.20374	7365.85
1246.76355	7406.25
1250.32093	7452.45
1253.8759	7544.55
1257.42845	7723.75
1260.97859	7908.75
1264.52631	8121.75
1268.07163	8320.75
1271.61453	8456.05
1275.15503	8503.55
1278.69312	8496.75
1282.22882	8545.95
1285.76211	8751.45
1289.29301	8981.05
1292.82151	9274.85
1296.34761	9481.75
1299.87133	9887.95
1303.39266	10572.65
1306.9116	11738.05
1310.42815	12960.95
1313.94233	13392.15
1317.45412	12617.05
1320.96354	11492.25
1324.47058	10482.85
1327.97525	9724.15
1331.47754	9294.85
1334.97747	9200.35
1338.47502	9321.35
1341.97022	9671.55
1345.46305	10381.35
1348.95352	11485.65
1352.44163	12803.75
1355.92738	14175.85
1359.41078	15807.15
1362.89183	17361.55
1366.37053	16736.65
1369.84688	13889.45
1373.32088	11211.65
1376.79254	9771.05
1380.26186	9098.35
1383.72883	8688.55
1387.19347	8273.55
1390.65578	7921.95
1394.11575	7656.05
1397.57339	7499.85
1401.0287	7412.45
1404.48168	7374.15
1407.93234	7387.85
1411.38068	7406.75
1414.82669	7467.15
1418.27039	7557.75
1421.71177	7548.45
1425.15083	7453.05
1428.58758	7367.75
1432.02203	7391.85
1435.45416	7467.75
1438.88399	7478.15
1442.31151	7471.25
1445.73673	7524.25
1449.15965	7566.65
1452.58027	7603.25
1455.9986	7574.55
1459.41463	7592.05
1462.82837	7698.75
1466.23982	7891.65
1469.64898	8094.25
1473.05586	8225.75
1476.46045	8341.85
1479.86276	8408.05
1483.26279	8520.45
1486.66054	8691.15
1490.05602	8990.15
1493.44922	9535.25
1496.84016	10410.65
1500.22882	11792.85
1503.61521	13534.85
1506.99934	15351.15
1510.38121	16553.05
1513.76081	16401.95
1517.13816	14849.05
1520.51324	12717.65
1523.88607	10965.85
1527.25665	9986.25
1530.62498	9470.25
1533.99105	9287.55
1537.35488	9165.15
1540.71647	9037.15
1544.07581	8916.65
1547.4329	8787.25
1550.78776	8661.25
1554.14038	8574.15
1557.49077	8517.65
1560.83892	8640.95
1564.18484	8875.45
1567.52853	9203.45
1570.86999	9532.05
1574.20922	9668.65
1577.54624	9589.55
1580.88103	9056.55
1584.2136	8385.55
1587.54395	8006.25
1590.87208	7901.25
1594.19801	8077.05
1597.52172	8446.55
1600.84321	8577.55
1604.16251	8436.15
1607.47959	8233.05
1610.79447	8047.25
1614.10715	7755.85
1617.41763	7483.15
1620.7259	7211.75
1624.03199	7052.15
1627.33587	6988.45
1630.63757	7027.35
1633.93707	7255.15
1637.23439	7677.75
1640.52951	8361.55
1643.82246	9320.25
1647.11321	10506.85
1650.40179	11224.25
1653.68819	10892.45
1656.97241	9655.95
1660.25446	8290.45
1663.53433	7283.25
1666.81203	6666.45
1670.08756	6314.25
1673.36092	6131.35
1676.63211	5992.85
1679.90115	5903.95
1683.16801	5819.65
1686.43272	5743.65
1689.69527	5708.45
1692.95567	5634.85
1696.2139	5623.75
1699.46999	5548.25
1702.72392	5564.15
1705.97571	5578.45
1709.22535	5554.25
1712.47284	5581.65
1715.71819	5592.15
1718.96139	5609.15
1722.20246	5586.35
1725.44139	5528.95
1728.67818	5533.65
1731.91284	5485.15
1735.14537	5459.75
1738.37576	5409.35
1741.60403	5388.75
1744.83017	5357.55
1748.05418	5373.25
1751.27607	5364.65
1754.49584	5326.65
1757.71349	5292.85
1760.92903	5301.45
1764.14244	5259.85
1767.35375	5254.05
1770.56294	5242.15
1773.77002	5223.25
1776.97499	5233.35
1780.17785	5213.65
1783.37861	5218.45
1786.57727	5207.55
1789.77382	5145.65
1792.96828	5184.95
1796.16064	5186.75
1799.3509	5171.05
1802.53907	5176.65
1805.72514	5140.35
1808.90913	5123.95
1812.09102	5130.45
1815.27083	5114.35
1818.44856	5106.35
1821.6242	5083.55
1824.79776	5075.55
1827.96924	5076.85
1831.13864	5036.15
1834.30597	5053.95
1837.47122	5033.85
1840.6344	5020.65
1843.7955	5001.15
1846.95454	4999.45
1850.11151	5018.55
1853.26642	4973.35
1856.41926	4979.75
1859.57004	4988.55
1862.71876	4977.05
1865.86542	4970.75
1869.01003	4980.25
1872.15258	4944.15
1875.29308	4956.35
1878.43152	4970.55
1881.56792	4942.25
1884.70227	4914.75
1887.83457	4923.55
1890.96482	4898.95
1894.09304	4888.05
1897.21921	4894.55
1900.34335	4886.35
1903.46544	4866.55
1906.58551	4878.75
1909.70353	4883.25
1912.81953	4867.95
1915.93349	4855.75
1919.04543	4860.65
1922.15534	4825.95
1925.26322	4827.85
1928.36908	4825.65
1931.47292	4821.45
1934.57473	4816.25
1937.67453	4783.85
1940.77232	4768.35
1943.86808	4758.15
1946.96184	4764.95
1950.05358	4717.25
1953.14331	4694.75
1956.23103	4716.55
1959.31675	4674.05
1962.40046	4643.75
1965.48217	4657.65
1968.56188	4645.95
1971.63959	4629.75
1974.7153	4632.25
1977.78901	4626.45
1980.86073	4600.45
1983.93046	4559.85
1986.99819	4472.05
1990.06394	4515.55
1993.1277	4532.95
1996.18947	4502.65
1999.24925	4478.25
2002.30706	4479.55
2005.36288	4467.85
2008.41672	4428.95
2011.46859	4409.95
2014.51848	4399.95
2017.56639	4399.35
2020.61233	4372.35
2023.6563	4379.95
2026.6983	4334.35
2029.73833	4336.25
2032.7764	4328.05
2035.8125	4301.05
2038.84664	4321.45
2041.87881	4281.85
2044.90903	4298.15
2047.93729	4280.85
2050.96359	4258.55
2053.98794	4269.55
2057.01034	4272.65
2060.03078	4234.15
2063.04927	4238.85
2066.06582	4234.25
2069.08042	4226.65
2072.09307	4233.45
2075.10378	4232.65
2078.11255	4236.25
2081.11938	4219.65
2084.12426	4201.15
2087.12722	4196.85
2090.12824	4206.75
2093.12732	4213.95
2096.12447	4210.95
2099.11969	4213.05
2102.11299	4195.25
2105.10435	4221.05
2108.09379	4213.75
2111.08131	4201.95
2114.0669	4203.75
2117.05057	4191.15
2120.03233	4203.95
2123.01216	4222.25
2125.99008	4204.25
2128.96609	4208.85
2131.94018	4216.35
2134.91236	4215.15
2137.88263	4207.15
2140.851	4212.05
2143.81746	4245.05
2146.78201	4229.85
2149.74466	4220.85
2152.7054	4227.15
2155.66425	4200.45
2158.6212	4194.05
2161.57625	4178.95
2164.52941	4152.05
2167.48067	4161.95
2170.43004	4154.85
2173.37752	4179.55
2176.32311	4173.85
2179.26681	4167.45
2182.20863	4175.25
2185.14856	4169.35
2188.08661	4163.75
2191.02278	4174.75
2193.95707	4149.65
2196.88948	4138.85
2199.82001	4136.85
2202.74867	4142.25
2205.67545	4140.05
2208.60037	4141.25
2211.52341	4140.45
2214.44458	4109.35
2217.36388	4117.35
2220.28132	4075.65
2223.1969	4061.15
2226.11061	4073.65
2229.02246	4051.25
2231.93245	4059.45
2234.84058	4027.25
2237.74686	4026.15
2240.65128	4026.65
2243.55385	4036.25
2246.45456	3998.25
2249.35343	4019.65
2252.25044	3998.25
2255.14561	4009.85
2258.03893	3995.55
2260.93041	3991.75
2263.82004	3985.65
2266.70783	3988.45
2269.59378	3958.05
2272.4779	3950.15
2275.36017	3957.15
2278.24061	3938.15
2281.11922	3908.55
2283.996	3923.75
2286.87094	3906.45
2289.74405	3895.75
2292.61534	3892.45
2295.4848	3896.35
2298.35243	3878.05
2301.21824	3876.45
2304.08223	3867.45
2306.94439	3871.95
2309.80474	3868.25
2312.66327	3862.55
2315.51999	3848.75
2318.37489	3832.15
2321.22797	3818.55
2324.07925	3820.15
2326.92871	3807.95
2329.77637	3798.45
2332.62222	3780.65
2335.46626	3775.45
2338.3085	3778.25
2341.14893	3780.85
2343.98756	3776.05
2346.8244	3765.55
2349.65943	3746.75
2352.49267	3762.95
2355.32411	3761.55
2358.15376	3758.95
2360.98161	3760.35
2363.80768	3746.05
2366.63195	3742.95
2369.45444	3763.55
2372.27514	3763.95
2375.09405	3762.05
2377.91118	3723.25
2380.72652	3735.55
2383.54009	3719.35
2386.35187	3723.05
2389.16188	3708.45
2391.97011	3681.15
2394.77657	3685.65
2397.58125	3684.65
2400.38416	3677.35
2403.18529	3648.75
2405.98466	3632.65
2408.78226	3625.95
2411.57809	3643.65
2414.37216	3624.95
2417.16446	3632.25
2419.955	3593.75
2422.74378	3622.05
2425.5308	3599.65
2428.31606	3598.65
2431.09956	3603.15
2433.88131	3564.55
2436.6613	3592.05
2439.43954	3572.95
2442.21603	3571.05
2444.99077	3555.75
2447.76377	3584.15
2450.53501	3566.05
2453.30451	3563.65
2456.07226	3568.95
2458.83827	3547.95
2461.60254	3510.55
2464.36507	3547.55
2467.12586	3524.55
2469.88492	3526.05
2472.64224	3531.25
2475.39782	3521.85
2478.15167	3530.05
2480.90379	3533.25
2483.65417	3532.85
2486.40283	3532.55
2489.14976	3536.55
2491.89497	3533.95
2494.63845	3533.85
2497.3802	3502.15
2500.12024	3516.95
2502.85855	3502.45
2505.59514	3509.95
2508.33002	3485.85
2511.06318	3467.85
2513.79462	3485.35
2516.52435	3439.15
2519.25237	3420.95
2521.97867	3426.25
2524.70327	3421.35
2527.42616	3430.25
2530.14734	3427.95
2532.86681	3413.05
2535.58458	3417.75
2538.30065	3399.15
2541.01501	3419.35
2543.72768	3386.45
2546.43864	3395.85
2549.14791	3385.85
2551.85548	3363.35
2554.56136	3362.15
2557.26554	3367.95
2559.96803	3362.65
2562.66883	3353.65
2565.36794	3346.35
2568.06536	3299.55
2570.7611	3335.15
2573.45514	3313.35
2576.14751	3318.35
2578.83819	3289.05
2581.52719	3278.55
2584.21451	3294.75
2586.90015	3276.85
2589.58411	3264.35
2592.2664	3267.25
2594.94701	3272.25
2597.62594	3267.15
2600.30321	3202.35
2602.9788	3211.95
2605.65273	3205.95
2608.32498	3203.95
2610.99557	3255.85
2613.66449	3209.95
2616.33175	3208.95
2618.99734	3211.25
2621.66128	3216.95
2624.32355	3197.65
2626.98416	3185.95
2629.64311	3175.75
2632.30041	3173.15
2634.95605	3157.15
2637.61004	3150.95
2640.26238	3124.15
2642.91306	3125.35
2645.56209	3144.85
2648.20948	3124.15
2650.85521	3116.55
2653.4993	3140.85
2656.14175	3137.95
2658.78255	3120.15
2661.42171	3096.55
2664.05923	3135.75
2666.6951	3138.75
2669.32934	3143.55
2671.96194	3149.35
2674.59291	3132.05
2677.22224	3137.35
2679.84993	3126.65
2682.476	3131.35
2685.10043	3111.65
2687.72324	3104.15
2690.34441	3104.95
2692.96396	3103.45
2695.58188	3119.25
2698.19818	3104.65
2700.81285	3104.15
2703.4259	3082.85
2706.03733	3060.05
2708.64714	3075.45
2711.25533	3095.05
2713.86191	3096.45
2716.46687	3102.85
2719.07021	3091.85
2721.67194	3095.25
2724.27206	3109.65
2726.87057	3087.45
2729.46747	3065.35
2732.06276	3078.35
2734.65644	3071.55
2737.24852	3066.85
2739.83899	3033.45
2742.42786	3050.45
2745.01513	3071.95
2747.60079	3050.95
2750.18486	3036.55
2752.76733	3029.45
2755.3482	3033.65
2757.92747	3028.45
2760.50515	3007.75
2763.08123	3008.35
2765.65573	3004.45
2768.22863	2988.95
2770.79994	2982.05
2773.36967	2984.95
2775.9378	2972.35
2778.50435	2965.35
2781.06932	2960.25
2783.6327	2952.95
2786.1945	2980.25
2788.75471	2958.75
2791.31335	2960.75
2793.87041	2955.75
2796.42589	2942.45
2798.97979	2935.45
2801.53212	2925.95
2804.08288	2931.95
2806.63206	2900.25
2809.17967	2888.25
2811.72571	2907.25
2814.27018	2902.55
2816.81308	2902.95
2819.35442	2853.45
2821.89419	2877.55
2824.43239	2868.05
2826.96904	2894.95
2829.50412	2864.55
2832.03763	2868.65
2834.56959	2879.15
2837.1	2870.15
2839.62884	2865.95
2842.15613	2834.85
2844.68186	2872.65
2847.20604	2837.65
2849.72867	2826.65
2852.24974	2837.25
2854.76927	2809.65
2857.28724	2768.55
2859.80367	2830.35
2862.31855	2832.65
2864.83189	2811.85
2867.34368	2825.75
2869.85393	2833.75
2872.36264	2794.05
2874.8698	2809.45
2877.37543	2821.55
2879.87952	2808.55
2882.38207	2782.15
2884.88308	2781.45
2887.38256	2791.15
2889.88051	2794.55
2892.37692	2786.85
2894.8718	2768.75
2897.36515	2789.35
2899.85698	2788.45
2902.34727	2780.25
2904.83604	2780.45
2907.32328	2797.45
2909.809	2788.25
2912.29319	2795.05
2914.77587	2802.35
2917.25702	2801.65
2919.73665	2810.95
2922.21476	2801.25
2924.69136	2811.05
2927.16644	2795.65
2929.64	2786.45
2932.11205	2766.75
2934.58258	2776.85
2937.05161	2768.75
2939.51912	2762.95
2941.98513	2780.55
2944.44962	2758.45
2946.91261	2732.35
2949.37409	2736.35
2951.83407	2735.65
2954.29254	2728.85
2956.74951	2736.65
2959.20498	2703.35
2961.65895	2718.95
2964.11142	2706.55
2966.56239	2700.75
2969.01186	2706.65
2971.45984	2696.95
2973.90632	2682.05
2976.35131	2707.85
2978.7948	2694.75
2981.23681	2678.15
2983.67732	2688.95
2986.11635	2674.15
2988.55388	2641.55
2990.98993	2662.75
2993.4245	2636.95
2995.85758	2637.15
2998.28917	2615.85
3000.71928	2618.15
3003.14791	2621.45
3005.57506	2598.95
3008.00073	2585.15
3010.42493	2527.35
3012.84764	2594.95
3015.26888	2582.85
3017.68865	2569.35
3020.10694	2521.05
3022.52376	2548.85
3024.9391	2554.75
3027.35298	2530.35
3029.76539	2510.45
3032.17632	2534.05
3034.5858	2507.45
3036.9938	2519.45
3039.40034	2504.05
3041.80542	2498.95
3044.20903	2490.55
3046.61118	2473.45
3049.01187	2494.45
3051.4111	2476.15
3053.80888	2476.75
3056.20519	2467.65
3058.60005	2450.15
3060.99345	2484.15
3063.3854	2448.95
3065.7759	2426.75
3068.16494	2426.55
3070.55254	2409.25
3072.93868	2422.45
3075.32338	2417.65
3077.70662	2406.25
3080.08842	2404.45
3082.46878	2383.35
3084.84769	2400.35
3087.22515	2381.35
3089.60118	2396.05
3091.97576	2371.65
3094.3489	2378.95
3096.72061	2378.55
3099.09087	2365.55
3101.4597	2371.95
3103.82709	2371.55
3106.19305	2357.15
3108.55757	2363.75
3110.92066	2350.65
3113.28232	2360.55
3115.64255	2353.75
3118.00134	2341.15
3120.35871	2327.55
3122.71466	2298.95
3125.06917	2318.25
3127.42226	2310.65
3129.77393	2301.25
3132.12417	2316.05
3134.47299	2307.45
3136.82039	2298.75
3139.16636	2262.95
3141.51092	2286.35
3143.85406	2292.35
3146.19579	2276.15
3148.53609	2266.95
3150.87499	2280.15
3153.21246	2261.85
3155.54853	2280.85
3157.88318	2283.25
3160.21642	2279.15
3162.54826	2273.15
3164.87868	2272.75
3167.2077	2241.05
3169.5353	2254.55
3171.86151	2265.35
3174.18631	2255.35
3176.5097	2246.85
3178.83169	2257.45
3181.15228	2245.95
3183.47147	2218.85
3185.78926	2202.75
3188.10565	2209.05
3190.42065	2191.15
3192.73424	2208.55
3195.04645	2199.05
3197.35725	2188.45
3199.66667	2197.25
3201.97469	2198.35
3204.28132	2178.45
3206.58656	2193.35
3208.8904	2191.05
3211.19287	2194.55
3213.49394	2182.85
3215.79363	2173.85
3218.09193	2187.25
3220.38884	2173.55
3222.68438	2171.55
3224.97853	2147.25
3227.2713	2183.45
3229.56269	2160.25
3231.8527	2159.55
3234.14133	2153.85
3236.42858	2155.55
3238.71446	2123.75
3240.99896	2137.85
3243.28209	2124.55
3245.56384	2144.25
3247.84423	2116.15
3250.12324	2124.95
3252.40088	2114.35
3254.67715	2112.45
3256.95205	2093.15
3259.22558	2118.25
3261.49775	2106.45
3263.76855	2103.45
3266.03799	2106.45
3268.30606	2103.65
3270.57277	2097.15
3272.83812	2086.35
3275.10211	2086.15
3277.36474	2097.05
3279.62601	2095.45
3281.88593	2064.15
3284.14448	2040.75
3286.40168	2067.05
3288.65753	2050.15
3290.91202	2044.45
3293.16516	2031.65
3295.41695	2055.65
3297.66738	2058.25
3299.91647	2027.85
3302.16421	2036.25
3304.4106	1993.35
3306.65564	2020.15
3308.89933	1978.45
3311.14169	1967.75
3313.38269	1961.35
3315.62236	1941.55
3317.86068	1927.15
3320.09766	1921.75
3322.3333	1889.25
3324.5676	1885.95
3326.80056	1866.15
3329.03219	1846.45
3331.26248	-0.15
3333.49143	-1.05
3335.71905	1.75
