Data from AgNPs_UA_10uM_CRN_500uM_SU_RamanShift__142__13-29-00-282.txt Node

Date: Thu Aug 04 13:29:00 BST 2022
User: TCL
Spectrometer: QEP01345
Trigger mode: 4
Integration Time (sec): 1.000000E0
Scans to average: 10
Electric dark correction enabled: true
Nonlinearity correction enabled: false
Boxcar width: 0
XAxis mode: Raman Shifts
Number of Pixels in Spectrum: 1044
>>>>>Begin Spectral Data<<<<<
46.04893	0.45
50.45542	0.05
54.85868	0.75
59.25871	-0.45
63.6555	18.05
68.04907	19.75
72.43941	20.75
76.82654	21.45
81.21044	22.45
85.59113	24.95
89.96862	23.55
94.34289	24.25
98.71396	25.25
103.08183	26.85
107.4465	27.85
111.80798	25.65
116.16626	28.75
120.52136	32.45
124.87327	34.15
129.222	35.25
133.56755	34.15
137.90993	37.55
142.24913	44.95
146.58517	48.65
150.91804	58.45
155.24774	72.55
159.57429	89.05
163.89768	118.05
168.21792	155.95
172.53501	214.45
176.84895	305.35
181.15975	426.35
185.46741	597.85
189.77193	827.45
194.07331	1119.95
198.37157	1434.45
202.6667	1774.65
206.9587	2100.65
211.24758	2438.25
215.53334	2760.25
219.81599	3117.45
224.09553	3517.45
228.37195	3950.75
232.64527	4428.35
236.91549	4904.25
241.18261	5363.25
245.44663	5761.65
249.70755	6065.25
253.96539	6339.35
258.22014	6588.95
262.4718	6804.85
266.72039	6941.15
270.96589	7027.85
275.20832	6973.05
279.44768	6924.95
283.68397	6800.85
287.91719	6719.75
292.14735	6719.65
296.37445	6786.95
300.59849	6937.35
304.81948	7153.05
309.03742	7291.95
313.25231	7338.25
317.46415	7263.15
321.67296	7039.35
325.87872	6834.75
330.08145	6738.55
334.28114	6755.15
338.47781	6837.75
342.67145	6983.85
346.86207	7151.75
351.04966	7405.85
355.23424	7667.75
359.4158	7870.75
363.59435	8004.95
367.76989	8088.15
371.94243	8115.15
376.11196	8157.45
380.27849	8181.15
384.44203	8217.75
388.60257	8247.35
392.76012	8311.65
396.91468	8410.25
401.06626	8554.55
405.21485	8627.35
409.36047	8539.85
413.50311	8322.75
417.64277	8099.35
421.77947	7973.55
425.9132	7955.65
430.04396	7970.35
434.17176	8059.75
438.2966	8228.75
442.41849	8437.95
446.53742	8722.35
450.6534	8980.85
454.76644	9113.75
458.87653	9162.25
462.98368	9051.05
467.08789	8882.35
471.18916	8662.75
475.2875	8446.25
479.38291	8242.85
483.4754	8139.65
487.56496	8010.75
491.6516	7983.15
495.73531	7961.65
499.81612	7972.95
503.89401	8026.35
507.96899	8044.95
512.04106	8131.35
516.11023	8176.05
520.1765	8241.15
524.23987	8280.95
528.30034	8283.25
532.35792	8239.75
536.41261	8122.55
540.46441	8023.35
544.51333	7980.55
548.55936	8073.65
552.60252	8187.15
556.64279	8318.25
560.6802	8401.65
564.71473	8415.35
568.7464	8484.35
572.7752	8508.45
576.80114	8399.45
580.82422	8324.65
584.84444	8375.75
588.86181	8569.45
592.87633	8744.75
596.888	8948.65
600.89682	9281.45
604.9028	10148.45
608.90594	11983.65
612.90624	13575.65
616.90371	12450.85
620.89834	10051.75
624.89015	9156.45
628.87913	9104.75
632.86528	9058.35
636.84862	8915.55
640.82913	8673.05
644.80683	8334.95
648.78172	8172.75
652.75379	8221.55
656.72306	8490.85
660.68952	8715.55
664.65319	8665.95
668.61405	8565.65
672.57211	8573.85
676.52738	8563.15
680.47986	8430.65
684.42955	8284.95
688.37646	8305.45
692.32058	8377.55
696.26192	8528.35
700.20048	8661.55
704.13626	8666.05
708.06928	8540.35
711.99952	8451.45
715.927	8474.75
719.85171	8525.75
723.77365	8522.45
727.69284	8394.95
731.60928	8368.25
735.52295	8385.85
739.43388	8448.55
743.34206	8509.15
747.24749	8539.25
751.15017	8583.95
755.05012	8673.05
758.94733	8971.25
762.8418	9607.15
766.73354	10573.45
770.62254	11401.85
774.50882	11664.95
778.39237	11217.45
782.27321	10341.35
786.15132	9543.95
790.02671	8999.35
793.89938	8764.35
797.76935	8651.55
801.6366	8607.85
805.50115	8562.05
809.36299	8522.05
813.22213	8486.85
817.07857	8465.25
820.93231	8481.65
824.78336	8452.45
828.63172	8499.55
832.47738	8485.65
836.32036	8529.45
840.16066	8580.55
843.99827	8599.15
847.8332	8587.05
851.66546	8555.05
855.49504	8553.05
859.32195	8557.15
863.1462	8508.55
866.96777	8485.05
870.78668	8475.65
874.60293	8499.55
878.41652	8517.25
882.22745	8587.05
886.03573	8650.95
889.84136	8654.05
893.64433	8593.45
897.44466	8565.15
901.24235	8551.95
905.0374	8517.15
908.8298	8497.05
912.61957	8503.75
916.40671	8539.15
920.19121	8645.65
923.97308	8733.15
927.75233	8851.45
931.52895	8914.95
935.30295	8843.95
939.07433	8670.75
942.84309	8551.75
946.60924	8539.75
950.37278	8501.75
954.13371	8439.15
957.89203	8396.25
961.64774	8366.45
965.40086	8353.85
969.15137	8342.55
972.89929	8331.55
976.64461	8347.65
980.38733	8367.25
984.12747	8408.05
987.86502	8475.25
991.59999	8596.25
995.33237	8794.05
999.06217	9108.65
1002.78939	9446.45
1006.51404	9588.95
1010.23611	9616.45
1013.95561	9726.95
1017.67255	9814.05
1021.38692	9837.25
1025.09872	9864.25
1028.80796	10029.05
1032.51465	10356.45
1036.21877	10545.15
1039.92035	10514.15
1043.61937	10285.35
1047.31584	9984.65
1051.00976	9678.35
1054.70114	9557.55
1058.38998	9538.45
1062.07627	9538.55
1065.76003	9529.45
1069.44126	9528.85
1073.11995	9619.55
1076.79611	9746.75
1080.46974	9855.45
1084.14085	9982.85
1087.80943	10074.05
1091.47549	10049.65
1095.13903	9926.05
1098.80005	9811.35
1102.45857	9782.15
1106.11456	9776.95
1109.76805	9775.95
1113.41903	9843.85
1117.06751	10005.15
1120.71348	10149.15
1124.35696	10352.35
1127.99793	10413.95
1131.63641	10319.55
1135.2724	10067.75
1138.90589	9875.25
1142.5369	9691.65
1146.16542	9595.45
1149.79145	9520.95
1153.415	9533.45
1157.03607	9546.15
1160.65467	9690.25
1164.27079	9933.85
1167.88443	10338.85
1171.49561	10901.15
1175.10432	11748.95
1178.71056	12833.05
1182.31434	13847.35
1185.91565	14336.45
1189.51451	14279.75
1193.11091	13819.05
1196.70485	13141.35
1200.29634	12567.75
1203.88538	12028.25
1207.47197	11516.65
1211.05612	11114.95
1214.63782	10901.45
1218.21708	10826.35
1221.79391	10907.65
1225.36829	11010.25
1228.94024	10950.95
1232.50976	10811.45
1236.07685	10681.75
1239.6415	10683.05
1243.20374	10721.05
1246.76355	10781.35
1250.32093	10944.45
1253.8759	11173.05
1257.42845	11500.85
1260.97859	11839.55
1264.52631	12110.85
1268.07163	12395.15
1271.61453	12658.15
1275.15503	12878.75
1278.69312	13130.35
1282.22882	13376.55
1285.76211	13556.15
1289.29301	13712.75
1292.82151	13926.65
1296.34761	14231.55
1299.87133	14799.75
1303.39266	15756.05
1306.9116	17102.95
1310.42815	18487.95
1313.94233	19176.95
1317.45412	18719.75
1320.96354	17718.95
1324.47058	16612.65
1327.97525	15741.05
1331.47754	15336.25
1334.97747	15273.95
1338.47502	15497.55
1341.97022	15948.45
1345.46305	16504.65
1348.95352	17158.05
1352.44163	17935.25
1355.92738	18924.05
1359.41078	20235.25
1362.89183	20993.35
1366.37053	19902.35
1369.84688	17422.15
1373.32088	15257.35
1376.79254	13973.45
1380.26186	13353.15
1383.72883	13025.45
1387.19347	12745.45
1390.65578	12349.05
1394.11575	12065.15
1397.57339	11922.35
1401.0287	11974.65
1404.48168	12095.15
1407.93234	12283.35
1411.38068	12519.65
1414.82669	12639.25
1418.27039	12558.95
1421.71177	12400.45
1425.15083	12258.15
1428.58758	12294.25
1432.02203	12464.05
1435.45416	12637.45
1438.88399	12694.65
1442.31151	12626.55
1445.73673	12593.95
1449.15965	12535.65
1452.58027	12422.55
1455.9986	12321.85
1459.41463	12290.85
1462.82837	12394.95
1466.23982	12659.75
1469.64898	12870.75
1473.05586	13042.35
1476.46045	13183.75
1479.86276	13333.35
1483.26279	13458.35
1486.66054	13614.55
1490.05602	13823.05
1493.44922	14235.15
1496.84016	14765.85
1500.22882	15567.45
1503.61521	16587.35
1506.99934	17542.75
1510.38121	18089.45
1513.76081	17834.75
1517.13816	16751.45
1520.51324	15442.25
1523.88607	14441.85
1527.25665	13820.55
1530.62498	13544.55
1533.99105	13427.25
1537.35488	13336.95
1540.71647	13267.55
1544.07581	13165.25
1547.4329	13103.25
1550.78776	12876.45
1554.14038	12692.25
1557.49077	12616.75
1560.83892	12652.95
1564.18484	12758.35
1567.52853	12912.85
1570.86999	12966.35
1574.20922	12931.15
1577.54624	12743.35
1580.88103	12386.85
1584.2136	12028.55
1587.54395	12032.75
1590.87208	12508.45
1594.19801	13370.85
1597.52172	14433.45
1600.84321	15003.05
1604.16251	14782.35
1607.47959	14077.05
1610.79447	13111.05
1614.10715	12168.15
1617.41763	11365.55
1620.7259	10829.15
1624.03199	10568.35
1627.33587	10591.75
1630.63757	10896.85
1633.93707	11487.75
1637.23439	12392.45
1640.52951	13481.65
1643.82246	14684.85
1647.11321	15537.25
1650.40179	15459.85
1653.68819	14286.75
1656.97241	12530.75
1660.25446	11093.85
1663.53433	10096.25
1666.81203	9523.55
1670.08756	9169.75
1673.36092	8933.15
1676.63211	8782.75
1679.90115	8662.65
1683.16801	8556.75
1686.43272	8498.15
1689.69527	8421.85
1692.95567	8409.75
1696.2139	8374.35
1699.46999	8370.35
1702.72392	8342.55
1705.97571	8318.65
1709.22535	8323.35
1712.47284	8314.45
1715.71819	8320.95
1718.96139	8312.65
1722.20246	8289.45
1725.44139	8252.05
1728.67818	8223.55
1731.91284	8184.45
1735.14537	8135.45
1738.37576	8106.35
1741.60403	8088.05
1744.83017	8066.55
1748.05418	8067.35
1751.27607	8046.05
1754.49584	8024.45
1757.71349	8026.95
1760.92903	8005.45
1764.14244	8011.35
1767.35375	7966.75
1770.56294	7966.25
1773.77002	7968.95
1776.97499	7951.25
1780.17785	7928.75
1783.37861	7911.25
1786.57727	7921.25
1789.77382	7919.15
1792.96828	7886.15
1796.16064	7885.45
1799.3509	7887.25
1802.53907	7893.05
1805.72514	7868.75
1808.90913	7841.35
1812.09102	7831.15
1815.27083	7804.75
1818.44856	7767.45
1821.6242	7756.35
1824.79776	7748.15
1827.96924	7746.65
1831.13864	7736.45
1834.30597	7742.65
1837.47122	7715.35
1840.6344	7705.45
1843.7955	7716.45
1846.95454	7717.75
1850.11151	7693.35
1853.26642	7701.35
1856.41926	7718.35
1859.57004	7697.45
1862.71876	7698.25
1865.86542	7724.25
1869.01003	7696.35
1872.15258	7670.05
1875.29308	7669.25
1878.43152	7680.65
1881.56792	7676.85
1884.70227	7660.25
1887.83457	7610.65
1890.96482	7621.85
1894.09304	7622.65
1897.21921	7619.45
1900.34335	7616.35
1903.46544	7598.05
1906.58551	7597.25
1909.70353	7586.75
1912.81953	7585.15
1915.93349	7606.95
1919.04543	7586.75
1922.15534	7551.85
1925.26322	7544.05
1928.36908	7535.95
1931.47292	7523.65
1934.57473	7527.75
1937.67453	7499.15
1940.77232	7479.35
1943.86808	7466.45
1946.96184	7436.95
1950.05358	7418.95
1953.14331	7410.35
1956.23103	7403.65
1959.31675	7343.95
1962.40046	7353.25
1965.48217	7317.45
1968.56188	7293.45
1971.63959	7270.95
1974.7153	7280.95
1977.78901	7254.25
1980.86073	7244.65
1983.93046	7187.65
1986.99819	7181.15
1990.06394	7180.35
1993.1277	7140.45
1996.18947	7108.85
1999.24925	7097.05
2002.30706	7060.75
2005.36288	7046.55
2008.41672	7038.65
2011.46859	7009.65
2014.51848	6988.95
2017.56639	6967.45
2020.61233	6939.45
2023.6563	6931.35
2026.6983	6905.45
2029.73833	6900.85
2032.7764	6885.85
2035.8125	6891.45
2038.84664	6884.55
2041.87881	6842.75
2044.90903	6854.05
2047.93729	6831.25
2050.96359	6836.95
2053.98794	6812.05
2057.01034	6811.55
2060.03078	6813.55
2063.04927	6800.85
2066.06582	6773.45
2069.08042	6809.35
2072.09307	6768.45
2075.10378	6761.05
2078.11255	6785.55
2081.11938	6763.05
2084.12426	6731.55
2087.12722	6754.65
2090.12824	6751.35
2093.12732	6752.95
2096.12447	6752.55
2099.11969	6749.55
2102.11299	6788.15
2105.10435	6747.25
2108.09379	6770.35
2111.08131	6749.85
2114.0669	6763.45
2117.05057	6774.45
2120.03233	6775.45
2123.01216	6764.55
2125.99008	6780.35
2128.96609	6771.75
2131.94018	6792.55
2134.91236	6785.55
2137.88263	6771.45
2140.851	6773.55
2143.81746	6773.55
2146.78201	6791.85
2149.74466	6779.45
2152.7054	6791.95
2155.66425	6782.75
2158.6212	6771.45
2161.57625	6758.95
2164.52941	6788.05
2167.48067	6777.65
2170.43004	6773.15
2173.37752	6753.75
2176.32311	6752.35
2179.26681	6766.45
2182.20863	6782.55
2185.14856	6795.65
2188.08661	6778.55
2191.02278	6781.95
2193.95707	6777.05
2196.88948	6772.35
2199.82001	6771.65
2202.74867	6761.25
2205.67545	6784.95
2208.60037	6777.25
2211.52341	6747.45
2214.44458	6757.85
2217.36388	6728.55
2220.28132	6748.95
2223.1969	6717.65
2226.11061	6700.35
2229.02246	6691.35
2231.93245	6703.95
2234.84058	6668.65
2237.74686	6626.95
2240.65128	6632.35
2243.55385	6627.75
2246.45456	6627.65
2249.35343	6615.95
2252.25044	6589.85
2255.14561	6577.55
2258.03893	6600.05
2260.93041	6598.45
2263.82004	6596.05
2266.70783	6545.55
2269.59378	6539.35
2272.4779	6512.05
2275.36017	6495.15
2278.24061	6482.45
2281.11922	6467.05
2283.996	6477.05
2286.87094	6454.45
2289.74405	6450.95
2292.61534	6448.35
2295.4848	6434.65
2298.35243	6441.35
2301.21824	6431.75
2304.08223	6424.55
2306.94439	6450.25
2309.80474	6447.65
2312.66327	6469.15
2315.51999	6427.25
2318.37489	6429.35
2321.22797	6443.05
2324.07925	6436.55
2326.92871	6431.55
2329.77637	6425.45
2332.62222	6408.75
2335.46626	6414.85
2338.3085	6412.35
2341.14893	6406.75
2343.98756	6429.05
2346.8244	6446.35
2349.65943	6434.35
2352.49267	6420.25
2355.32411	6404.05
2358.15376	6401.65
2360.98161	6405.45
2363.80768	6403.95
2366.63195	6383.75
2369.45444	6386.45
2372.27514	6365.35
2375.09405	6340.45
2377.91118	6342.75
2380.72652	6310.55
2383.54009	6305.85
2386.35187	6290.85
2389.16188	6279.15
2391.97011	6267.95
2394.77657	6254.35
2397.58125	6259.75
2400.38416	6240.95
2403.18529	6217.55
2405.98466	6225.25
2408.78226	6189.45
2411.57809	6186.25
2414.37216	6160.15
2417.16446	6149.15
2419.955	6134.75
2422.74378	6132.75
2425.5308	6149.15
2428.31606	6148.15
2431.09956	6132.25
2433.88131	6108.35
2436.6613	6122.85
2439.43954	6116.05
2442.21603	6114.65
2444.99077	6122.95
2447.76377	6124.75
2450.53501	6112.35
2453.30451	6106.75
2456.07226	6102.45
2458.83827	6089.15
2461.60254	6089.45
2464.36507	6064.55
2467.12586	6067.45
2469.88492	6060.85
2472.64224	6083.15
2475.39782	6079.45
2478.15167	6075.15
2480.90379	6071.35
2483.65417	6057.05
2486.40283	6065.75
2489.14976	6076.65
2491.89497	6088.95
2494.63845	6081.65
2497.3802	6082.15
2500.12024	6083.25
2502.85855	6065.45
2505.59514	6069.75
2508.33002	6071.35
2511.06318	6030.85
2513.79462	6049.95
2516.52435	6031.35
2519.25237	5993.35
2521.97867	6032.15
2524.70327	6022.05
2527.42616	5987.45
2530.14734	5992.45
2532.86681	5987.55
2535.58458	6012.95
2538.30065	6007.95
2541.01501	6006.15
2543.72768	5996.65
2546.43864	5981.65
2549.14791	5978.75
2551.85548	5976.75
2554.56136	5971.15
2557.26554	5959.55
2559.96803	5954.45
2562.66883	5941.75
2565.36794	5911.65
2568.06536	5902.75
2570.7611	5914.85
2573.45514	5887.35
2576.14751	5890.35
2578.83819	5871.35
2581.52719	5884.35
2584.21451	5877.85
2586.90015	5884.05
2589.58411	5894.75
2592.2664	5863.15
2594.94701	5861.65
2597.62594	5864.65
2600.30321	5858.15
2602.9788	5863.75
2605.65273	5857.85
2608.32498	5861.05
2610.99557	5856.05
2613.66449	5839.65
2616.33175	5854.15
2618.99734	5855.45
2621.66128	5840.15
2624.32355	5831.65
2626.98416	5840.55
2629.64311	5841.95
2632.30041	5816.55
2634.95605	5823.15
2637.61004	5830.75
2640.26238	5809.15
2642.91306	5815.25
2645.56209	5801.95
2648.20948	5793.15
2650.85521	5792.15
2653.4993	5777.25
2656.14175	5763.55
2658.78255	5769.75
2661.42171	5767.25
2664.05923	5772.85
2666.6951	5786.35
2669.32934	5793.55
2671.96194	5794.45
2674.59291	5806.05
2677.22224	5799.95
2679.84993	5792.45
2682.476	5797.85
2685.10043	5787.45
2687.72324	5790.25
2690.34441	5767.75
2692.96396	5775.35
2695.58188	5774.15
2698.19818	5738.25
2700.81285	5764.55
2703.4259	5744.25
2706.03733	5743.65
2708.64714	5743.05
2711.25533	5712.95
2713.86191	5730.05
2716.46687	5747.65
2719.07021	5732.45
2721.67194	5737.25
2724.27206	5756.45
2726.87057	5741.75
2729.46747	5741.05
2732.06276	5755.45
2734.65644	5724.65
2737.24852	5746.55
2739.83899	5720.55
2742.42786	5720.45
2745.01513	5683.85
2747.60079	5695.95
2750.18486	5687.85
2752.76733	5712.05
2755.3482	5678.25
2757.92747	5679.65
2760.50515	5675.85
2763.08123	5671.45
2765.65573	5662.75
2768.22863	5670.95
2770.79994	5654.85
2773.36967	5649.95
2775.9378	5645.85
2778.50435	5640.15
2781.06932	5646.35
2783.6327	5646.75
2786.1945	5666.15
2788.75471	5640.95
2791.31335	5629.05
2793.87041	5625.65
2796.42589	5614.15
2798.97979	5599.95
2801.53212	5563.75
2804.08288	5568.45
2806.63206	5560.55
2809.17967	5553.05
2811.72571	5542.55
2814.27018	5552.95
2816.81308	5510.65
2819.35442	5523.95
2821.89419	5528.05
2824.43239	5534.25
2826.96904	5507.55
2829.50412	5511.35
2832.03763	5485.75
2834.56959	5486.95
2837.1	5479.85
2839.62884	5453.65
2842.15613	5451.45
2844.68186	5466.75
2847.20604	5463.25
2849.72867	5439.15
2852.24974	5432.65
2854.76927	5425.75
2857.28724	5404.15
2859.80367	5412.35
2862.31855	5397.55
2864.83189	5411.85
2867.34368	5408.45
2869.85393	5413.95
2872.36264	5382.85
2874.8698	5378.45
2877.37543	5390.95
2879.87952	5364.95
2882.38207	5375.15
2884.88308	5377.25
2887.38256	5375.75
2889.88051	5376.55
2892.37692	5368.65
2894.8718	5362.85
2897.36515	5371.05
2899.85698	5368.55
2902.34727	5358.95
2904.83604	5381.15
2907.32328	5392.65
2909.809	5383.85
2912.29319	5368.95
2914.77587	5391.55
2917.25702	5393.85
2919.73665	5385.15
2922.21476	5388.35
2924.69136	5352.45
2927.16644	5357.75
2929.64	5347.15
2932.11205	5334.25
2934.58258	5309.35
2937.05161	5328.75
2939.51912	5334.95
2941.98513	5322.35
2944.44962	5298.85
2946.91261	5307.85
2949.37409	5321.55
2951.83407	5307.65
2954.29254	5305.15
2956.74951	5293.65
2959.20498	5286.65
2961.65895	5279.75
2964.11142	5276.85
2966.56239	5283.05
2969.01186	5286.95
2971.45984	5281.25
2973.90632	5267.15
2976.35131	5240.35
2978.7948	5232.15
2981.23681	5228.25
2983.67732	5237.55
2986.11635	5201.95
2988.55388	5186.65
2990.98993	5174.05
2993.4245	5150.85
2995.85758	5160.45
2998.28917	5130.95
3000.71928	5128.85
3003.14791	5116.45
3005.57506	5102.95
3008.00073	5073.85
3010.42493	5074.55
3012.84764	5045.25
3015.26888	5066.75
3017.68865	5061.45
3020.10694	5059.85
3022.52376	5027.65
3024.9391	5013.35
3027.35298	4996.25
3029.76539	4974.25
3032.17632	4987.15
3034.5858	4978.35
3036.9938	4984.65
3039.40034	4970.45
3041.80542	4951.35
3044.20903	4932.95
3046.61118	4953.25
3049.01187	4916.15
3051.4111	4919.65
3053.80888	4903.95
3056.20519	4889.75
3058.60005	4874.05
3060.99345	4860.25
3063.3854	4848.35
3065.7759	4846.95
3068.16494	4821.35
3070.55254	4799.65
3072.93868	4804.95
3075.32338	4776.95
3077.70662	4778.75
3080.08842	4764.05
3082.46878	4754.65
3084.84769	4754.65
3087.22515	4725.65
3089.60118	4721.95
3091.97576	4742.75
3094.3489	4728.65
3096.72061	4732.85
3099.09087	4711.15
3101.4597	4707.55
3103.82709	4703.35
3106.19305	4706.55
3108.55757	4703.25
3110.92066	4702.45
3113.28232	4678.45
3115.64255	4672.55
3118.00134	4658.35
3120.35871	4642.55
3122.71466	4660.45
3125.06917	4634.45
3127.42226	4624.15
3129.77393	4626.95
3132.12417	4606.65
3134.47299	4602.05
3136.82039	4591.15
3139.16636	4603.55
3141.51092	4592.35
3143.85406	4585.65
3146.19579	4573.55
3148.53609	4568.55
3150.87499	4583.15
3153.21246	4575.45
3155.54853	4587.65
3157.88318	4556.85
3160.21642	4557.75
3162.54826	4557.85
3164.87868	4559.05
3167.2077	4548.85
3169.5353	4549.65
3171.86151	4531.95
3174.18631	4543.35
3176.5097	4517.95
3178.83169	4504.55
3181.15228	4507.15
3183.47147	4490.05
3185.78926	4492.25
3188.10565	4472.65
3190.42065	4466.05
3192.73424	4473.65
3195.04645	4464.35
3197.35725	4468.25
3199.66667	4451.65
3201.97469	4470.25
3204.28132	4480.15
3206.58656	4472.15
3208.8904	4457.75
3211.19287	4462.55
3213.49394	4464.55
3215.79363	4456.35
3218.09193	4450.95
3220.38884	4467.55
3222.68438	4452.35
3224.97853	4454.65
3227.2713	4446.75
3229.56269	4439.55
3231.8527	4448.35
3234.14133	4432.05
3236.42858	4404.25
3238.71446	4407.05
3240.99896	4384.65
3243.28209	4386.35
3245.56384	4379.85
3247.84423	4379.25
3250.12324	4358.35
3252.40088	4352.05
3254.67715	4345.85
3256.95205	4345.55
3259.22558	4349.25
3261.49775	4337.15
3263.76855	4344.25
3266.03799	4346.55
3268.30606	4348.55
3270.57277	4354.65
3272.83812	4317.75
3275.10211	4311.95
3277.36474	4314.85
3279.62601	4293.05
3281.88593	4290.55
3284.14448	4292.05
3286.40168	4281.55
3288.65753	4293.05
3290.91202	4298.05
3293.16516	4275.85
3295.41695	4279.85
3297.66738	4259.15
3299.91647	4248.55
3302.16421	4217.65
3304.4106	4192.45
3306.65564	4157.65
3308.89933	4133.05
3311.14169	4099.75
3313.38269	4066.65
3315.62236	4023.95
3317.86068	4005.85
3320.09766	3975.85
3322.3333	3944.25
3324.5676	3920.55
3326.80056	3860.55
3329.03219	3836.95
3331.26248	0.55
3333.49143	-0.25
3335.71905	-1.35
