Data from AgNPs_UA_10uM_CRN_500uM_SU_RamanShift__107__13-23-10-274.txt Node

Date: Thu Aug 04 13:23:10 BST 2022
User: TCL
Spectrometer: QEP01345
Trigger mode: 4
Integration Time (sec): 1.000000E0
Scans to average: 10
Electric dark correction enabled: true
Nonlinearity correction enabled: false
Boxcar width: 0
XAxis mode: Raman Shifts
Number of Pixels in Spectrum: 1044
>>>>>Begin Spectral Data<<<<<
46.04893	-0.65
50.45542	-0.55
54.85868	1.75
59.25871	0.35
63.6555	21.55
68.04907	21.55
72.43941	21.35
76.82654	23.55
81.21044	23.25
85.59113	25.95
89.96862	26.85
94.34289	27.95
98.71396	27.95
103.08183	29.65
107.4465	29.55
111.80798	29.45
116.16626	30.75
120.52136	35.45
124.87327	36.15
129.222	39.15
133.56755	38.55
137.90993	41.35
142.24913	49.65
146.58517	56.35
150.91804	65.15
155.24774	79.95
159.57429	100.75
163.89768	130.15
168.21792	173.65
172.53501	237.95
176.84895	336.25
181.15975	481.55
185.46741	677.25
189.77193	935.95
194.07331	1257.95
198.37157	1626.15
202.6667	2012.55
206.9587	2407.45
211.24758	2791.25
215.53334	3186.85
219.81599	3589.85
224.09553	4070.65
228.37195	4584.65
232.64527	5131.85
236.91549	5663.05
241.18261	6171.05
245.44663	6568.65
249.70755	6897.05
253.96539	7178.35
258.22014	7463.55
262.4718	7677.65
266.72039	7808.55
270.96589	7834.25
275.20832	7823.35
279.44768	7718.85
283.68397	7585.75
287.91719	7505.75
292.14735	7532.05
296.37445	7645.15
300.59849	7838.15
304.81948	8128.35
309.03742	8379.75
313.25231	8491.05
317.46415	8409.25
321.67296	8107.15
325.87872	7816.95
330.08145	7663.55
334.28114	7642.65
338.47781	7749.55
342.67145	7871.05
346.86207	8101.95
351.04966	8411.25
355.23424	8711.35
359.4158	8956.05
363.59435	9097.35
367.76989	9089.85
371.94243	9091.85
376.11196	9054.95
380.27849	9065.55
384.44203	9082.65
388.60257	9145.05
392.76012	9215.25
396.91468	9341.05
401.06626	9492.45
405.21485	9543.25
409.36047	9407.25
413.50311	9138.05
417.64277	8884.05
421.77947	8736.35
425.9132	8644.15
430.04396	8628.25
434.17176	8672.75
438.2966	8789.05
442.41849	8931.15
446.53742	9193.85
450.6534	9363.65
454.76644	9507.65
458.87653	9550.55
462.98368	9535.05
467.08789	9454.65
471.18916	9308.45
475.2875	9089.25
479.38291	8951.25
483.4754	8804.55
487.56496	8741.25
491.6516	8698.75
495.73531	8712.85
499.81612	8750.85
503.89401	8821.35
507.96899	8863.95
512.04106	8919.15
516.11023	8980.65
520.1765	9021.05
524.23987	9032.85
528.30034	9014.05
532.35792	9015.25
536.41261	8937.15
540.46441	8808.55
544.51333	8791.85
548.55936	8863.05
552.60252	8979.25
556.64279	9142.95
560.6802	9273.35
564.71473	9362.15
568.7464	9495.85
572.7752	9441.25
576.80114	9203.85
580.82422	9063.15
584.84444	8987.25
588.86181	9022.95
592.87633	9129.85
596.888	9307.65
600.89682	9710.95
604.9028	10797.15
608.90594	12993.45
612.90624	15085.15
616.90371	13873.55
620.89834	10896.05
624.89015	9744.05
628.87913	9655.05
632.86528	9772.95
636.84862	9803.75
640.82913	9542.45
644.80683	9190.65
648.78172	8974.05
652.75379	9012.55
656.72306	9294.45
660.68952	9580.65
664.65319	9527.75
668.61405	9397.05
672.57211	9437.25
676.52738	9446.55
680.47986	9242.35
684.42955	9056.35
688.37646	9025.55
692.32058	9113.85
696.26192	9295.15
700.20048	9458.55
704.13626	9472.05
708.06928	9367.85
711.99952	9249.45
715.927	9251.65
719.85171	9320.55
723.77365	9304.25
727.69284	9253.75
731.60928	9140.35
735.52295	9147.95
739.43388	9197.35
743.34206	9257.25
747.24749	9247.95
751.15017	9258.95
755.05012	9377.65
758.94733	9700.75
762.8418	10487.35
766.73354	11671.15
770.62254	12610.95
774.50882	12802.85
778.39237	12341.75
782.27321	11516.95
786.15132	10577.15
790.02671	9906.65
793.89938	9566.25
797.76935	9397.75
801.6366	9315.35
805.50115	9270.15
809.36299	9218.85
813.22213	9191.15
817.07857	9182.55
820.93231	9188.65
824.78336	9201.45
828.63172	9210.55
832.47738	9236.25
836.32036	9206.55
840.16066	9227.45
843.99827	9207.05
847.8332	9239.75
851.66546	9228.95
855.49504	9241.65
859.32195	9228.55
863.1462	9226.55
866.96777	9207.15
870.78668	9188.55
874.60293	9227.45
878.41652	9270.85
882.22745	9356.75
886.03573	9403.85
889.84136	9423.65
893.64433	9368.75
897.44466	9330.35
901.24235	9299.75
905.0374	9295.65
908.8298	9252.75
912.61957	9248.15
916.40671	9254.85
920.19121	9273.25
923.97308	9378.95
927.75233	9497.25
931.52895	9585.55
935.30295	9501.35
939.07433	9310.25
942.84309	9237.15
946.60924	9194.75
950.37278	9166.95
954.13371	9149.15
957.89203	9127.45
961.64774	9110.05
965.40086	9104.35
969.15137	9078.75
972.89929	9103.35
976.64461	9093.35
980.38733	9118.75
984.12747	9122.05
987.86502	9190.25
991.59999	9250.95
995.33237	9380.55
999.06217	9567.15
1002.78939	9749.15
1006.51404	9902.35
1010.23611	10040.45
1013.95561	10142.35
1017.67255	10172.15
1021.38692	10158.85
1025.09872	10151.85
1028.80796	10148.85
1032.51465	10268.55
1036.21877	10379.05
1039.92035	10359.55
1043.61937	10314.25
1047.31584	10219.05
1051.00976	10109.45
1054.70114	10075.75
1058.38998	10072.85
1062.07627	10124.25
1065.76003	10177.95
1069.44126	10302.05
1073.11995	10430.15
1076.79611	10633.45
1080.46974	10755.05
1084.14085	10872.75
1087.80943	10959.35
1091.47549	10986.55
1095.13903	10950.05
1098.80005	10913.75
1102.45857	10931.65
1106.11456	10911.85
1109.76805	10766.05
1113.41903	10788.95
1117.06751	10908.75
1120.71348	11114.55
1124.35696	11313.15
1127.99793	11455.35
1131.63641	11301.15
1135.2724	10952.45
1138.90589	10731.15
1142.5369	10547.45
1146.16542	10429.15
1149.79145	10344.05
1153.415	10252.35
1157.03607	10247.15
1160.65467	10346.35
1164.27079	10577.95
1167.88443	10921.85
1171.49561	11442.75
1175.10432	12219.55
1178.71056	13240.55
1182.31434	14100.55
1185.91565	14486.45
1189.51451	14460.45
1193.11091	14133.65
1196.70485	13741.45
1200.29634	13332.95
1203.88538	12902.05
1207.47197	12398.75
1211.05612	11932.35
1214.63782	11546.85
1218.21708	11303.95
1221.79391	11225.05
1225.36829	11234.75
1228.94024	11201.15
1232.50976	11131.95
1236.07685	11094.45
1239.6415	11114.15
1243.20374	11172.05
1246.76355	11254.65
1250.32093	11376.95
1253.8759	11552.95
1257.42845	11890.45
1260.97859	12224.15
1264.52631	12538.35
1268.07163	12795.05
1271.61453	12970.45
1275.15503	13094.95
1278.69312	13149.95
1282.22882	13250.25
1285.76211	13373.55
1289.29301	13586.95
1292.82151	13837.85
1296.34761	14109.95
1299.87133	14630.85
1303.39266	15456.15
1306.9116	16709.65
1310.42815	17997.45
1313.94233	18527.75
1317.45412	18011.85
1320.96354	17028.05
1324.47058	15967.35
1327.97525	15127.35
1331.47754	14610.45
1334.97747	14480.85
1338.47502	14634.65
1341.97022	15092.65
1345.46305	15843.65
1348.95352	16841.35
1352.44163	17997.05
1355.92738	19203.95
1359.41078	20665.55
1362.89183	21616.85
1366.37053	20537.95
1369.84688	17850.85
1373.32088	15444.55
1376.79254	14045.05
1380.26186	13386.65
1383.72883	13023.25
1387.19347	12674.15
1390.65578	12284.25
1394.11575	11965.15
1397.57339	11713.65
1401.0287	11607.35
1404.48168	11624.25
1407.93234	11723.25
1411.38068	11881.95
1414.82669	12074.85
1418.27039	12112.85
1421.71177	12097.55
1425.15083	12018.35
1428.58758	11985.35
1432.02203	12085.75
1435.45416	12173.65
1438.88399	12198.65
1442.31151	12126.95
1445.73673	12115.75
1449.15965	12086.05
1452.58027	12024.95
1455.9986	11925.85
1459.41463	11925.25
1462.82837	12034.45
1466.23982	12177.95
1469.64898	12405.05
1473.05586	12551.85
1476.46045	12727.35
1479.86276	12864.65
1483.26279	13011.65
1486.66054	13221.35
1490.05602	13554.65
1493.44922	14092.95
1496.84016	14892.55
1500.22882	16060.25
1503.61521	17490.55
1506.99934	18936.65
1510.38121	19736.25
1513.76081	19470.65
1517.13816	18089.85
1520.51324	16326.45
1523.88607	14891.95
1527.25665	13994.95
1530.62498	13557.15
1533.99105	13313.85
1537.35488	13219.65
1540.71647	13092.55
1544.07581	13004.65
1547.4329	12920.05
1550.78776	12779.35
1554.14038	12674.55
1557.49077	12645.45
1560.83892	12762.75
1564.18484	13038.65
1567.52853	13334.85
1570.86999	13465.25
1574.20922	13478.35
1577.54624	13295.75
1580.88103	12807.75
1584.2136	12274.45
1587.54395	12030.05
1590.87208	12196.35
1594.19801	12715.45
1597.52172	13375.85
1600.84321	13658.95
1604.16251	13510.55
1607.47959	13224.85
1610.79447	12704.55
1614.10715	12063.15
1617.41763	11429.15
1620.7259	10958.95
1624.03199	10724.65
1627.33587	10687.95
1630.63757	10867.05
1633.93707	11290.65
1637.23439	12054.75
1640.52951	13155.15
1643.82246	14507.95
1647.11321	15771.25
1650.40179	16173.25
1653.68819	15243.65
1656.97241	13477.55
1660.25446	11832.25
1663.53433	10702.05
1666.81203	10046.75
1670.08756	9630.45
1673.36092	9424.75
1676.63211	9266.05
1679.90115	9136.15
1683.16801	9049.45
1686.43272	8968.25
1689.69527	8907.95
1692.95567	8871.55
1696.2139	8804.15
1699.46999	8819.95
1702.72392	8809.15
1705.97571	8785.65
1709.22535	8791.65
1712.47284	8781.85
1715.71819	8800.45
1718.96139	8781.35
1722.20246	8764.65
1725.44139	8729.95
1728.67818	8686.15
1731.91284	8632.05
1735.14537	8586.65
1738.37576	8551.15
1741.60403	8526.85
1744.83017	8490.25
1748.05418	8468.35
1751.27607	8455.55
1754.49584	8442.85
1757.71349	8431.55
1760.92903	8442.85
1764.14244	8430.75
1767.35375	8403.15
1770.56294	8392.95
1773.77002	8364.35
1776.97499	8347.65
1780.17785	8305.25
1783.37861	8306.75
1786.57727	8274.15
1789.77382	8279.15
1792.96828	8270.85
1796.16064	8254.05
1799.3509	8238.95
1802.53907	8245.75
1805.72514	8224.65
1808.90913	8226.25
1812.09102	8168.25
1815.27083	8158.05
1818.44856	8129.75
1821.6242	8101.75
1824.79776	8107.25
1827.96924	8075.05
1831.13864	8077.55
1834.30597	8063.35
1837.47122	8029.35
1840.6344	8003.25
1843.7955	8030.35
1846.95454	8037.05
1850.11151	8022.75
1853.26642	8019.35
1856.41926	8013.05
1859.57004	8006.15
1862.71876	8010.25
1865.86542	8012.25
1869.01003	7988.25
1872.15258	7968.25
1875.29308	7963.45
1878.43152	7954.85
1881.56792	7961.15
1884.70227	7942.15
1887.83457	7921.75
1890.96482	7895.95
1894.09304	7876.95
1897.21921	7874.05
1900.34335	7864.25
1903.46544	7882.25
1906.58551	7859.35
1909.70353	7847.65
1912.81953	7855.05
1915.93349	7838.15
1919.04543	7823.55
1922.15534	7809.35
1925.26322	7790.75
1928.36908	7773.15
1931.47292	7760.55
1934.57473	7740.65
1937.67453	7726.75
1940.77232	7689.75
1943.86808	7683.15
1946.96184	7650.25
1950.05358	7648.15
1953.14331	7637.25
1956.23103	7603.15
1959.31675	7575.45
1962.40046	7556.25
1965.48217	7527.95
1968.56188	7523.35
1971.63959	7493.55
1974.7153	7476.15
1977.78901	7470.35
1980.86073	7442.15
1983.93046	7414.35
1986.99819	7371.95
1990.06394	7366.05
1993.1277	7330.75
1996.18947	7296.45
1999.24925	7298.05
2002.30706	7265.85
2005.36288	7232.85
2008.41672	7213.75
2011.46859	7189.05
2014.51848	7156.05
2017.56639	7165.65
2020.61233	7126.65
2023.6563	7113.25
2026.6983	7100.85
2029.73833	7065.65
2032.7764	7045.85
2035.8125	7030.85
2038.84664	7029.95
2041.87881	7012.15
2044.90903	7003.85
2047.93729	7000.15
2050.96359	6972.55
2053.98794	6975.75
2057.01034	6970.05
2060.03078	6958.55
2063.04927	6958.45
2066.06582	6918.15
2069.08042	6938.25
2072.09307	6916.25
2075.10378	6909.85
2078.11255	6916.35
2081.11938	6901.25
2084.12426	6887.65
2087.12722	6882.05
2090.12824	6872.95
2093.12732	6889.55
2096.12447	6879.85
2099.11969	6890.45
2102.11299	6898.65
2105.10435	6899.65
2108.09379	6884.05
2111.08131	6885.35
2114.0669	6904.15
2117.05057	6918.45
2120.03233	6915.65
2123.01216	6906.55
2125.99008	6903.15
2128.96609	6916.25
2131.94018	6933.75
2134.91236	6934.45
2137.88263	6927.75
2140.851	6913.85
2143.81746	6928.05
2146.78201	6912.05
2149.74466	6927.25
2152.7054	6932.95
2155.66425	6911.55
2158.6212	6904.35
2161.57625	6873.65
2164.52941	6898.55
2167.48067	6889.35
2170.43004	6879.65
2173.37752	6871.35
2176.32311	6897.75
2179.26681	6899.65
2182.20863	6882.25
2185.14856	6896.85
2188.08661	6885.75
2191.02278	6889.75
2193.95707	6880.65
2196.88948	6876.35
2199.82001	6865.15
2202.74867	6857.05
2205.67545	6868.85
2208.60037	6865.05
2211.52341	6846.15
2214.44458	6838.95
2217.36388	6802.15
2220.28132	6792.75
2223.1969	6764.55
2226.11061	6759.05
2229.02246	6718.15
2231.93245	6735.55
2234.84058	6723.25
2237.74686	6705.25
2240.65128	6691.65
2243.55385	6671.15
2246.45456	6687.15
2249.35343	6674.85
2252.25044	6663.75
2255.14561	6648.75
2258.03893	6660.35
2260.93041	6654.05
2263.82004	6632.55
2266.70783	6622.45
2269.59378	6606.75
2272.4779	6574.75
2275.36017	6551.35
2278.24061	6556.05
2281.11922	6546.75
2283.996	6520.15
2286.87094	6516.45
2289.74405	6505.75
2292.61534	6501.95
2295.4848	6475.45
2298.35243	6482.55
2301.21824	6486.45
2304.08223	6462.55
2306.94439	6455.15
2309.80474	6487.85
2312.66327	6466.15
2315.51999	6450.95
2318.37489	6453.25
2321.22797	6440.05
2324.07925	6431.75
2326.92871	6417.35
2329.77637	6421.25
2332.62222	6406.35
2335.46626	6391.45
2338.3085	6393.45
2341.14893	6395.45
2343.98756	6388.25
2346.8244	6385.85
2349.65943	6375.35
2352.49267	6379.75
2355.32411	6352.85
2358.15376	6383.45
2360.98161	6366.25
2363.80768	6359.35
2366.63195	6361.75
2369.45444	6348.55
2372.27514	6340.85
2375.09405	6316.35
2377.91118	6303.55
2380.72652	6320.55
2383.54009	6281.25
2386.35187	6270.55
2389.16188	6245.35
2391.97011	6237.45
2394.77657	6218.65
2397.58125	6198.15
2400.38416	6197.55
2403.18529	6198.35
2405.98466	6192.55
2408.78226	6170.65
2411.57809	6151.25
2414.37216	6152.55
2417.16446	6128.45
2419.955	6125.75
2422.74378	6140.85
2425.5308	6131.35
2428.31606	6122.55
2431.09956	6125.05
2433.88131	6103.85
2436.6613	6097.65
2439.43954	6094.95
2442.21603	6094.25
2444.99077	6090.25
2447.76377	6102.65
2450.53501	6106.75
2453.30451	6083.95
2456.07226	6065.15
2458.83827	6045.35
2461.60254	6031.55
2464.36507	6027.05
2467.12586	6004.15
2469.88492	6026.15
2472.64224	6038.25
2475.39782	6025.35
2478.15167	6028.35
2480.90379	6010.45
2483.65417	6009.05
2486.40283	6026.75
2489.14976	6026.55
2491.89497	6025.35
2494.63845	6021.35
2497.3802	5998.75
2500.12024	5990.25
2502.85855	5990.05
2505.59514	5992.45
2508.33002	5981.75
2511.06318	5963.85
2513.79462	5944.45
2516.52435	5934.75
2519.25237	5924.25
2521.97867	5916.85
2524.70327	5925.15
2527.42616	5903.65
2530.14734	5900.25
2532.86681	5882.85
2535.58458	5885.35
2538.30065	5902.85
2541.01501	5896.55
2543.72768	5872.25
2546.43864	5873.15
2549.14791	5852.35
2551.85548	5863.55
2554.56136	5845.75
2557.26554	5839.85
2559.96803	5839.35
2562.66883	5814.25
2565.36794	5810.55
2568.06536	5786.05
2570.7611	5749.65
2573.45514	5752.75
2576.14751	5757.55
2578.83819	5749.35
2581.52719	5729.75
2584.21451	5745.75
2586.90015	5735.85
2589.58411	5730.05
2592.2664	5705.65
2594.94701	5709.55
2597.62594	5712.35
2600.30321	5699.45
2602.9788	5697.85
2605.65273	5682.05
2608.32498	5676.35
2610.99557	5686.65
2613.66449	5671.95
2616.33175	5658.85
2618.99734	5670.35
2621.66128	5660.45
2624.32355	5649.95
2626.98416	5624.05
2629.64311	5631.95
2632.30041	5608.45
2634.95605	5617.25
2637.61004	5606.85
2640.26238	5578.55
2642.91306	5599.25
2645.56209	5589.65
2648.20948	5564.55
2650.85521	5566.95
2653.4993	5567.25
2656.14175	5563.45
2658.78255	5557.75
2661.42171	5547.95
2664.05923	5578.35
2666.6951	5565.35
2669.32934	5581.25
2671.96194	5569.15
2674.59291	5593.25
2677.22224	5576.45
2679.84993	5554.05
2682.476	5575.25
2685.10043	5560.95
2687.72324	5572.95
2690.34441	5567.65
2692.96396	5559.15
2695.58188	5556.85
2698.19818	5541.65
2700.81285	5538.15
2703.4259	5551.85
2706.03733	5531.95
2708.64714	5521.55
2711.25533	5515.75
2713.86191	5523.45
2716.46687	5531.75
2719.07021	5528.75
2721.67194	5529.25
2724.27206	5524.95
2726.87057	5534.25
2729.46747	5511.85
2732.06276	5524.15
2734.65644	5504.65
2737.24852	5501.05
2739.83899	5494.15
2742.42786	5498.75
2745.01513	5466.15
2747.60079	5454.35
2750.18486	5453.15
2752.76733	5460.55
2755.3482	5451.45
2757.92747	5451.05
2760.50515	5438.55
2763.08123	5429.05
2765.65573	5415.85
2768.22863	5411.55
2770.79994	5401.75
2773.36967	5398.25
2775.9378	5387.55
2778.50435	5398.25
2781.06932	5393.25
2783.6327	5385.05
2786.1945	5375.25
2788.75471	5375.15
2791.31335	5353.85
2793.87041	5342.25
2796.42589	5334.65
2798.97979	5305.45
2801.53212	5303.45
2804.08288	5287.55
2806.63206	5293.45
2809.17967	5302.55
2811.72571	5268.05
2814.27018	5276.25
2816.81308	5252.35
2819.35442	5245.15
2821.89419	5234.45
2824.43239	5227.65
2826.96904	5211.15
2829.50412	5227.55
2832.03763	5186.75
2834.56959	5195.95
2837.1	5173.45
2839.62884	5175.05
2842.15613	5163.75
2844.68186	5159.85
2847.20604	5179.05
2849.72867	5156.85
2852.24974	5124.75
2854.76927	5108.75
2857.28724	5128.75
2859.80367	5114.55
2862.31855	5108.05
2864.83189	5112.95
2867.34368	5131.85
2869.85393	5106.35
2872.36264	5099.15
2874.8698	5079.75
2877.37543	5088.75
2879.87952	5078.45
2882.38207	5069.05
2884.88308	5073.55
2887.38256	5071.45
2889.88051	5049.85
2892.37692	5044.65
2894.8718	5049.35
2897.36515	5055.35
2899.85698	5052.25
2902.34727	5063.35
2904.83604	5063.25
2907.32328	5065.15
2909.809	5059.05
2912.29319	5077.55
2914.77587	5069.85
2917.25702	5081.55
2919.73665	5077.05
2922.21476	5069.95
2924.69136	5063.05
2927.16644	5050.75
2929.64	5052.15
2932.11205	5013.05
2934.58258	4992.35
2937.05161	5013.25
2939.51912	5023.05
2941.98513	5021.55
2944.44962	4996.95
2946.91261	4981.95
2949.37409	5005.25
2951.83407	5002.05
2954.29254	4979.55
2956.74951	4983.85
2959.20498	4982.95
2961.65895	4976.75
2964.11142	4960.65
2966.56239	4965.65
2969.01186	4968.65
2971.45984	4971.75
2973.90632	4956.05
2976.35131	4940.75
2978.7948	4940.05
2981.23681	4943.05
2983.67732	4904.55
2986.11635	4912.95
2988.55388	4894.55
2990.98993	4883.05
2993.4245	4861.45
2995.85758	4848.95
2998.28917	4838.95
3000.71928	4837.05
3003.14791	4798.65
3005.57506	4816.95
3008.00073	4778.85
3010.42493	4775.95
3012.84764	4783.05
3015.26888	4785.55
3017.68865	4760.55
3020.10694	4753.95
3022.52376	4733.65
3024.9391	4705.65
3027.35298	4702.05
3029.76539	4689.55
3032.17632	4691.45
3034.5858	4687.65
3036.9938	4677.95
3039.40034	4644.45
3041.80542	4645.85
3044.20903	4639.45
3046.61118	4656.55
3049.01187	4619.65
3051.4111	4628.55
3053.80888	4611.75
3056.20519	4601.45
3058.60005	4586.25
3060.99345	4561.95
3063.3854	4558.45
3065.7759	4536.05
3068.16494	4546.65
3070.55254	4518.95
3072.93868	4505.15
3075.32338	4483.95
3077.70662	4483.35
3080.08842	4466.85
3082.46878	4468.55
3084.84769	4451.75
3087.22515	4451.45
3089.60118	4456.15
3091.97576	4446.25
3094.3489	4452.25
3096.72061	4443.45
3099.09087	4434.25
3101.4597	4436.65
3103.82709	4435.75
3106.19305	4420.35
3108.55757	4425.75
3110.92066	4401.95
3113.28232	4406.95
3115.64255	4390.45
3118.00134	4383.35
3120.35871	4376.25
3122.71466	4367.85
3125.06917	4341.05
3127.42226	4338.15
3129.77393	4340.75
3132.12417	4324.85
3134.47299	4313.25
3136.82039	4295.95
3139.16636	4321.05
3141.51092	4317.65
3143.85406	4303.95
3146.19579	4297.35
3148.53609	4307.25
3150.87499	4303.35
3153.21246	4294.35
3155.54853	4290.45
3157.88318	4278.75
3160.21642	4296.45
3162.54826	4294.25
3164.87868	4284.55
3167.2077	4263.95
3169.5353	4266.55
3171.86151	4269.65
3174.18631	4235.95
3176.5097	4238.75
3178.83169	4230.35
3181.15228	4208.75
3183.47147	4222.35
3185.78926	4204.55
3188.10565	4181.15
3190.42065	4174.45
3192.73424	4184.05
3195.04645	4177.15
3197.35725	4169.45
3199.66667	4158.85
3201.97469	4165.65
3204.28132	4164.25
3206.58656	4176.85
3208.8904	4164.65
3211.19287	4169.95
3213.49394	4167.75
3215.79363	4150.65
3218.09193	4158.35
3220.38884	4173.05
3222.68438	4168.15
3224.97853	4153.95
3227.2713	4160.55
3229.56269	4145.05
3231.8527	4135.05
3234.14133	4130.75
3236.42858	4114.25
3238.71446	4104.95
3240.99896	4103.95
3243.28209	4093.15
3245.56384	4068.35
3247.84423	4059.75
3250.12324	4054.15
3252.40088	4068.35
3254.67715	4055.05
3256.95205	4063.55
3259.22558	4053.65
3261.49775	4047.65
3263.76855	4046.05
3266.03799	4042.25
3268.30606	4038.35
3270.57277	4034.15
3272.83812	4023.85
3275.10211	4013.35
3277.36474	4014.65
3279.62601	4002.35
3281.88593	3992.05
3284.14448	3985.45
3286.40168	3986.05
3288.65753	3985.25
3290.91202	3983.35
3293.16516	3961.45
3295.41695	3969.65
3297.66738	3943.15
3299.91647	3938.85
3302.16421	3899.95
3304.4106	3879.85
3306.65564	3873.45
3308.89933	3823.05
3311.14169	3812.65
3313.38269	3775.45
3315.62236	3746.25
3317.86068	3704.55
3320.09766	3682.35
3322.3333	3664.45
3324.5676	3640.95
3326.80056	3578.25
3329.03219	3558.85
3331.26248	0.35
3333.49143	-0.15
3335.71905	-0.35
