Data from AgNPs_UA_50uM_CRN_500uM_SU_RamanShift__39__14-02-20-321.txt Node

Date: Thu Aug 04 14:02:20 BST 2022
User: TCL
Spectrometer: QEP01345
Trigger mode: 4
Integration Time (sec): 1.000000E0
Scans to average: 10
Electric dark correction enabled: true
Nonlinearity correction enabled: false
Boxcar width: 0
XAxis mode: Raman Shifts
Number of Pixels in Spectrum: 1044
>>>>>Begin Spectral Data<<<<<
46.04893	0.65
50.45542	1.15
54.85868	-0.85
59.25871	0.05
63.6555	15.25
68.04907	15.15
72.43941	16.95
76.82654	17.75
81.21044	16.75
85.59113	19.75
89.96862	20.75
94.34289	21.05
98.71396	20.35
103.08183	22.05
107.4465	19.65
111.80798	18.75
116.16626	21.85
120.52136	24.25
124.87327	25.05
129.222	28.35
133.56755	28.65
137.90993	31.15
142.24913	33.85
146.58517	41.05
150.91804	47.65
155.24774	56.95
159.57429	70.25
163.89768	91.95
168.21792	123.65
172.53501	168.05
176.84895	239.95
181.15975	339.75
185.46741	481.45
189.77193	677.05
194.07331	907.05
198.37157	1167.85
202.6667	1436.35
206.9587	1730.95
211.24758	2003.85
215.53334	2301.45
219.81599	2607.15
224.09553	2946.15
228.37195	3333.75
232.64527	3729.05
236.91549	4141.65
241.18261	4476.85
245.44663	4770.55
249.70755	4991.75
253.96539	5178.95
258.22014	5350.45
262.4718	5500.85
266.72039	5588.25
270.96589	5637.25
275.20832	5615.15
279.44768	5518.35
283.68397	5427.35
287.91719	5381.65
292.14735	5366.95
296.37445	5452.85
300.59849	5635.85
304.81948	5861.35
309.03742	6090.75
313.25231	6181.25
317.46415	6112.65
321.67296	5876.65
325.87872	5597.75
330.08145	5452.55
334.28114	5445.55
338.47781	5509.45
342.67145	5662.85
346.86207	5816.75
351.04966	6055.65
355.23424	6319.65
359.4158	6496.05
363.59435	6587.15
367.76989	6608.45
371.94243	6580.65
376.11196	6541.95
380.27849	6501.85
384.44203	6513.05
388.60257	6520.15
392.76012	6536.25
396.91468	6643.45
401.06626	6732.55
405.21485	6765.75
409.36047	6670.25
413.50311	6441.65
417.64277	6199.75
421.77947	6066.75
425.9132	6014.35
430.04396	6009.55
434.17176	6035.65
438.2966	6130.35
442.41849	6221.85
446.53742	6354.75
450.6534	6481.55
454.76644	6559.95
458.87653	6591.05
462.98368	6599.45
467.08789	6533.35
471.18916	6420.35
475.2875	6288.35
479.38291	6188.65
483.4754	6110.35
487.56496	6047.15
491.6516	6040.95
495.73531	6012.45
499.81612	6038.25
503.89401	6081.85
507.96899	6123.55
512.04106	6178.25
516.11023	6235.35
520.1765	6278.05
524.23987	6294.65
528.30034	6301.95
532.35792	6268.85
536.41261	6197.85
540.46441	6119.35
544.51333	6101.85
548.55936	6131.05
552.60252	6229.05
556.64279	6321.15
560.6802	6411.25
564.71473	6487.95
568.7464	6586.15
572.7752	6560.45
576.80114	6375.25
580.82422	6220.35
584.84444	6170.95
588.86181	6171.55
592.87633	6215.15
596.888	6342.95
600.89682	6656.65
604.9028	7452.55
608.90594	9091.45
612.90624	10787.85
616.90371	9932.65
620.89834	7589.85
624.89015	6636.75
628.87913	6506.85
632.86528	6654.45
636.84862	6717.15
640.82913	6581.95
644.80683	6299.45
648.78172	6155.25
652.75379	6178.45
656.72306	6387.85
660.68952	6601.65
664.65319	6540.95
668.61405	6414.95
672.57211	6434.35
676.52738	6411.95
680.47986	6306.25
684.42955	6187.75
688.37646	6166.25
692.32058	6199.85
696.26192	6320.75
700.20048	6431.55
704.13626	6437.75
708.06928	6374.95
711.99952	6326.15
715.927	6304.65
719.85171	6353.75
723.77365	6370.05
727.69284	6317.55
731.60928	6251.75
735.52295	6227.15
739.43388	6267.55
743.34206	6293.95
747.24749	6315.15
751.15017	6324.55
755.05012	6386.35
758.94733	6629.35
762.8418	7245.15
766.73354	8147.15
770.62254	8883.95
774.50882	9035.55
778.39237	8654.55
782.27321	7979.95
786.15132	7231.45
790.02671	6730.55
793.89938	6485.15
797.76935	6352.85
801.6366	6282.15
805.50115	6249.55
809.36299	6226.15
813.22213	6211.35
817.07857	6210.15
820.93231	6229.85
824.78336	6234.45
828.63172	6259.95
832.47738	6260.65
836.32036	6235.25
840.16066	6224.25
843.99827	6223.85
847.8332	6182.05
851.66546	6218.15
855.49504	6227.25
859.32195	6237.95
863.1462	6221.75
866.96777	6218.95
870.78668	6210.05
874.60293	6230.85
878.41652	6245.85
882.22745	6295.65
886.03573	6338.55
889.84136	6327.35
893.64433	6301.65
897.44466	6275.55
901.24235	6281.65
905.0374	6250.25
908.8298	6248.45
912.61957	6228.85
916.40671	6218.75
920.19121	6242.85
923.97308	6294.25
927.75233	6350.15
931.52895	6412.45
935.30295	6366.75
939.07433	6242.45
942.84309	6168.85
946.60924	6128.25
950.37278	6109.75
954.13371	6111.75
957.89203	6082.65
961.64774	6061.95
965.40086	6075.65
969.15137	6052.75
972.89929	6055.05
976.64461	6054.95
980.38733	6076.25
984.12747	6086.15
987.86502	6085.95
991.59999	6132.95
995.33237	6184.35
999.06217	6267.25
1002.78939	6368.05
1006.51404	6461.95
1010.23611	6561.25
1013.95561	6618.95
1017.67255	6614.75
1021.38692	6596.05
1025.09872	6532.55
1028.80796	6484.85
1032.51465	6478.95
1036.21877	6502.45
1039.92035	6528.75
1043.61937	6542.55
1047.31584	6549.45
1051.00976	6526.45
1054.70114	6536.35
1058.38998	6533.15
1062.07627	6561.15
1065.76003	6600.25
1069.44126	6665.45
1073.11995	6792.65
1076.79611	6888.55
1080.46974	7015.55
1084.14085	7117.15
1087.80943	7214.25
1091.47549	7212.45
1095.13903	7170.75
1098.80005	7126.05
1102.45857	7111.05
1106.11456	7088.65
1109.76805	7017.35
1113.41903	7040.35
1117.06751	7156.75
1120.71348	7282.15
1124.35696	7485.45
1127.99793	7615.45
1131.63641	7480.45
1135.2724	7231.15
1138.90589	7036.05
1142.5369	6905.65
1146.16542	6836.45
1149.79145	6788.65
1153.415	6728.55
1157.03607	6710.95
1160.65467	6759.05
1164.27079	6878.75
1167.88443	7090.55
1171.49561	7426.45
1175.10432	7953.25
1178.71056	8656.45
1182.31434	9241.85
1185.91565	9416.35
1189.51451	9325.55
1193.11091	9070.05
1196.70485	8771.75
1200.29634	8521.85
1203.88538	8221.35
1207.47197	7895.15
1211.05612	7603.75
1214.63782	7390.55
1218.21708	7246.35
1221.79391	7133.85
1225.36829	7087.45
1228.94024	7054.15
1232.50976	7085.65
1236.07685	7069.95
1239.6415	7108.25
1243.20374	7137.85
1246.76355	7167.75
1250.32093	7242.15
1253.8759	7374.95
1257.42845	7555.85
1260.97859	7772.25
1264.52631	7992.95
1268.07163	8124.85
1271.61453	8204.45
1275.15503	8217.85
1278.69312	8229.55
1282.22882	8236.85
1285.76211	8349.15
1289.29301	8524.45
1292.82151	8686.55
1296.34761	8832.95
1299.87133	9165.65
1303.39266	9699.85
1306.9116	10502.65
1310.42815	11328.75
1313.94233	11614.15
1317.45412	11132.75
1320.96354	10410.95
1324.47058	9749.95
1327.97525	9204.35
1331.47754	8895.95
1334.97747	8826.45
1338.47502	8942.95
1341.97022	9238.15
1345.46305	9793.45
1348.95352	10529.35
1352.44163	11359.35
1355.92738	12252.35
1359.41078	13367.45
1362.89183	14207.85
1366.37053	13567.35
1369.84688	11631.75
1373.32088	9894.45
1376.79254	8892.25
1380.26186	8416.35
1383.72883	8156.25
1387.19347	7872.75
1390.65578	7619.75
1394.11575	7394.65
1397.57339	7247.25
1401.0287	7166.45
1404.48168	7123.35
1407.93234	7179.45
1411.38068	7318.45
1414.82669	7406.95
1418.27039	7448.35
1421.71177	7413.35
1425.15083	7344.25
1428.58758	7325.45
1432.02203	7347.45
1435.45416	7422.05
1438.88399	7413.05
1442.31151	7397.25
1445.73673	7392.45
1449.15965	7410.15
1452.58027	7356.55
1455.9986	7297.35
1459.41463	7243.75
1462.82837	7324.35
1466.23982	7430.05
1469.64898	7600.95
1473.05586	7706.35
1476.46045	7792.35
1479.86276	7867.55
1483.26279	7996.25
1486.66054	8171.15
1490.05602	8397.35
1493.44922	8824.05
1496.84016	9442.55
1500.22882	10348.75
1503.61521	11507.05
1506.99934	12579.95
1510.38121	13251.85
1513.76081	13053.55
1517.13816	12009.85
1520.51324	10633.75
1523.88607	9515.05
1527.25665	8825.65
1530.62498	8464.55
1533.99105	8263.05
1537.35488	8148.45
1540.71647	8073.35
1544.07581	8001.35
1547.4329	7934.35
1550.78776	7857.15
1554.14038	7820.75
1557.49077	7851.15
1560.83892	7955.95
1564.18484	8158.15
1567.52853	8409.95
1570.86999	8581.75
1574.20922	8638.55
1577.54624	8499.05
1580.88103	8106.65
1584.2136	7691.55
1587.54395	7470.95
1590.87208	7476.15
1594.19801	7728.15
1597.52172	8046.15
1600.84321	8191.75
1604.16251	8081.35
1607.47959	7912.05
1610.79447	7638.45
1614.10715	7276.65
1617.41763	6949.75
1620.7259	6715.95
1624.03199	6611.25
1627.33587	6594.55
1630.63757	6651.45
1633.93707	6888.55
1637.23439	7303.65
1640.52951	7905.55
1643.82246	8782.35
1647.11321	9687.75
1650.40179	10140.95
1653.68819	9666.35
1656.97241	8614.95
1660.25446	7523.85
1663.53433	6790.25
1666.81203	6352.95
1670.08756	6109.55
1673.36092	5939.85
1676.63211	5840.65
1679.90115	5783.75
1683.16801	5702.35
1686.43272	5666.55
1689.69527	5620.95
1692.95567	5602.45
1696.2139	5583.55
1699.46999	5569.45
1702.72392	5550.05
1705.97571	5562.95
1709.22535	5551.05
1712.47284	5551.25
1715.71819	5564.75
1718.96139	5553.95
1722.20246	5536.95
1725.44139	5512.25
1728.67818	5483.25
1731.91284	5451.95
1735.14537	5433.45
1738.37576	5404.35
1741.60403	5383.75
1744.83017	5369.85
1748.05418	5359.35
1751.27607	5348.75
1754.49584	5329.05
1757.71349	5314.25
1760.92903	5315.75
1764.14244	5310.75
1767.35375	5316.15
1770.56294	5306.25
1773.77002	5279.45
1776.97499	5271.55
1780.17785	5252.85
1783.37861	5240.55
1786.57727	5226.75
1789.77382	5213.15
1792.96828	5212.85
1796.16064	5191.65
1799.3509	5180.35
1802.53907	5178.35
1805.72514	5156.55
1808.90913	5162.05
1812.09102	5128.25
1815.27083	5144.75
1818.44856	5102.75
1821.6242	5109.25
1824.79776	5085.85
1827.96924	5078.95
1831.13864	5064.25
1834.30597	5075.95
1837.47122	5021.55
1840.6344	5023.35
1843.7955	5037.55
1846.95454	5045.25
1850.11151	5020.65
1853.26642	5039.55
1856.41926	5021.35
1859.57004	5041.85
1862.71876	5012.85
1865.86542	4997.85
1869.01003	5012.05
1872.15258	5015.35
1875.29308	5020.75
1878.43152	4996.05
1881.56792	4997.25
1884.70227	4993.65
1887.83457	4986.55
1890.96482	4967.85
1894.09304	4939.55
1897.21921	4941.65
1900.34335	4927.55
1903.46544	4918.65
1906.58551	4911.95
1909.70353	4910.75
1912.81953	4897.55
1915.93349	4887.15
1919.04543	4877.45
1922.15534	4877.35
1925.26322	4862.95
1928.36908	4851.05
1931.47292	4855.95
1934.57473	4838.85
1937.67453	4829.25
1940.77232	4789.25
1943.86808	4787.85
1946.96184	4786.65
1950.05358	4771.65
1953.14331	4751.65
1956.23103	4736.55
1959.31675	4720.45
1962.40046	4711.05
1965.48217	4690.95
1968.56188	4683.55
1971.63959	4676.65
1974.7153	4669.85
1977.78901	4656.75
1980.86073	4643.15
1983.93046	4623.25
1986.99819	4601.45
1990.06394	4586.75
1993.1277	4562.65
1996.18947	4547.85
1999.24925	4550.45
2002.30706	4535.15
2005.36288	4503.45
2008.41672	4498.05
2011.46859	4491.65
2014.51848	4475.75
2017.56639	4447.55
2020.61233	4437.35
2023.6563	4434.65
2026.6983	4406.15
2029.73833	4383.85
2032.7764	4365.85
2035.8125	4357.35
2038.84664	4368.15
2041.87881	4364.85
2044.90903	4341.05
2047.93729	4330.35
2050.96359	4322.15
2053.98794	4319.95
2057.01034	4309.95
2060.03078	4315.35
2063.04927	4308.45
2066.06582	4304.35
2069.08042	4305.45
2072.09307	4279.85
2075.10378	4288.85
2078.11255	4284.85
2081.11938	4287.75
2084.12426	4277.05
2087.12722	4286.15
2090.12824	4282.35
2093.12732	4277.15
2096.12447	4280.35
2099.11969	4259.85
2102.11299	4278.45
2105.10435	4270.65
2108.09379	4263.65
2111.08131	4258.85
2114.0669	4264.15
2117.05057	4288.55
2120.03233	4265.25
2123.01216	4278.55
2125.99008	4269.55
2128.96609	4278.35
2131.94018	4282.55
2134.91236	4277.95
2137.88263	4274.55
2140.851	4291.55
2143.81746	4294.05
2146.78201	4283.65
2149.74466	4277.65
2152.7054	4273.85
2155.66425	4269.45
2158.6212	4287.85
2161.57625	4259.15
2164.52941	4242.95
2167.48067	4245.45
2170.43004	4249.65
2173.37752	4252.55
2176.32311	4261.05
2179.26681	4254.25
2182.20863	4253.15
2185.14856	4249.25
2188.08661	4250.05
2191.02278	4240.05
2193.95707	4229.35
2196.88948	4240.05
2199.82001	4216.65
2202.74867	4223.85
2205.67545	4211.95
2208.60037	4223.55
2211.52341	4206.15
2214.44458	4196.15
2217.36388	4190.15
2220.28132	4180.95
2223.1969	4168.25
2226.11061	4143.35
2229.02246	4155.15
2231.93245	4146.55
2234.84058	4138.45
2237.74686	4136.55
2240.65128	4137.65
2243.55385	4108.25
2246.45456	4111.55
2249.35343	4107.05
2252.25044	4095.35
2255.14561	4088.25
2258.03893	4086.65
2260.93041	4088.95
2263.82004	4073.05
2266.70783	4069.95
2269.59378	4051.75
2272.4779	4033.15
2275.36017	4026.25
2278.24061	4014.35
2281.11922	4007.95
2283.996	4007.75
2286.87094	3997.55
2289.74405	3991.05
2292.61534	3990.95
2295.4848	3975.65
2298.35243	3987.35
2301.21824	3974.95
2304.08223	3967.45
2306.94439	3968.55
2309.80474	3963.95
2312.66327	3961.45
2315.51999	3963.15
2318.37489	3961.45
2321.22797	3936.45
2324.07925	3939.55
2326.92871	3918.35
2329.77637	3899.35
2332.62222	3911.15
2335.46626	3895.25
2338.3085	3896.75
2341.14893	3904.25
2343.98756	3892.65
2346.8244	3889.35
2349.65943	3873.35
2352.49267	3876.75
2355.32411	3882.95
2358.15376	3879.35
2360.98161	3875.35
2363.80768	3880.85
2366.63195	3856.55
2369.45444	3875.75
2372.27514	3865.75
2375.09405	3849.45
2377.91118	3845.45
2380.72652	3831.45
2383.54009	3820.35
2386.35187	3817.15
2389.16188	3815.85
2391.97011	3799.15
2394.77657	3789.95
2397.58125	3772.95
2400.38416	3769.25
2403.18529	3762.85
2405.98466	3763.55
2408.78226	3746.15
2411.57809	3749.55
2414.37216	3741.15
2417.16446	3729.35
2419.955	3732.65
2422.74378	3718.55
2425.5308	3720.85
2428.31606	3723.85
2431.09956	3716.55
2433.88131	3711.95
2436.6613	3717.45
2439.43954	3706.45
2442.21603	3713.95
2444.99077	3705.15
2447.76377	3683.05
2450.53501	3680.95
2453.30451	3698.85
2456.07226	3697.65
2458.83827	3677.95
2461.60254	3679.05
2464.36507	3682.35
2467.12586	3662.45
2469.88492	3657.05
2472.64224	3656.85
2475.39782	3678.55
2478.15167	3662.25
2480.90379	3656.85
2483.65417	3655.95
2486.40283	3655.45
2489.14976	3674.75
2491.89497	3649.65
2494.63845	3651.45
2497.3802	3649.15
2500.12024	3633.85
2502.85855	3628.15
2505.59514	3646.05
2508.33002	3630.05
2511.06318	3614.75
2513.79462	3601.45
2516.52435	3590.55
2519.25237	3589.25
2521.97867	3578.25
2524.70327	3577.45
2527.42616	3573.55
2530.14734	3577.55
2532.86681	3562.65
2535.58458	3560.65
2538.30065	3571.35
2541.01501	3536.85
2543.72768	3545.35
2546.43864	3535.35
2549.14791	3538.45
2551.85548	3522.15
2554.56136	3531.75
2557.26554	3518.15
2559.96803	3518.95
2562.66883	3502.55
2565.36794	3498.35
2568.06536	3484.75
2570.7611	3494.35
2573.45514	3468.25
2576.14751	3466.15
2578.83819	3449.05
2581.52719	3448.15
2584.21451	3436.85
2586.90015	3459.75
2589.58411	3429.75
2592.2664	3426.55
2594.94701	3419.65
2597.62594	3425.15
2600.30321	3417.65
2602.9788	3411.45
2605.65273	3405.85
2608.32498	3409.65
2610.99557	3398.65
2613.66449	3384.45
2616.33175	3387.75
2618.99734	3388.45
2621.66128	3378.65
2624.32355	3373.45
2626.98416	3360.35
2629.64311	3363.75
2632.30041	3328.35
2634.95605	3354.35
2637.61004	3323.55
2640.26238	3312.05
2642.91306	3326.15
2645.56209	3314.15
2648.20948	3322.55
2650.85521	3324.05
2653.4993	3321.95
2656.14175	3312.15
2658.78255	3306.35
2661.42171	3310.85
2664.05923	3307.45
2666.6951	3319.65
2669.32934	3308.85
2671.96194	3306.45
2674.59291	3309.25
2677.22224	3297.65
2679.84993	3311.05
2682.476	3308.75
2685.10043	3296.25
2687.72324	3303.85
2690.34441	3302.05
2692.96396	3278.65
2695.58188	3280.55
2698.19818	3294.75
2700.81285	3297.65
2703.4259	3276.45
2706.03733	3288.45
2708.64714	3278.85
2711.25533	3286.35
2713.86191	3262.75
2716.46687	3276.15
2719.07021	3284.25
2721.67194	3274.45
2724.27206	3276.45
2726.87057	3271.85
2729.46747	3264.35
2732.06276	3272.45
2734.65644	3272.95
2737.24852	3268.15
2739.83899	3265.25
2742.42786	3260.95
2745.01513	3231.75
2747.60079	3251.15
2750.18486	3249.95
2752.76733	3242.55
2755.3482	3229.15
2757.92747	3218.25
2760.50515	3206.75
2763.08123	3223.35
2765.65573	3189.15
2768.22863	3183.95
2770.79994	3182.15
2773.36967	3187.95
2775.9378	3190.55
2778.50435	3187.45
2781.06932	3181.95
2783.6327	3171.05
2786.1945	3153.75
2788.75471	3170.35
2791.31335	3161.75
2793.87041	3163.15
2796.42589	3150.85
2798.97979	3152.45
2801.53212	3148.35
2804.08288	3142.25
2806.63206	3119.45
2809.17967	3124.25
2811.72571	3104.95
2814.27018	3106.55
2816.81308	3095.55
2819.35442	3098.75
2821.89419	3090.85
2824.43239	3072.35
2826.96904	3061.05
2829.50412	3072.25
2832.03763	3064.35
2834.56959	3052.45
2837.1	3047.35
2839.62884	3042.65
2842.15613	3048.85
2844.68186	3050.55
2847.20604	3031.75
2849.72867	3027.25
2852.24974	3026.85
2854.76927	3024.45
2857.28724	3003.35
2859.80367	3005.85
2862.31855	3008.25
2864.83189	3004.85
2867.34368	3012.05
2869.85393	3001.05
2872.36264	2995.35
2874.8698	2997.35
2877.37543	2999.15
2879.87952	2980.95
2882.38207	2973.75
2884.88308	2970.35
2887.38256	2976.35
2889.88051	2972.45
2892.37692	2965.25
2894.8718	2947.35
2897.36515	2953.95
2899.85698	2950.15
2902.34727	2960.75
2904.83604	2956.75
2907.32328	2966.15
2909.809	2959.75
2912.29319	2962.85
2914.77587	2974.35
2917.25702	2965.65
2919.73665	2975.95
2922.21476	2968.35
2924.69136	2948.75
2927.16644	2939.45
2929.64	2954.05
2932.11205	2947.85
2934.58258	2924.15
2937.05161	2934.85
2939.51912	2932.95
2941.98513	2919.95
2944.44962	2920.05
2946.91261	2908.65
2949.37409	2910.65
2951.83407	2909.95
2954.29254	2923.15
2956.74951	2902.85
2959.20498	2912.15
2961.65895	2891.25
2964.11142	2895.15
2966.56239	2881.15
2969.01186	2904.65
2971.45984	2894.15
2973.90632	2893.45
2976.35131	2880.95
2978.7948	2879.25
2981.23681	2869.55
2983.67732	2877.25
2986.11635	2850.65
2988.55388	2858.75
2990.98993	2828.25
2993.4245	2832.05
2995.85758	2838.65
2998.28917	2837.35
3000.71928	2827.25
3003.14791	2815.75
3005.57506	2808.55
3008.00073	2794.95
3010.42493	2795.35
3012.84764	2790.45
3015.26888	2791.05
3017.68865	2776.25
3020.10694	2778.75
3022.52376	2775.85
3024.9391	2757.85
3027.35298	2744.45
3029.76539	2741.75
3032.17632	2731.55
3034.5858	2735.95
3036.9938	2723.75
3039.40034	2716.65
3041.80542	2712.15
3044.20903	2726.25
3046.61118	2705.05
3049.01187	2690.75
3051.4111	2699.35
3053.80888	2689.85
3056.20519	2682.45
3058.60005	2668.05
3060.99345	2669.95
3063.3854	2679.65
3065.7759	2659.95
3068.16494	2653.15
3070.55254	2637.65
3072.93868	2632.45
3075.32338	2640.35
3077.70662	2619.75
3080.08842	2613.25
3082.46878	2616.35
3084.84769	2591.05
3087.22515	2600.85
3089.60118	2605.65
3091.97576	2600.65
3094.3489	2585.65
3096.72061	2595.45
3099.09087	2585.75
3101.4597	2590.85
3103.82709	2586.35
3106.19305	2577.95
3108.55757	2586.95
3110.92066	2567.25
3113.28232	2576.35
3115.64255	2559.95
3118.00134	2551.85
3120.35871	2548.35
3122.71466	2540.25
3125.06917	2533.05
3127.42226	2523.65
3129.77393	2526.25
3132.12417	2521.55
3134.47299	2521.45
3136.82039	2511.15
3139.16636	2527.15
3141.51092	2518.75
3143.85406	2526.75
3146.19579	2515.95
3148.53609	2501.45
3150.87499	2496.15
3153.21246	2499.55
3155.54853	2506.55
3157.88318	2508.25
3160.21642	2517.45
3162.54826	2510.05
3164.87868	2498.35
3167.2077	2494.45
3169.5353	2482.65
3171.86151	2486.65
3174.18631	2481.75
3176.5097	2479.85
3178.83169	2462.95
3181.15228	2480.55
3183.47147	2467.65
3185.78926	2459.85
3188.10565	2451.85
3190.42065	2452.65
3192.73424	2452.65
3195.04645	2454.95
3197.35725	2437.95
3199.66667	2423.15
3201.97469	2446.25
3204.28132	2432.35
3206.58656	2441.75
3208.8904	2439.85
3211.19287	2444.95
3213.49394	2438.35
3215.79363	2439.35
3218.09193	2441.35
3220.38884	2434.35
3222.68438	2432.05
3224.97853	2428.05
3227.2713	2425.25
3229.56269	2412.95
3231.8527	2409.35
3234.14133	2400.75
3236.42858	2407.25
3238.71446	2403.85
3240.99896	2382.75
3243.28209	2381.95
3245.56384	2371.45
3247.84423	2392.45
3250.12324	2381.35
3252.40088	2377.15
3254.67715	2374.75
3256.95205	2361.65
3259.22558	2366.05
3261.49775	2357.75
3263.76855	2359.95
3266.03799	2358.05
3268.30606	2354.15
3270.57277	2351.85
3272.83812	2351.35
3275.10211	2343.85
3277.36474	2341.85
3279.62601	2326.85
3281.88593	2320.55
3284.14448	2323.65
3286.40168	2316.45
3288.65753	2326.15
3290.91202	2320.15
3293.16516	2310.75
3295.41695	2304.95
3297.66738	2296.25
3299.91647	2270.85
3302.16421	2259.75
3304.4106	2252.65
3306.65564	2235.05
3308.89933	2234.25
3311.14169	2207.75
3313.38269	2182.15
3315.62236	2175.35
3317.86068	2165.15
3320.09766	2138.25
3322.3333	2117.25
3324.5676	2111.95
3326.80056	2066.55
3329.03219	2064.25
3331.26248	0.45
3333.49143	-0.25
3335.71905	-0.15
