Data from AgNPs_UA_20uM_CRN_500uM_SU_RamanShift__28__13-41-10-296.txt Node

Date: Thu Aug 04 13:41:10 BST 2022
User: TCL
Spectrometer: QEP01345
Trigger mode: 4
Integration Time (sec): 1.000000E0
Scans to average: 10
Electric dark correction enabled: true
Nonlinearity correction enabled: false
Boxcar width: 0
XAxis mode: Raman Shifts
Number of Pixels in Spectrum: 1044
>>>>>Begin Spectral Data<<<<<
46.04893	-2.55
50.45542	0.65
54.85868	1.65
59.25871	-0.95
63.6555	16.35
68.04907	14.05
72.43941	18.75
76.82654	15.95
81.21044	17.25
85.59113	20.05
89.96862	20.35
94.34289	20.35
98.71396	20.35
103.08183	23.25
107.4465	21.85
111.80798	23.95
116.16626	25.65
120.52136	25.95
124.87327	26.15
129.222	32.55
133.56755	29.65
137.90993	32.55
142.24913	36.35
146.58517	38.85
150.91804	48.65
155.24774	55.85
159.57429	73.55
163.89768	91.55
168.21792	128.25
172.53501	173.25
176.84895	236.85
181.15975	344.85
185.46741	482.75
189.77193	674.45
194.07331	904.85
198.37157	1177.05
202.6667	1458.95
206.9587	1737.95
211.24758	2003.85
215.53334	2304.05
219.81599	2612.35
224.09553	2965.05
228.37195	3346.35
232.64527	3757.45
236.91549	4174.15
241.18261	4541.65
245.44663	4840.35
249.70755	5090.45
253.96539	5292.45
258.22014	5449.55
262.4718	5583.25
266.72039	5657.85
270.96589	5693.45
275.20832	5643.15
279.44768	5569.25
283.68397	5488.35
287.91719	5412.95
292.14735	5438.05
296.37445	5518.75
300.59849	5671.55
304.81948	5905.75
309.03742	6128.75
313.25231	6254.65
317.46415	6197.45
321.67296	5967.85
325.87872	5708.65
330.08145	5582.85
334.28114	5556.65
338.47781	5647.85
342.67145	5763.25
346.86207	5923.15
351.04966	6157.65
355.23424	6396.45
359.4158	6562.15
363.59435	6623.85
367.76989	6642.45
371.94243	6635.95
376.11196	6587.45
380.27849	6570.15
384.44203	6536.45
388.60257	6576.05
392.76012	6619.95
396.91468	6718.75
401.06626	6810.45
405.21485	6847.35
409.36047	6732.35
413.50311	6512.85
417.64277	6353.05
421.77947	6236.65
425.9132	6169.55
430.04396	6186.65
434.17176	6216.05
438.2966	6305.15
442.41849	6400.65
446.53742	6519.75
450.6534	6654.35
454.76644	6726.25
458.87653	6737.65
462.98368	6700.25
467.08789	6657.05
471.18916	6579.55
475.2875	6469.15
479.38291	6359.95
483.4754	6299.45
487.56496	6218.25
491.6516	6237.75
495.73531	6224.15
499.81612	6230.25
503.89401	6291.05
507.96899	6366.65
512.04106	6405.95
516.11023	6470.55
520.1765	6511.85
524.23987	6555.25
528.30034	6525.85
532.35792	6509.05
536.41261	6458.05
540.46441	6399.25
544.51333	6365.15
548.55936	6400.75
552.60252	6468.15
556.64279	6569.85
560.6802	6661.45
564.71473	6740.15
568.7464	6838.75
572.7752	6820.55
576.80114	6655.85
580.82422	6523.35
584.84444	6502.95
588.86181	6494.25
592.87633	6549.05
596.888	6666.25
600.89682	6965.35
604.9028	7684.55
608.90594	9221.45
612.90624	10833.05
616.90371	10046.05
620.89834	7825.65
624.89015	6878.05
628.87913	6749.45
632.86528	6898.95
636.84862	7022.85
640.82913	6917.25
644.80683	6697.35
648.78172	6545.85
652.75379	6565.45
656.72306	6728.25
660.68952	6914.15
664.65319	6839.05
668.61405	6696.25
672.57211	6674.05
676.52738	6698.25
680.47986	6625.25
684.42955	6525.45
688.37646	6479.55
692.32058	6527.75
696.26192	6635.95
700.20048	6724.05
704.13626	6779.15
708.06928	6747.85
711.99952	6689.25
715.927	6686.65
719.85171	6714.55
723.77365	6724.35
727.69284	6715.25
731.60928	6642.45
735.52295	6633.45
739.43388	6645.25
743.34206	6687.75
747.24749	6693.95
751.15017	6710.65
755.05012	6776.05
758.94733	7028.95
762.8418	7633.35
766.73354	8567.35
770.62254	9309.05
774.50882	9437.95
778.39237	9012.65
782.27321	8317.65
786.15132	7576.45
790.02671	7105.15
793.89938	6866.05
797.76935	6764.25
801.6366	6701.75
805.50115	6661.95
809.36299	6650.95
813.22213	6640.35
817.07857	6640.25
820.93231	6636.45
824.78336	6677.75
828.63172	6672.85
832.47738	6679.95
836.32036	6650.25
840.16066	6636.05
843.99827	6640.05
847.8332	6642.75
851.66546	6652.05
855.49504	6683.95
859.32195	6697.15
863.1462	6692.75
866.96777	6666.75
870.78668	6662.25
874.60293	6729.35
878.41652	6754.05
882.22745	6787.45
886.03573	6817.95
889.84136	6818.15
893.64433	6801.75
897.44466	6780.35
901.24235	6771.05
905.0374	6757.25
908.8298	6717.65
912.61957	6693.05
916.40671	6692.05
920.19121	6727.85
923.97308	6794.45
927.75233	6867.25
931.52895	6893.45
935.30295	6844.45
939.07433	6733.25
942.84309	6638.65
946.60924	6607.95
950.37278	6594.75
954.13371	6613.05
957.89203	6597.75
961.64774	6599.65
965.40086	6599.25
969.15137	6575.45
972.89929	6578.25
976.64461	6592.25
980.38733	6606.15
984.12747	6617.45
987.86502	6637.05
991.59999	6682.15
995.33237	6735.25
999.06217	6793.75
1002.78939	6915.45
1006.51404	7030.75
1010.23611	7140.55
1013.95561	7176.15
1017.67255	7169.15
1021.38692	7144.85
1025.09872	7054.55
1028.80796	6979.95
1032.51465	6942.75
1036.21877	6952.25
1039.92035	6969.15
1043.61937	7012.85
1047.31584	7045.65
1051.00976	7060.95
1054.70114	7061.15
1058.38998	7069.15
1062.07627	7092.25
1065.76003	7150.35
1069.44126	7244.85
1073.11995	7386.45
1076.79611	7509.55
1080.46974	7620.15
1084.14085	7713.75
1087.80943	7803.95
1091.47549	7883.25
1095.13903	7865.85
1098.80005	7794.55
1102.45857	7708.25
1106.11456	7610.95
1109.76805	7529.75
1113.41903	7565.15
1117.06751	7659.55
1120.71348	7800.45
1124.35696	8047.75
1127.99793	8188.95
1131.63641	8069.65
1135.2724	7820.85
1138.90589	7640.75
1142.5369	7551.75
1146.16542	7518.25
1149.79145	7508.25
1153.415	7411.05
1157.03607	7357.55
1160.65467	7367.55
1164.27079	7494.75
1167.88443	7717.55
1171.49561	8027.75
1175.10432	8529.35
1178.71056	9265.95
1182.31434	9884.45
1185.91565	10058.35
1189.51451	9931.75
1193.11091	9741.95
1196.70485	9545.55
1200.29634	9338.85
1203.88538	9131.35
1207.47197	8826.95
1211.05612	8569.75
1214.63782	8314.75
1218.21708	8122.65
1221.79391	7975.45
1225.36829	7885.05
1228.94024	7860.35
1232.50976	7830.95
1236.07685	7850.55
1239.6415	7866.85
1243.20374	7921.35
1246.76355	7955.05
1250.32093	8050.25
1253.8759	8201.65
1257.42845	8414.45
1260.97859	8627.65
1264.52631	8817.65
1268.07163	8947.15
1271.61453	9030.85
1275.15503	9066.85
1278.69312	9063.65
1282.22882	9070.05
1285.76211	9136.45
1289.29301	9298.75
1292.82151	9506.75
1296.34761	9666.25
1299.87133	9968.85
1303.39266	10484.75
1306.9116	11254.35
1310.42815	12000.95
1313.94233	12239.75
1317.45412	11802.05
1320.96354	11112.15
1324.47058	10503.45
1327.97525	9955.55
1331.47754	9701.45
1334.97747	9625.95
1338.47502	9724.15
1341.97022	10058.25
1345.46305	10605.05
1348.95352	11370.25
1352.44163	12295.25
1355.92738	13150.95
1359.41078	14287.85
1362.89183	15236.05
1366.37053	14668.05
1369.84688	12692.55
1373.32088	10831.05
1376.79254	9780.35
1380.26186	9283.15
1383.72883	8992.15
1387.19347	8744.75
1390.65578	8500.55
1394.11575	8280.75
1397.57339	8116.65
1401.0287	8003.55
1404.48168	7967.25
1407.93234	7965.95
1411.38068	8032.65
1414.82669	8088.95
1418.27039	8098.35
1421.71177	8058.65
1425.15083	7986.95
1428.58758	7958.05
1432.02203	8000.65
1435.45416	8083.15
1438.88399	8127.05
1442.31151	8176.25
1445.73673	8201.15
1449.15965	8262.75
1452.58027	8217.25
1455.9986	8188.55
1459.41463	8179.45
1462.82837	8253.25
1466.23982	8394.25
1469.64898	8582.45
1473.05586	8713.65
1476.46045	8794.45
1479.86276	8830.75
1483.26279	8939.65
1486.66054	9095.95
1490.05602	9330.05
1493.44922	9709.45
1496.84016	10300.35
1500.22882	11247.85
1503.61521	12403.85
1506.99934	13531.35
1510.38121	14136.95
1513.76081	13881.05
1517.13816	12784.45
1520.51324	11479.05
1523.88607	10391.35
1527.25665	9774.05
1530.62498	9492.95
1533.99105	9347.15
1537.35488	9269.65
1540.71647	9217.95
1544.07581	9141.25
1547.4329	9043.95
1550.78776	8956.55
1554.14038	8857.05
1557.49077	8816.95
1560.83892	8850.25
1564.18484	9029.45
1567.52853	9291.35
1570.86999	9516.85
1574.20922	9600.85
1577.54624	9464.55
1580.88103	9078.05
1584.2136	8621.75
1587.54395	8352.25
1590.87208	8339.85
1594.19801	8560.55
1597.52172	8897.95
1600.84321	9072.65
1604.16251	9026.75
1607.47959	8876.55
1610.79447	8620.05
1614.10715	8247.05
1617.41763	7874.65
1620.7259	7613.65
1624.03199	7466.25
1627.33587	7435.45
1630.63757	7459.85
1633.93707	7682.05
1637.23439	8031.05
1640.52951	8593.75
1643.82246	9432.05
1647.11321	10306.95
1650.40179	10779.65
1653.68819	10436.15
1656.97241	9440.95
1660.25446	8374.25
1663.53433	7608.45
1666.81203	7161.15
1670.08756	6883.05
1673.36092	6740.55
1676.63211	6635.95
1679.90115	6548.85
1683.16801	6488.55
1686.43272	6416.05
1689.69527	6395.75
1692.95567	6359.65
1696.2139	6343.05
1699.46999	6311.65
1702.72392	6307.35
1705.97571	6324.85
1709.22535	6308.55
1712.47284	6312.85
1715.71819	6293.05
1718.96139	6282.95
1722.20246	6271.95
1725.44139	6274.05
1728.67818	6227.75
1731.91284	6201.25
1735.14537	6181.15
1738.37576	6141.25
1741.60403	6140.35
1744.83017	6133.45
1748.05418	6115.05
1751.27607	6088.95
1754.49584	6068.05
1757.71349	6066.25
1760.92903	6051.75
1764.14244	6047.95
1767.35375	6032.45
1770.56294	6037.85
1773.77002	6029.25
1776.97499	6011.45
1780.17785	6013.95
1783.37861	5966.95
1786.57727	5975.25
1789.77382	5964.35
1792.96828	5944.25
1796.16064	5923.55
1799.3509	5934.85
1802.53907	5909.45
1805.72514	5891.25
1808.90913	5897.45
1812.09102	5875.75
1815.27083	5868.75
1818.44856	5857.45
1821.6242	5842.65
1824.79776	5823.45
1827.96924	5815.55
1831.13864	5811.15
1834.30597	5817.35
1837.47122	5810.05
1840.6344	5788.05
1843.7955	5779.15
1846.95454	5779.55
1850.11151	5778.25
1853.26642	5779.65
1856.41926	5770.55
1859.57004	5772.45
1862.71876	5748.75
1865.86542	5750.55
1869.01003	5730.95
1872.15258	5741.85
1875.29308	5711.05
1878.43152	5722.45
1881.56792	5718.05
1884.70227	5688.35
1887.83457	5719.95
1890.96482	5701.55
1894.09304	5682.25
1897.21921	5660.65
1900.34335	5655.35
1903.46544	5654.65
1906.58551	5642.95
1909.70353	5646.85
1912.81953	5632.05
1915.93349	5621.65
1919.04543	5631.35
1922.15534	5603.45
1925.26322	5591.85
1928.36908	5592.95
1931.47292	5566.95
1934.57473	5570.95
1937.67453	5557.65
1940.77232	5558.65
1943.86808	5524.95
1946.96184	5497.35
1950.05358	5490.65
1953.14331	5485.45
1956.23103	5462.65
1959.31675	5436.75
1962.40046	5415.85
1965.48217	5418.95
1968.56188	5397.95
1971.63959	5381.75
1974.7153	5364.85
1977.78901	5374.15
1980.86073	5334.55
1983.93046	5312.55
1986.99819	5315.75
1990.06394	5307.65
1993.1277	5277.75
1996.18947	5263.65
1999.24925	5251.75
2002.30706	5230.65
2005.36288	5213.45
2008.41672	5198.25
2011.46859	5177.75
2014.51848	5165.85
2017.56639	5145.25
2020.61233	5140.05
2023.6563	5120.55
2026.6983	5103.05
2029.73833	5073.95
2032.7764	5090.35
2035.8125	5075.95
2038.84664	5052.65
2041.87881	5035.25
2044.90903	5036.65
2047.93729	5031.55
2050.96359	5035.25
2053.98794	5013.15
2057.01034	5018.05
2060.03078	5004.45
2063.04927	4990.25
2066.06582	4980.45
2069.08042	4985.45
2072.09307	4989.25
2075.10378	4975.55
2078.11255	4965.95
2081.11938	4968.25
2084.12426	4955.95
2087.12722	4972.85
2090.12824	4954.85
2093.12732	4964.75
2096.12447	4971.75
2099.11969	4957.65
2102.11299	4970.25
2105.10435	4967.75
2108.09379	4961.95
2111.08131	4972.65
2114.0669	4960.85
2117.05057	4960.85
2120.03233	4957.25
2123.01216	4965.05
2125.99008	4990.15
2128.96609	4984.45
2131.94018	4993.65
2134.91236	4985.45
2137.88263	4987.85
2140.851	4980.35
2143.81746	5001.05
2146.78201	4980.15
2149.74466	4975.55
2152.7054	4973.55
2155.66425	4986.45
2158.6212	4996.85
2161.57625	4982.25
2164.52941	4985.05
2167.48067	4966.25
2170.43004	4964.15
2173.37752	4968.05
2176.32311	4974.05
2179.26681	4962.85
2182.20863	4976.25
2185.14856	4967.55
2188.08661	4962.65
2191.02278	4956.85
2193.95707	4957.95
2196.88948	4947.05
2199.82001	4945.45
2202.74867	4936.95
2205.67545	4950.45
2208.60037	4934.15
2211.52341	4933.75
2214.44458	4912.75
2217.36388	4900.45
2220.28132	4877.25
2223.1969	4857.85
2226.11061	4860.25
2229.02246	4838.55
2231.93245	4835.65
2234.84058	4835.75
2237.74686	4827.45
2240.65128	4824.65
2243.55385	4823.15
2246.45456	4824.35
2249.35343	4802.05
2252.25044	4788.95
2255.14561	4808.95
2258.03893	4808.15
2260.93041	4797.35
2263.82004	4794.45
2266.70783	4774.15
2269.59378	4736.45
2272.4779	4736.75
2275.36017	4724.55
2278.24061	4696.25
2281.11922	4705.95
2283.996	4698.55
2286.87094	4680.35
2289.74405	4682.35
2292.61534	4688.25
2295.4848	4655.55
2298.35243	4668.25
2301.21824	4670.35
2304.08223	4657.35
2306.94439	4659.75
2309.80474	4652.55
2312.66327	4649.35
2315.51999	4634.65
2318.37489	4627.35
2321.22797	4612.35
2324.07925	4611.45
2326.92871	4599.35
2329.77637	4596.45
2332.62222	4584.65
2335.46626	4578.05
2338.3085	4566.35
2341.14893	4576.35
2343.98756	4566.25
2346.8244	4559.35
2349.65943	4552.35
2352.49267	4571.45
2355.32411	4554.65
2358.15376	4556.75
2360.98161	4552.95
2363.80768	4559.65
2366.63195	4554.25
2369.45444	4535.25
2372.27514	4522.65
2375.09405	4538.25
2377.91118	4523.45
2380.72652	4534.15
2383.54009	4508.55
2386.35187	4497.65
2389.16188	4478.25
2391.97011	4482.65
2394.77657	4474.35
2397.58125	4441.25
2400.38416	4444.05
2403.18529	4425.05
2405.98466	4446.65
2408.78226	4421.35
2411.57809	4414.55
2414.37216	4402.05
2417.16446	4406.55
2419.955	4411.05
2422.74378	4397.65
2425.5308	4390.05
2428.31606	4388.75
2431.09956	4394.45
2433.88131	4399.55
2436.6613	4384.85
2439.43954	4378.75
2442.21603	4377.55
2444.99077	4372.25
2447.76377	4378.05
2450.53501	4358.95
2453.30451	4358.15
2456.07226	4345.85
2458.83827	4351.35
2461.60254	4332.65
2464.36507	4331.45
2467.12586	4341.75
2469.88492	4327.45
2472.64224	4336.05
2475.39782	4326.45
2478.15167	4334.95
2480.90379	4311.15
2483.65417	4319.45
2486.40283	4316.25
2489.14976	4330.95
2491.89497	4332.65
2494.63845	4322.95
2497.3802	4322.85
2500.12024	4323.35
2502.85855	4289.55
2505.59514	4267.25
2508.33002	4258.75
2511.06318	4258.75
2513.79462	4246.85
2516.52435	4239.25
2519.25237	4239.75
2521.97867	4234.35
2524.70327	4232.25
2527.42616	4224.55
2530.14734	4225.75
2532.86681	4210.95
2535.58458	4202.95
2538.30065	4205.95
2541.01501	4207.55
2543.72768	4192.35
2546.43864	4204.25
2549.14791	4197.95
2551.85548	4189.45
2554.56136	4194.95
2557.26554	4172.25
2559.96803	4157.35
2562.66883	4161.85
2565.36794	4145.35
2568.06536	4146.95
2570.7611	4119.15
2573.45514	4124.95
2576.14751	4112.45
2578.83819	4120.85
2581.52719	4076.05
2584.21451	4072.35
2586.90015	4068.25
2589.58411	4043.15
2592.2664	4048.75
2594.94701	4059.45
2597.62594	4060.95
2600.30321	4036.15
2602.9788	4030.05
2605.65273	4028.95
2608.32498	4022.05
2610.99557	4009.75
2613.66449	4013.95
2616.33175	4006.85
2618.99734	3999.75
2621.66128	3983.65
2624.32355	3985.25
2626.98416	3991.85
2629.64311	3966.75
2632.30041	3955.05
2634.95605	3958.45
2637.61004	3943.45
2640.26238	3930.75
2642.91306	3938.05
2645.56209	3924.25
2648.20948	3927.05
2650.85521	3929.05
2653.4993	3926.25
2656.14175	3933.45
2658.78255	3931.95
2661.42171	3918.85
2664.05923	3938.75
2666.6951	3951.55
2669.32934	3939.75
2671.96194	3939.65
2674.59291	3929.65
2677.22224	3929.95
2679.84993	3932.25
2682.476	3913.45
2685.10043	3919.35
2687.72324	3893.85
2690.34441	3913.55
2692.96396	3917.95
2695.58188	3908.35
2698.19818	3901.65
2700.81285	3923.65
2703.4259	3908.85
2706.03733	3910.55
2708.64714	3892.35
2711.25533	3872.75
2713.86191	3884.45
2716.46687	3887.25
2719.07021	3896.45
2721.67194	3909.05
2724.27206	3900.15
2726.87057	3896.95
2729.46747	3904.75
2732.06276	3904.25
2734.65644	3889.75
2737.24852	3893.45
2739.83899	3890.65
2742.42786	3878.15
2745.01513	3874.05
2747.60079	3863.65
2750.18486	3864.05
2752.76733	3857.15
2755.3482	3842.15
2757.92747	3847.35
2760.50515	3832.65
2763.08123	3825.55
2765.65573	3806.45
2768.22863	3800.15
2770.79994	3805.05
2773.36967	3806.35
2775.9378	3805.95
2778.50435	3793.85
2781.06932	3787.35
2783.6327	3779.95
2786.1945	3757.55
2788.75471	3744.95
2791.31335	3747.65
2793.87041	3747.95
2796.42589	3741.05
2798.97979	3747.55
2801.53212	3740.45
2804.08288	3732.65
2806.63206	3715.45
2809.17967	3722.95
2811.72571	3709.35
2814.27018	3712.95
2816.81308	3709.05
2819.35442	3678.15
2821.89419	3659.15
2824.43239	3658.45
2826.96904	3660.95
2829.50412	3641.85
2832.03763	3647.75
2834.56959	3626.75
2837.1	3628.95
2839.62884	3618.65
2842.15613	3629.15
2844.68186	3624.05
2847.20604	3606.95
2849.72867	3613.05
2852.24974	3599.95
2854.76927	3593.25
2857.28724	3580.65
2859.80367	3563.45
2862.31855	3572.35
2864.83189	3560.75
2867.34368	3573.15
2869.85393	3559.75
2872.36264	3559.35
2874.8698	3563.35
2877.37543	3563.45
2879.87952	3541.85
2882.38207	3532.85
2884.88308	3539.45
2887.38256	3544.05
2889.88051	3537.85
2892.37692	3524.85
2894.8718	3516.55
2897.36515	3514.55
2899.85698	3528.95
2902.34727	3527.15
2904.83604	3518.45
2907.32328	3533.15
2909.809	3541.05
2912.29319	3528.35
2914.77587	3524.65
2917.25702	3529.65
2919.73665	3528.05
2922.21476	3537.35
2924.69136	3530.05
2927.16644	3522.55
2929.64	3515.55
2932.11205	3511.65
2934.58258	3496.05
2937.05161	3490.05
2939.51912	3484.95
2941.98513	3474.05
2944.44962	3482.95
2946.91261	3462.85
2949.37409	3485.15
2951.83407	3477.65
2954.29254	3456.35
2956.74951	3465.15
2959.20498	3445.35
2961.65895	3454.65
2964.11142	3452.55
2966.56239	3440.55
2969.01186	3447.45
2971.45984	3452.15
2973.90632	3450.35
2976.35131	3441.25
2978.7948	3432.45
2981.23681	3415.65
2983.67732	3406.95
2986.11635	3411.25
2988.55388	3419.05
2990.98993	3394.25
2993.4245	3390.95
2995.85758	3397.35
2998.28917	3380.45
3000.71928	3383.25
3003.14791	3362.95
3005.57506	3344.35
3008.00073	3336.65
3010.42493	3346.45
3012.84764	3319.55
3015.26888	3319.35
3017.68865	3310.75
3020.10694	3304.25
3022.52376	3296.25
3024.9391	3288.35
3027.35298	3275.85
3029.76539	3267.55
3032.17632	3267.15
3034.5858	3270.95
3036.9938	3270.65
3039.40034	3258.05
3041.80542	3227.65
3044.20903	3230.75
3046.61118	3230.65
3049.01187	3210.05
3051.4111	3226.35
3053.80888	3216.05
3056.20519	3213.25
3058.60005	3199.25
3060.99345	3185.75
3063.3854	3192.85
3065.7759	3175.55
3068.16494	3172.45
3070.55254	3178.75
3072.93868	3155.95
3075.32338	3154.15
3077.70662	3140.25
3080.08842	3107.65
3082.46878	3113.75
3084.84769	3110.25
3087.22515	3104.05
3089.60118	3116.25
3091.97576	3101.95
3094.3489	3113.05
3096.72061	3094.55
3099.09087	3093.85
3101.4597	3090.65
3103.82709	3103.25
3106.19305	3091.15
3108.55757	3080.05
3110.92066	3071.55
3113.28232	3074.05
3115.64255	3070.35
3118.00134	3046.25
3120.35871	3044.15
3122.71466	3045.25
3125.06917	3040.95
3127.42226	3037.15
3129.77393	3035.35
3132.12417	3023.75
3134.47299	3006.35
3136.82039	3003.75
3139.16636	2996.75
3141.51092	3014.95
3143.85406	2997.75
3146.19579	3000.95
3148.53609	3008.15
3150.87499	2987.35
3153.21246	2989.55
3155.54853	2994.85
3157.88318	2987.35
3160.21642	2991.35
3162.54826	2989.65
3164.87868	2989.05
3167.2077	2973.85
3169.5353	2980.65
3171.86151	2970.95
3174.18631	2970.45
3176.5097	2968.65
3178.83169	2950.05
3181.15228	2950.45
3183.47147	2954.05
3185.78926	2942.25
3188.10565	2929.95
3190.42065	2931.95
3192.73424	2914.45
3195.04645	2907.85
3197.35725	2897.05
3199.66667	2887.35
3201.97469	2902.05
3204.28132	2905.65
3206.58656	2900.85
3208.8904	2895.45
3211.19287	2904.45
3213.49394	2900.55
3215.79363	2906.05
3218.09193	2892.15
3220.38884	2909.55
3222.68438	2906.95
3224.97853	2894.35
3227.2713	2894.55
3229.56269	2886.65
3231.8527	2893.05
3234.14133	2860.55
3236.42858	2861.85
3238.71446	2859.85
3240.99896	2841.45
3243.28209	2847.45
3245.56384	2840.55
3247.84423	2841.25
3250.12324	2833.75
3252.40088	2825.45
3254.67715	2818.75
3256.95205	2805.25
3259.22558	2810.75
3261.49775	2799.65
3263.76855	2826.05
3266.03799	2818.35
3268.30606	2812.15
3270.57277	2822.35
3272.83812	2803.85
3275.10211	2786.05
3277.36474	2788.65
3279.62601	2794.85
3281.88593	2773.25
3284.14448	2770.35
3286.40168	2763.85
3288.65753	2768.15
3290.91202	2764.65
3293.16516	2749.65
3295.41695	2740.75
3297.66738	2724.75
3299.91647	2718.25
3302.16421	2706.95
3304.4106	2696.05
3306.65564	2661.55
3308.89933	2652.75
3311.14169	2633.65
3313.38269	2599.45
3315.62236	2601.05
3317.86068	2567.75
3320.09766	2536.35
3322.3333	2508.05
3324.5676	2501.95
3326.80056	2464.25
3329.03219	2451.75
3331.26248	1.55
3333.49143	-1.45
3335.71905	-0.25
