Data from AgNPs_UA_5uM_CRN_500uM_SU_RamanShift__258__12-12-23-191.txt Node

Date: Thu Aug 04 12:12:23 BST 2022
User: TCL
Spectrometer: QEP01345
Trigger mode: 4
Integration Time (sec): 1.000000E0
Scans to average: 10
Electric dark correction enabled: true
Nonlinearity correction enabled: false
Boxcar width: 0
XAxis mode: Raman Shifts
Number of Pixels in Spectrum: 1044
>>>>>Begin Spectral Data<<<<<
46.04893	-0.85
50.45542	0.05
54.85868	0.25
59.25871	-1.05
63.6555	-58.15
68.04907	-40.85
72.43941	-70.95
76.82654	-57.25
81.21044	-57.15
85.59113	-49.05
89.96862	-74.75
94.34289	-54.45
98.71396	-78.75
103.08183	-59.55
107.4465	-51.15
111.80798	-56.45
116.16626	-46.25
120.52136	-74.55
124.87327	-52.05
129.222	-63.35
133.56755	-50.05
137.90993	-65.25
142.24913	-52.55
146.58517	-45.55
150.91804	-41.95
155.24774	-30.05
159.57429	-11.15
163.89768	-7.55
168.21792	35.25
172.53501	52.85
176.84895	133.95
181.15975	261.35
185.46741	409.65
189.77193	579.15
194.07331	853.45
198.37157	1145.35
202.6667	1410.75
206.9587	1715.85
211.24758	2032.95
215.53334	2339.45
219.81599	2688.15
224.09553	3082.85
228.37195	3502.45
232.64527	3954.55
236.91549	4398.65
241.18261	4753.75
245.44663	5024.45
249.70755	5186.15
253.96539	5289.85
258.22014	5397.85
262.4718	5488.05
266.72039	5515.65
270.96589	5474.45
275.20832	5401.05
279.44768	5282.45
283.68397	5181.25
287.91719	5115.55
292.14735	5168.55
296.37445	5356.35
300.59849	5632.35
304.81948	5966.65
309.03742	6328.05
313.25231	6551.45
317.46415	6517.45
321.67296	6129.45
325.87872	5750.95
330.08145	5551.75
334.28114	5504.45
338.47781	5563.35
342.67145	5714.15
346.86207	5911.95
351.04966	6266.45
355.23424	6662.35
359.4158	6897.65
363.59435	6962.25
367.76989	6902.75
371.94243	6755.55
376.11196	6642.45
380.27849	6561.15
384.44203	6479.25
388.60257	6448.15
392.76012	6462.55
396.91468	6574.75
401.06626	6715.75
405.21485	6771.35
409.36047	6598.45
413.50311	6269.25
417.64277	5989.85
421.77947	5786.55
425.9132	5716.35
430.04396	5721.75
434.17176	5751.15
438.2966	5829.65
442.41849	5926.25
446.53742	6022.35
450.6534	6125.45
454.76644	6192.95
458.87653	6213.55
462.98368	6168.55
467.08789	6098.75
471.18916	6026.45
475.2875	5884.55
479.38291	5804.25
483.4754	5700.35
487.56496	5657.35
491.6516	5622.75
495.73531	5633.05
499.81612	5654.25
503.89401	5748.25
507.96899	5773.35
512.04106	5874.65
516.11023	5971.75
520.1765	6053.75
524.23987	6091.95
528.30034	6089.55
532.35792	5989.75
536.41261	5962.15
540.46441	5848.45
544.51333	5804.15
548.55936	5848.95
552.60252	5964.95
556.64279	6055.85
560.6802	6187.35
564.71473	6327.45
568.7464	6509.35
572.7752	6492.45
576.80114	6180.55
580.82422	5968.05
584.84444	5880.15
588.86181	5849.85
592.87633	5875.65
596.888	6000.75
600.89682	6354.55
604.9028	7324.85
608.90594	9392.35
612.90624	11716.15
616.90371	10843.45
620.89834	7798.05
624.89015	6478.05
628.87913	6277.75
632.86528	6404.45
636.84862	6580.95
640.82913	6456.95
644.80683	6104.25
648.78172	5918.25
652.75379	5929.45
656.72306	6164.05
660.68952	6409.35
664.65319	6329.95
668.61405	6089.65
672.57211	6021.65
676.52738	6022.05
680.47986	5921.15
684.42955	5848.35
688.37646	5776.05
692.32058	5780.65
696.26192	5860.55
700.20048	5972.05
704.13626	5978.85
708.06928	5933.05
711.99952	5922.65
715.927	5899.25
719.85171	5942.85
723.77365	5988.05
727.69284	5950.55
731.60928	5923.55
735.52295	5927.55
739.43388	5949.75
743.34206	5962.65
747.24749	5989.65
751.15017	6002.45
755.05012	6074.55
758.94733	6459.75
762.8418	7306.55
766.73354	8642.15
770.62254	9665.15
774.50882	9747.75
778.39237	9217.05
782.27321	8258.45
786.15132	7224.05
790.02671	6543.95
793.89938	6172.65
797.76935	6058.25
801.6366	5969.55
805.50115	5901.35
809.36299	5887.35
813.22213	5891.15
817.07857	5873.85
820.93231	5892.25
824.78336	5911.15
828.63172	5922.85
832.47738	5931.65
836.32036	5936.75
840.16066	5897.75
843.99827	5874.65
847.8332	5882.05
851.66546	5890.75
855.49504	5880.15
859.32195	5914.05
863.1462	5897.55
866.96777	5900.75
870.78668	5873.15
874.60293	5896.95
878.41652	5945.35
882.22745	6006.75
886.03573	6027.15
889.84136	6021.75
893.64433	6033.95
897.44466	6011.05
901.24235	6017.15
905.0374	5994.35
908.8298	5959.45
912.61957	5935.95
916.40671	5880.65
920.19121	5915.05
923.97308	6018.15
927.75233	6054.05
931.52895	6141.45
935.30295	6092.55
939.07433	5948.65
942.84309	5845.35
946.60924	5805.95
950.37278	5761.85
954.13371	5783.45
957.89203	5763.25
961.64774	5784.35
965.40086	5765.95
969.15137	5743.65
972.89929	5769.15
976.64461	5750.85
980.38733	5792.25
984.12747	5778.85
987.86502	5810.75
991.59999	5825.65
995.33237	5892.75
999.06217	5950.75
1002.78939	6012.75
1006.51404	6158.05
1010.23611	6255.95
1013.95561	6295.65
1017.67255	6311.25
1021.38692	6268.65
1025.09872	6213.45
1028.80796	6125.75
1032.51465	6151.65
1036.21877	6130.35
1039.92035	6179.05
1043.61937	6203.95
1047.31584	6255.25
1051.00976	6297.45
1054.70114	6315.95
1058.38998	6309.05
1062.07627	6314.15
1065.76003	6351.85
1069.44126	6422.75
1073.11995	6489.55
1076.79611	6608.55
1080.46974	6754.55
1084.14085	6919.55
1087.80943	7074.95
1091.47549	7107.65
1095.13903	7025.35
1098.80005	6872.05
1102.45857	6791.75
1106.11456	6734.05
1109.76805	6711.55
1113.41903	6804.75
1117.06751	6991.65
1120.71348	7278.85
1124.35696	7623.85
1127.99793	7917.65
1131.63641	7743.15
1135.2724	7337.85
1138.90589	7068.25
1142.5369	6854.75
1146.16542	6735.15
1149.79145	6626.55
1153.415	6594.45
1157.03607	6599.25
1160.65467	6700.35
1164.27079	6924.35
1167.88443	7150.35
1171.49561	7597.75
1175.10432	8202.75
1178.71056	9135.55
1182.31434	9942.85
1185.91565	10187.75
1189.51451	10029.85
1193.11091	9760.55
1196.70485	9522.55
1200.29634	9275.35
1203.88538	8990.35
1207.47197	8535.05
1211.05612	8042.45
1214.63782	7655.65
1218.21708	7366.25
1221.79391	7244.05
1225.36829	7155.75
1228.94024	7151.95
1232.50976	7179.55
1236.07685	7200.15
1239.6415	7224.55
1243.20374	7236.65
1246.76355	7293.45
1250.32093	7363.55
1253.8759	7416.85
1257.42845	7591.95
1260.97859	7782.15
1264.52631	8036.75
1268.07163	8197.75
1271.61453	8335.65
1275.15503	8368.75
1278.69312	8386.25
1282.22882	8452.35
1285.76211	8653.85
1289.29301	8884.25
1292.82151	9147.35
1296.34761	9359.85
1299.87133	9772.25
1303.39266	10470.35
1306.9116	11603.75
1310.42815	12825.55
1313.94233	13268.65
1317.45412	12493.95
1320.96354	11383.95
1324.47058	10338.05
1327.97525	9556.55
1331.47754	9179.05
1334.97747	9070.25
1338.47502	9178.55
1341.97022	9563.35
1345.46305	10298.65
1348.95352	11382.05
1352.44163	12693.95
1355.92738	14103.25
1359.41078	15758.15
1362.89183	17287.75
1366.37053	16697.25
1369.84688	13828.25
1373.32088	11106.05
1376.79254	9644.05
1380.26186	8979.95
1383.72883	8571.15
1387.19347	8155.05
1390.65578	7789.55
1394.11575	7560.95
1397.57339	7365.05
1401.0287	7272.75
1404.48168	7253.85
1407.93234	7232.65
1411.38068	7257.15
1414.82669	7339.65
1418.27039	7413.15
1421.71177	7400.65
1425.15083	7315.45
1428.58758	7231.95
1432.02203	7250.35
1435.45416	7323.85
1438.88399	7318.85
1442.31151	7333.35
1445.73673	7385.25
1449.15965	7426.15
1452.58027	7435.25
1455.9986	7446.85
1459.41463	7457.45
1462.82837	7557.85
1466.23982	7744.15
1469.64898	7963.85
1473.05586	8097.55
1476.46045	8202.55
1479.86276	8283.15
1483.26279	8385.75
1486.66054	8596.95
1490.05602	8860.05
1493.44922	9419.05
1496.84016	10307.45
1500.22882	11697.65
1503.61521	13459.85
1506.99934	15269.75
1510.38121	16485.15
1513.76081	16319.35
1517.13816	14728.15
1520.51324	12585.95
1523.88607	10861.05
1527.25665	9864.65
1530.62498	9372.05
1533.99105	9171.95
1537.35488	9056.35
1540.71647	8963.25
1544.07581	8786.95
1547.4329	8649.65
1550.78776	8528.05
1554.14038	8445.55
1557.49077	8413.65
1560.83892	8505.35
1564.18484	8740.35
1567.52853	9089.35
1570.86999	9399.25
1574.20922	9585.75
1577.54624	9445.85
1580.88103	8919.35
1584.2136	8227.65
1587.54395	7845.05
1590.87208	7769.45
1594.19801	7936.45
1597.52172	8303.45
1600.84321	8445.55
1604.16251	8275.25
1607.47959	8081.75
1610.79447	7912.55
1614.10715	7637.85
1617.41763	7341.15
1620.7259	7067.95
1624.03199	6907.55
1627.33587	6863.65
1630.63757	6899.95
1633.93707	7110.25
1637.23439	7535.35
1640.52951	8208.15
1643.82246	9195.45
1647.11321	10357.65
1650.40179	11094.65
1653.68819	10771.35
1656.97241	9526.75
1660.25446	8146.05
1663.53433	7128.75
1666.81203	6516.55
1670.08756	6186.75
1673.36092	6003.25
1676.63211	5848.15
1679.90115	5771.35
1683.16801	5670.75
1686.43272	5603.25
1689.69527	5567.15
1692.95567	5497.95
1696.2139	5482.85
1699.46999	5435.45
1702.72392	5426.65
1705.97571	5451.75
1709.22535	5430.35
1712.47284	5472.05
1715.71819	5460.75
1718.96139	5455.85
1722.20246	5444.35
1725.44139	5410.45
1728.67818	5398.15
1731.91284	5342.65
1735.14537	5305.65
1738.37576	5279.25
1741.60403	5255.05
1744.83017	5221.45
1748.05418	5226.85
1751.27607	5232.35
1754.49584	5178.55
1757.71349	5158.25
1760.92903	5167.05
1764.14244	5116.35
1767.35375	5123.65
1770.56294	5103.85
1773.77002	5083.95
1776.97499	5094.55
1780.17785	5075.05
1783.37861	5064.35
1786.57727	5078.05
1789.77382	5012.85
1792.96828	5041.85
1796.16064	5047.15
1799.3509	5034.75
1802.53907	5033.55
1805.72514	4989.05
1808.90913	4982.55
1812.09102	4981.65
1815.27083	4975.45
1818.44856	4956.05
1821.6242	4953.25
1824.79776	4939.65
1827.96924	4924.85
1831.13864	4904.45
1834.30597	4913.45
1837.47122	4903.85
1840.6344	4877.35
1843.7955	4859.45
1846.95454	4847.75
1850.11151	4879.05
1853.26642	4836.85
1856.41926	4840.55
1859.57004	4847.45
1862.71876	4831.85
1865.86542	4848.65
1869.01003	4825.75
1872.15258	4790.85
1875.29308	4824.05
1878.43152	4835.45
1881.56792	4806.15
1884.70227	4794.75
1887.83457	4789.05
1890.96482	4747.55
1894.09304	4754.25
1897.21921	4765.25
1900.34335	4764.95
1903.46544	4740.45
1906.58551	4763.65
1909.70353	4763.75
1912.81953	4730.75
1915.93349	4734.85
1919.04543	4718.85
1922.15534	4713.65
1925.26322	4718.15
1928.36908	4687.75
1931.47292	4684.45
1934.57473	4692.75
1937.67453	4669.45
1940.77232	4638.95
1943.86808	4632.45
1946.96184	4628.65
1950.05358	4608.65
1953.14331	4582.05
1956.23103	4587.55
1959.31675	4564.55
1962.40046	4505.75
1965.48217	4545.85
1968.56188	4516.35
1971.63959	4495.25
1974.7153	4506.45
1977.78901	4499.05
1980.86073	4457.05
1983.93046	4431.25
1986.99819	4369.25
1990.06394	4361.25
1993.1277	4413.85
1996.18947	4369.05
1999.24925	4345.65
2002.30706	4355.65
2005.36288	4329.25
2008.41672	4312.55
2011.46859	4290.35
2014.51848	4283.85
2017.56639	4274.05
2020.61233	4256.65
2023.6563	4261.35
2026.6983	4208.75
2029.73833	4217.15
2032.7764	4221.45
2035.8125	4182.35
2038.84664	4179.25
2041.87881	4160.85
2044.90903	4180.65
2047.93729	4170.85
2050.96359	4128.65
2053.98794	4146.35
2057.01034	4146.15
2060.03078	4127.55
2063.04927	4122.05
2066.06582	4114.35
2069.08042	4103.75
2072.09307	4117.95
2075.10378	4111.25
2078.11255	4091.25
2081.11938	4097.35
2084.12426	4074.95
2087.12722	4064.95
2090.12824	4072.65
2093.12732	4098.25
2096.12447	4101.85
2099.11969	4078.45
2102.11299	4065.85
2105.10435	4090.05
2108.09379	4093.45
2111.08131	4077.45
2114.0669	4085.45
2117.05057	4080.75
2120.03233	4072.15
2123.01216	4091.55
2125.99008	4090.55
2128.96609	4087.85
2131.94018	4103.55
2134.91236	4098.85
2137.88263	4085.55
2140.851	4087.35
2143.81746	4127.55
2146.78201	4105.55
2149.74466	4082.85
2152.7054	4098.65
2155.66425	4086.05
2158.6212	4076.35
2161.57625	4046.85
2164.52941	4037.95
2167.48067	4038.65
2170.43004	4048.55
2173.37752	4059.55
2176.32311	4054.05
2179.26681	4059.65
2182.20863	4057.75
2185.14856	4057.15
2188.08661	4055.55
2191.02278	4063.35
2193.95707	4033.05
2196.88948	4019.45
2199.82001	4030.85
2202.74867	4020.35
2205.67545	4015.45
2208.60037	4021.05
2211.52341	3998.75
2214.44458	3997.35
2217.36388	3983.35
2220.28132	3972.25
2223.1969	3939.85
2226.11061	3965.05
2229.02246	3945.35
2231.93245	3940.95
2234.84058	3908.45
2237.74686	3920.75
2240.65128	3913.25
2243.55385	3923.95
2246.45456	3894.15
2249.35343	3903.95
2252.25044	3889.75
2255.14561	3885.85
2258.03893	3882.65
2260.93041	3876.75
2263.82004	3877.85
2266.70783	3871.15
2269.59378	3856.45
2272.4779	3831.15
2275.36017	3836.65
2278.24061	3817.95
2281.11922	3793.85
2283.996	3811.65
2286.87094	3784.45
2289.74405	3788.65
2292.61534	3770.65
2295.4848	3770.65
2298.35243	3777.65
2301.21824	3761.95
2304.08223	3753.95
2306.94439	3756.55
2309.80474	3754.95
2312.66327	3750.55
2315.51999	3736.15
2318.37489	3732.05
2321.22797	3716.45
2324.07925	3713.75
2326.92871	3697.85
2329.77637	3693.95
2332.62222	3677.75
2335.46626	3665.65
2338.3085	3665.75
2341.14893	3676.05
2343.98756	3687.15
2346.8244	3669.25
2349.65943	3643.25
2352.49267	3649.25
2355.32411	3653.05
2358.15376	3675.75
2360.98161	3661.25
2363.80768	3641.05
2366.63195	3649.75
2369.45444	3656.85
2372.27514	3652.35
2375.09405	3655.25
2377.91118	3617.95
2380.72652	3616.65
2383.54009	3622.25
2386.35187	3615.65
2389.16188	3587.65
2391.97011	3596.45
2394.77657	3578.05
2397.58125	3585.85
2400.38416	3562.35
2403.18529	3545.15
2405.98466	3540.15
2408.78226	3545.25
2411.57809	3522.75
2414.37216	3508.85
2417.16446	3519.25
2419.955	3501.25
2422.74378	3508.25
2425.5308	3491.35
2428.31606	3499.85
2431.09956	3505.45
2433.88131	3478.05
2436.6613	3485.75
2439.43954	3475.55
2442.21603	3477.65
2444.99077	3457.35
2447.76377	3494.15
2450.53501	3458.65
2453.30451	3448.45
2456.07226	3475.55
2458.83827	3450.45
2461.60254	3407.95
2464.36507	3449.05
2467.12586	3421.85
2469.88492	3434.35
2472.64224	3437.75
2475.39782	3418.85
2478.15167	3442.75
2480.90379	3416.95
2483.65417	3444.25
2486.40283	3428.15
2489.14976	3428.75
2491.89497	3425.55
2494.63845	3442.95
2497.3802	3421.65
2500.12024	3415.15
2502.85855	3411.25
2505.59514	3404.45
2508.33002	3388.05
2511.06318	3368.75
2513.79462	3376.05
2516.52435	3336.45
2519.25237	3325.15
2521.97867	3332.45
2524.70327	3332.15
2527.42616	3323.75
2530.14734	3339.25
2532.86681	3311.85
2535.58458	3308.15
2538.30065	3290.65
2541.01501	3298.35
2543.72768	3288.05
2546.43864	3293.95
2549.14791	3286.65
2551.85548	3276.85
2554.56136	3263.55
2557.26554	3273.55
2559.96803	3263.65
2562.66883	3275.55
2565.36794	3253.05
2568.06536	3212.15
2570.7611	3240.85
2573.45514	3222.55
2576.14751	3224.55
2578.83819	3208.95
2581.52719	3185.35
2584.21451	3204.45
2586.90015	3177.95
2589.58411	3161.45
2592.2664	3166.65
2594.94701	3165.05
2597.62594	3167.45
2600.30321	3099.95
2602.9788	3113.45
2605.65273	3119.25
2608.32498	3120.65
2610.99557	3133.15
2613.66449	3107.85
2616.33175	3121.55
2618.99734	3118.65
2621.66128	3113.05
2624.32355	3101.45
2626.98416	3085.35
2629.64311	3069.35
2632.30041	3083.15
2634.95605	3058.65
2637.61004	3045.35
2640.26238	3028.75
2642.91306	3036.45
2645.56209	3066.15
2648.20948	3047.65
2650.85521	3043.15
2653.4993	3042.25
2656.14175	3043.75
2658.78255	3036.65
2661.42171	3003.45
2664.05923	3056.75
2666.6951	3057.05
2669.32934	3046.85
2671.96194	3052.75
2674.59291	3046.35
2677.22224	3050.75
2679.84993	3043.45
2682.476	3034.75
2685.10043	3027.75
2687.72324	3025.15
2690.34441	3022.75
2692.96396	3006.45
2695.58188	3038.75
2698.19818	3026.15
2700.81285	3010.45
2703.4259	3005.25
2706.03733	2975.85
2708.64714	2981.55
2711.25533	3009.15
2713.86191	3010.95
2716.46687	3009.55
2719.07021	3008.05
2721.67194	3001.75
2724.27206	3015.25
2726.87057	2991.25
2729.46747	2991.35
2732.06276	3003.55
2734.65644	2969.15
2737.24852	2984.25
2739.83899	2971.85
2742.42786	2975.25
2745.01513	2981.65
2747.60079	2954.75
2750.18486	2938.55
2752.76733	2956.35
2755.3482	2947.55
2757.92747	2938.15
2760.50515	2913.35
2763.08123	2915.55
2765.65573	2920.75
2768.22863	2915.65
2770.79994	2907.05
2773.36967	2904.55
2775.9378	2891.35
2778.50435	2884.35
2781.06932	2878.35
2783.6327	2883.95
2786.1945	2900.65
2788.75471	2879.05
2791.31335	2866.95
2793.87041	2862.05
2796.42589	2856.05
2798.97979	2832.85
2801.53212	2851.65
2804.08288	2843.65
2806.63206	2827.85
2809.17967	2830.05
2811.72571	2834.45
2814.27018	2838.05
2816.81308	2811.05
2819.35442	2782.25
2821.89419	2790.45
2824.43239	2773.05
2826.96904	2813.15
2829.50412	2786.65
2832.03763	2791.35
2834.56959	2799.05
2837.1	2781.95
2839.62884	2779.05
2842.15613	2779.75
2844.68186	2775.65
2847.20604	2747.75
2849.72867	2754.15
2852.24974	2755.85
2854.76927	2720.55
2857.28724	2687.95
2859.80367	2744.95
2862.31855	2756.65
2864.83189	2728.75
2867.34368	2739.55
2869.85393	2750.75
2872.36264	2728.95
2874.8698	2727.65
2877.37543	2740.75
2879.87952	2723.55
2882.38207	2709.65
2884.88308	2720.15
2887.38256	2712.65
2889.88051	2704.65
2892.37692	2710.35
2894.8718	2689.25
2897.36515	2715.35
2899.85698	2694.35
2902.34727	2695.35
2904.83604	2702.35
2907.32328	2718.65
2909.809	2700.45
2912.29319	2712.75
2914.77587	2712.95
2917.25702	2737.15
2919.73665	2728.85
2922.21476	2740.35
2924.69136	2735.55
2927.16644	2728.55
2929.64	2730.25
2932.11205	2695.55
2934.58258	2690.75
2937.05161	2689.85
2939.51912	2683.45
2941.98513	2697.95
2944.44962	2679.45
2946.91261	2653.55
2949.37409	2658.65
2951.83407	2656.75
2954.29254	2661.15
2956.74951	2659.35
2959.20498	2645.45
2961.65895	2640.75
2964.11142	2630.25
2966.56239	2624.05
2969.01186	2630.25
2971.45984	2615.95
2973.90632	2605.45
2976.35131	2620.75
2978.7948	2620.95
2981.23681	2613.15
2983.67732	2612.45
2986.11635	2605.05
2988.55388	2568.15
2990.98993	2578.45
2993.4245	2568.45
2995.85758	2552.75
2998.28917	2556.95
3000.71928	2550.75
3003.14791	2537.35
3005.57506	2528.05
3008.00073	2521.65
3010.42493	2466.75
3012.84764	2522.65
3015.26888	2518.35
3017.68865	2500.85
3020.10694	2460.45
3022.52376	2468.85
3024.9391	2466.85
3027.35298	2473.65
3029.76539	2444.45
3032.17632	2463.55
3034.5858	2447.85
3036.9938	2455.75
3039.40034	2445.95
3041.80542	2433.65
3044.20903	2412.95
3046.61118	2418.75
3049.01187	2425.55
3051.4111	2418.75
3053.80888	2397.35
3056.20519	2390.15
3058.60005	2372.25
3060.99345	2400.15
3063.3854	2380.15
3065.7759	2362.75
3068.16494	2357.15
3070.55254	2342.15
3072.93868	2366.85
3075.32338	2347.35
3077.70662	2342.05
3080.08842	2324.25
3082.46878	2320.45
3084.84769	2322.05
3087.22515	2325.35
3089.60118	2329.35
3091.97576	2307.85
3094.3489	2323.55
3096.72061	2313.65
3099.09087	2294.65
3101.4597	2309.05
3103.82709	2303.75
3106.19305	2296.95
3108.55757	2295.35
3110.92066	2270.45
3113.28232	2288.65
3115.64255	2285.85
3118.00134	2279.75
3120.35871	2261.45
3122.71466	2239.05
3125.06917	2262.95
3127.42226	2239.85
3129.77393	2229.45
3132.12417	2236.25
3134.47299	2245.35
3136.82039	2225.75
3139.16636	2198.75
3141.51092	2220.95
3143.85406	2222.65
3146.19579	2204.95
3148.53609	2198.25
3150.87499	2212.15
3153.21246	2196.75
3155.54853	2210.25
3157.88318	2211.45
3160.21642	2219.55
3162.54826	2203.05
3164.87868	2210.85
3167.2077	2170.55
3169.5353	2189.25
3171.86151	2202.15
3174.18631	2188.25
3176.5097	2190.15
3178.83169	2182.45
3181.15228	2181.55
3183.47147	2164.45
3185.78926	2140.35
3188.10565	2150.45
3190.42065	2135.85
3192.73424	2151.35
3195.04645	2135.85
3197.35725	2115.55
3199.66667	2131.15
3201.97469	2122.15
3204.28132	2120.05
3206.58656	2133.55
3208.8904	2139.85
3211.19287	2128.05
3213.49394	2116.35
3215.79363	2102.25
3218.09193	2129.15
3220.38884	2110.15
3222.68438	2115.95
3224.97853	2085.55
3227.2713	2106.75
3229.56269	2100.45
3231.8527	2092.45
3234.14133	2085.95
3236.42858	2088.15
3238.71446	2068.05
3240.99896	2083.75
3243.28209	2053.45
3245.56384	2075.55
3247.84423	2055.85
3250.12324	2066.55
3252.40088	2055.15
3254.67715	2049.95
3256.95205	2035.75
3259.22558	2046.15
3261.49775	2045.55
3263.76855	2046.45
3266.03799	2046.75
3268.30606	2041.85
3270.57277	2046.25
3272.83812	2013.95
3275.10211	2025.35
3277.36474	2032.45
3279.62601	2019.25
3281.88593	2010.15
3284.14448	1991.35
3286.40168	2006.15
3288.65753	1997.85
3290.91202	1999.65
3293.16516	1980.25
3295.41695	2003.85
3297.66738	2000.75
3299.91647	1985.15
3302.16421	1978.75
3304.4106	1934.55
3306.65564	1969.15
3308.89933	1922.35
3311.14169	1917.25
3313.38269	1906.45
3315.62236	1886.85
3317.86068	1876.45
3320.09766	1875.25
3322.3333	1838.05
3324.5676	1838.75
3326.80056	1792.95
3329.03219	1792.15
3331.26248	0.25
3333.49143	0.15
3335.71905	0.35
