Data from AgNPs_UA_50uM_CRN_500uM_SU_RamanShift__50__14-04-10-323.txt Node

Date: Thu Aug 04 14:04:10 BST 2022
User: TCL
Spectrometer: QEP01345
Trigger mode: 4
Integration Time (sec): 1.000000E0
Scans to average: 10
Electric dark correction enabled: true
Nonlinearity correction enabled: false
Boxcar width: 0
XAxis mode: Raman Shifts
Number of Pixels in Spectrum: 1044
>>>>>Begin Spectral Data<<<<<
46.04893	1.25
50.45542	-1.05
54.85868	-1.05
59.25871	-1.85
63.6555	16.85
68.04907	16.65
72.43941	17.85
76.82654	19.25
81.21044	19.55
85.59113	21.65
89.96862	21.95
94.34289	23.15
98.71396	23.85
103.08183	23.55
107.4465	22.15
111.80798	22.95
116.16626	24.35
120.52136	27.55
124.87327	30.35
129.222	31.15
133.56755	35.05
137.90993	36.85
142.24913	39.75
146.58517	47.45
150.91804	54.75
155.24774	65.85
159.57429	83.65
163.89768	111.65
168.21792	144.15
172.53501	201.85
176.84895	285.45
181.15975	409.25
185.46741	583.35
189.77193	802.45
194.07331	1082.95
198.37157	1404.35
202.6667	1745.45
206.9587	2080.15
211.24758	2413.75
215.53334	2770.55
219.81599	3143.05
224.09553	3569.55
228.37195	4031.75
232.64527	4543.05
236.91549	5015.75
241.18261	5417.65
245.44663	5741.55
249.70755	5994.45
253.96539	6200.85
258.22014	6393.55
262.4718	6572.65
266.72039	6665.95
270.96589	6695.35
275.20832	6653.25
279.44768	6550.35
283.68397	6450.15
287.91719	6382.05
292.14735	6387.15
296.37445	6521.55
300.59849	6761.65
304.81948	7056.55
309.03742	7371.45
313.25231	7550.45
317.46415	7432.85
321.67296	7113.55
325.87872	6736.15
330.08145	6540.25
334.28114	6512.65
338.47781	6605.45
342.67145	6755.85
346.86207	6997.35
351.04966	7296.45
355.23424	7644.15
359.4158	7861.45
363.59435	7938.85
367.76989	7924.55
371.94243	7884.15
376.11196	7817.25
380.27849	7752.85
384.44203	7754.85
388.60257	7738.45
392.76012	7804.55
396.91468	7912.15
401.06626	8022.65
405.21485	8073.85
409.36047	7923.65
413.50311	7614.65
417.64277	7339.55
421.77947	7154.35
425.9132	7045.95
430.04396	7039.05
434.17176	7074.15
438.2966	7161.95
442.41849	7276.25
446.53742	7458.15
450.6534	7580.95
454.76644	7690.85
458.87653	7732.15
462.98368	7707.45
467.08789	7658.75
471.18916	7516.35
475.2875	7344.05
479.38291	7189.55
483.4754	7119.25
487.56496	7065.35
491.6516	7025.65
495.73531	7028.25
499.81612	7039.25
503.89401	7083.15
507.96899	7148.65
512.04106	7221.25
516.11023	7286.05
520.1765	7327.75
524.23987	7341.95
528.30034	7327.95
532.35792	7297.75
536.41261	7218.15
540.46441	7122.55
544.51333	7096.25
548.55936	7137.85
552.60252	7238.65
556.64279	7392.35
560.6802	7474.15
564.71473	7607.75
568.7464	7784.55
572.7752	7727.65
576.80114	7449.35
580.82422	7225.75
584.84444	7121.05
588.86181	7100.45
592.87633	7141.35
596.888	7315.25
600.89682	7702.55
604.9028	8750.05
608.90594	10962.95
612.90624	13241.65
616.90371	12104.25
620.89834	8990.65
624.89015	7717.25
628.87913	7574.95
632.86528	7761.15
636.84862	7856.15
640.82913	7614.45
644.80683	7264.45
648.78172	7077.55
652.75379	7131.85
656.72306	7382.15
660.68952	7657.55
664.65319	7592.55
668.61405	7420.75
672.57211	7447.75
676.52738	7421.85
680.47986	7237.45
684.42955	7097.25
688.37646	7041.45
692.32058	7109.15
696.26192	7248.35
700.20048	7401.15
704.13626	7423.15
708.06928	7335.85
711.99952	7234.65
715.927	7230.95
719.85171	7268.95
723.77365	7297.85
727.69284	7253.95
731.60928	7154.75
735.52295	7129.35
739.43388	7140.05
743.34206	7182.95
747.24749	7204.35
751.15017	7211.15
755.05012	7281.15
758.94733	7633.85
762.8418	8443.95
766.73354	9636.85
770.62254	10564.35
774.50882	10697.95
778.39237	10239.45
782.27321	9367.65
786.15132	8427.05
790.02671	7750.65
793.89938	7400.55
797.76935	7229.75
801.6366	7144.35
805.50115	7103.25
809.36299	7090.55
813.22213	7072.45
817.07857	7074.85
820.93231	7065.65
824.78336	7069.15
828.63172	7110.45
832.47738	7115.25
836.32036	7101.85
840.16066	7052.15
843.99827	7037.15
847.8332	7014.55
851.66546	7029.75
855.49504	7046.05
859.32195	7051.65
863.1462	7032.25
866.96777	7043.35
870.78668	7056.65
874.60293	7051.05
878.41652	7080.95
882.22745	7150.35
886.03573	7163.95
889.84136	7173.75
893.64433	7128.35
897.44466	7112.15
901.24235	7102.65
905.0374	7094.35
908.8298	7037.15
912.61957	7041.75
916.40671	7049.45
920.19121	7051.15
923.97308	7113.65
927.75233	7194.15
931.52895	7284.05
935.30295	7183.45
939.07433	7051.95
942.84309	6954.85
946.60924	6907.35
950.37278	6878.25
954.13371	6883.55
957.89203	6869.45
961.64774	6855.05
965.40086	6840.35
969.15137	6822.15
972.89929	6817.85
976.64461	6828.35
980.38733	6828.05
984.12747	6831.15
987.86502	6867.85
991.59999	6913.75
995.33237	6968.45
999.06217	7060.85
1002.78939	7182.75
1006.51404	7323.95
1010.23611	7444.25
1013.95561	7492.45
1017.67255	7522.25
1021.38692	7481.95
1025.09872	7387.55
1028.80796	7343.25
1032.51465	7339.55
1036.21877	7372.15
1039.92035	7391.55
1043.61937	7426.45
1047.31584	7416.55
1051.00976	7406.05
1054.70114	7414.75
1058.38998	7422.75
1062.07627	7443.05
1065.76003	7532.55
1069.44126	7598.95
1073.11995	7736.55
1076.79611	7913.85
1080.46974	8035.25
1084.14085	8172.35
1087.80943	8289.55
1091.47549	8314.05
1095.13903	8239.75
1098.80005	8198.75
1102.45857	8218.45
1106.11456	8186.75
1109.76805	8090.05
1113.41903	8092.15
1117.06751	8233.25
1120.71348	8421.75
1124.35696	8682.45
1127.99793	8868.45
1131.63641	8669.05
1135.2724	8332.25
1138.90589	8058.95
1142.5369	7887.95
1146.16542	7803.45
1149.79145	7740.25
1153.415	7662.35
1157.03607	7633.75
1160.65467	7684.55
1164.27079	7860.55
1167.88443	8124.05
1171.49561	8533.75
1175.10432	9208.05
1178.71056	10117.35
1182.31434	10829.25
1185.91565	11019.75
1189.51451	10891.65
1193.11091	10571.15
1196.70485	10174.35
1200.29634	9877.75
1203.88538	9572.45
1207.47197	9117.15
1211.05612	8748.55
1214.63782	8456.75
1218.21708	8230.35
1221.79391	8098.15
1225.36829	8059.55
1228.94024	8023.05
1232.50976	8013.75
1236.07685	8074.95
1239.6415	8061.75
1243.20374	8106.05
1246.76355	8166.65
1250.32093	8250.45
1253.8759	8408.95
1257.42845	8652.25
1260.97859	8946.45
1264.52631	9214.65
1268.07163	9426.25
1271.61453	9510.35
1275.15503	9518.95
1278.69312	9510.45
1282.22882	9532.05
1285.76211	9672.65
1289.29301	9919.95
1292.82151	10097.05
1296.34761	10323.85
1299.87133	10733.35
1303.39266	11429.25
1306.9116	12503.15
1310.42815	13613.55
1313.94233	13988.95
1317.45412	13334.85
1320.96354	12356.55
1324.47058	11470.75
1327.97525	10736.45
1331.47754	10296.35
1334.97747	10165.05
1338.47502	10312.25
1341.97022	10720.55
1345.46305	11404.85
1348.95352	12422.45
1352.44163	13501.25
1355.92738	14687.15
1359.41078	16217.05
1362.89183	17350.25
1366.37053	16462.35
1369.84688	13908.65
1373.32088	11610.25
1376.79254	10358.25
1380.26186	9763.45
1383.72883	9409.45
1387.19347	9069.25
1390.65578	8746.75
1394.11575	8442.35
1397.57339	8227.55
1401.0287	8120.65
1404.48168	8089.55
1407.93234	8143.75
1411.38068	8294.85
1414.82669	8465.15
1418.27039	8573.65
1421.71177	8536.05
1425.15083	8452.15
1428.58758	8393.15
1432.02203	8454.55
1435.45416	8542.55
1438.88399	8494.75
1442.31151	8469.85
1445.73673	8463.55
1449.15965	8502.05
1452.58027	8405.55
1455.9986	8324.75
1459.41463	8261.85
1462.82837	8351.35
1466.23982	8485.15
1469.64898	8654.85
1473.05586	8820.45
1476.46045	8907.95
1479.86276	9019.05
1483.26279	9167.85
1486.66054	9386.05
1490.05602	9719.25
1493.44922	10276.85
1496.84016	11080.25
1500.22882	12287.05
1503.61521	13772.75
1506.99934	15291.35
1510.38121	16218.25
1513.76081	16051.95
1517.13816	14653.65
1520.51324	12826.65
1523.88607	11264.85
1527.25665	10310.45
1530.62498	9792.45
1533.99105	9506.35
1537.35488	9361.55
1540.71647	9227.05
1544.07581	9155.15
1547.4329	9047.55
1550.78776	8983.05
1554.14038	8966.55
1557.49077	9015.95
1560.83892	9181.35
1564.18484	9471.75
1567.52853	9811.55
1570.86999	10030.15
1574.20922	10093.05
1577.54624	9915.85
1580.88103	9408.55
1584.2136	8838.65
1587.54395	8518.55
1590.87208	8514.85
1594.19801	8825.55
1597.52172	9193.45
1600.84321	9337.15
1604.16251	9216.95
1607.47959	9021.95
1610.79447	8713.95
1614.10715	8308.65
1617.41763	7902.05
1620.7259	7621.35
1624.03199	7467.05
1627.33587	7440.15
1630.63757	7540.95
1633.93707	7856.25
1637.23439	8353.25
1640.52951	9228.65
1643.82246	10452.75
1647.11321	11728.25
1650.40179	12351.55
1653.68819	11733.75
1656.97241	10281.15
1660.25446	8801.55
1663.53433	7787.65
1666.81203	7191.25
1670.08756	6871.55
1673.36092	6661.95
1676.63211	6513.55
1679.90115	6427.35
1683.16801	6341.85
1686.43272	6278.75
1689.69527	6249.55
1692.95567	6223.95
1696.2139	6174.35
1699.46999	6162.35
1702.72392	6176.75
1705.97571	6165.95
1709.22535	6152.75
1712.47284	6174.25
1715.71819	6177.75
1718.96139	6131.65
1722.20246	6123.45
1725.44139	6107.15
1728.67818	6061.65
1731.91284	6008.95
1735.14537	5984.35
1738.37576	5990.85
1741.60403	5953.45
1744.83017	5924.65
1748.05418	5918.65
1751.27607	5899.55
1754.49584	5877.85
1757.71349	5846.75
1760.92903	5841.65
1764.14244	5838.85
1767.35375	5853.25
1770.56294	5839.85
1773.77002	5807.35
1776.97499	5787.55
1780.17785	5765.15
1783.37861	5771.15
1786.57727	5732.95
1789.77382	5710.25
1792.96828	5704.65
1796.16064	5712.05
1799.3509	5682.95
1802.53907	5672.55
1805.72514	5662.15
1808.90913	5647.65
1812.09102	5641.55
1815.27083	5607.15
1818.44856	5601.15
1821.6242	5583.05
1824.79776	5568.35
1827.96924	5555.15
1831.13864	5523.55
1834.30597	5541.65
1837.47122	5514.55
1840.6344	5506.95
1843.7955	5516.45
1846.95454	5506.25
1850.11151	5515.25
1853.26642	5502.15
1856.41926	5515.45
1859.57004	5495.95
1862.71876	5485.15
1865.86542	5467.45
1869.01003	5462.05
1872.15258	5449.85
1875.29308	5468.95
1878.43152	5469.25
1881.56792	5449.65
1884.70227	5455.05
1887.83457	5436.35
1890.96482	5425.25
1894.09304	5395.25
1897.21921	5399.45
1900.34335	5372.95
1903.46544	5356.65
1906.58551	5357.25
1909.70353	5346.05
1912.81953	5350.35
1915.93349	5328.35
1919.04543	5333.15
1922.15534	5315.85
1925.26322	5302.65
1928.36908	5299.55
1931.47292	5280.25
1934.57473	5254.05
1937.67453	5251.65
1940.77232	5232.25
1943.86808	5214.75
1946.96184	5193.05
1950.05358	5194.55
1953.14331	5179.55
1956.23103	5130.35
1959.31675	5127.85
1962.40046	5112.15
1965.48217	5119.45
1968.56188	5098.55
1971.63959	5094.85
1974.7153	5068.75
1977.78901	5044.95
1980.86073	5021.35
1983.93046	5006.05
1986.99819	4996.55
1990.06394	4980.75
1993.1277	4971.05
1996.18947	4943.55
1999.24925	4926.65
2002.30706	4898.55
2005.36288	4882.25
2008.41672	4858.65
2011.46859	4853.45
2014.51848	4842.95
2017.56639	4840.55
2020.61233	4823.85
2023.6563	4787.15
2026.6983	4764.75
2029.73833	4752.95
2032.7764	4738.25
2035.8125	4730.55
2038.84664	4729.55
2041.87881	4712.45
2044.90903	4699.65
2047.93729	4682.95
2050.96359	4687.65
2053.98794	4691.05
2057.01034	4676.75
2060.03078	4677.35
2063.04927	4659.95
2066.06582	4661.15
2069.08042	4644.15
2072.09307	4618.85
2075.10378	4625.45
2078.11255	4622.95
2081.11938	4622.85
2084.12426	4630.75
2087.12722	4629.55
2090.12824	4634.75
2093.12732	4613.65
2096.12447	4627.55
2099.11969	4623.55
2102.11299	4625.15
2105.10435	4622.05
2108.09379	4605.65
2111.08131	4619.85
2114.0669	4614.55
2117.05057	4616.65
2120.03233	4640.75
2123.01216	4633.55
2125.99008	4616.75
2128.96609	4626.95
2131.94018	4635.15
2134.91236	4642.45
2137.88263	4630.35
2140.851	4625.75
2143.81746	4625.15
2146.78201	4636.15
2149.74466	4624.95
2152.7054	4614.45
2155.66425	4614.05
2158.6212	4605.95
2161.57625	4598.25
2164.52941	4588.85
2167.48067	4592.45
2170.43004	4595.35
2173.37752	4579.45
2176.32311	4584.85
2179.26681	4579.75
2182.20863	4590.25
2185.14856	4583.85
2188.08661	4595.45
2191.02278	4587.15
2193.95707	4561.15
2196.88948	4561.85
2199.82001	4540.05
2202.74867	4547.15
2205.67545	4539.25
2208.60037	4556.75
2211.52341	4530.85
2214.44458	4534.05
2217.36388	4533.25
2220.28132	4510.25
2223.1969	4486.75
2226.11061	4472.65
2229.02246	4448.65
2231.93245	4455.75
2234.84058	4433.05
2237.74686	4461.15
2240.65128	4434.35
2243.55385	4421.95
2246.45456	4421.25
2249.35343	4415.85
2252.25044	4406.65
2255.14561	4408.75
2258.03893	4410.45
2260.93041	4400.15
2263.82004	4394.45
2266.70783	4392.95
2269.59378	4368.35
2272.4779	4348.65
2275.36017	4344.75
2278.24061	4323.25
2281.11922	4331.55
2283.996	4305.35
2286.87094	4291.65
2289.74405	4293.45
2292.61534	4296.65
2295.4848	4297.15
2298.35243	4272.85
2301.21824	4289.55
2304.08223	4277.45
2306.94439	4259.75
2309.80474	4251.95
2312.66327	4265.05
2315.51999	4255.75
2318.37489	4256.95
2321.22797	4236.85
2324.07925	4242.15
2326.92871	4196.15
2329.77637	4223.05
2332.62222	4199.25
2335.46626	4203.15
2338.3085	4191.05
2341.14893	4178.75
2343.98756	4194.65
2346.8244	4191.05
2349.65943	4177.95
2352.49267	4165.65
2355.32411	4182.65
2358.15376	4170.05
2360.98161	4160.35
2363.80768	4175.15
2366.63195	4179.15
2369.45444	4177.65
2372.27514	4166.05
2375.09405	4167.55
2377.91118	4148.95
2380.72652	4141.85
2383.54009	4122.75
2386.35187	4123.85
2389.16188	4096.75
2391.97011	4092.35
2394.77657	4080.25
2397.58125	4051.85
2400.38416	4061.95
2403.18529	4048.25
2405.98466	4049.95
2408.78226	4031.65
2411.57809	4016.65
2414.37216	4027.75
2417.16446	4006.15
2419.955	4007.05
2422.74378	4006.75
2425.5308	3997.75
2428.31606	4001.85
2431.09956	4015.45
2433.88131	3991.95
2436.6613	3984.45
2439.43954	3991.25
2442.21603	3994.55
2444.99077	3988.75
2447.76377	3989.35
2450.53501	3966.55
2453.30451	3964.95
2456.07226	3965.15
2458.83827	3977.45
2461.60254	3953.85
2464.36507	3963.55
2467.12586	3939.35
2469.88492	3937.75
2472.64224	3939.25
2475.39782	3946.55
2478.15167	3944.05
2480.90379	3943.95
2483.65417	3948.55
2486.40283	3932.95
2489.14976	3942.15
2491.89497	3946.85
2494.63845	3930.35
2497.3802	3932.55
2500.12024	3918.85
2502.85855	3909.25
2505.59514	3916.55
2508.33002	3906.55
2511.06318	3881.05
2513.79462	3872.45
2516.52435	3867.65
2519.25237	3858.95
2521.97867	3855.75
2524.70327	3842.95
2527.42616	3835.65
2530.14734	3840.25
2532.86681	3830.75
2535.58458	3829.15
2538.30065	3822.15
2541.01501	3827.05
2543.72768	3816.15
2546.43864	3812.45
2549.14791	3812.75
2551.85548	3796.55
2554.56136	3785.45
2557.26554	3786.75
2559.96803	3788.95
2562.66883	3773.85
2565.36794	3765.85
2568.06536	3760.15
2570.7611	3741.45
2573.45514	3744.25
2576.14751	3732.15
2578.83819	3704.45
2581.52719	3705.35
2584.21451	3701.05
2586.90015	3707.35
2589.58411	3700.35
2592.2664	3680.15
2594.94701	3680.85
2597.62594	3678.65
2600.30321	3676.35
2602.9788	3664.35
2605.65273	3652.75
2608.32498	3663.65
2610.99557	3665.95
2613.66449	3659.35
2616.33175	3652.35
2618.99734	3645.65
2621.66128	3626.15
2624.32355	3625.85
2626.98416	3605.95
2629.64311	3603.85
2632.30041	3595.25
2634.95605	3593.75
2637.61004	3587.95
2640.26238	3567.85
2642.91306	3567.15
2645.56209	3577.15
2648.20948	3573.75
2650.85521	3562.65
2653.4993	3578.45
2656.14175	3564.85
2658.78255	3556.65
2661.42171	3577.15
2664.05923	3574.05
2666.6951	3575.65
2669.32934	3552.05
2671.96194	3549.55
2674.59291	3555.55
2677.22224	3561.85
2679.84993	3567.65
2682.476	3555.35
2685.10043	3553.55
2687.72324	3542.95
2690.34441	3554.05
2692.96396	3525.45
2695.58188	3536.95
2698.19818	3538.15
2700.81285	3552.25
2703.4259	3535.35
2706.03733	3534.35
2708.64714	3541.95
2711.25533	3535.45
2713.86191	3527.65
2716.46687	3515.25
2719.07021	3520.35
2721.67194	3515.15
2724.27206	3517.65
2726.87057	3518.95
2729.46747	3521.65
2732.06276	3532.85
2734.65644	3507.75
2737.24852	3521.35
2739.83899	3510.25
2742.42786	3501.45
2745.01513	3490.85
2747.60079	3478.05
2750.18486	3487.65
2752.76733	3482.65
2755.3482	3465.35
2757.92747	3477.05
2760.50515	3461.85
2763.08123	3456.65
2765.65573	3439.35
2768.22863	3429.15
2770.79994	3414.35
2773.36967	3428.85
2775.9378	3418.45
2778.50435	3429.85
2781.06932	3404.65
2783.6327	3412.05
2786.1945	3407.65
2788.75471	3410.15
2791.31335	3382.25
2793.87041	3402.25
2796.42589	3391.45
2798.97979	3388.25
2801.53212	3377.45
2804.08288	3376.65
2806.63206	3358.75
2809.17967	3364.65
2811.72571	3334.65
2814.27018	3334.25
2816.81308	3329.65
2819.35442	3340.35
2821.89419	3330.15
2824.43239	3306.85
2826.96904	3295.35
2829.50412	3302.45
2832.03763	3303.95
2834.56959	3288.95
2837.1	3285.45
2839.62884	3281.05
2842.15613	3272.45
2844.68186	3272.25
2847.20604	3266.25
2849.72867	3270.75
2852.24974	3261.85
2854.76927	3248.45
2857.28724	3252.15
2859.80367	3243.25
2862.31855	3229.65
2864.83189	3235.85
2867.34368	3231.05
2869.85393	3233.95
2872.36264	3232.45
2874.8698	3232.85
2877.37543	3239.45
2879.87952	3206.95
2882.38207	3217.15
2884.88308	3198.35
2887.38256	3207.25
2889.88051	3186.15
2892.37692	3190.65
2894.8718	3173.25
2897.36515	3190.45
2899.85698	3172.85
2902.34727	3185.65
2904.83604	3189.65
2907.32328	3179.55
2909.809	3200.75
2912.29319	3200.95
2914.77587	3198.05
2917.25702	3203.85
2919.73665	3202.65
2922.21476	3194.15
2924.69136	3193.55
2927.16644	3177.85
2929.64	3187.35
2932.11205	3166.45
2934.58258	3164.55
2937.05161	3164.45
2939.51912	3156.05
2941.98513	3147.35
2944.44962	3132.75
2946.91261	3119.25
2949.37409	3142.05
2951.83407	3131.75
2954.29254	3152.75
2956.74951	3128.75
2959.20498	3129.95
2961.65895	3124.85
2964.11142	3115.75
2966.56239	3105.85
2969.01186	3106.45
2971.45984	3119.35
2973.90632	3117.75
2976.35131	3100.75
2978.7948	3096.75
2981.23681	3097.25
2983.67732	3080.75
2986.11635	3086.25
2988.55388	3074.95
2990.98993	3073.05
2993.4245	3044.55
2995.85758	3055.55
2998.28917	3045.45
3000.71928	3046.15
3003.14791	3037.35
3005.57506	3029.35
3008.00073	3012.85
3010.42493	3009.85
3012.84764	3003.05
3015.26888	3003.55
3017.68865	2982.15
3020.10694	2986.85
3022.52376	2979.25
3024.9391	2959.55
3027.35298	2958.35
3029.76539	2935.55
3032.17632	2942.15
3034.5858	2943.25
3036.9938	2926.45
3039.40034	2920.95
3041.80542	2911.15
3044.20903	2899.95
3046.61118	2900.95
3049.01187	2894.25
3051.4111	2897.15
3053.80888	2880.55
3056.20519	2878.75
3058.60005	2874.45
3060.99345	2869.55
3063.3854	2871.95
3065.7759	2864.25
3068.16494	2841.95
3070.55254	2837.15
3072.93868	2837.75
3075.32338	2826.35
3077.70662	2808.25
3080.08842	2799.35
3082.46878	2799.55
3084.84769	2779.55
3087.22515	2783.45
3089.60118	2778.95
3091.97576	2768.75
3094.3489	2778.85
3096.72061	2779.25
3099.09087	2777.35
3101.4597	2783.75
3103.82709	2775.55
3106.19305	2758.25
3108.55757	2746.45
3110.92066	2748.45
3113.28232	2751.85
3115.64255	2744.25
3118.00134	2735.05
3120.35871	2735.45
3122.71466	2713.95
3125.06917	2710.95
3127.42226	2704.85
3129.77393	2709.55
3132.12417	2702.55
3134.47299	2706.65
3136.82039	2699.15
3139.16636	2697.85
3141.51092	2692.95
3143.85406	2687.55
3146.19579	2675.35
3148.53609	2679.65
3150.87499	2691.15
3153.21246	2686.95
3155.54853	2680.25
3157.88318	2680.35
3160.21642	2692.75
3162.54826	2689.45
3164.87868	2674.65
3167.2077	2669.35
3169.5353	2664.95
3171.86151	2661.45
3174.18631	2666.15
3176.5097	2662.05
3178.83169	2660.45
3181.15228	2649.75
3183.47147	2634.15
3185.78926	2633.85
3188.10565	2613.35
3190.42065	2619.15
3192.73424	2607.85
3195.04645	2629.95
3197.35725	2605.45
3199.66667	2604.45
3201.97469	2607.95
3204.28132	2599.05
3206.58656	2601.95
3208.8904	2599.05
3211.19287	2609.85
3213.49394	2617.45
3215.79363	2597.45
3218.09193	2602.55
3220.38884	2602.05
3222.68438	2586.45
3224.97853	2598.35
3227.2713	2581.85
3229.56269	2584.45
3231.8527	2569.75
3234.14133	2580.45
3236.42858	2563.75
3238.71446	2554.25
3240.99896	2543.45
3243.28209	2546.95
3245.56384	2544.35
3247.84423	2546.55
3250.12324	2536.85
3252.40088	2533.65
3254.67715	2532.85
3256.95205	2524.15
3259.22558	2523.25
3261.49775	2522.65
3263.76855	2525.95
3266.03799	2517.35
3268.30606	2512.55
3270.57277	2523.05
3272.83812	2499.35
3275.10211	2500.65
3277.36474	2489.45
3279.62601	2471.15
3281.88593	2476.45
3284.14448	2475.65
3286.40168	2485.85
3288.65753	2480.15
3290.91202	2474.85
3293.16516	2470.85
3295.41695	2475.95
3297.66738	2464.65
3299.91647	2441.65
3302.16421	2423.05
3304.4106	2415.25
3306.65564	2398.75
3308.89933	2374.75
3311.14169	2359.65
3313.38269	2338.25
3315.62236	2332.85
3317.86068	2310.05
3320.09766	2289.95
3322.3333	2278.85
3324.5676	2256.85
3326.80056	2228.45
3329.03219	2198.05
3331.26248	0.85
3333.49143	0.45
3335.71905	-0.05
