Data from AgNPs_UA_10uM_CRN_500uM_SU_RamanShift__106__13-23-00-274.txt Node

Date: Thu Aug 04 13:23:00 BST 2022
User: TCL
Spectrometer: QEP01345
Trigger mode: 4
Integration Time (sec): 1.000000E0
Scans to average: 10
Electric dark correction enabled: true
Nonlinearity correction enabled: false
Boxcar width: 0
XAxis mode: Raman Shifts
Number of Pixels in Spectrum: 1044
>>>>>Begin Spectral Data<<<<<
46.04893	1.25
50.45542	-0.15
54.85868	1.25
59.25871	-1.15
63.6555	20.85
68.04907	21.85
72.43941	22.05
76.82654	22.95
81.21044	23.75
85.59113	24.55
89.96862	25.65
94.34289	25.75
98.71396	26.85
103.08183	27.45
107.4465	29.45
111.80798	26.75
116.16626	30.15
120.52136	32.05
124.87327	35.55
129.222	36.05
133.56755	38.05
137.90993	43.05
142.24913	48.65
146.58517	55.35
150.91804	63.35
155.24774	78.25
159.57429	97.15
163.89768	127.35
168.21792	169.75
172.53501	230.15
176.84895	327.75
181.15975	469.45
185.46741	665.25
189.77193	925.55
194.07331	1234.75
198.37157	1599.35
202.6667	1973.65
206.9587	2360.35
211.24758	2742.65
215.53334	3116.85
219.81599	3525.95
224.09553	3989.05
228.37195	4490.55
232.64527	5009.75
236.91549	5580.45
241.18261	6056.55
245.44663	6481.05
249.70755	6789.05
253.96539	7057.15
258.22014	7331.15
262.4718	7527.55
266.72039	7694.45
270.96589	7702.75
275.20832	7672.85
279.44768	7589.65
283.68397	7471.65
287.91719	7385.25
292.14735	7388.85
296.37445	7497.15
300.59849	7711.85
304.81948	7972.85
309.03742	8237.05
313.25231	8345.95
317.46415	8265.95
321.67296	7989.25
325.87872	7684.15
330.08145	7544.25
334.28114	7523.95
338.47781	7603.55
342.67145	7745.95
346.86207	7954.85
351.04966	8257.45
355.23424	8563.75
359.4158	8799.35
363.59435	8915.35
367.76989	8945.45
371.94243	8977.95
376.11196	8940.55
380.27849	8932.65
384.44203	8966.65
388.60257	8998.95
392.76012	9059.55
396.91468	9177.85
401.06626	9306.65
405.21485	9390.25
409.36047	9255.75
413.50311	9004.75
417.64277	8750.85
421.77947	8588.75
425.9132	8517.65
430.04396	8494.75
434.17176	8551.05
438.2966	8656.45
442.41849	8805.65
446.53742	9019.25
450.6534	9206.05
454.76644	9334.25
458.87653	9400.25
462.98368	9383.05
467.08789	9297.85
471.18916	9174.85
475.2875	8980.55
479.38291	8815.55
483.4754	8699.75
487.56496	8636.15
491.6516	8591.45
495.73531	8612.65
499.81612	8637.95
503.89401	8707.95
507.96899	8774.05
512.04106	8814.75
516.11023	8870.55
520.1765	8886.45
524.23987	8900.65
528.30034	8924.55
532.35792	8887.75
536.41261	8819.75
540.46441	8721.45
544.51333	8666.95
548.55936	8748.65
552.60252	8856.85
556.64279	9006.85
560.6802	9141.85
564.71473	9232.15
568.7464	9338.35
572.7752	9315.55
576.80114	9098.05
580.82422	8938.45
584.84444	8867.75
588.86181	8898.75
592.87633	8995.95
596.888	9172.55
600.89682	9579.55
604.9028	10638.45
608.90594	12787.35
612.90624	14838.75
616.90371	13625.05
620.89834	10741.55
624.89015	9609.45
628.87913	9511.15
632.86528	9640.55
636.84862	9677.65
640.82913	9436.55
644.80683	9070.95
648.78172	8880.65
652.75379	8918.65
656.72306	9184.55
660.68952	9475.75
664.65319	9402.45
668.61405	9299.85
672.57211	9341.75
676.52738	9345.15
680.47986	9139.35
684.42955	8959.35
688.37646	8946.85
692.32058	8985.55
696.26192	9178.35
700.20048	9346.55
704.13626	9369.65
708.06928	9242.75
711.99952	9135.15
715.927	9123.85
719.85171	9185.25
723.77365	9211.15
727.69284	9124.55
731.60928	9069.55
735.52295	9042.05
739.43388	9091.15
743.34206	9155.85
747.24749	9154.05
751.15017	9167.85
755.05012	9267.45
758.94733	9599.25
762.8418	10364.15
766.73354	11521.85
770.62254	12436.55
774.50882	12607.35
778.39237	12180.95
782.27321	11371.55
786.15132	10460.05
790.02671	9776.95
793.89938	9455.85
797.76935	9286.25
801.6366	9215.75
805.50115	9163.05
809.36299	9122.15
813.22213	9094.85
817.07857	9089.75
820.93231	9115.55
824.78336	9073.85
828.63172	9093.85
832.47738	9132.55
836.32036	9116.15
840.16066	9130.55
843.99827	9114.85
847.8332	9129.05
851.66546	9119.95
855.49504	9115.75
859.32195	9141.85
863.1462	9121.85
866.96777	9117.85
870.78668	9126.15
874.60293	9150.25
878.41652	9197.25
882.22745	9282.35
886.03573	9319.85
889.84136	9324.95
893.64433	9271.45
897.44466	9240.65
901.24235	9214.55
905.0374	9175.65
908.8298	9157.45
912.61957	9153.95
916.40671	9160.55
920.19121	9222.45
923.97308	9292.65
927.75233	9383.65
931.52895	9452.05
935.30295	9405.55
939.07433	9230.45
942.84309	9127.45
946.60924	9111.15
950.37278	9063.95
954.13371	9081.95
957.89203	9061.35
961.64774	9035.25
965.40086	9022.75
969.15137	9014.25
972.89929	9012.15
976.64461	9010.45
980.38733	9035.75
984.12747	9060.35
987.86502	9104.75
991.59999	9201.25
995.33237	9264.95
999.06217	9436.75
1002.78939	9604.25
1006.51404	9778.05
1010.23611	9902.05
1013.95561	9984.15
1017.67255	10045.45
1021.38692	10008.05
1025.09872	9995.35
1028.80796	10001.25
1032.51465	10086.25
1036.21877	10182.25
1039.92035	10163.75
1043.61937	10165.05
1047.31584	10072.45
1051.00976	9994.15
1054.70114	9977.35
1058.38998	9969.25
1062.07627	10015.95
1065.76003	10069.55
1069.44126	10169.85
1073.11995	10352.55
1076.79611	10506.65
1080.46974	10642.95
1084.14085	10750.55
1087.80943	10833.55
1091.47549	10872.85
1095.13903	10840.75
1098.80005	10796.65
1102.45857	10842.05
1106.11456	10819.45
1109.76805	10664.15
1113.41903	10663.75
1117.06751	10796.65
1120.71348	10991.45
1124.35696	11200.85
1127.99793	11311.25
1131.63641	11173.25
1135.2724	10859.55
1138.90589	10618.35
1142.5369	10428.35
1146.16542	10303.45
1149.79145	10223.85
1153.415	10174.55
1157.03607	10150.65
1160.65467	10230.25
1164.27079	10451.35
1167.88443	10792.85
1171.49561	11299.75
1175.10432	12046.35
1178.71056	13022.15
1182.31434	13885.05
1185.91565	14234.35
1189.51451	14231.55
1193.11091	13908.35
1196.70485	13554.25
1200.29634	13141.75
1203.88538	12753.15
1207.47197	12243.75
1211.05612	11786.75
1214.63782	11438.05
1218.21708	11208.05
1221.79391	11117.05
1225.36829	11066.85
1228.94024	11042.55
1232.50976	10989.05
1236.07685	10972.55
1239.6415	10963.95
1243.20374	11024.25
1246.76355	11125.55
1250.32093	11251.85
1253.8759	11445.65
1257.42845	11740.15
1260.97859	12047.75
1264.52631	12344.85
1268.07163	12627.35
1271.61453	12812.05
1275.15503	12881.55
1278.69312	12938.35
1282.22882	13043.95
1285.76211	13153.65
1289.29301	13363.15
1292.82151	13617.05
1296.34761	13885.35
1299.87133	14363.55
1303.39266	15154.95
1306.9116	16358.25
1310.42815	17594.95
1313.94233	18145.65
1317.45412	17605.15
1320.96354	16646.95
1324.47058	15691.35
1327.97525	14857.25
1331.47754	14372.65
1334.97747	14208.85
1338.47502	14389.45
1341.97022	14838.75
1345.46305	15557.95
1348.95352	16601.05
1352.44163	17718.65
1355.92738	18913.95
1359.41078	20286.75
1362.89183	21178.45
1366.37053	20170.55
1369.84688	17559.55
1373.32088	15179.05
1376.79254	13831.95
1380.26186	13213.05
1383.72883	12838.25
1387.19347	12485.65
1390.65578	12096.75
1394.11575	11789.45
1397.57339	11529.05
1401.0287	11442.05
1404.48168	11450.35
1407.93234	11527.15
1411.38068	11736.85
1414.82669	11899.15
1418.27039	11934.45
1421.71177	11923.95
1425.15083	11821.55
1428.58758	11817.65
1432.02203	11900.25
1435.45416	11987.45
1438.88399	12017.75
1442.31151	11936.95
1445.73673	11913.15
1449.15965	11891.15
1452.58027	11823.05
1455.9986	11783.65
1459.41463	11734.75
1462.82837	11843.15
1466.23982	12016.95
1469.64898	12203.25
1473.05586	12381.95
1476.46045	12531.25
1479.86276	12670.85
1483.26279	12813.45
1486.66054	12993.65
1490.05602	13334.45
1493.44922	13861.85
1496.84016	14682.65
1500.22882	15830.65
1503.61521	17248.85
1506.99934	18634.35
1510.38121	19395.75
1513.76081	19138.95
1517.13816	17787.65
1520.51324	16063.25
1523.88607	14629.75
1527.25665	13757.85
1530.62498	13351.35
1533.99105	13127.25
1537.35488	13007.35
1540.71647	12949.85
1544.07581	12823.75
1547.4329	12725.25
1550.78776	12608.45
1554.14038	12459.75
1557.49077	12467.35
1560.83892	12615.15
1564.18484	12851.55
1567.52853	13133.65
1570.86999	13266.85
1574.20922	13312.75
1577.54624	13132.95
1580.88103	12644.05
1584.2136	12144.55
1587.54395	11863.95
1590.87208	12017.75
1594.19801	12498.85
1597.52172	13085.65
1600.84321	13392.85
1604.16251	13271.75
1607.47959	12990.15
1610.79447	12528.25
1614.10715	11910.45
1617.41763	11293.65
1620.7259	10831.95
1624.03199	10588.95
1627.33587	10577.65
1630.63757	10730.15
1633.93707	11152.15
1637.23439	11868.55
1640.52951	12941.25
1643.82246	14253.15
1647.11321	15479.95
1650.40179	15898.75
1653.68819	15003.55
1656.97241	13286.55
1660.25446	11657.15
1663.53433	10585.75
1666.81203	9947.75
1670.08756	9549.95
1673.36092	9321.05
1676.63211	9195.45
1679.90115	9058.75
1683.16801	8978.95
1686.43272	8888.75
1689.69527	8815.25
1692.95567	8788.45
1696.2139	8766.05
1699.46999	8745.75
1702.72392	8737.85
1705.97571	8701.15
1709.22535	8712.05
1712.47284	8704.35
1715.71819	8701.15
1718.96139	8701.85
1722.20246	8696.25
1725.44139	8670.45
1728.67818	8605.45
1731.91284	8534.15
1735.14537	8513.55
1738.37576	8496.45
1741.60403	8453.75
1744.83017	8447.65
1748.05418	8399.85
1751.27607	8385.65
1754.49584	8372.25
1757.71349	8373.25
1760.92903	8356.85
1764.14244	8352.55
1767.35375	8324.75
1770.56294	8326.55
1773.77002	8314.55
1776.97499	8280.75
1780.17785	8251.55
1783.37861	8253.65
1786.57727	8220.35
1789.77382	8229.25
1792.96828	8217.05
1796.16064	8195.35
1799.3509	8180.95
1802.53907	8158.15
1805.72514	8152.45
1808.90913	8131.75
1812.09102	8119.95
1815.27083	8093.65
1818.44856	8051.85
1821.6242	8036.95
1824.79776	8024.45
1827.96924	8026.95
1831.13864	8015.15
1834.30597	8003.25
1837.47122	7995.35
1840.6344	7953.45
1843.7955	7981.25
1846.95454	7942.85
1850.11151	7966.35
1853.26642	7949.85
1856.41926	7946.85
1859.57004	7953.25
1862.71876	7943.85
1865.86542	7945.55
1869.01003	7945.25
1872.15258	7918.55
1875.29308	7912.05
1878.43152	7901.25
1881.56792	7897.95
1884.70227	7870.65
1887.83457	7868.85
1890.96482	7836.25
1894.09304	7845.05
1897.21921	7793.95
1900.34335	7807.75
1903.46544	7788.05
1906.58551	7817.35
1909.70353	7791.55
1912.81953	7777.55
1915.93349	7777.05
1919.04543	7760.85
1922.15534	7741.35
1925.26322	7755.45
1928.36908	7714.05
1931.47292	7686.25
1934.57473	7674.45
1937.67453	7671.55
1940.77232	7656.85
1943.86808	7627.85
1946.96184	7591.75
1950.05358	7605.25
1953.14331	7570.35
1956.23103	7548.35
1959.31675	7514.95
1962.40046	7515.05
1965.48217	7465.75
1968.56188	7438.45
1971.63959	7415.15
1974.7153	7415.05
1977.78901	7411.45
1980.86073	7409.65
1983.93046	7351.75
1986.99819	7315.25
1990.06394	7299.15
1993.1277	7313.75
1996.18947	7250.05
1999.24925	7212.75
2002.30706	7199.65
2005.36288	7166.45
2008.41672	7159.95
2011.46859	7129.65
2014.51848	7099.75
2017.56639	7089.95
2020.61233	7066.05
2023.6563	7067.55
2026.6983	7040.15
2029.73833	7025.65
2032.7764	6993.95
2035.8125	6985.25
2038.84664	6969.15
2041.87881	6950.45
2044.90903	6949.65
2047.93729	6926.75
2050.96359	6927.15
2053.98794	6889.55
2057.01034	6894.95
2060.03078	6888.95
2063.04927	6884.45
2066.06582	6881.75
2069.08042	6858.55
2072.09307	6838.35
2075.10378	6849.25
2078.11255	6840.45
2081.11938	6835.45
2084.12426	6829.25
2087.12722	6831.65
2090.12824	6823.55
2093.12732	6846.55
2096.12447	6819.05
2099.11969	6840.05
2102.11299	6836.15
2105.10435	6807.95
2108.09379	6845.65
2111.08131	6833.75
2114.0669	6822.35
2117.05057	6848.75
2120.03233	6864.65
2123.01216	6859.15
2125.99008	6847.05
2128.96609	6854.75
2131.94018	6868.75
2134.91236	6851.45
2137.88263	6860.25
2140.851	6868.85
2143.81746	6862.85
2146.78201	6865.85
2149.74466	6834.45
2152.7054	6845.05
2155.66425	6856.15
2158.6212	6845.55
2161.57625	6820.25
2164.52941	6831.05
2167.48067	6821.65
2170.43004	6824.55
2173.37752	6795.85
2176.32311	6824.15
2179.26681	6816.65
2182.20863	6840.05
2185.14856	6820.65
2188.08661	6825.75
2191.02278	6821.85
2193.95707	6827.45
2196.88948	6798.25
2199.82001	6815.95
2202.74867	6812.05
2205.67545	6825.55
2208.60037	6815.55
2211.52341	6789.35
2214.44458	6774.85
2217.36388	6741.05
2220.28132	6729.15
2223.1969	6703.95
2226.11061	6698.05
2229.02246	6687.05
2231.93245	6681.05
2234.84058	6647.25
2237.74686	6644.15
2240.65128	6657.05
2243.55385	6620.95
2246.45456	6617.55
2249.35343	6599.15
2252.25044	6591.85
2255.14561	6605.65
2258.03893	6594.95
2260.93041	6579.75
2263.82004	6577.25
2266.70783	6555.95
2269.59378	6557.45
2272.4779	6512.35
2275.36017	6495.75
2278.24061	6487.25
2281.11922	6449.75
2283.996	6452.95
2286.87094	6433.05
2289.74405	6456.35
2292.61534	6432.75
2295.4848	6415.45
2298.35243	6409.05
2301.21824	6398.15
2304.08223	6396.05
2306.94439	6399.45
2309.80474	6407.05
2312.66327	6406.05
2315.51999	6393.45
2318.37489	6392.95
2321.22797	6366.75
2324.07925	6365.35
2326.92871	6352.75
2329.77637	6345.15
2332.62222	6337.25
2335.46626	6322.35
2338.3085	6315.25
2341.14893	6310.95
2343.98756	6323.85
2346.8244	6336.85
2349.65943	6309.25
2352.49267	6300.25
2355.32411	6299.35
2358.15376	6303.75
2360.98161	6293.35
2363.80768	6297.35
2366.63195	6292.55
2369.45444	6281.65
2372.27514	6263.45
2375.09405	6262.05
2377.91118	6246.35
2380.72652	6248.15
2383.54009	6207.95
2386.35187	6216.65
2389.16188	6179.05
2391.97011	6185.95
2394.77657	6165.15
2397.58125	6146.15
2400.38416	6152.35
2403.18529	6130.85
2405.98466	6133.15
2408.78226	6115.85
2411.57809	6095.35
2414.37216	6078.15
2417.16446	6059.35
2419.955	6071.05
2422.74378	6058.05
2425.5308	6051.45
2428.31606	6057.95
2431.09956	6037.75
2433.88131	6026.65
2436.6613	6035.55
2439.43954	6038.15
2442.21603	6021.55
2444.99077	6027.25
2447.76377	6029.75
2450.53501	6020.75
2453.30451	6018.75
2456.07226	6018.25
2458.83827	6008.75
2461.60254	5992.95
2464.36507	5974.75
2467.12586	5951.35
2469.88492	5970.25
2472.64224	5970.35
2475.39782	5967.55
2478.15167	5964.35
2480.90379	5962.65
2483.65417	5951.85
2486.40283	5957.45
2489.14976	5967.25
2491.89497	5947.75
2494.63845	5937.15
2497.3802	5936.85
2500.12024	5937.85
2502.85855	5926.85
2505.59514	5927.55
2508.33002	5918.05
2511.06318	5896.65
2513.79462	5883.35
2516.52435	5869.05
2519.25237	5853.65
2521.97867	5846.75
2524.70327	5853.55
2527.42616	5838.05
2530.14734	5830.15
2532.86681	5816.25
2535.58458	5842.95
2538.30065	5844.95
2541.01501	5827.45
2543.72768	5788.15
2546.43864	5792.45
2549.14791	5788.45
2551.85548	5769.95
2554.56136	5790.65
2557.26554	5774.85
2559.96803	5770.85
2562.66883	5756.65
2565.36794	5709.85
2568.06536	5717.95
2570.7611	5709.45
2573.45514	5701.15
2576.14751	5688.25
2578.83819	5685.55
2581.52719	5680.55
2584.21451	5677.35
2586.90015	5656.65
2589.58411	5650.05
2592.2664	5653.35
2594.94701	5634.45
2597.62594	5621.35
2600.30321	5613.95
2602.9788	5616.95
2605.65273	5614.95
2608.32498	5610.65
2610.99557	5600.25
2613.66449	5607.05
2616.33175	5590.55
2618.99734	5596.95
2621.66128	5585.75
2624.32355	5573.25
2626.98416	5564.05
2629.64311	5550.15
2632.30041	5542.05
2634.95605	5544.05
2637.61004	5541.45
2640.26238	5514.45
2642.91306	5509.35
2645.56209	5514.65
2648.20948	5503.45
2650.85521	5498.35
2653.4993	5501.35
2656.14175	5509.75
2658.78255	5484.35
2661.42171	5467.05
2664.05923	5491.85
2666.6951	5504.65
2669.32934	5501.85
2671.96194	5509.95
2674.59291	5509.45
2677.22224	5504.45
2679.84993	5513.75
2682.476	5497.05
2685.10043	5494.85
2687.72324	5501.85
2690.34441	5483.35
2692.96396	5485.05
2695.58188	5476.45
2698.19818	5467.35
2700.81285	5475.35
2703.4259	5450.35
2706.03733	5459.95
2708.64714	5444.65
2711.25533	5450.45
2713.86191	5448.45
2716.46687	5463.35
2719.07021	5451.45
2721.67194	5458.35
2724.27206	5452.05
2726.87057	5448.15
2729.46747	5457.55
2732.06276	5462.05
2734.65644	5448.35
2737.24852	5433.65
2739.83899	5427.55
2742.42786	5422.05
2745.01513	5409.25
2747.60079	5389.15
2750.18486	5390.65
2752.76733	5397.35
2755.3482	5386.15
2757.92747	5369.35
2760.50515	5354.95
2763.08123	5352.65
2765.65573	5340.25
2768.22863	5334.15
2770.79994	5317.05
2773.36967	5321.25
2775.9378	5308.25
2778.50435	5303.95
2781.06932	5329.85
2783.6327	5291.95
2786.1945	5289.75
2788.75471	5300.65
2791.31335	5266.65
2793.87041	5271.85
2796.42589	5248.05
2798.97979	5227.95
2801.53212	5249.25
2804.08288	5229.25
2806.63206	5205.45
2809.17967	5222.55
2811.72571	5193.55
2814.27018	5199.05
2816.81308	5190.05
2819.35442	5162.45
2821.89419	5154.45
2824.43239	5150.05
2826.96904	5147.75
2829.50412	5134.95
2832.03763	5115.35
2834.56959	5119.25
2837.1	5100.25
2839.62884	5100.25
2842.15613	5089.95
2844.68186	5097.25
2847.20604	5093.65
2849.72867	5087.05
2852.24974	5047.55
2854.76927	5065.05
2857.28724	5030.35
2859.80367	5027.25
2862.31855	5044.65
2864.83189	5036.25
2867.34368	5034.45
2869.85393	5032.15
2872.36264	5014.75
2874.8698	5003.05
2877.37543	5025.55
2879.87952	5003.95
2882.38207	4986.95
2884.88308	4985.05
2887.38256	5000.95
2889.88051	4980.05
2892.37692	4974.25
2894.8718	4971.35
2897.36515	4987.55
2899.85698	4968.55
2902.34727	4975.35
2904.83604	4995.65
2907.32328	5000.65
2909.809	5006.75
2912.29319	4994.05
2914.77587	4988.55
2917.25702	4993.85
2919.73665	5001.05
2922.21476	4991.85
2924.69136	4990.35
2927.16644	4975.65
2929.64	4962.35
2932.11205	4945.25
2934.58258	4918.35
2937.05161	4944.75
2939.51912	4936.65
2941.98513	4932.85
2944.44962	4916.15
2946.91261	4908.45
2949.37409	4928.85
2951.83407	4919.25
2954.29254	4893.55
2956.74951	4903.65
2959.20498	4911.65
2961.65895	4899.05
2964.11142	4903.35
2966.56239	4881.05
2969.01186	4886.35
2971.45984	4895.15
2973.90632	4873.65
2976.35131	4868.85
2978.7948	4861.75
2981.23681	4851.25
2983.67732	4848.55
2986.11635	4841.55
2988.55388	4825.45
2990.98993	4782.15
2993.4245	4793.75
2995.85758	4786.25
2998.28917	4747.35
3000.71928	4766.25
3003.14791	4739.05
3005.57506	4734.25
3008.00073	4713.15
3010.42493	4709.55
3012.84764	4694.85
3015.26888	4719.45
3017.68865	4687.75
3020.10694	4685.85
3022.52376	4657.95
3024.9391	4640.25
3027.35298	4624.55
3029.76539	4626.15
3032.17632	4607.35
3034.5858	4633.75
3036.9938	4611.05
3039.40034	4600.45
3041.80542	4585.05
3044.20903	4568.65
3046.61118	4557.65
3049.01187	4552.45
3051.4111	4542.65
3053.80888	4522.15
3056.20519	4527.75
3058.60005	4503.15
3060.99345	4504.55
3063.3854	4487.05
3065.7759	4482.95
3068.16494	4472.15
3070.55254	4454.75
3072.93868	4436.25
3075.32338	4424.15
3077.70662	4414.15
3080.08842	4416.55
3082.46878	4410.15
3084.84769	4397.35
3087.22515	4379.05
3089.60118	4391.65
3091.97576	4380.25
3094.3489	4371.25
3096.72061	4364.85
3099.09087	4356.45
3101.4597	4362.85
3103.82709	4352.65
3106.19305	4360.75
3108.55757	4352.85
3110.92066	4337.45
3113.28232	4317.25
3115.64255	4320.35
3118.00134	4307.45
3120.35871	4312.65
3122.71466	4296.05
3125.06917	4292.25
3127.42226	4276.65
3129.77393	4260.55
3132.12417	4250.85
3134.47299	4260.45
3136.82039	4234.25
3139.16636	4245.55
3141.51092	4242.25
3143.85406	4230.15
3146.19579	4232.05
3148.53609	4235.05
3150.87499	4233.25
3153.21246	4226.05
3155.54853	4234.45
3157.88318	4217.15
3160.21642	4214.15
3162.54826	4210.45
3164.87868	4203.25
3167.2077	4205.45
3169.5353	4203.75
3171.86151	4176.95
3174.18631	4181.25
3176.5097	4185.75
3178.83169	4178.05
3181.15228	4160.45
3183.47147	4150.05
3185.78926	4133.85
3188.10565	4118.15
3190.42065	4110.25
3192.73424	4123.35
3195.04645	4103.75
3197.35725	4093.55
3199.66667	4101.35
3201.97469	4098.45
3204.28132	4099.25
3206.58656	4105.35
3208.8904	4100.75
3211.19287	4093.25
3213.49394	4104.45
3215.79363	4097.65
3218.09193	4094.65
3220.38884	4090.65
3222.68438	4103.55
3224.97853	4074.45
3227.2713	4083.65
3229.56269	4072.55
3231.8527	4056.85
3234.14133	4066.15
3236.42858	4051.25
3238.71446	4029.15
3240.99896	4024.75
3243.28209	4020.15
3245.56384	4020.15
3247.84423	4002.85
3250.12324	3983.25
3252.40088	3989.15
3254.67715	3985.65
3256.95205	3986.25
3259.22558	3991.55
3261.49775	3967.55
3263.76855	3994.25
3266.03799	3970.65
3268.30606	3979.15
3270.57277	3970.95
3272.83812	3973.45
3275.10211	3958.55
3277.36474	3932.75
3279.62601	3926.85
3281.88593	3917.35
3284.14448	3926.15
3286.40168	3907.65
3288.65753	3917.95
3290.91202	3929.15
3293.16516	3900.65
3295.41695	3894.85
3297.66738	3890.85
3299.91647	3870.55
3302.16421	3829.65
3304.4106	3824.85
3306.65564	3803.65
3308.89933	3768.95
3311.14169	3733.05
3313.38269	3703.65
3315.62236	3678.75
3317.86068	3660.25
3320.09766	3637.15
3322.3333	3600.05
3324.5676	3585.55
3326.80056	3514.15
3329.03219	3499.65
3331.26248	1.15
3333.49143	-0.45
3335.71905	-1.05
