Data from AgNPs_UA_20uM_CRN_500uM_SU_RamanShift__90__13-51-30-308.txt Node

Date: Thu Aug 04 13:51:30 BST 2022
User: TCL
Spectrometer: QEP01345
Trigger mode: 4
Integration Time (sec): 1.000000E0
Scans to average: 10
Electric dark correction enabled: true
Nonlinearity correction enabled: false
Boxcar width: 0
XAxis mode: Raman Shifts
Number of Pixels in Spectrum: 1044
>>>>>Begin Spectral Data<<<<<
46.04893	-1.15
50.45542	-0.75
54.85868	1.75
59.25871	-0.35
63.6555	13.25
68.04907	9.05
72.43941	14.55
76.82654	13.05
81.21044	14.15
85.59113	14.95
89.96862	14.15
94.34289	15.15
98.71396	15.75
103.08183	19.45
107.4465	16.95
111.80798	19.45
116.16626	19.25
120.52136	20.35
124.87327	19.45
129.222	25.15
133.56755	21.35
137.90993	25.25
142.24913	26.15
146.58517	29.65
150.91804	36.75
155.24774	43.95
159.57429	54.75
163.89768	73.25
168.21792	93.75
172.53501	130.35
176.84895	178.35
181.15975	259.75
185.46741	363.05
189.77193	502.15
194.07331	675.55
198.37157	874.05
202.6667	1083.25
206.9587	1297.95
211.24758	1500.95
215.53334	1718.35
219.81599	1950.55
224.09553	2207.45
228.37195	2500.05
232.64527	2819.35
236.91549	3120.35
241.18261	3385.75
245.44663	3595.45
249.70755	3758.75
253.96539	3876.75
258.22014	3999.65
262.4718	4106.65
266.72039	4181.75
270.96589	4194.45
275.20832	4184.95
279.44768	4108.85
283.68397	4033.45
287.91719	3968.55
292.14735	3993.45
296.37445	4075.35
300.59849	4217.85
304.81948	4422.55
309.03742	4600.85
313.25231	4693.55
317.46415	4634.75
321.67296	4444.25
325.87872	4236.75
330.08145	4105.55
334.28114	4103.45
338.47781	4148.35
342.67145	4259.25
346.86207	4388.25
351.04966	4570.15
355.23424	4747.95
359.4158	4875.55
363.59435	4937.45
367.76989	4942.55
371.94243	4924.15
376.11196	4890.35
380.27849	4872.85
384.44203	4844.65
388.60257	4860.05
392.76012	4898.25
396.91468	4944.45
401.06626	5037.25
405.21485	5061.85
409.36047	4963.15
413.50311	4761.55
417.64277	4576.55
421.77947	4476.95
425.9132	4455.25
430.04396	4460.55
434.17176	4494.65
438.2966	4573.45
442.41849	4695.85
446.53742	4821.25
450.6534	4956.25
454.76644	4995.55
458.87653	4987.55
462.98368	4954.05
467.08789	4883.65
471.18916	4805.75
475.2875	4690.45
479.38291	4575.45
483.4754	4515.05
487.56496	4458.75
491.6516	4424.05
495.73531	4434.85
499.81612	4427.75
503.89401	4465.35
507.96899	4500.35
512.04106	4559.45
516.11023	4612.45
520.1765	4649.75
524.23987	4675.85
528.30034	4668.35
532.35792	4661.05
536.41261	4608.55
540.46441	4518.05
544.51333	4497.05
548.55936	4530.05
552.60252	4621.45
556.64279	4693.85
560.6802	4749.75
564.71473	4798.95
568.7464	4886.05
572.7752	4882.55
576.80114	4779.95
580.82422	4665.95
584.84444	4662.25
588.86181	4715.65
592.87633	4798.25
596.888	4919.65
600.89682	5107.85
604.9028	5699.35
608.90594	7021.15
612.90624	8377.65
616.90371	7678.25
620.89834	5761.65
624.89015	4971.35
628.87913	4884.85
632.86528	4919.95
636.84862	4951.85
640.82913	4844.25
644.80683	4634.15
648.78172	4535.45
652.75379	4568.25
656.72306	4713.15
660.68952	4882.95
664.65319	4820.35
668.61405	4648.35
672.57211	4608.35
676.52738	4608.65
680.47986	4570.35
684.42955	4499.35
688.37646	4480.35
692.32058	4525.55
696.26192	4583.15
700.20048	4655.55
704.13626	4676.55
708.06928	4628.35
711.99952	4600.05
715.927	4595.25
719.85171	4625.05
723.77365	4611.45
727.69284	4584.65
731.60928	4542.55
735.52295	4528.85
739.43388	4577.85
743.34206	4597.35
747.24749	4600.45
751.15017	4628.75
755.05012	4678.45
758.94733	4883.75
762.8418	5412.85
766.73354	6191.95
770.62254	6819.05
774.50882	6953.65
778.39237	6527.05
782.27321	5879.75
786.15132	5256.05
790.02671	4866.75
793.89938	4692.35
797.76935	4617.55
801.6366	4591.15
805.50115	4544.85
809.36299	4512.85
813.22213	4504.45
817.07857	4501.45
820.93231	4506.05
824.78336	4514.15
828.63172	4528.95
832.47738	4549.25
836.32036	4554.15
840.16066	4542.95
843.99827	4560.05
847.8332	4549.85
851.66546	4539.05
855.49504	4553.25
859.32195	4553.15
863.1462	4549.85
866.96777	4538.65
870.78668	4518.35
874.60293	4546.75
878.41652	4542.35
882.22745	4591.65
886.03573	4600.25
889.84136	4610.65
893.64433	4579.05
897.44466	4570.95
901.24235	4553.25
905.0374	4532.95
908.8298	4519.75
912.61957	4509.45
916.40671	4512.05
920.19121	4559.35
923.97308	4638.35
927.75233	4692.35
931.52895	4726.95
935.30295	4672.55
939.07433	4579.55
942.84309	4495.15
946.60924	4479.35
950.37278	4446.45
954.13371	4431.65
957.89203	4431.55
961.64774	4417.95
965.40086	4394.85
969.15137	4386.25
972.89929	4383.85
976.64461	4388.05
980.38733	4393.15
984.12747	4412.85
987.86502	4449.95
991.59999	4510.85
995.33237	4589.95
999.06217	4726.05
1002.78939	4855.95
1006.51404	4968.15
1010.23611	5047.25
1013.95561	5062.55
1017.67255	5094.75
1021.38692	5070.25
1025.09872	5030.55
1028.80796	5023.05
1032.51465	5066.95
1036.21877	5147.35
1039.92035	5149.75
1043.61937	5136.65
1047.31584	5030.55
1051.00976	4952.85
1054.70114	4916.45
1058.38998	4904.45
1062.07627	4894.55
1065.76003	4939.35
1069.44126	5002.75
1073.11995	5086.15
1076.79611	5181.75
1080.46974	5251.25
1084.14085	5347.75
1087.80943	5411.55
1091.47549	5458.45
1095.13903	5424.65
1098.80005	5330.45
1102.45857	5206.95
1106.11456	5120.75
1109.76805	5122.65
1113.41903	5157.45
1117.06751	5272.65
1120.71348	5412.85
1124.35696	5613.45
1127.99793	5734.45
1131.63641	5622.35
1135.2724	5437.05
1138.90589	5272.05
1142.5369	5177.55
1146.16542	5193.65
1149.79145	5171.85
1153.415	5098.95
1157.03607	5063.55
1160.65467	5091.25
1164.27079	5212.15
1167.88443	5424.25
1171.49561	5732.55
1175.10432	6209.25
1178.71056	6885.95
1182.31434	7427.05
1185.91565	7623.25
1189.51451	7522.05
1193.11091	7252.55
1196.70485	6915.05
1200.29634	6686.85
1203.88538	6493.15
1207.47197	6204.75
1211.05612	6003.15
1214.63782	5866.05
1218.21708	5748.85
1221.79391	5683.05
1225.36829	5682.05
1228.94024	5633.05
1232.50976	5566.25
1236.07685	5503.35
1239.6415	5482.95
1243.20374	5505.45
1246.76355	5560.55
1250.32093	5685.75
1253.8759	5853.85
1257.42845	6019.25
1260.97859	6236.45
1264.52631	6395.35
1268.07163	6516.95
1271.61453	6612.85
1275.15503	6716.45
1278.69312	6790.35
1282.22882	6850.55
1285.76211	6931.45
1289.29301	7096.75
1292.82151	7286.55
1296.34761	7487.35
1299.87133	7830.45
1303.39266	8390.15
1306.9116	9159.95
1310.42815	9946.65
1313.94233	10210.25
1317.45412	9850.85
1320.96354	9193.35
1324.47058	8514.25
1327.97525	7909.95
1331.47754	7559.55
1334.97747	7452.45
1338.47502	7541.55
1341.97022	7767.35
1345.46305	8157.75
1348.95352	8712.25
1352.44163	9380.05
1355.92738	10180.45
1359.41078	11241.25
1362.89183	12023.25
1366.37053	11423.55
1369.84688	9729.45
1373.32088	8135.75
1376.79254	7260.15
1380.26186	6853.95
1383.72883	6655.75
1387.19347	6462.15
1390.65578	6263.25
1394.11575	6102.25
1397.57339	5979.95
1401.0287	5932.85
1404.48168	5895.85
1407.93234	5888.15
1411.38068	5950.35
1414.82669	5993.85
1418.27039	6005.85
1421.71177	5959.05
1425.15083	5917.55
1428.58758	5908.85
1432.02203	6002.55
1435.45416	6108.75
1438.88399	6149.85
1442.31151	6160.65
1445.73673	6165.35
1449.15965	6173.65
1452.58027	6124.45
1455.9986	6050.45
1459.41463	6032.05
1462.82837	6098.25
1466.23982	6218.15
1469.64898	6330.15
1473.05586	6422.35
1476.46045	6469.35
1479.86276	6494.15
1483.26279	6572.95
1486.66054	6678.05
1490.05602	6873.35
1493.44922	7178.95
1496.84016	7674.95
1500.22882	8424.45
1503.61521	9433.55
1506.99934	10359.35
1510.38121	10916.65
1513.76081	10724.25
1517.13816	9856.25
1520.51324	8729.75
1523.88607	7870.45
1527.25665	7345.95
1530.62498	7104.75
1533.99105	6971.85
1537.35488	6895.85
1540.71647	6846.75
1544.07581	6782.25
1547.4329	6721.75
1550.78776	6634.45
1554.14038	6557.35
1557.49077	6509.75
1560.83892	6534.85
1564.18484	6683.45
1567.52853	6865.15
1570.86999	6997.25
1574.20922	7035.65
1577.54624	6893.95
1580.88103	6589.55
1584.2136	6258.45
1587.54395	6100.65
1590.87208	6217.65
1594.19801	6537.25
1597.52172	6971.55
1600.84321	7213.75
1604.16251	7152.05
1607.47959	6875.95
1610.79447	6513.45
1614.10715	6078.85
1617.41763	5717.95
1620.7259	5448.95
1624.03199	5313.85
1627.33587	5313.15
1630.63757	5420.55
1633.93707	5670.25
1637.23439	6090.05
1640.52951	6702.25
1643.82246	7513.05
1647.11321	8227.15
1650.40179	8505.85
1653.68819	8003.45
1656.97241	6971.25
1660.25446	5982.05
1663.53433	5297.35
1666.81203	4898.95
1670.08756	4664.25
1673.36092	4565.65
1676.63211	4459.85
1679.90115	4379.75
1683.16801	4316.45
1686.43272	4287.55
1689.69527	4266.65
1692.95567	4256.05
1696.2139	4214.65
1699.46999	4209.55
1702.72392	4211.95
1705.97571	4200.05
1709.22535	4228.05
1712.47284	4209.45
1715.71819	4197.15
1718.96139	4194.35
1722.20246	4184.05
1725.44139	4181.75
1728.67818	4132.75
1731.91284	4119.35
1735.14537	4099.25
1738.37576	4081.75
1741.60403	4059.35
1744.83017	4063.15
1748.05418	4059.95
1751.27607	4052.35
1754.49584	4039.55
1757.71349	4015.65
1760.92903	4008.45
1764.14244	4014.85
1767.35375	4015.35
1770.56294	3995.95
1773.77002	3998.75
1776.97499	3988.85
1780.17785	3965.55
1783.37861	3976.35
1786.57727	3942.25
1789.77382	3929.05
1792.96828	3941.75
1796.16064	3939.75
1799.3509	3920.75
1802.53907	3914.55
1805.72514	3914.15
1808.90913	3913.25
1812.09102	3898.15
1815.27083	3886.55
1818.44856	3869.85
1821.6242	3867.15
1824.79776	3870.55
1827.96924	3867.55
1831.13864	3846.75
1834.30597	3844.75
1837.47122	3856.25
1840.6344	3832.75
1843.7955	3840.45
1846.95454	3821.25
1850.11151	3823.25
1853.26642	3835.05
1856.41926	3829.05
1859.57004	3824.05
1862.71876	3819.25
1865.86542	3822.65
1869.01003	3820.25
1872.15258	3817.25
1875.29308	3806.55
1878.43152	3805.35
1881.56792	3805.15
1884.70227	3788.15
1887.83457	3800.85
1890.96482	3784.75
1894.09304	3775.45
1897.21921	3759.25
1900.34335	3776.35
1903.46544	3771.15
1906.58551	3778.55
1909.70353	3771.45
1912.81953	3753.25
1915.93349	3762.55
1919.04543	3744.05
1922.15534	3752.05
1925.26322	3762.55
1928.36908	3725.65
1931.47292	3724.85
1934.57473	3716.15
1937.67453	3712.35
1940.77232	3708.45
1943.86808	3700.45
1946.96184	3698.85
1950.05358	3672.15
1953.14331	3664.95
1956.23103	3661.95
1959.31675	3630.85
1962.40046	3627.55
1965.48217	3624.85
1968.56188	3616.05
1971.63959	3611.55
1974.7153	3605.65
1977.78901	3587.65
1980.86073	3577.95
1983.93046	3570.15
1986.99819	3548.15
1990.06394	3531.25
1993.1277	3547.25
1996.18947	3518.25
1999.24925	3513.45
2002.30706	3490.45
2005.36288	3489.55
2008.41672	3468.85
2011.46859	3456.25
2014.51848	3463.55
2017.56639	3455.85
2020.61233	3440.05
2023.6563	3430.65
2026.6983	3435.85
2029.73833	3420.25
2032.7764	3404.75
2035.8125	3400.25
2038.84664	3394.95
2041.87881	3397.15
2044.90903	3393.55
2047.93729	3381.65
2050.96359	3376.65
2053.98794	3378.85
2057.01034	3381.65
2060.03078	3362.75
2063.04927	3348.95
2066.06582	3360.45
2069.08042	3349.55
2072.09307	3370.85
2075.10378	3358.25
2078.11255	3347.35
2081.11938	3337.35
2084.12426	3342.05
2087.12722	3323.95
2090.12824	3332.75
2093.12732	3348.45
2096.12447	3350.95
2099.11969	3329.95
2102.11299	3349.45
2105.10435	3353.05
2108.09379	3336.05
2111.08131	3350.75
2114.0669	3342.05
2117.05057	3344.65
2120.03233	3362.25
2123.01216	3343.05
2125.99008	3356.15
2128.96609	3373.95
2131.94018	3361.75
2134.91236	3370.25
2137.88263	3367.75
2140.851	3356.85
2143.81746	3366.55
2146.78201	3370.45
2149.74466	3365.05
2152.7054	3368.25
2155.66425	3362.55
2158.6212	3366.25
2161.57625	3373.65
2164.52941	3362.85
2167.48067	3369.25
2170.43004	3349.95
2173.37752	3355.75
2176.32311	3350.85
2179.26681	3355.75
2182.20863	3361.75
2185.14856	3353.85
2188.08661	3355.05
2191.02278	3373.55
2193.95707	3355.55
2196.88948	3363.35
2199.82001	3353.45
2202.74867	3344.35
2205.67545	3358.75
2208.60037	3361.35
2211.52341	3343.15
2214.44458	3327.15
2217.36388	3329.35
2220.28132	3323.75
2223.1969	3319.05
2226.11061	3300.65
2229.02246	3305.45
2231.93245	3293.15
2234.84058	3294.65
2237.74686	3292.45
2240.65128	3298.65
2243.55385	3284.45
2246.45456	3279.65
2249.35343	3281.65
2252.25044	3271.05
2255.14561	3266.85
2258.03893	3287.25
2260.93041	3268.45
2263.82004	3273.75
2266.70783	3253.75
2269.59378	3243.45
2272.4779	3245.05
2275.36017	3223.65
2278.24061	3211.95
2281.11922	3211.55
2283.996	3204.65
2286.87094	3206.65
2289.74405	3194.85
2292.61534	3202.25
2295.4848	3202.75
2298.35243	3195.05
2301.21824	3198.65
2304.08223	3188.05
2306.94439	3205.65
2309.80474	3188.75
2312.66327	3196.15
2315.51999	3189.65
2318.37489	3202.65
2321.22797	3188.35
2324.07925	3187.45
2326.92871	3180.95
2329.77637	3174.35
2332.62222	3179.75
2335.46626	3175.25
2338.3085	3166.75
2341.14893	3168.55
2343.98756	3180.05
2346.8244	3175.15
2349.65943	3179.15
2352.49267	3169.05
2355.32411	3178.95
2358.15376	3159.25
2360.98161	3176.75
2363.80768	3178.85
2366.63195	3158.85
2369.45444	3157.05
2372.27514	3171.35
2375.09405	3156.25
2377.91118	3139.95
2380.72652	3140.15
2383.54009	3121.15
2386.35187	3123.65
2389.16188	3099.95
2391.97011	3120.55
2394.77657	3116.65
2397.58125	3100.35
2400.38416	3101.65
2403.18529	3092.65
2405.98466	3078.45
2408.78226	3077.95
2411.57809	3067.45
2414.37216	3062.35
2417.16446	3065.15
2419.955	3064.45
2422.74378	3077.25
2425.5308	3053.85
2428.31606	3049.05
2431.09956	3049.05
2433.88131	3049.15
2436.6613	3041.35
2439.43954	3042.85
2442.21603	3051.15
2444.99077	3041.45
2447.76377	3041.75
2450.53501	3044.95
2453.30451	3049.85
2456.07226	3047.65
2458.83827	3040.45
2461.60254	3031.85
2464.36507	3040.15
2467.12586	3031.05
2469.88492	3030.45
2472.64224	3027.25
2475.39782	3024.25
2478.15167	3038.85
2480.90379	3033.75
2483.65417	3020.25
2486.40283	3023.55
2489.14976	3041.85
2491.89497	3042.15
2494.63845	3041.95
2497.3802	3028.35
2500.12024	3039.85
2502.85855	3022.05
2505.59514	3013.75
2508.33002	3012.75
2511.06318	3007.85
2513.79462	2993.05
2516.52435	2998.95
2519.25237	2991.15
2521.97867	2991.75
2524.70327	2978.05
2527.42616	2981.55
2530.14734	2981.05
2532.86681	2984.55
2535.58458	2982.65
2538.30065	2966.65
2541.01501	2967.15
2543.72768	2979.25
2546.43864	2977.95
2549.14791	2969.35
2551.85548	2989.15
2554.56136	2984.05
2557.26554	2975.95
2559.96803	2959.35
2562.66883	2947.95
2565.36794	2947.55
2568.06536	2949.95
2570.7611	2929.25
2573.45514	2937.95
2576.14751	2943.65
2578.83819	2926.95
2581.52719	2914.45
2584.21451	2923.45
2586.90015	2915.55
2589.58411	2900.15
2592.2664	2915.25
2594.94701	2918.05
2597.62594	2905.95
2600.30321	2896.55
2602.9788	2898.95
2605.65273	2907.35
2608.32498	2893.35
2610.99557	2896.95
2613.66449	2896.75
2616.33175	2884.85
2618.99734	2883.65
2621.66128	2877.85
2624.32355	2897.05
2626.98416	2887.65
2629.64311	2889.45
2632.30041	2890.05
2634.95605	2881.65
2637.61004	2876.35
2640.26238	2865.55
2642.91306	2867.75
2645.56209	2861.45
2648.20948	2856.65
2650.85521	2872.45
2653.4993	2866.05
2656.14175	2859.35
2658.78255	2861.35
2661.42171	2856.05
2664.05923	2854.35
2666.6951	2873.15
2669.32934	2884.45
2671.96194	2873.45
2674.59291	2857.25
2677.22224	2858.75
2679.84993	2861.95
2682.476	2857.15
2685.10043	2854.45
2687.72324	2861.95
2690.34441	2840.95
2692.96396	2856.15
2695.58188	2852.35
2698.19818	2849.45
2700.81285	2857.35
2703.4259	2850.55
2706.03733	2850.85
2708.64714	2849.35
2711.25533	2834.15
2713.86191	2824.95
2716.46687	2841.65
2719.07021	2839.15
2721.67194	2844.25
2724.27206	2845.25
2726.87057	2849.75
2729.46747	2850.45
2732.06276	2838.35
2734.65644	2837.75
2737.24852	2839.45
2739.83899	2843.35
2742.42786	2826.35
2745.01513	2832.75
2747.60079	2822.25
2750.18486	2812.95
2752.76733	2814.75
2755.3482	2820.95
2757.92747	2814.75
2760.50515	2804.15
2763.08123	2804.65
2765.65573	2789.95
2768.22863	2799.15
2770.79994	2790.25
2773.36967	2792.05
2775.9378	2802.35
2778.50435	2783.65
2781.06932	2785.25
2783.6327	2783.45
2786.1945	2774.25
2788.75471	2786.25
2791.31335	2770.05
2793.87041	2778.65
2796.42589	2756.25
2798.97979	2757.55
2801.53212	2757.35
2804.08288	2759.15
2806.63206	2746.15
2809.17967	2747.95
2811.72571	2761.35
2814.27018	2747.65
2816.81308	2737.15
2819.35442	2737.95
2821.89419	2724.55
2824.43239	2713.75
2826.96904	2713.25
2829.50412	2714.35
2832.03763	2715.25
2834.56959	2710.55
2837.1	2689.45
2839.62884	2684.75
2842.15613	2696.05
2844.68186	2694.95
2847.20604	2693.25
2849.72867	2688.05
2852.24974	2677.35
2854.76927	2679.95
2857.28724	2671.85
2859.80367	2663.95
2862.31855	2662.85
2864.83189	2674.75
2867.34368	2671.05
2869.85393	2671.55
2872.36264	2665.05
2874.8698	2662.15
2877.37543	2658.85
2879.87952	2649.85
2882.38207	2647.85
2884.88308	2647.45
2887.38256	2656.95
2889.88051	2653.75
2892.37692	2652.35
2894.8718	2649.05
2897.36515	2640.85
2899.85698	2653.05
2902.34727	2658.75
2904.83604	2643.65
2907.32328	2661.85
2909.809	2659.75
2912.29319	2659.35
2914.77587	2663.05
2917.25702	2653.35
2919.73665	2668.75
2922.21476	2658.75
2924.69136	2661.35
2927.16644	2654.45
2929.64	2648.75
2932.11205	2642.75
2934.58258	2628.55
2937.05161	2644.05
2939.51912	2646.65
2941.98513	2631.95
2944.44962	2622.25
2946.91261	2617.65
2949.37409	2632.35
2951.83407	2621.85
2954.29254	2627.65
2956.74951	2619.35
2959.20498	2609.95
2961.65895	2615.25
2964.11142	2612.25
2966.56239	2610.15
2969.01186	2602.25
2971.45984	2599.45
2973.90632	2598.25
2976.35131	2603.85
2978.7948	2567.75
2981.23681	2586.95
2983.67732	2577.55
2986.11635	2578.05
2988.55388	2561.85
2990.98993	2566.75
2993.4245	2558.35
2995.85758	2549.55
2998.28917	2544.35
3000.71928	2548.95
3003.14791	2531.05
3005.57506	2538.55
3008.00073	2527.65
3010.42493	2521.55
3012.84764	2518.25
3015.26888	2515.45
3017.68865	2514.05
3020.10694	2503.35
3022.52376	2509.25
3024.9391	2494.65
3027.35298	2483.25
3029.76539	2470.35
3032.17632	2480.05
3034.5858	2482.05
3036.9938	2474.95
3039.40034	2460.55
3041.80542	2448.35
3044.20903	2459.15
3046.61118	2457.25
3049.01187	2436.45
3051.4111	2452.95
3053.80888	2443.85
3056.20519	2437.25
3058.60005	2437.25
3060.99345	2426.85
3063.3854	2427.85
3065.7759	2424.55
3068.16494	2414.45
3070.55254	2415.35
3072.93868	2399.65
3075.32338	2392.15
3077.70662	2390.45
3080.08842	2383.85
3082.46878	2372.85
3084.84769	2368.55
3087.22515	2367.05
3089.60118	2377.55
3091.97576	2367.85
3094.3489	2377.25
3096.72061	2359.85
3099.09087	2368.45
3101.4597	2357.65
3103.82709	2363.85
3106.19305	2365.55
3108.55757	2352.95
3110.92066	2357.65
3113.28232	2346.95
3115.64255	2336.15
3118.00134	2336.35
3120.35871	2323.35
3122.71466	2320.85
3125.06917	2337.05
3127.42226	2320.15
3129.77393	2325.05
3132.12417	2322.35
3134.47299	2314.75
3136.82039	2304.35
3139.16636	2309.85
3141.51092	2304.55
3143.85406	2318.35
3146.19579	2307.25
3148.53609	2313.15
3150.87499	2321.55
3153.21246	2309.05
3155.54853	2317.35
3157.88318	2308.45
3160.21642	2310.55
3162.54826	2310.65
3164.87868	2312.35
3167.2077	2310.75
3169.5353	2300.55
3171.86151	2300.15
3174.18631	2298.65
3176.5097	2282.25
3178.83169	2282.45
3181.15228	2279.35
3183.47147	2273.05
3185.78926	2272.35
3188.10565	2280.45
3190.42065	2273.25
3192.73424	2262.65
3195.04645	2260.35
3197.35725	2258.15
3199.66667	2248.55
3201.97469	2262.85
3204.28132	2255.95
3206.58656	2253.85
3208.8904	2255.05
3211.19287	2272.15
3213.49394	2264.85
3215.79363	2261.75
3218.09193	2258.05
3220.38884	2261.45
3222.68438	2253.75
3224.97853	2253.55
3227.2713	2254.95
3229.56269	2258.05
3231.8527	2259.55
3234.14133	2236.05
3236.42858	2246.05
3238.71446	2241.75
3240.99896	2226.45
3243.28209	2231.55
3245.56384	2239.15
3247.84423	2219.85
3250.12324	2217.55
3252.40088	2209.25
3254.67715	2214.55
3256.95205	2204.85
3259.22558	2207.05
3261.49775	2226.85
3263.76855	2218.35
3266.03799	2218.25
3268.30606	2200.75
3270.57277	2204.95
3272.83812	2211.85
3275.10211	2203.65
3277.36474	2203.15
3279.62601	2198.55
3281.88593	2185.45
3284.14448	2183.25
3286.40168	2184.75
3288.65753	2180.15
3290.91202	2176.65
3293.16516	2180.05
3295.41695	2171.95
3297.66738	2161.05
3299.91647	2159.65
3302.16421	2132.15
3304.4106	2132.25
3306.65564	2115.65
3308.89933	2091.45
3311.14169	2084.45
3313.38269	2068.95
3315.62236	2055.25
3317.86068	2029.05
3320.09766	2021.45
3322.3333	2009.35
3324.5676	1992.75
3326.80056	1961.05
3329.03219	1945.55
3331.26248	1.75
3333.49143	-0.85
3335.71905	-1.35
