Data from AgNPs_UA_5uM_CRN_500uM_SU_RamanShift__291__12-17-53-198.txt Node

Date: Thu Aug 04 12:17:53 BST 2022
User: TCL
Spectrometer: QEP01345
Trigger mode: 4
Integration Time (sec): 1.000000E0
Scans to average: 10
Electric dark correction enabled: true
Nonlinearity correction enabled: false
Boxcar width: 0
XAxis mode: Raman Shifts
Number of Pixels in Spectrum: 1044
>>>>>Begin Spectral Data<<<<<
46.04893	-0.05
50.45542	0.35
54.85868	0.85
59.25871	-1.55
63.6555	-55.85
68.04907	-41.25
72.43941	-71.85
76.82654	-56.75
81.21044	-56.15
85.59113	-49.25
89.96862	-75.45
94.34289	-55.65
98.71396	-77.85
103.08183	-57.85
107.4465	-50.55
111.80798	-55.55
116.16626	-44.05
120.52136	-74.35
124.87327	-49.85
129.222	-61.75
133.56755	-50.45
137.90993	-62.85
142.24913	-50.75
146.58517	-44.05
150.91804	-40.25
155.24774	-29.45
159.57429	-10.75
163.89768	-5.45
168.21792	35.65
172.53501	58.15
176.84895	141.15
181.15975	272.15
185.46741	426.35
189.77193	602.35
194.07331	901.75
198.37157	1182.25
202.6667	1455.95
206.9587	1784.45
211.24758	2094.05
215.53334	2422.65
219.81599	2778.85
224.09553	3192.75
228.37195	3632.75
232.64527	4085.75
236.91549	4566.65
241.18261	4907.05
245.44663	5178.65
249.70755	5342.25
253.96539	5480.05
258.22014	5593.35
262.4718	5652.65
266.72039	5690.45
270.96589	5663.25
275.20832	5579.15
279.44768	5472.65
283.68397	5351.25
287.91719	5308.85
292.14735	5352.75
296.37445	5520.65
300.59849	5827.85
304.81948	6169.05
309.03742	6551.15
313.25231	6806.05
317.46415	6768.05
321.67296	6355.85
325.87872	5958.55
330.08145	5761.05
334.28114	5697.25
338.47781	5738.65
342.67145	5885.95
346.86207	6121.25
351.04966	6481.55
355.23424	6865.05
359.4158	7136.75
363.59435	7171.35
367.76989	7098.75
371.94243	7001.85
376.11196	6877.95
380.27849	6777.25
384.44203	6691.45
388.60257	6671.15
392.76012	6679.75
396.91468	6799.95
401.06626	6954.55
405.21485	6972.35
409.36047	6814.95
413.50311	6475.35
417.64277	6190.75
421.77947	5978.35
425.9132	5897.15
430.04396	5890.85
434.17176	5915.95
438.2966	6017.15
442.41849	6097.65
446.53742	6200.95
450.6534	6324.45
454.76644	6387.35
458.87653	6402.95
462.98368	6351.15
467.08789	6273.15
471.18916	6175.85
475.2875	6056.95
479.38291	5955.65
483.4754	5850.95
487.56496	5802.05
491.6516	5783.05
495.73531	5781.55
499.81612	5811.05
503.89401	5909.85
507.96899	5954.45
512.04106	6036.65
516.11023	6140.85
520.1765	6226.75
524.23987	6250.55
528.30034	6255.95
532.35792	6161.95
536.41261	6094.75
540.46441	5989.95
544.51333	5971.65
548.55936	6013.65
552.60252	6121.95
556.64279	6232.75
560.6802	6355.25
564.71473	6486.05
568.7464	6681.95
572.7752	6669.05
576.80114	6361.25
580.82422	6148.05
584.84444	6045.25
588.86181	6000.45
592.87633	6052.65
596.888	6152.55
600.89682	6543.65
604.9028	7548.95
608.90594	9694.15
612.90624	12075.85
616.90371	11172.25
620.89834	8028.35
624.89015	6640.85
628.87913	6435.35
632.86528	6565.55
636.84862	6761.95
640.82913	6616.55
644.80683	6250.15
648.78172	6059.85
652.75379	6077.65
656.72306	6320.25
660.68952	6561.75
664.65319	6469.55
668.61405	6249.55
672.57211	6158.55
676.52738	6168.95
680.47986	6069.75
684.42955	5960.95
688.37646	5905.75
692.32058	5914.35
696.26192	5991.25
700.20048	6080.45
704.13626	6132.65
708.06928	6076.95
711.99952	6064.65
715.927	6029.85
719.85171	6076.65
723.77365	6120.55
727.69284	6088.45
731.60928	6080.65
735.52295	6040.95
739.43388	6078.75
743.34206	6103.35
747.24749	6114.15
751.15017	6142.15
755.05012	6234.25
758.94733	6620.65
762.8418	7497.65
766.73354	8887.75
770.62254	9955.85
774.50882	10044.25
778.39237	9486.95
782.27321	8495.05
786.15132	7424.45
790.02671	6696.75
793.89938	6322.85
797.76935	6186.05
801.6366	6097.25
805.50115	6052.15
809.36299	6043.65
813.22213	6013.75
817.07857	6020.65
820.93231	6018.75
824.78336	6015.25
828.63172	6052.55
832.47738	6042.05
836.32036	6063.15
840.16066	6039.85
843.99827	6001.55
847.8332	5991.95
851.66546	6009.45
855.49504	6013.35
859.32195	6067.75
863.1462	6022.75
866.96777	6032.45
870.78668	6004.65
874.60293	6014.65
878.41652	6056.35
882.22745	6116.45
886.03573	6169.65
889.84136	6161.45
893.64433	6163.45
897.44466	6148.75
901.24235	6146.65
905.0374	6135.75
908.8298	6075.25
912.61957	6052.65
916.40671	5996.35
920.19121	6056.65
923.97308	6155.65
927.75233	6205.65
931.52895	6270.25
935.30295	6223.25
939.07433	6087.15
942.84309	5964.55
946.60924	5931.55
950.37278	5911.85
954.13371	5883.15
957.89203	5861.35
961.64774	5905.25
965.40086	5874.25
969.15137	5851.45
972.89929	5886.35
976.64461	5869.45
980.38733	5900.95
984.12747	5899.45
987.86502	5908.85
991.59999	5920.65
995.33237	5999.65
999.06217	6064.85
1002.78939	6133.75
1006.51404	6281.15
1010.23611	6375.45
1013.95561	6430.85
1017.67255	6437.75
1021.38692	6387.05
1025.09872	6350.15
1028.80796	6255.05
1032.51465	6253.25
1036.21877	6232.45
1039.92035	6281.45
1043.61937	6340.65
1047.31584	6384.65
1051.00976	6411.55
1054.70114	6426.55
1058.38998	6433.15
1062.07627	6434.75
1065.76003	6467.65
1069.44126	6540.55
1073.11995	6639.65
1076.79611	6776.85
1080.46974	6906.25
1084.14085	7093.85
1087.80943	7209.05
1091.47549	7263.75
1095.13903	7179.25
1098.80005	7045.25
1102.45857	6944.15
1106.11456	6919.55
1109.76805	6843.05
1113.41903	6970.25
1117.06751	7158.55
1120.71348	7421.85
1124.35696	7827.95
1127.99793	8120.55
1131.63641	7966.85
1135.2724	7534.35
1138.90589	7223.25
1142.5369	7006.55
1146.16542	6880.85
1149.79145	6762.35
1153.415	6735.25
1157.03607	6749.95
1160.65467	6836.95
1164.27079	7055.85
1167.88443	7361.45
1171.49561	7801.95
1175.10432	8436.85
1178.71056	9417.05
1182.31434	10246.15
1185.91565	10496.05
1189.51451	10367.25
1193.11091	10091.45
1196.70485	9819.45
1200.29634	9559.05
1203.88538	9255.65
1207.47197	8779.95
1211.05612	8278.05
1214.63782	7831.95
1218.21708	7554.85
1221.79391	7403.95
1225.36829	7315.35
1228.94024	7317.95
1232.50976	7327.35
1236.07685	7380.45
1239.6415	7395.55
1243.20374	7401.05
1246.76355	7446.45
1250.32093	7509.45
1253.8759	7592.65
1257.42845	7765.35
1260.97859	7970.35
1264.52631	8227.15
1268.07163	8394.95
1271.61453	8536.65
1275.15503	8588.35
1278.69312	8599.85
1282.22882	8671.65
1285.76211	8866.45
1289.29301	9114.35
1292.82151	9407.65
1296.34761	9627.25
1299.87133	10032.85
1303.39266	10759.25
1306.9116	11947.15
1310.42815	13213.95
1313.94233	13681.75
1317.45412	12866.05
1320.96354	11715.15
1324.47058	10671.05
1327.97525	9888.15
1331.47754	9430.95
1334.97747	9315.55
1338.47502	9439.95
1341.97022	9817.85
1345.46305	10597.15
1348.95352	11760.55
1352.44163	13113.95
1355.92738	14603.25
1359.41078	16330.35
1362.89183	17936.95
1366.37053	17342.55
1369.84688	14362.65
1373.32088	11509.15
1376.79254	9966.05
1380.26186	9244.55
1383.72883	8793.65
1387.19347	8351.15
1390.65578	7989.85
1394.11575	7727.95
1397.57339	7561.65
1401.0287	7448.25
1404.48168	7412.35
1407.93234	7409.65
1411.38068	7423.15
1414.82669	7482.25
1418.27039	7575.35
1421.71177	7586.65
1425.15083	7462.15
1428.58758	7372.85
1432.02203	7403.45
1435.45416	7483.35
1438.88399	7488.85
1442.31151	7494.95
1445.73673	7555.85
1449.15965	7609.35
1452.58027	7617.45
1455.9986	7600.15
1459.41463	7630.55
1462.82837	7739.15
1466.23982	7918.25
1469.64898	8145.35
1473.05586	8293.05
1476.46045	8409.85
1479.86276	8494.65
1483.26279	8621.95
1486.66054	8794.15
1490.05602	9121.65
1493.44922	9710.05
1496.84016	10627.85
1500.22882	12094.25
1503.61521	13930.25
1506.99934	15838.15
1510.38121	17059.85
1513.76081	16903.85
1517.13816	15237.45
1520.51324	13007.15
1523.88607	11235.45
1527.25665	10181.65
1530.62498	9687.85
1533.99105	9467.55
1537.35488	9357.95
1540.71647	9210.25
1544.07581	9090.45
1547.4329	8916.25
1550.78776	8781.65
1554.14038	8669.55
1557.49077	8656.95
1560.83892	8744.15
1564.18484	8974.95
1567.52853	9353.25
1570.86999	9691.65
1574.20922	9860.75
1577.54624	9753.35
1580.88103	9174.15
1584.2136	8443.65
1587.54395	8047.05
1590.87208	7952.85
1594.19801	8132.85
1597.52172	8512.15
1600.84321	8648.65
1604.16251	8518.55
1607.47959	8295.55
1610.79447	8099.05
1614.10715	7805.25
1617.41763	7495.05
1620.7259	7223.75
1624.03199	7064.05
1627.33587	7004.15
1630.63757	7048.15
1633.93707	7267.45
1637.23439	7690.65
1640.52951	8414.15
1643.82246	9433.95
1647.11321	10662.85
1650.40179	11410.05
1653.68819	11093.75
1656.97241	9810.55
1660.25446	8365.95
1663.53433	7309.45
1666.81203	6646.95
1670.08756	6293.45
1673.36092	6102.35
1676.63211	5957.45
1679.90115	5878.05
1683.16801	5777.75
1686.43272	5710.85
1689.69527	5655.65
1692.95567	5612.45
1696.2139	5587.45
1699.46999	5520.75
1702.72392	5510.95
1705.97571	5565.85
1709.22535	5525.95
1712.47284	5545.25
1715.71819	5557.65
1718.96139	5552.95
1722.20246	5542.95
1725.44139	5489.75
1728.67818	5481.65
1731.91284	5430.15
1735.14537	5395.55
1738.37576	5351.75
1741.60403	5341.55
1744.83017	5313.05
1748.05418	5322.45
1751.27607	5292.95
1754.49584	5283.75
1757.71349	5258.95
1760.92903	5244.05
1764.14244	5200.25
1767.35375	5209.15
1770.56294	5201.75
1773.77002	5169.05
1776.97499	5186.65
1780.17785	5159.75
1783.37861	5154.15
1786.57727	5152.05
1789.77382	5090.85
1792.96828	5132.15
1796.16064	5128.65
1799.3509	5102.35
1802.53907	5118.35
1805.72514	5083.75
1808.90913	5063.05
1812.09102	5046.35
1815.27083	5043.75
1818.44856	5047.05
1821.6242	5005.15
1824.79776	5005.85
1827.96924	5004.35
1831.13864	4975.85
1834.30597	4982.25
1837.47122	4954.35
1840.6344	4956.25
1843.7955	4935.35
1846.95454	4938.55
1850.11151	4949.95
1853.26642	4919.75
1856.41926	4916.35
1859.57004	4918.15
1862.71876	4904.15
1865.86542	4917.85
1869.01003	4914.15
1872.15258	4889.05
1875.29308	4904.25
1878.43152	4911.15
1881.56792	4871.75
1884.70227	4862.65
1887.83457	4851.75
1890.96482	4833.25
1894.09304	4843.65
1897.21921	4829.25
1900.34335	4826.45
1903.46544	4826.95
1906.58551	4817.55
1909.70353	4819.75
1912.81953	4810.15
1915.93349	4782.65
1919.04543	4783.95
1922.15534	4777.05
1925.26322	4765.55
1928.36908	4749.95
1931.47292	4743.85
1934.57473	4765.95
1937.67453	4729.25
1940.77232	4710.95
1943.86808	4683.65
1946.96184	4680.65
1950.05358	4659.45
1953.14331	4642.35
1956.23103	4654.15
1959.31675	4611.65
1962.40046	4570.85
1965.48217	4577.75
1968.56188	4581.55
1971.63959	4584.65
1974.7153	4560.65
1977.78901	4558.75
1980.86073	4550.35
1983.93046	4489.85
1986.99819	4413.95
1990.06394	4446.65
1993.1277	4459.95
1996.18947	4434.25
1999.24925	4413.45
2002.30706	4416.85
2005.36288	4405.55
2008.41672	4386.55
2011.46859	4347.25
2014.51848	4335.95
2017.56639	4316.85
2020.61233	4301.65
2023.6563	4305.35
2026.6983	4263.05
2029.73833	4267.75
2032.7764	4275.75
2035.8125	4239.25
2038.84664	4240.05
2041.87881	4219.45
2044.90903	4217.55
2047.93729	4219.15
2050.96359	4202.25
2053.98794	4206.75
2057.01034	4205.55
2060.03078	4189.15
2063.04927	4177.15
2066.06582	4192.15
2069.08042	4158.35
2072.09307	4169.15
2075.10378	4170.25
2078.11255	4151.95
2081.11938	4152.75
2084.12426	4145.95
2087.12722	4149.95
2090.12824	4145.35
2093.12732	4132.15
2096.12447	4135.35
2099.11969	4140.35
2102.11299	4147.85
2105.10435	4153.55
2108.09379	4140.95
2111.08131	4129.45
2114.0669	4141.05
2117.05057	4145.55
2120.03233	4133.75
2123.01216	4141.55
2125.99008	4135.25
2128.96609	4134.55
2131.94018	4173.65
2134.91236	4157.25
2137.88263	4142.05
2140.851	4149.75
2143.81746	4171.95
2146.78201	4171.45
2149.74466	4154.15
2152.7054	4168.25
2155.66425	4148.55
2158.6212	4139.45
2161.57625	4107.45
2164.52941	4072.85
2167.48067	4104.55
2170.43004	4110.65
2173.37752	4118.65
2176.32311	4109.95
2179.26681	4108.75
2182.20863	4119.65
2185.14856	4110.05
2188.08661	4103.15
2191.02278	4115.65
2193.95707	4092.45
2196.88948	4081.05
2199.82001	4093.75
2202.74867	4080.25
2205.67545	4070.85
2208.60037	4085.25
2211.52341	4070.15
2214.44458	4043.05
2217.36388	4038.65
2220.28132	4036.25
2223.1969	4012.25
2226.11061	4007.15
2229.02246	4004.25
2231.93245	4000.65
2234.84058	3980.65
2237.74686	3977.25
2240.65128	3950.25
2243.55385	3956.65
2246.45456	3932.15
2249.35343	3966.75
2252.25044	3944.05
2255.14561	3947.65
2258.03893	3938.35
2260.93041	3930.05
2263.82004	3921.15
2266.70783	3927.85
2269.59378	3898.85
2272.4779	3888.55
2275.36017	3905.25
2278.24061	3876.25
2281.11922	3830.75
2283.996	3849.25
2286.87094	3839.25
2289.74405	3839.15
2292.61534	3827.25
2295.4848	3827.95
2298.35243	3818.95
2301.21824	3795.35
2304.08223	3800.85
2306.94439	3815.25
2309.80474	3814.45
2312.66327	3805.05
2315.51999	3787.35
2318.37489	3779.75
2321.22797	3761.45
2324.07925	3758.85
2326.92871	3762.25
2329.77637	3736.35
2332.62222	3731.45
2335.46626	3719.95
2338.3085	3701.55
2341.14893	3726.75
2343.98756	3736.65
2346.8244	3709.45
2349.65943	3704.75
2352.49267	3720.35
2355.32411	3708.45
2358.15376	3712.55
2360.98161	3710.05
2363.80768	3698.25
2366.63195	3702.45
2369.45444	3709.35
2372.27514	3692.85
2375.09405	3710.25
2377.91118	3686.45
2380.72652	3672.35
2383.54009	3670.45
2386.35187	3676.05
2389.16188	3631.25
2391.97011	3627.65
2394.77657	3628.95
2397.58125	3632.65
2400.38416	3619.75
2403.18529	3593.85
2405.98466	3581.65
2408.78226	3592.55
2411.57809	3573.65
2414.37216	3560.75
2417.16446	3567.25
2419.955	3533.25
2422.74378	3555.25
2425.5308	3528.05
2428.31606	3541.65
2431.09956	3543.05
2433.88131	3521.45
2436.6613	3533.15
2439.43954	3532.45
2442.21603	3525.25
2444.99077	3505.05
2447.76377	3533.45
2450.53501	3518.15
2453.30451	3506.65
2456.07226	3506.85
2458.83827	3487.85
2461.60254	3454.15
2464.36507	3498.85
2467.12586	3477.55
2469.88492	3485.05
2472.64224	3490.35
2475.39782	3462.05
2478.15167	3466.25
2480.90379	3465.25
2483.65417	3479.55
2486.40283	3487.25
2489.14976	3490.45
2491.89497	3469.45
2494.63845	3489.65
2497.3802	3466.85
2500.12024	3453.55
2502.85855	3459.05
2505.59514	3450.85
2508.33002	3444.65
2511.06318	3414.25
2513.79462	3415.45
2516.52435	3385.15
2519.25237	3359.15
2521.97867	3376.75
2524.70327	3381.15
2527.42616	3379.05
2530.14734	3375.25
2532.86681	3359.85
2535.58458	3353.95
2538.30065	3338.35
2541.01501	3364.25
2543.72768	3339.75
2546.43864	3340.95
2549.14791	3323.75
2551.85548	3318.95
2554.56136	3312.75
2557.26554	3314.65
2559.96803	3312.25
2562.66883	3306.85
2565.36794	3294.85
2568.06536	3255.55
2570.7611	3288.15
2573.45514	3268.85
2576.14751	3270.15
2578.83819	3229.55
2581.52719	3236.05
2584.21451	3239.05
2586.90015	3229.05
2589.58411	3193.25
2592.2664	3221.45
2594.94701	3226.75
2597.62594	3206.85
2600.30321	3151.95
2602.9788	3170.65
2605.65273	3171.45
2608.32498	3165.65
2610.99557	3188.25
2613.66449	3160.15
2616.33175	3162.85
2618.99734	3175.95
2621.66128	3162.05
2624.32355	3162.25
2626.98416	3134.05
2629.64311	3124.25
2632.30041	3121.95
2634.95605	3119.15
2637.61004	3101.35
2640.26238	3075.95
2642.91306	3084.05
2645.56209	3089.05
2648.20948	3112.55
2650.85521	3082.35
2653.4993	3087.45
2656.14175	3090.95
2658.78255	3069.45
2661.42171	3049.75
2664.05923	3080.05
2666.6951	3077.15
2669.32934	3093.85
2671.96194	3102.35
2674.59291	3083.45
2677.22224	3089.65
2679.84993	3087.85
2682.476	3076.05
2685.10043	3064.35
2687.72324	3065.85
2690.34441	3049.65
2692.96396	3064.55
2695.58188	3069.15
2698.19818	3071.05
2700.81285	3046.95
2703.4259	3030.85
2706.03733	3016.05
2708.64714	3027.15
2711.25533	3059.15
2713.86191	3056.75
2716.46687	3048.95
2719.07021	3048.15
2721.67194	3051.45
2724.27206	3059.65
2726.87057	3041.45
2729.46747	3025.65
2732.06276	3042.95
2734.65644	3023.15
2737.24852	3026.15
2739.83899	2987.95
2742.42786	3015.15
2745.01513	3017.05
2747.60079	2991.35
2750.18486	2997.05
2752.76733	2989.15
2755.3482	2972.35
2757.92747	2984.75
2760.50515	2979.85
2763.08123	2963.75
2765.65573	2958.75
2768.22863	2953.15
2770.79994	2941.25
2773.36967	2942.05
2775.9378	2927.25
2778.50435	2924.85
2781.06932	2924.35
2783.6327	2906.95
2786.1945	2923.95
2788.75471	2918.55
2791.31335	2907.35
2793.87041	2906.05
2796.42589	2891.35
2798.97979	2871.75
2801.53212	2896.55
2804.08288	2898.65
2806.63206	2878.15
2809.17967	2860.55
2811.72571	2887.75
2814.27018	2861.15
2816.81308	2862.25
2819.35442	2820.35
2821.89419	2842.15
2824.43239	2831.05
2826.96904	2853.05
2829.50412	2831.65
2832.03763	2833.85
2834.56959	2836.85
2837.1	2812.75
2839.62884	2824.15
2842.15613	2824.15
2844.68186	2830.55
2847.20604	2789.75
2849.72867	2793.65
2852.24974	2802.85
2854.76927	2762.55
2857.28724	2729.45
2859.80367	2789.75
2862.31855	2788.25
2864.83189	2769.45
2867.34368	2781.05
2869.85393	2799.55
2872.36264	2770.85
2874.8698	2764.05
2877.37543	2768.45
2879.87952	2775.85
2882.38207	2744.85
2884.88308	2742.95
2887.38256	2757.15
2889.88051	2742.25
2892.37692	2746.95
2894.8718	2730.45
2897.36515	2747.25
2899.85698	2734.15
2902.34727	2727.85
2904.83604	2749.75
2907.32328	2766.45
2909.809	2756.25
2912.29319	2758.45
2914.77587	2761.95
2917.25702	2768.25
2919.73665	2788.15
2922.21476	2781.15
2924.69136	2782.05
2927.16644	2758.85
2929.64	2753.45
2932.11205	2740.75
2934.58258	2744.45
2937.05161	2730.15
2939.51912	2731.65
2941.98513	2743.05
2944.44962	2719.25
2946.91261	2687.85
2949.37409	2716.65
2951.83407	2694.45
2954.29254	2706.55
2956.74951	2699.85
2959.20498	2673.25
2961.65895	2683.55
2964.11142	2670.65
2966.56239	2666.05
2969.01186	2671.85
2971.45984	2654.35
2973.90632	2651.65
2976.35131	2658.65
2978.7948	2653.25
2981.23681	2647.45
2983.67732	2645.95
2986.11635	2635.35
2988.55388	2618.25
2990.98993	2612.25
2993.4245	2601.95
2995.85758	2584.05
2998.28917	2595.85
3000.71928	2577.85
3003.14791	2569.05
3005.57506	2565.25
3008.00073	2555.65
3010.42493	2497.25
3012.84764	2558.55
3015.26888	2544.15
3017.68865	2543.35
3020.10694	2499.35
3022.52376	2511.25
3024.9391	2514.95
3027.35298	2499.75
3029.76539	2485.85
3032.17632	2493.05
3034.5858	2478.05
3036.9938	2478.35
3039.40034	2487.75
3041.80542	2466.35
3044.20903	2460.25
3046.61118	2449.25
3049.01187	2470.25
3051.4111	2437.75
3053.80888	2434.15
3056.20519	2438.35
3058.60005	2410.35
3060.99345	2438.35
3063.3854	2409.35
3065.7759	2401.75
3068.16494	2382.85
3070.55254	2383.55
3072.93868	2395.45
3075.32338	2386.85
3077.70662	2386.55
3080.08842	2357.95
3082.46878	2340.35
3084.84769	2374.75
3087.22515	2353.05
3089.60118	2365.85
3091.97576	2329.45
3094.3489	2345.65
3096.72061	2347.95
3099.09087	2338.25
3101.4597	2346.65
3103.82709	2330.85
3106.19305	2324.65
3108.55757	2329.05
3110.92066	2303.65
3113.28232	2321.85
3115.64255	2326.05
3118.00134	2311.95
3120.35871	2296.85
3122.71466	2278.05
3125.06917	2287.65
3127.42226	2273.35
3129.77393	2248.15
3132.12417	2275.65
3134.47299	2278.45
3136.82039	2257.75
3139.16636	2238.55
3141.51092	2253.55
3143.85406	2253.15
3146.19579	2239.15
3148.53609	2244.25
3150.87499	2241.65
3153.21246	2247.25
3155.54853	2241.75
3157.88318	2253.95
3160.21642	2246.25
3162.54826	2239.75
3164.87868	2240.25
3167.2077	2205.95
3169.5353	2233.85
3171.86151	2231.15
3174.18631	2224.05
3176.5097	2222.95
3178.83169	2217.25
3181.15228	2216.05
3183.47147	2199.45
3185.78926	2171.95
3188.10565	2184.95
3190.42065	2158.65
3192.73424	2172.45
3195.04645	2170.55
3197.35725	2150.75
3199.66667	2167.95
3201.97469	2157.75
3204.28132	2141.85
3206.58656	2167.35
3208.8904	2164.15
3211.19287	2152.85
3213.49394	2149.25
3215.79363	2156.65
3218.09193	2155.55
3220.38884	2159.45
3222.68438	2152.25
3224.97853	2128.65
3227.2713	2149.25
3229.56269	2128.75
3231.8527	2131.05
3234.14133	2120.45
3236.42858	2127.15
3238.71446	2099.95
3240.99896	2117.45
3243.28209	2093.95
3245.56384	2105.25
3247.84423	2095.55
3250.12324	2098.85
3252.40088	2095.85
3254.67715	2078.85
3256.95205	2071.75
3259.22558	2092.85
3261.49775	2066.05
3263.76855	2079.65
3266.03799	2075.35
3268.30606	2075.65
3270.57277	2082.85
3272.83812	2064.05
3275.10211	2051.95
3277.36474	2068.15
3279.62601	2059.45
3281.88593	2037.25
3284.14448	2024.35
3286.40168	2040.65
3288.65753	2034.65
3290.91202	2034.15
3293.16516	2005.75
3295.41695	2041.75
3297.66738	2036.75
3299.91647	2009.05
3302.16421	2016.15
3304.4106	1968.25
3306.65564	1995.45
3308.89933	1954.65
3311.14169	1953.95
3313.38269	1938.25
3315.62236	1919.65
3317.86068	1907.65
3320.09766	1899.45
3322.3333	1859.05
3324.5676	1862.15
3326.80056	1833.25
3329.03219	1833.15
3331.26248	0.05
3333.49143	0.25
3335.71905	-0.05
