Data from AgNPs_UA_10uM_CRN_500uM_SU_RamanShift__89__13-20-10-272.txt Node

Date: Thu Aug 04 13:20:10 BST 2022
User: TCL
Spectrometer: QEP01345
Trigger mode: 4
Integration Time (sec): 1.000000E0
Scans to average: 10
Electric dark correction enabled: true
Nonlinearity correction enabled: false
Boxcar width: 0
XAxis mode: Raman Shifts
Number of Pixels in Spectrum: 1044
>>>>>Begin Spectral Data<<<<<
46.04893	1.15
50.45542	-0.55
54.85868	-0.25
59.25871	-0.35
63.6555	20.85
68.04907	20.55
72.43941	19.95
76.82654	23.85
81.21044	23.55
85.59113	23.85
89.96862	25.45
94.34289	25.95
98.71396	23.95
103.08183	28.45
107.4465	28.55
111.80798	28.75
116.16626	30.75
120.52136	31.65
124.87327	34.15
129.222	38.15
133.56755	37.05
137.90993	40.95
142.24913	45.15
146.58517	54.45
150.91804	63.75
155.24774	77.55
159.57429	94.45
163.89768	124.75
168.21792	166.55
172.53501	225.95
176.84895	319.15
181.15975	456.05
185.46741	643.25
189.77193	897.05
194.07331	1212.35
198.37157	1564.45
202.6667	1937.75
206.9587	2301.85
211.24758	2671.05
215.53334	3037.25
219.81599	3431.95
224.09553	3888.25
228.37195	4372.45
232.64527	4901.25
236.91549	5434.85
241.18261	5920.15
245.44663	6317.15
249.70755	6641.25
253.96539	6912.85
258.22014	7173.05
262.4718	7387.75
266.72039	7529.25
270.96589	7582.25
275.20832	7554.05
279.44768	7475.15
283.68397	7357.25
287.91719	7251.25
292.14735	7267.85
296.37445	7357.75
300.59849	7535.15
304.81948	7765.85
309.03742	7989.25
313.25231	8063.75
317.46415	7995.85
321.67296	7767.95
325.87872	7535.75
330.08145	7386.35
334.28114	7390.85
338.47781	7456.95
342.67145	7583.35
346.86207	7807.15
351.04966	8067.35
355.23424	8342.55
359.4158	8557.85
363.59435	8666.85
367.76989	8719.15
371.94243	8708.15
376.11196	8720.75
380.27849	8722.65
384.44203	8766.15
388.60257	8829.65
392.76012	8894.45
396.91468	9030.25
401.06626	9153.55
405.21485	9220.15
409.36047	9101.35
413.50311	8888.65
417.64277	8668.95
421.77947	8517.75
425.9132	8456.35
430.04396	8441.65
434.17176	8494.55
438.2966	8578.55
442.41849	8760.35
446.53742	8967.45
450.6534	9168.15
454.76644	9279.55
458.87653	9343.45
462.98368	9341.25
467.08789	9262.55
471.18916	9126.95
475.2875	8958.55
479.38291	8786.15
483.4754	8677.65
487.56496	8596.45
491.6516	8560.85
495.73531	8579.85
499.81612	8597.45
503.89401	8644.65
507.96899	8713.55
512.04106	8746.05
516.11023	8772.65
520.1765	8807.45
524.23987	8841.25
528.30034	8836.05
532.35792	8862.55
536.41261	8767.25
540.46441	8663.75
544.51333	8638.05
548.55936	8703.65
552.60252	8828.05
556.64279	8980.85
560.6802	9086.95
564.71473	9149.85
568.7464	9207.75
572.7752	9213.35
576.80114	9000.65
580.82422	8880.35
584.84444	8845.55
588.86181	8909.25
592.87633	8985.65
596.888	9181.55
600.89682	9555.75
604.9028	10520.95
608.90594	12490.05
612.90624	14318.55
616.90371	13230.65
620.89834	10601.95
624.89015	9615.55
628.87913	9534.55
632.86528	9633.95
636.84862	9621.65
640.82913	9385.45
644.80683	9035.25
648.78172	8832.15
652.75379	8885.55
656.72306	9138.35
660.68952	9435.05
664.65319	9364.95
668.61405	9298.25
672.57211	9351.25
676.52738	9343.95
680.47986	9126.35
684.42955	8963.95
688.37646	8926.55
692.32058	9026.95
696.26192	9190.65
700.20048	9337.15
704.13626	9359.65
708.06928	9277.55
711.99952	9160.05
715.927	9140.35
719.85171	9222.55
723.77365	9200.15
727.69284	9138.95
731.60928	9074.75
735.52295	9067.05
739.43388	9106.45
743.34206	9148.45
747.24749	9165.55
751.15017	9161.35
755.05012	9255.05
758.94733	9566.45
762.8418	10262.95
766.73354	11297.65
770.62254	12148.55
774.50882	12331.05
778.39237	11949.95
782.27321	11247.45
786.15132	10396.85
790.02671	9785.15
793.89938	9501.95
797.76935	9332.25
801.6366	9241.15
805.50115	9196.55
809.36299	9144.85
813.22213	9162.95
817.07857	9142.45
820.93231	9122.25
824.78336	9132.75
828.63172	9117.85
832.47738	9144.05
836.32036	9166.25
840.16066	9168.05
843.99827	9188.65
847.8332	9180.35
851.66546	9157.95
855.49504	9180.95
859.32195	9202.05
863.1462	9185.35
866.96777	9165.25
870.78668	9164.95
874.60293	9201.25
878.41652	9232.35
882.22745	9310.65
886.03573	9362.25
889.84136	9356.05
893.64433	9310.85
897.44466	9276.25
901.24235	9277.15
905.0374	9247.55
908.8298	9200.55
912.61957	9211.15
916.40671	9226.95
920.19121	9264.85
923.97308	9332.15
927.75233	9436.05
931.52895	9508.15
935.30295	9459.85
939.07433	9289.25
942.84309	9197.85
946.60924	9187.35
950.37278	9149.65
954.13371	9156.95
957.89203	9111.15
961.64774	9078.95
965.40086	9089.05
969.15137	9095.35
972.89929	9072.15
976.64461	9081.55
980.38733	9104.95
984.12747	9118.05
987.86502	9171.35
991.59999	9245.25
995.33237	9365.05
999.06217	9563.85
1002.78939	9768.15
1006.51404	9906.95
1010.23611	10007.95
1013.95561	10120.25
1017.67255	10159.45
1021.38692	10172.55
1025.09872	10139.25
1028.80796	10185.55
1032.51465	10302.35
1036.21877	10397.15
1039.92035	10408.75
1043.61937	10318.15
1047.31584	10216.55
1051.00976	10083.95
1054.70114	10063.95
1058.38998	10088.75
1062.07627	10108.35
1065.76003	10159.25
1069.44126	10242.45
1073.11995	10418.15
1076.79611	10592.45
1080.46974	10716.05
1084.14085	10814.35
1087.80943	10874.25
1091.47549	10933.85
1095.13903	10923.45
1098.80005	10877.75
1102.45857	10943.85
1106.11456	10919.35
1109.76805	10798.65
1113.41903	10766.65
1117.06751	10864.45
1120.71348	11029.75
1124.35696	11199.25
1127.99793	11309.95
1131.63641	11150.45
1135.2724	10873.45
1138.90589	10665.75
1142.5369	10497.65
1146.16542	10430.25
1149.79145	10346.65
1153.415	10265.05
1157.03607	10249.15
1160.65467	10324.55
1164.27079	10567.45
1167.88443	10875.55
1171.49561	11382.45
1175.10432	12112.45
1178.71056	13046.95
1182.31434	13898.25
1185.91565	14295.55
1189.51451	14260.35
1193.11091	14031.65
1196.70485	13652.75
1200.29634	13264.25
1203.88538	12838.15
1207.47197	12383.15
1211.05612	11932.05
1214.63782	11556.95
1218.21708	11345.35
1221.79391	11260.15
1225.36829	11264.15
1228.94024	11247.05
1232.50976	11166.55
1236.07685	11151.65
1239.6415	11136.25
1243.20374	11197.05
1246.76355	11257.55
1250.32093	11402.75
1253.8759	11589.85
1257.42845	11869.45
1260.97859	12171.55
1264.52631	12491.85
1268.07163	12738.75
1271.61453	12923.05
1275.15503	13032.75
1278.69312	13127.45
1282.22882	13255.25
1285.76211	13348.35
1289.29301	13498.05
1292.82151	13696.35
1296.34761	13935.75
1299.87133	14416.55
1303.39266	15196.45
1306.9116	16339.05
1310.42815	17541.25
1313.94233	18113.05
1317.45412	17710.75
1320.96354	16808.45
1324.47058	15879.15
1327.97525	15062.05
1331.47754	14563.65
1334.97747	14440.25
1338.47502	14576.75
1341.97022	15027.55
1345.46305	15719.45
1348.95352	16716.85
1352.44163	17777.65
1355.92738	18883.25
1359.41078	20080.55
1362.89183	20865.85
1366.37053	19868.05
1369.84688	17427.65
1373.32088	15209.25
1376.79254	13939.15
1380.26186	13306.05
1383.72883	12923.85
1387.19347	12626.45
1390.65578	12289.45
1394.11575	11965.45
1397.57339	11711.35
1401.0287	11627.45
1404.48168	11664.05
1407.93234	11756.85
1411.38068	11953.35
1414.82669	12098.05
1418.27039	12123.35
1421.71177	12090.65
1425.15083	12015.45
1428.58758	11966.55
1432.02203	12064.35
1435.45416	12141.45
1438.88399	12121.55
1442.31151	12079.75
1445.73673	12077.15
1449.15965	12063.45
1452.58027	11996.55
1455.9986	11922.85
1459.41463	11919.05
1462.82837	12007.15
1466.23982	12198.35
1469.64898	12402.45
1473.05586	12575.25
1476.46045	12724.15
1479.86276	12859.75
1483.26279	12982.15
1486.66054	13178.25
1490.05602	13494.15
1493.44922	14013.65
1496.84016	14708.95
1500.22882	15752.35
1503.61521	17020.25
1506.99934	18182.95
1510.38121	18830.95
1513.76081	18554.95
1517.13816	17345.65
1520.51324	15823.05
1523.88607	14598.25
1527.25665	13845.75
1530.62498	13472.15
1533.99105	13294.35
1537.35488	13180.05
1540.71647	13080.25
1544.07581	12989.45
1547.4329	12880.55
1550.78776	12743.75
1554.14038	12596.35
1557.49077	12570.75
1560.83892	12637.75
1564.18484	12904.75
1567.52853	13097.25
1570.86999	13261.85
1574.20922	13275.25
1577.54624	13093.65
1580.88103	12681.15
1584.2136	12202.35
1587.54395	12008.35
1590.87208	12210.35
1594.19801	12702.25
1597.52172	13360.05
1600.84321	13649.95
1604.16251	13512.15
1607.47959	13184.95
1610.79447	12699.25
1614.10715	12070.05
1617.41763	11425.25
1620.7259	10989.05
1624.03199	10763.45
1627.33587	10719.45
1630.63757	10908.35
1633.93707	11319.05
1637.23439	12003.75
1640.52951	13043.75
1643.82246	14293.65
1647.11321	15351.75
1650.40179	15650.95
1653.68819	14758.75
1656.97241	13142.25
1660.25446	11648.85
1663.53433	10642.15
1666.81203	10033.55
1670.08756	9679.55
1673.36092	9454.65
1676.63211	9298.35
1679.90115	9202.45
1683.16801	9098.05
1686.43272	9044.05
1689.69527	8970.25
1692.95567	8927.75
1696.2139	8882.35
1699.46999	8871.85
1702.72392	8877.95
1705.97571	8851.05
1709.22535	8855.15
1712.47284	8859.05
1715.71819	8845.75
1718.96139	8843.45
1722.20246	8829.95
1725.44139	8807.25
1728.67818	8747.75
1731.91284	8682.95
1735.14537	8666.35
1738.37576	8618.05
1741.60403	8588.05
1744.83017	8568.55
1748.05418	8582.25
1751.27607	8559.85
1754.49584	8515.35
1757.71349	8520.85
1760.92903	8522.75
1764.14244	8500.65
1767.35375	8472.75
1770.56294	8480.95
1773.77002	8444.05
1776.97499	8421.75
1780.17785	8406.95
1783.37861	8376.95
1786.57727	8385.45
1789.77382	8371.65
1792.96828	8350.05
1796.16064	8340.95
1799.3509	8332.95
1802.53907	8328.25
1805.72514	8301.55
1808.90913	8275.95
1812.09102	8280.55
1815.27083	8243.75
1818.44856	8232.85
1821.6242	8210.55
1824.79776	8185.95
1827.96924	8185.75
1831.13864	8171.45
1834.30597	8156.45
1837.47122	8135.25
1840.6344	8127.35
1843.7955	8129.45
1846.95454	8137.25
1850.11151	8119.05
1853.26642	8104.75
1856.41926	8119.65
1859.57004	8117.95
1862.71876	8124.95
1865.86542	8106.65
1869.01003	8109.05
1872.15258	8064.05
1875.29308	8048.15
1878.43152	8048.75
1881.56792	8041.15
1884.70227	8009.35
1887.83457	8007.35
1890.96482	7987.65
1894.09304	7971.65
1897.21921	7973.45
1900.34335	7953.65
1903.46544	7951.05
1906.58551	7948.35
1909.70353	7934.15
1912.81953	7951.75
1915.93349	7933.15
1919.04543	7912.55
1922.15534	7907.05
1925.26322	7902.55
1928.36908	7863.05
1931.47292	7850.05
1934.57473	7857.95
1937.67453	7811.25
1940.77232	7835.65
1943.86808	7777.75
1946.96184	7756.45
1950.05358	7753.05
1953.14331	7712.45
1956.23103	7695.35
1959.31675	7649.45
1962.40046	7656.75
1965.48217	7621.25
1968.56188	7602.45
1971.63959	7575.05
1974.7153	7568.55
1977.78901	7569.55
1980.86073	7542.65
1983.93046	7481.05
1986.99819	7461.35
1990.06394	7467.85
1993.1277	7424.15
1996.18947	7384.35
1999.24925	7373.75
2002.30706	7343.35
2005.36288	7321.95
2008.41672	7291.25
2011.46859	7281.25
2014.51848	7251.95
2017.56639	7235.25
2020.61233	7199.55
2023.6563	7198.85
2026.6983	7180.35
2029.73833	7174.85
2032.7764	7146.45
2035.8125	7112.95
2038.84664	7130.95
2041.87881	7087.65
2044.90903	7102.25
2047.93729	7088.65
2050.96359	7066.25
2053.98794	7052.25
2057.01034	7050.85
2060.03078	7040.25
2063.04927	7031.65
2066.06582	7017.35
2069.08042	7013.95
2072.09307	7010.45
2075.10378	6986.05
2078.11255	7009.35
2081.11938	6976.75
2084.12426	6968.45
2087.12722	6967.45
2090.12824	6980.55
2093.12732	6969.45
2096.12447	6971.45
2099.11969	6969.95
2102.11299	6982.05
2105.10435	6988.05
2108.09379	6976.45
2111.08131	6973.35
2114.0669	6990.05
2117.05057	6992.65
2120.03233	7011.05
2123.01216	7004.65
2125.99008	6977.25
2128.96609	7006.25
2131.94018	7024.05
2134.91236	7017.35
2137.88263	6989.35
2140.851	6989.75
2143.81746	7017.95
2146.78201	7004.15
2149.74466	6995.45
2152.7054	6999.15
2155.66425	6995.15
2158.6212	7004.35
2161.57625	6971.35
2164.52941	6985.25
2167.48067	6972.05
2170.43004	6961.15
2173.37752	6949.15
2176.32311	6954.25
2179.26681	6978.85
2182.20863	6976.05
2185.14856	6977.35
2188.08661	6973.55
2191.02278	6967.95
2193.95707	6966.15
2196.88948	6949.35
2199.82001	6973.05
2202.74867	6957.55
2205.67545	6956.85
2208.60037	6955.55
2211.52341	6941.15
2214.44458	6909.45
2217.36388	6887.85
2220.28132	6873.95
2223.1969	6841.95
2226.11061	6835.05
2229.02246	6829.75
2231.93245	6824.55
2234.84058	6816.25
2237.74686	6793.45
2240.65128	6768.65
2243.55385	6774.25
2246.45456	6750.85
2249.35343	6752.75
2252.25044	6727.85
2255.14561	6742.05
2258.03893	6740.65
2260.93041	6737.55
2263.82004	6714.55
2266.70783	6686.95
2269.59378	6662.15
2272.4779	6648.35
2275.36017	6635.65
2278.24061	6630.75
2281.11922	6623.65
2283.996	6583.85
2286.87094	6591.45
2289.74405	6578.65
2292.61534	6573.95
2295.4848	6535.35
2298.35243	6539.55
2301.21824	6541.95
2304.08223	6558.15
2306.94439	6557.05
2309.80474	6536.85
2312.66327	6546.25
2315.51999	6538.75
2318.37489	6523.05
2321.22797	6511.25
2324.07925	6504.55
2326.92871	6473.95
2329.77637	6482.35
2332.62222	6489.55
2335.46626	6456.05
2338.3085	6469.45
2341.14893	6477.65
2343.98756	6455.25
2346.8244	6464.15
2349.65943	6469.95
2352.49267	6448.75
2355.32411	6439.95
2358.15376	6430.45
2360.98161	6440.15
2363.80768	6440.25
2366.63195	6410.15
2369.45444	6422.55
2372.27514	6411.25
2375.09405	6411.95
2377.91118	6385.25
2380.72652	6357.05
2383.54009	6355.35
2386.35187	6359.55
2389.16188	6309.85
2391.97011	6288.35
2394.77657	6298.15
2397.58125	6275.65
2400.38416	6277.65
2403.18529	6267.55
2405.98466	6268.75
2408.78226	6235.85
2411.57809	6213.75
2414.37216	6196.15
2417.16446	6201.35
2419.955	6201.05
2422.74378	6185.35
2425.5308	6188.25
2428.31606	6173.25
2431.09956	6182.05
2433.88131	6151.15
2436.6613	6167.05
2439.43954	6165.55
2442.21603	6125.65
2444.99077	6148.25
2447.76377	6155.25
2450.53501	6154.75
2453.30451	6128.25
2456.07226	6124.85
2458.83827	6115.75
2461.60254	6111.15
2464.36507	6108.75
2467.12586	6104.25
2469.88492	6083.85
2472.64224	6079.95
2475.39782	6099.95
2478.15167	6073.55
2480.90379	6075.75
2483.65417	6060.65
2486.40283	6060.35
2489.14976	6082.95
2491.89497	6090.95
2494.63845	6100.75
2497.3802	6073.65
2500.12024	6056.85
2502.85855	6047.55
2505.59514	6042.05
2508.33002	6042.35
2511.06318	6009.35
2513.79462	6014.75
2516.52435	6002.15
2519.25237	5999.55
2521.97867	5965.15
2524.70327	5982.55
2527.42616	5955.15
2530.14734	5933.25
2532.86681	5946.35
2535.58458	5968.65
2538.30065	5947.95
2541.01501	5952.55
2543.72768	5935.25
2546.43864	5926.95
2549.14791	5922.85
2551.85548	5932.75
2554.56136	5906.85
2557.26554	5888.55
2559.96803	5873.65
2562.66883	5873.25
2565.36794	5829.05
2568.06536	5831.75
2570.7611	5821.75
2573.45514	5823.85
2576.14751	5822.45
2578.83819	5796.95
2581.52719	5790.35
2584.21451	5787.45
2586.90015	5780.65
2589.58411	5768.95
2592.2664	5760.75
2594.94701	5768.35
2597.62594	5758.35
2600.30321	5743.95
2602.9788	5745.75
2605.65273	5733.55
2608.32498	5719.45
2610.99557	5714.15
2613.66449	5717.95
2616.33175	5714.85
2618.99734	5707.25
2621.66128	5688.85
2624.32355	5702.25
2626.98416	5677.95
2629.64311	5677.65
2632.30041	5671.85
2634.95605	5669.15
2637.61004	5648.85
2640.26238	5647.35
2642.91306	5646.55
2645.56209	5620.65
2648.20948	5636.65
2650.85521	5617.95
2653.4993	5615.05
2656.14175	5597.85
2658.78255	5616.35
2661.42171	5592.75
2664.05923	5622.95
2666.6951	5623.95
2669.32934	5616.45
2671.96194	5617.95
2674.59291	5621.05
2677.22224	5612.55
2679.84993	5591.15
2682.476	5596.65
2685.10043	5611.95
2687.72324	5624.15
2690.34441	5607.85
2692.96396	5578.65
2695.58188	5587.15
2698.19818	5577.75
2700.81285	5568.45
2703.4259	5585.85
2706.03733	5564.05
2708.64714	5568.05
2711.25533	5563.25
2713.86191	5544.05
2716.46687	5558.85
2719.07021	5564.75
2721.67194	5566.15
2724.27206	5582.85
2726.87057	5571.95
2729.46747	5552.85
2732.06276	5554.55
2734.65644	5543.65
2737.24852	5555.05
2739.83899	5515.75
2742.42786	5519.85
2745.01513	5522.25
2747.60079	5504.45
2750.18486	5496.05
2752.76733	5502.75
2755.3482	5490.05
2757.92747	5475.75
2760.50515	5453.55
2763.08123	5459.65
2765.65573	5437.95
2768.22863	5452.35
2770.79994	5432.15
2773.36967	5422.65
2775.9378	5432.95
2778.50435	5430.45
2781.06932	5407.85
2783.6327	5420.65
2786.1945	5416.85
2788.75471	5411.75
2791.31335	5376.55
2793.87041	5386.75
2796.42589	5347.15
2798.97979	5344.75
2801.53212	5350.65
2804.08288	5327.35
2806.63206	5309.15
2809.17967	5310.95
2811.72571	5300.65
2814.27018	5294.65
2816.81308	5289.95
2819.35442	5272.35
2821.89419	5262.35
2824.43239	5247.65
2826.96904	5248.15
2829.50412	5249.85
2832.03763	5215.95
2834.56959	5210.85
2837.1	5212.15
2839.62884	5199.45
2842.15613	5201.45
2844.68186	5194.75
2847.20604	5182.85
2849.72867	5171.85
2852.24974	5168.75
2854.76927	5153.45
2857.28724	5134.25
2859.80367	5144.55
2862.31855	5125.45
2864.83189	5127.95
2867.34368	5137.55
2869.85393	5122.45
2872.36264	5116.05
2874.8698	5117.85
2877.37543	5116.55
2879.87952	5110.65
2882.38207	5086.05
2884.88308	5079.15
2887.38256	5086.65
2889.88051	5080.75
2892.37692	5069.65
2894.8718	5080.15
2897.36515	5074.95
2899.85698	5062.95
2902.34727	5061.85
2904.83604	5096.05
2907.32328	5080.25
2909.809	5083.05
2912.29319	5113.85
2914.77587	5096.15
2917.25702	5095.65
2919.73665	5100.85
2922.21476	5094.45
2924.69136	5081.85
2927.16644	5084.85
2929.64	5071.45
2932.11205	5056.85
2934.58258	5026.35
2937.05161	5040.95
2939.51912	5027.75
2941.98513	5043.65
2944.44962	5018.95
2946.91261	4987.85
2949.37409	5013.35
2951.83407	5015.75
2954.29254	5009.15
2956.74951	4988.45
2959.20498	4987.35
2961.65895	4975.25
2964.11142	4994.25
2966.56239	5002.55
2969.01186	4974.25
2971.45984	4984.15
2973.90632	4969.35
2976.35131	4945.95
2978.7948	4943.55
2981.23681	4935.75
2983.67732	4925.15
2986.11635	4906.45
2988.55388	4897.65
2990.98993	4889.55
2993.4245	4867.15
2995.85758	4868.55
2998.28917	4853.45
3000.71928	4846.95
3003.14791	4825.25
3005.57506	4836.25
3008.00073	4812.35
3010.42493	4806.25
3012.84764	4783.45
3015.26888	4789.05
3017.68865	4778.75
3020.10694	4776.75
3022.52376	4744.55
3024.9391	4719.95
3027.35298	4712.25
3029.76539	4689.75
3032.17632	4700.55
3034.5858	4697.35
3036.9938	4694.55
3039.40034	4681.45
3041.80542	4662.85
3044.20903	4651.85
3046.61118	4666.95
3049.01187	4643.05
3051.4111	4631.55
3053.80888	4616.85
3056.20519	4593.55
3058.60005	4598.15
3060.99345	4597.25
3063.3854	4584.75
3065.7759	4546.05
3068.16494	4546.05
3070.55254	4538.55
3072.93868	4526.25
3075.32338	4497.75
3077.70662	4504.15
3080.08842	4487.25
3082.46878	4488.95
3084.84769	4476.45
3087.22515	4461.65
3089.60118	4447.05
3091.97576	4475.15
3094.3489	4442.55
3096.72061	4448.25
3099.09087	4440.45
3101.4597	4427.65
3103.82709	4440.25
3106.19305	4441.75
3108.55757	4438.45
3110.92066	4428.15
3113.28232	4410.05
3115.64255	4391.85
3118.00134	4387.45
3120.35871	4394.25
3122.71466	4366.65
3125.06917	4363.65
3127.42226	4352.65
3129.77393	4342.65
3132.12417	4334.65
3134.47299	4328.25
3136.82039	4323.65
3139.16636	4328.15
3141.51092	4331.15
3143.85406	4323.85
3146.19579	4312.15
3148.53609	4309.05
3150.87499	4321.75
3153.21246	4311.85
3155.54853	4313.35
3157.88318	4306.45
3160.21642	4303.05
3162.54826	4290.35
3164.87868	4291.75
3167.2077	4284.45
3169.5353	4265.55
3171.86151	4279.35
3174.18631	4273.15
3176.5097	4251.45
3178.83169	4255.25
3181.15228	4242.95
3183.47147	4224.55
3185.78926	4216.25
3188.10565	4217.65
3190.42065	4193.75
3192.73424	4208.45
3195.04645	4186.75
3197.35725	4192.25
3199.66667	4177.45
3201.97469	4186.45
3204.28132	4180.65
3206.58656	4183.95
3208.8904	4171.55
3211.19287	4182.25
3213.49394	4178.05
3215.79363	4187.95
3218.09193	4163.35
3220.38884	4175.35
3222.68438	4190.25
3224.97853	4169.35
3227.2713	4167.95
3229.56269	4150.35
3231.8527	4146.45
3234.14133	4133.85
3236.42858	4119.75
3238.71446	4115.95
3240.99896	4091.75
3243.28209	4110.05
3245.56384	4085.55
3247.84423	4076.75
3250.12324	4067.55
3252.40088	4056.35
3254.67715	4069.75
3256.95205	4065.05
3259.22558	4058.85
3261.49775	4043.25
3263.76855	4057.05
3266.03799	4055.05
3268.30606	4037.65
3270.57277	4059.15
3272.83812	4031.75
3275.10211	4024.35
3277.36474	4004.45
3279.62601	4003.15
3281.88593	3993.75
3284.14448	4005.55
3286.40168	3995.25
3288.65753	3992.65
3290.91202	3973.05
3293.16516	3986.95
3295.41695	3964.05
3297.66738	3947.55
3299.91647	3928.45
3302.16421	3900.05
3304.4106	3880.15
3306.65564	3856.25
3308.89933	3830.25
3311.14169	3799.05
3313.38269	3774.45
3315.62236	3742.85
3317.86068	3724.75
3320.09766	3705.85
3322.3333	3675.25
3324.5676	3641.65
3326.80056	3580.95
3329.03219	3554.25
3331.26248	1.15
3333.49143	-0.75
3335.71905	-0.75
