Data from AgNPs_UA_10uM_CRN_500uM_SU_RamanShift__39__13-11-50-261.txt Node

Date: Thu Aug 04 13:11:50 BST 2022
User: TCL
Spectrometer: QEP01345
Trigger mode: 4
Integration Time (sec): 1.000000E0
Scans to average: 10
Electric dark correction enabled: true
Nonlinearity correction enabled: false
Boxcar width: 0
XAxis mode: Raman Shifts
Number of Pixels in Spectrum: 1044
>>>>>Begin Spectral Data<<<<<
46.04893	-0.15
50.45542	0.15
54.85868	1.55
59.25871	-1.35
63.6555	17.85
68.04907	19.25
72.43941	19.35
76.82654	18.95
81.21044	20.65
85.59113	20.15
89.96862	22.35
94.34289	21.55
98.71396	22.85
103.08183	24.65
107.4465	22.95
111.80798	24.05
116.16626	26.25
120.52136	27.55
124.87327	29.75
129.222	28.95
133.56755	30.25
137.90993	33.95
142.24913	36.65
146.58517	39.25
150.91804	48.35
155.24774	57.15
159.57429	72.95
163.89768	92.45
168.21792	120.75
172.53501	163.05
176.84895	229.85
181.15975	328.55
185.46741	456.85
189.77193	641.05
194.07331	862.75
198.37157	1122.85
202.6667	1387.45
206.9587	1651.35
211.24758	1904.45
215.53334	2162.05
219.81599	2443.75
224.09553	2739.55
228.37195	3072.45
232.64527	3433.25
236.91549	3815.55
241.18261	4203.85
245.44663	4529.35
249.70755	4830.05
253.96539	5105.55
258.22014	5348.15
262.4718	5504.85
266.72039	5624.25
270.96589	5666.05
275.20832	5666.35
279.44768	5601.95
283.68397	5508.85
287.91719	5462.85
292.14735	5410.75
296.37445	5424.85
300.59849	5459.25
304.81948	5532.85
309.03742	5578.95
313.25231	5584.25
317.46415	5578.25
321.67296	5513.25
325.87872	5452.85
330.08145	5413.95
334.28114	5453.45
338.47781	5510.85
342.67145	5603.95
346.86207	5694.35
351.04966	5825.05
355.23424	5950.75
359.4158	6101.95
363.59435	6169.65
367.76989	6249.85
371.94243	6261.75
376.11196	6291.65
380.27849	6348.25
384.44203	6409.05
388.60257	6459.55
392.76012	6534.45
396.91468	6588.85
401.06626	6678.45
405.21485	6726.55
409.36047	6730.95
413.50311	6668.05
417.64277	6601.25
421.77947	6564.25
425.9132	6563.95
430.04396	6568.75
434.17176	6600.85
438.2966	6658.35
442.41849	6724.15
446.53742	6849.65
450.6534	6941.55
454.76644	7009.75
458.87653	7085.55
462.98368	7113.05
467.08789	7096.65
471.18916	7088.95
475.2875	7009.55
479.38291	6977.45
483.4754	6923.55
487.56496	6927.45
491.6516	6927.05
495.73531	6945.15
499.81612	6956.35
503.89401	7004.55
507.96899	7051.65
512.04106	7079.65
516.11023	7087.45
520.1765	7118.25
524.23987	7140.45
528.30034	7155.45
532.35792	7156.05
536.41261	7132.75
540.46441	7121.45
544.51333	7140.25
548.55936	7180.85
552.60252	7222.15
556.64279	7294.55
560.6802	7381.55
564.71473	7378.75
568.7464	7408.85
572.7752	7393.45
576.80114	7360.35
580.82422	7339.05
584.84444	7315.55
588.86181	7332.85
592.87633	7369.55
596.888	7457.65
600.89682	7639.45
604.9028	8036.95
608.90594	8759.65
612.90624	9428.95
616.90371	9055.55
620.89834	8103.45
624.89015	7696.65
628.87913	7696.05
632.86528	7775.25
636.84862	7823.55
640.82913	7760.15
644.80683	7661.45
648.78172	7592.05
652.75379	7612.25
656.72306	7730.45
660.68952	7843.85
664.65319	7842.45
668.61405	7851.65
672.57211	7918.55
676.52738	7929.95
680.47986	7872.15
684.42955	7786.75
688.37646	7795.85
692.32058	7829.55
696.26192	7906.65
700.20048	8008.05
704.13626	8039.75
708.06928	8000.25
711.99952	7948.65
715.927	7958.85
719.85171	7983.05
723.77365	8020.35
727.69284	8004.05
731.60928	7999.45
735.52295	7973.95
739.43388	8016.05
743.34206	8042.25
747.24749	8059.95
751.15017	8060.15
755.05012	8122.25
758.94733	8212.35
762.8418	8480.35
766.73354	8894.95
770.62254	9232.75
774.50882	9340.95
778.39237	9245.15
782.27321	9020.95
786.15132	8719.15
790.02671	8467.75
793.89938	8331.55
797.76935	8248.95
801.6366	8192.05
805.50115	8179.25
809.36299	8190.55
813.22213	8195.45
817.07857	8238.45
820.93231	8194.45
824.78336	8234.65
828.63172	8232.35
832.47738	8249.15
836.32036	8253.75
840.16066	8265.75
843.99827	8262.95
847.8332	8280.15
851.66546	8294.85
855.49504	8323.75
859.32195	8343.25
863.1462	8353.25
866.96777	8359.15
870.78668	8384.65
874.60293	8413.75
878.41652	8440.35
882.22745	8496.25
886.03573	8520.05
889.84136	8523.05
893.64433	8525.65
897.44466	8502.45
901.24235	8488.85
905.0374	8498.85
908.8298	8496.75
912.61957	8486.85
916.40671	8502.25
920.19121	8508.65
923.97308	8524.75
927.75233	8535.75
931.52895	8580.65
935.30295	8542.75
939.07433	8490.05
942.84309	8487.35
946.60924	8492.95
950.37278	8488.85
954.13371	8463.15
957.89203	8485.35
961.64774	8479.15
965.40086	8477.75
969.15137	8455.15
972.89929	8462.35
976.64461	8453.05
980.38733	8468.05
984.12747	8488.45
987.86502	8516.95
991.59999	8523.55
995.33237	8557.75
999.06217	8588.55
1002.78939	8656.95
1006.51404	8749.15
1010.23611	8826.55
1013.95561	8855.85
1017.67255	8870.45
1021.38692	8882.25
1025.09872	8825.75
1028.80796	8809.95
1032.51465	8785.25
1036.21877	8792.55
1039.92035	8815.85
1043.61937	8826.25
1047.31584	8846.15
1051.00976	8910.15
1054.70114	8925.45
1058.38998	8937.65
1062.07627	8966.25
1065.76003	9010.75
1069.44126	9067.25
1073.11995	9161.05
1076.79611	9273.05
1080.46974	9329.95
1084.14085	9350.05
1087.80943	9365.75
1091.47549	9416.15
1095.13903	9427.75
1098.80005	9465.65
1102.45857	9526.45
1106.11456	9535.65
1109.76805	9444.75
1113.41903	9360.15
1117.06751	9387.05
1120.71348	9442.15
1124.35696	9500.55
1127.99793	9523.75
1131.63641	9459.15
1135.2724	9375.75
1138.90589	9291.45
1142.5369	9234.75
1146.16542	9213.15
1149.79145	9167.05
1153.415	9124.45
1157.03607	9106.95
1160.65467	9114.05
1164.27079	9195.95
1167.88443	9329.85
1171.49561	9525.35
1175.10432	9797.15
1178.71056	10140.25
1182.31434	10451.65
1185.91565	10601.65
1189.51451	10669.55
1193.11091	10634.65
1196.70485	10567.35
1200.29634	10505.65
1203.88538	10382.35
1207.47197	10190.85
1211.05612	10012.55
1214.63782	9842.15
1218.21708	9692.35
1221.79391	9602.75
1225.36829	9569.95
1228.94024	9554.95
1232.50976	9580.55
1236.07685	9587.95
1239.6415	9638.85
1243.20374	9688.15
1246.76355	9703.35
1250.32093	9731.55
1253.8759	9812.65
1257.42845	9939.65
1260.97859	10050.15
1264.52631	10144.25
1268.07163	10242.15
1271.61453	10307.95
1275.15503	10321.85
1278.69312	10306.85
1282.22882	10275.65
1285.76211	10302.65
1289.29301	10359.75
1292.82151	10433.55
1296.34761	10534.95
1299.87133	10665.15
1303.39266	10890.75
1306.9116	11227.75
1310.42815	11593.25
1313.94233	11726.25
1317.45412	11594.75
1320.96354	11365.35
1324.47058	11152.95
1327.97525	10919.35
1331.47754	10782.75
1334.97747	10742.85
1338.47502	10778.65
1341.97022	10989.95
1345.46305	11296.35
1348.95352	11758.15
1352.44163	12200.85
1355.92738	12530.85
1359.41078	12887.25
1362.89183	13064.55
1366.37053	12705.95
1369.84688	11852.25
1373.32088	11041.35
1376.79254	10521.65
1380.26186	10276.85
1383.72883	10099.25
1387.19347	9947.75
1390.65578	9792.55
1394.11575	9665.65
1397.57339	9566.15
1401.0287	9504.45
1404.48168	9496.75
1407.93234	9523.85
1411.38068	9588.95
1414.82669	9665.35
1418.27039	9646.95
1421.71177	9631.75
1425.15083	9585.65
1428.58758	9538.15
1432.02203	9528.65
1435.45416	9524.25
1438.88399	9525.05
1442.31151	9491.75
1445.73673	9512.35
1449.15965	9524.35
1452.58027	9505.55
1455.9986	9517.75
1459.41463	9533.25
1462.82837	9566.75
1466.23982	9650.35
1469.64898	9773.55
1473.05586	9860.55
1476.46045	9921.65
1479.86276	10008.65
1483.26279	10071.35
1486.66054	10113.55
1490.05602	10244.05
1493.44922	10440.45
1496.84016	10724.25
1500.22882	11152.05
1503.61521	11609.15
1506.99934	12007.45
1510.38121	12216.55
1513.76081	12068.05
1517.13816	11626.75
1520.51324	11120.65
1523.88607	10681.25
1527.25665	10425.15
1530.62498	10271.35
1533.99105	10249.25
1537.35488	10227.55
1540.71647	10192.55
1544.07581	10153.55
1547.4329	10151.25
1550.78776	10078.35
1554.14038	10026.35
1557.49077	9985.45
1560.83892	10018.95
1564.18484	10107.45
1567.52853	10209.15
1570.86999	10292.75
1574.20922	10310.75
1577.54624	10283.45
1580.88103	10119.95
1584.2136	9935.65
1587.54395	9821.25
1590.87208	9846.45
1594.19801	9956.75
1597.52172	10123.45
1600.84321	10188.05
1604.16251	10189.65
1607.47959	10103.35
1610.79447	9959.55
1614.10715	9807.25
1617.41763	9574.55
1620.7259	9390.65
1624.03199	9288.15
1627.33587	9236.25
1630.63757	9235.35
1633.93707	9342.15
1637.23439	9561.55
1640.52951	9894.85
1643.82246	10314.35
1647.11321	10701.55
1650.40179	10874.25
1653.68819	10636.25
1656.97241	10089.35
1660.25446	9572.75
1663.53433	9218.45
1666.81203	8976.35
1670.08756	8829.95
1673.36092	8750.25
1676.63211	8703.15
1679.90115	8653.05
1683.16801	8588.05
1686.43272	8549.65
1689.69527	8529.55
1692.95567	8472.75
1696.2139	8455.35
1699.46999	8460.85
1702.72392	8456.05
1705.97571	8430.45
1709.22535	8454.65
1712.47284	8454.75
1715.71819	8451.25
1718.96139	8446.35
1722.20246	8443.55
1725.44139	8443.25
1728.67818	8420.85
1731.91284	8396.55
1735.14537	8379.55
1738.37576	8333.55
1741.60403	8332.15
1744.83017	8313.85
1748.05418	8303.05
1751.27607	8311.15
1754.49584	8292.45
1757.71349	8302.25
1760.92903	8321.15
1764.14244	8266.65
1767.35375	8267.35
1770.56294	8254.95
1773.77002	8253.55
1776.97499	8224.55
1780.17785	8194.05
1783.37861	8192.25
1786.57727	8203.85
1789.77382	8220.15
1792.96828	8181.55
1796.16064	8179.85
1799.3509	8150.85
1802.53907	8161.75
1805.72514	8158.05
1808.90913	8116.05
1812.09102	8104.55
1815.27083	8089.05
1818.44856	8068.35
1821.6242	8061.55
1824.79776	8048.65
1827.96924	8042.95
1831.13864	8041.45
1834.30597	8023.25
1837.47122	8020.55
1840.6344	8019.35
1843.7955	8014.85
1846.95454	8025.75
1850.11151	7999.05
1853.26642	8003.45
1856.41926	8019.75
1859.57004	8014.95
1862.71876	7991.35
1865.86542	8026.35
1869.01003	7996.85
1872.15258	7969.75
1875.29308	7969.15
1878.43152	7960.25
1881.56792	7950.65
1884.70227	7919.95
1887.83457	7901.05
1890.96482	7888.05
1894.09304	7884.05
1897.21921	7871.15
1900.34335	7864.55
1903.46544	7883.95
1906.58551	7852.25
1909.70353	7861.95
1912.81953	7869.25
1915.93349	7843.35
1919.04543	7790.55
1922.15534	7813.65
1925.26322	7796.55
1928.36908	7780.45
1931.47292	7775.35
1934.57473	7739.75
1937.67453	7748.05
1940.77232	7725.35
1943.86808	7689.55
1946.96184	7689.45
1950.05358	7658.55
1953.14331	7658.15
1956.23103	7621.95
1959.31675	7582.35
1962.40046	7581.05
1965.48217	7568.75
1968.56188	7517.85
1971.63959	7513.05
1974.7153	7478.25
1977.78901	7484.95
1980.86073	7470.35
1983.93046	7422.25
1986.99819	7407.55
1990.06394	7408.75
1993.1277	7363.85
1996.18947	7355.15
1999.24925	7334.35
2002.30706	7313.55
2005.36288	7274.15
2008.41672	7266.75
2011.46859	7246.95
2014.51848	7239.65
2017.56639	7194.15
2020.61233	7186.25
2023.6563	7152.05
2026.6983	7147.15
2029.73833	7119.35
2032.7764	7102.45
2035.8125	7103.35
2038.84664	7071.45
2041.87881	7062.65
2044.90903	7045.15
2047.93729	7038.55
2050.96359	7027.45
2053.98794	7011.75
2057.01034	7009.25
2060.03078	7008.55
2063.04927	6991.85
2066.06582	6989.25
2069.08042	7004.45
2072.09307	6958.15
2075.10378	6962.65
2078.11255	6981.95
2081.11938	6970.65
2084.12426	6950.35
2087.12722	6952.95
2090.12824	6948.75
2093.12732	6945.15
2096.12447	6955.65
2099.11969	6970.65
2102.11299	6958.95
2105.10435	6960.85
2108.09379	6935.65
2111.08131	6970.45
2114.0669	6949.65
2117.05057	6958.75
2120.03233	7004.35
2123.01216	6992.25
2125.99008	6974.15
2128.96609	6992.85
2131.94018	6994.85
2134.91236	6991.15
2137.88263	6989.15
2140.851	6986.65
2143.81746	7008.65
2146.78201	6977.55
2149.74466	6990.45
2152.7054	7003.85
2155.66425	6982.45
2158.6212	6998.15
2161.57625	6991.65
2164.52941	6982.25
2167.48067	6977.85
2170.43004	6977.95
2173.37752	6962.95
2176.32311	6978.85
2179.26681	6982.15
2182.20863	6971.25
2185.14856	7001.35
2188.08661	6981.25
2191.02278	6974.05
2193.95707	6973.05
2196.88948	6967.35
2199.82001	6953.45
2202.74867	6947.55
2205.67545	6967.45
2208.60037	6930.95
2211.52341	6924.35
2214.44458	6892.55
2217.36388	6876.15
2220.28132	6868.45
2223.1969	6850.25
2226.11061	6842.75
2229.02246	6808.25
2231.93245	6799.45
2234.84058	6795.95
2237.74686	6795.05
2240.65128	6777.65
2243.55385	6767.75
2246.45456	6775.65
2249.35343	6757.15
2252.25044	6727.75
2255.14561	6743.95
2258.03893	6739.65
2260.93041	6718.25
2263.82004	6693.55
2266.70783	6688.05
2269.59378	6675.35
2272.4779	6627.15
2275.36017	6623.25
2278.24061	6619.85
2281.11922	6621.15
2283.996	6578.15
2286.87094	6573.95
2289.74405	6576.45
2292.61534	6567.45
2295.4848	6543.25
2298.35243	6551.35
2301.21824	6542.05
2304.08223	6517.75
2306.94439	6534.25
2309.80474	6526.55
2312.66327	6515.25
2315.51999	6487.95
2318.37489	6489.45
2321.22797	6478.15
2324.07925	6461.75
2326.92871	6453.15
2329.77637	6447.05
2332.62222	6452.25
2335.46626	6409.85
2338.3085	6402.05
2341.14893	6408.25
2343.98756	6391.95
2346.8244	6397.25
2349.65943	6363.85
2352.49267	6349.75
2355.32411	6340.85
2358.15376	6358.35
2360.98161	6343.65
2363.80768	6345.95
2366.63195	6358.45
2369.45444	6320.35
2372.27514	6339.35
2375.09405	6308.35
2377.91118	6301.35
2380.72652	6287.15
2383.54009	6277.65
2386.35187	6259.85
2389.16188	6233.25
2391.97011	6243.35
2394.77657	6212.05
2397.58125	6205.75
2400.38416	6212.15
2403.18529	6200.05
2405.98466	6194.15
2408.78226	6192.15
2411.57809	6157.85
2414.37216	6157.75
2417.16446	6151.95
2419.955	6128.55
2422.74378	6124.75
2425.5308	6127.05
2428.31606	6122.95
2431.09956	6111.55
2433.88131	6098.25
2436.6613	6096.05
2439.43954	6100.15
2442.21603	6084.95
2444.99077	6086.75
2447.76377	6077.35
2450.53501	6081.15
2453.30451	6062.75
2456.07226	6054.25
2458.83827	6035.25
2461.60254	6009.05
2464.36507	6018.75
2467.12586	5994.75
2469.88492	5993.25
2472.64224	6002.05
2475.39782	5995.55
2478.15167	5982.75
2480.90379	5970.65
2483.65417	5967.25
2486.40283	5954.65
2489.14976	5948.25
2491.89497	5953.25
2494.63845	5944.85
2497.3802	5939.75
2500.12024	5914.15
2502.85855	5916.85
2505.59514	5931.45
2508.33002	5909.75
2511.06318	5880.25
2513.79462	5873.95
2516.52435	5864.35
2519.25237	5860.65
2521.97867	5867.05
2524.70327	5842.35
2527.42616	5833.75
2530.14734	5810.45
2532.86681	5812.75
2535.58458	5833.65
2538.30065	5819.95
2541.01501	5791.85
2543.72768	5787.75
2546.43864	5775.45
2549.14791	5769.55
2551.85548	5740.55
2554.56136	5750.15
2557.26554	5745.15
2559.96803	5728.45
2562.66883	5710.05
2565.36794	5692.75
2568.06536	5683.35
2570.7611	5655.45
2573.45514	5644.85
2576.14751	5637.55
2578.83819	5640.25
2581.52719	5621.65
2584.21451	5610.35
2586.90015	5620.55
2589.58411	5605.45
2592.2664	5589.55
2594.94701	5575.45
2597.62594	5556.25
2600.30321	5550.65
2602.9788	5537.25
2605.65273	5537.35
2608.32498	5534.35
2610.99557	5520.25
2613.66449	5517.05
2616.33175	5487.25
2618.99734	5481.85
2621.66128	5464.65
2624.32355	5444.35
2626.98416	5430.45
2629.64311	5430.75
2632.30041	5436.35
2634.95605	5404.95
2637.61004	5391.35
2640.26238	5387.55
2642.91306	5387.35
2645.56209	5384.25
2648.20948	5379.35
2650.85521	5370.75
2653.4993	5371.35
2656.14175	5358.95
2658.78255	5345.15
2661.42171	5349.65
2664.05923	5352.15
2666.6951	5365.35
2669.32934	5371.85
2671.96194	5353.85
2674.59291	5367.45
2677.22224	5359.65
2679.84993	5348.95
2682.476	5345.25
2685.10043	5350.75
2687.72324	5361.45
2690.34441	5343.35
2692.96396	5329.25
2695.58188	5319.55
2698.19818	5332.95
2700.81285	5311.35
2703.4259	5311.45
2706.03733	5294.75
2708.64714	5297.05
2711.25533	5306.35
2713.86191	5279.15
2716.46687	5298.05
2719.07021	5310.15
2721.67194	5324.95
2724.27206	5317.05
2726.87057	5300.55
2729.46747	5287.45
2732.06276	5285.25
2734.65644	5285.35
2737.24852	5271.45
2739.83899	5260.05
2742.42786	5264.15
2745.01513	5244.05
2747.60079	5240.25
2750.18486	5243.95
2752.76733	5223.05
2755.3482	5220.95
2757.92747	5217.05
2760.50515	5186.25
2763.08123	5212.05
2765.65573	5171.05
2768.22863	5166.15
2770.79994	5158.95
2773.36967	5165.45
2775.9378	5153.55
2778.50435	5133.95
2781.06932	5140.85
2783.6327	5135.95
2786.1945	5129.35
2788.75471	5109.05
2791.31335	5103.45
2793.87041	5082.75
2796.42589	5066.45
2798.97979	5047.65
2801.53212	5045.15
2804.08288	5051.75
2806.63206	5025.25
2809.17967	5017.95
2811.72571	5002.25
2814.27018	4998.85
2816.81308	4982.25
2819.35442	4957.45
2821.89419	4956.95
2824.43239	4954.85
2826.96904	4924.85
2829.50412	4936.05
2832.03763	4891.75
2834.56959	4900.25
2837.1	4895.55
2839.62884	4876.15
2842.15613	4879.65
2844.68186	4867.85
2847.20604	4869.15
2849.72867	4863.35
2852.24974	4860.05
2854.76927	4830.15
2857.28724	4822.05
2859.80367	4825.55
2862.31855	4811.15
2864.83189	4802.25
2867.34368	4802.85
2869.85393	4792.15
2872.36264	4791.45
2874.8698	4786.95
2877.37543	4773.75
2879.87952	4778.15
2882.38207	4767.05
2884.88308	4762.25
2887.38256	4757.55
2889.88051	4752.55
2892.37692	4747.15
2894.8718	4746.75
2897.36515	4742.75
2899.85698	4739.95
2902.34727	4724.05
2904.83604	4750.65
2907.32328	4745.95
2909.809	4747.55
2912.29319	4733.35
2914.77587	4735.65
2917.25702	4744.45
2919.73665	4740.25
2922.21476	4734.05
2924.69136	4729.15
2927.16644	4732.05
2929.64	4725.15
2932.11205	4707.15
2934.58258	4685.55
2937.05161	4696.85
2939.51912	4696.75
2941.98513	4685.85
2944.44962	4686.15
2946.91261	4668.35
2949.37409	4669.05
2951.83407	4689.05
2954.29254	4673.65
2956.74951	4645.95
2959.20498	4664.35
2961.65895	4672.35
2964.11142	4660.65
2966.56239	4651.65
2969.01186	4659.65
2971.45984	4648.55
2973.90632	4651.15
2976.35131	4634.65
2978.7948	4638.55
2981.23681	4616.05
2983.67732	4614.55
2986.11635	4601.85
2988.55388	4595.85
2990.98993	4576.55
2993.4245	4588.45
2995.85758	4567.05
2998.28917	4539.45
3000.71928	4535.15
3003.14791	4510.55
3005.57506	4530.95
3008.00073	4499.05
3010.42493	4490.05
3012.84764	4483.85
3015.26888	4490.95
3017.68865	4466.95
3020.10694	4463.55
3022.52376	4452.65
3024.9391	4433.95
3027.35298	4433.55
3029.76539	4425.75
3032.17632	4423.45
3034.5858	4420.85
3036.9938	4405.05
3039.40034	4396.15
3041.80542	4386.55
3044.20903	4369.35
3046.61118	4359.75
3049.01187	4373.95
3051.4111	4354.15
3053.80888	4341.95
3056.20519	4332.75
3058.60005	4317.45
3060.99345	4307.75
3063.3854	4300.15
3065.7759	4287.15
3068.16494	4286.45
3070.55254	4269.95
3072.93868	4257.85
3075.32338	4255.25
3077.70662	4242.95
3080.08842	4224.75
3082.46878	4226.05
3084.84769	4219.15
3087.22515	4207.75
3089.60118	4209.05
3091.97576	4198.85
3094.3489	4193.25
3096.72061	4188.45
3099.09087	4190.35
3101.4597	4183.85
3103.82709	4203.55
3106.19305	4197.55
3108.55757	4192.55
3110.92066	4171.75
3113.28232	4173.05
3115.64255	4155.05
3118.00134	4147.05
3120.35871	4146.65
3122.71466	4129.75
3125.06917	4143.25
3127.42226	4094.45
3129.77393	4094.45
3132.12417	4102.15
3134.47299	4093.25
3136.82039	4079.35
3139.16636	4085.15
3141.51092	4076.95
3143.85406	4082.85
3146.19579	4075.15
3148.53609	4072.05
3150.87499	4057.25
3153.21246	4065.05
3155.54853	4062.95
3157.88318	4064.65
3160.21642	4072.45
3162.54826	4056.65
3164.87868	4066.35
3167.2077	4053.55
3169.5353	4055.45
3171.86151	4041.35
3174.18631	4037.65
3176.5097	4020.55
3178.83169	4016.15
3181.15228	4031.35
3183.47147	3998.45
3185.78926	3996.25
3188.10565	3973.75
3190.42065	3964.85
3192.73424	3986.15
3195.04645	3956.95
3197.35725	3978.05
3199.66667	3955.55
3201.97469	3948.25
3204.28132	3959.55
3206.58656	3954.95
3208.8904	3948.65
3211.19287	3949.95
3213.49394	3955.55
3215.79363	3935.75
3218.09193	3967.25
3220.38884	3947.15
3222.68438	3961.05
3224.97853	3949.25
3227.2713	3932.35
3229.56269	3919.65
3231.8527	3922.85
3234.14133	3912.95
3236.42858	3899.65
3238.71446	3889.65
3240.99896	3877.15
3243.28209	3876.95
3245.56384	3877.65
3247.84423	3850.55
3250.12324	3861.95
3252.40088	3845.15
3254.67715	3836.75
3256.95205	3846.65
3259.22558	3840.05
3261.49775	3833.95
3263.76855	3836.75
3266.03799	3835.35
3268.30606	3854.85
3270.57277	3827.75
3272.83812	3805.65
3275.10211	3818.55
3277.36474	3806.55
3279.62601	3792.15
3281.88593	3775.55
3284.14448	3780.75
3286.40168	3777.45
3288.65753	3777.75
3290.91202	3747.55
3293.16516	3737.35
3295.41695	3735.95
3297.66738	3722.75
3299.91647	3713.25
3302.16421	3675.35
3304.4106	3656.35
3306.65564	3634.05
3308.89933	3600.95
3311.14169	3573.35
3313.38269	3534.25
3315.62236	3523.05
3317.86068	3497.25
3320.09766	3453.85
3322.3333	3440.95
3324.5676	3421.65
3326.80056	3358.15
3329.03219	3325.15
3331.26248	0.55
3333.49143	-0.35
3335.71905	-0.65
