Data from AgNPs_UA_50uM_CRN_500uM_SU_RamanShift__49__14-04-00-323.txt Node

Date: Thu Aug 04 14:04:00 BST 2022
User: TCL
Spectrometer: QEP01345
Trigger mode: 4
Integration Time (sec): 1.000000E0
Scans to average: 10
Electric dark correction enabled: true
Nonlinearity correction enabled: false
Boxcar width: 0
XAxis mode: Raman Shifts
Number of Pixels in Spectrum: 1044
>>>>>Begin Spectral Data<<<<<
46.04893	1.35
50.45542	-0.55
54.85868	-0.55
59.25871	-2.15
63.6555	19.15
68.04907	16.25
72.43941	18.75
76.82654	17.95
81.21044	19.55
85.59113	21.75
89.96862	22.45
94.34289	23.65
98.71396	22.55
103.08183	24.95
107.4465	22.45
111.80798	23.45
116.16626	24.05
120.52136	26.45
124.87327	29.75
129.222	31.55
133.56755	34.75
137.90993	36.35
142.24913	39.25
146.58517	44.95
150.91804	53.85
155.24774	66.05
159.57429	81.75
163.89768	107.45
168.21792	143.15
172.53501	197.05
176.84895	285.35
181.15975	400.55
185.46741	563.75
189.77193	794.85
194.07331	1065.95
198.37157	1370.75
202.6667	1708.55
206.9587	2047.65
211.24758	2371.75
215.53334	2725.65
219.81599	3087.25
224.09553	3495.95
228.37195	3959.65
232.64527	4448.45
236.91549	4911.75
241.18261	5316.15
245.44663	5627.45
249.70755	5879.85
253.96539	6096.05
258.22014	6273.55
262.4718	6427.15
266.72039	6552.75
270.96589	6589.85
275.20832	6517.45
279.44768	6428.85
283.68397	6332.95
287.91719	6240.05
292.14735	6256.95
296.37445	6371.85
300.59849	6633.05
304.81948	6927.35
309.03742	7215.35
313.25231	7392.85
317.46415	7289.95
321.67296	6973.65
325.87872	6599.25
330.08145	6391.45
334.28114	6392.45
338.47781	6487.25
342.67145	6622.65
346.86207	6862.45
351.04966	7155.55
355.23424	7475.05
359.4158	7709.45
363.59435	7792.25
367.76989	7781.55
371.94243	7717.05
376.11196	7654.75
380.27849	7627.65
384.44203	7595.75
388.60257	7598.85
392.76012	7651.15
396.91468	7763.55
401.06626	7882.95
405.21485	7916.05
409.36047	7784.05
413.50311	7466.05
417.64277	7181.15
421.77947	6987.95
425.9132	6905.15
430.04396	6904.65
434.17176	6921.15
438.2966	7029.65
442.41849	7144.65
446.53742	7291.25
450.6534	7440.95
454.76644	7558.65
458.87653	7583.55
462.98368	7587.55
467.08789	7518.85
471.18916	7392.45
475.2875	7212.35
479.38291	7087.75
483.4754	6984.75
487.56496	6940.35
491.6516	6874.85
495.73531	6856.95
499.81612	6905.15
503.89401	6956.45
507.96899	7006.85
512.04106	7079.15
516.11023	7126.65
520.1765	7196.85
524.23987	7222.75
528.30034	7183.65
532.35792	7164.55
536.41261	7091.25
540.46441	7000.95
544.51333	6955.55
548.55936	7004.85
552.60252	7120.55
556.64279	7239.15
560.6802	7346.75
564.71473	7469.05
568.7464	7624.15
572.7752	7593.45
576.80114	7323.75
580.82422	7090.65
584.84444	7006.25
588.86181	6961.85
592.87633	7004.75
596.888	7178.15
600.89682	7548.55
604.9028	8561.45
608.90594	10755.35
612.90624	12960.55
616.90371	11876.05
620.89834	8829.85
624.89015	7554.55
628.87913	7438.55
632.86528	7611.35
636.84862	7705.55
640.82913	7487.55
644.80683	7132.05
648.78172	6948.95
652.75379	6986.85
656.72306	7253.35
660.68952	7530.15
664.65319	7453.15
668.61405	7287.95
672.57211	7299.45
676.52738	7290.55
680.47986	7115.85
684.42955	6965.85
688.37646	6910.05
692.32058	6973.65
696.26192	7119.05
700.20048	7266.15
704.13626	7286.95
708.06928	7220.75
711.99952	7096.15
715.927	7097.55
719.85171	7160.55
723.77365	7173.05
727.69284	7094.45
731.60928	7025.75
735.52295	7006.65
739.43388	7016.15
743.34206	7031.65
747.24749	7050.25
751.15017	7062.95
755.05012	7157.55
758.94733	7483.55
762.8418	8283.55
766.73354	9454.85
770.62254	10326.55
774.50882	10477.95
778.39237	10037.65
782.27321	9212.65
786.15132	8276.55
790.02671	7613.05
793.89938	7278.65
797.76935	7110.35
801.6366	7024.95
805.50115	7007.95
809.36299	6961.55
813.22213	6925.75
817.07857	6939.15
820.93231	6930.35
824.78336	6955.65
828.63172	6994.85
832.47738	7016.75
836.32036	6963.75
840.16066	6933.15
843.99827	6910.65
847.8332	6909.85
851.66546	6901.25
855.49504	6932.45
859.32195	6922.75
863.1462	6921.35
866.96777	6910.85
870.78668	6928.05
874.60293	6939.65
878.41652	6973.45
882.22745	7025.15
886.03573	7066.05
889.84136	7042.25
893.64433	7023.45
897.44466	6990.35
901.24235	6971.55
905.0374	6960.95
908.8298	6937.95
912.61957	6882.45
916.40671	6901.95
920.19121	6926.45
923.97308	6994.15
927.75233	7083.05
931.52895	7133.65
935.30295	7072.75
939.07433	6922.75
942.84309	6819.75
946.60924	6783.45
950.37278	6760.45
954.13371	6771.05
957.89203	6740.85
961.64774	6730.95
965.40086	6722.65
969.15137	6718.55
972.89929	6705.85
976.64461	6707.45
980.38733	6690.95
984.12747	6730.15
987.86502	6747.25
991.59999	6789.85
995.33237	6860.35
999.06217	6920.35
1002.78939	7050.75
1006.51404	7173.35
1010.23611	7298.05
1013.95561	7348.05
1017.67255	7372.95
1021.38692	7335.45
1025.09872	7253.15
1028.80796	7163.45
1032.51465	7185.85
1036.21877	7220.75
1039.92035	7266.65
1043.61937	7264.75
1047.31584	7280.55
1051.00976	7273.45
1054.70114	7277.85
1058.38998	7276.85
1062.07627	7325.25
1065.76003	7370.95
1069.44126	7463.45
1073.11995	7607.15
1076.79611	7764.15
1080.46974	7894.15
1084.14085	8021.05
1087.80943	8133.55
1091.47549	8172.35
1095.13903	8115.35
1098.80005	8071.65
1102.45857	8060.45
1106.11456	8014.05
1109.76805	7948.95
1113.41903	7948.15
1117.06751	8076.95
1120.71348	8263.25
1124.35696	8510.75
1127.99793	8710.15
1131.63641	8521.85
1135.2724	8183.75
1138.90589	7908.95
1142.5369	7760.75
1146.16542	7656.05
1149.79145	7584.05
1153.415	7505.05
1157.03607	7472.75
1160.65467	7514.45
1164.27079	7693.15
1167.88443	7964.85
1171.49561	8372.35
1175.10432	9038.95
1178.71056	9886.95
1182.31434	10594.15
1185.91565	10818.55
1189.51451	10642.35
1193.11091	10348.55
1196.70485	9981.55
1200.29634	9691.65
1203.88538	9356.45
1207.47197	8944.45
1211.05612	8589.35
1214.63782	8290.65
1218.21708	8091.45
1221.79391	7966.55
1225.36829	7901.75
1228.94024	7884.25
1232.50976	7869.55
1236.07685	7882.15
1239.6415	7929.35
1243.20374	7943.25
1246.76355	8006.85
1250.32093	8082.25
1253.8759	8250.45
1257.42845	8473.25
1260.97859	8781.75
1264.52631	9025.35
1268.07163	9223.05
1271.61453	9294.65
1275.15503	9303.95
1278.69312	9314.85
1282.22882	9340.15
1285.76211	9446.35
1289.29301	9700.65
1292.82151	9886.75
1296.34761	10099.05
1299.87133	10492.35
1303.39266	11157.75
1306.9116	12219.95
1310.42815	13299.45
1313.94233	13628.85
1317.45412	13012.55
1320.96354	12026.85
1324.47058	11202.35
1327.97525	10462.75
1331.47754	10059.45
1334.97747	9921.35
1338.47502	10089.05
1341.97022	10476.25
1345.46305	11174.45
1348.95352	12119.15
1352.44163	13204.65
1355.92738	14380.25
1359.41078	15837.65
1362.89183	16948.45
1366.37053	16079.75
1369.84688	13591.95
1373.32088	11395.75
1376.79254	10148.75
1380.26186	9543.65
1383.72883	9207.15
1387.19347	8869.35
1390.65578	8550.55
1394.11575	8259.75
1397.57339	8059.95
1401.0287	7954.55
1404.48168	7930.45
1407.93234	7986.05
1411.38068	8118.65
1414.82669	8297.75
1418.27039	8348.55
1421.71177	8336.05
1425.15083	8272.45
1428.58758	8206.75
1432.02203	8270.95
1435.45416	8326.25
1438.88399	8319.25
1442.31151	8276.05
1445.73673	8274.35
1449.15965	8284.95
1452.58027	8243.55
1455.9986	8134.95
1459.41463	8115.85
1462.82837	8152.55
1466.23982	8318.45
1469.64898	8493.25
1473.05586	8606.05
1476.46045	8715.65
1479.86276	8806.65
1483.26279	8977.65
1486.66054	9151.85
1490.05602	9488.95
1493.44922	10028.35
1496.84016	10845.15
1500.22882	12015.15
1503.61521	13497.55
1506.99934	14951.35
1510.38121	15884.05
1513.76081	15692.75
1517.13816	14344.15
1520.51324	12554.65
1523.88607	11040.85
1527.25665	10096.95
1530.62498	9577.55
1533.99105	9310.45
1537.35488	9147.35
1540.71647	9057.35
1544.07581	8944.45
1547.4329	8881.55
1550.78776	8783.25
1554.14038	8773.15
1557.49077	8827.65
1560.83892	9008.05
1564.18484	9269.45
1567.52853	9609.85
1570.86999	9838.55
1574.20922	9859.85
1577.54624	9708.05
1580.88103	9210.35
1584.2136	8673.05
1587.54395	8325.15
1590.87208	8338.25
1594.19801	8618.25
1597.52172	8967.45
1600.84321	9099.65
1604.16251	9019.95
1607.47959	8816.65
1610.79447	8519.85
1614.10715	8140.05
1617.41763	7734.35
1620.7259	7465.45
1624.03199	7313.75
1627.33587	7300.55
1630.63757	7378.25
1633.93707	7656.95
1637.23439	8192.45
1640.52951	9013.05
1643.82246	10185.65
1647.11321	11430.75
1650.40179	12052.45
1653.68819	11471.95
1656.97241	10050.75
1660.25446	8588.35
1663.53433	7650.75
1666.81203	7058.05
1670.08756	6719.05
1673.36092	6529.05
1676.63211	6402.55
1679.90115	6319.55
1683.16801	6246.35
1686.43272	6181.15
1689.69527	6131.35
1692.95567	6098.75
1696.2139	6067.05
1699.46999	6035.75
1702.72392	6062.25
1705.97571	6060.65
1709.22535	6044.55
1712.47284	6058.55
1715.71819	6055.75
1718.96139	6029.75
1722.20246	6030.85
1725.44139	5990.55
1728.67818	5971.65
1731.91284	5910.05
1735.14537	5886.05
1738.37576	5872.85
1741.60403	5833.35
1744.83017	5818.05
1748.05418	5824.15
1751.27607	5806.15
1754.49584	5770.65
1757.71349	5752.65
1760.92903	5761.35
1764.14244	5742.25
1767.35375	5758.25
1770.56294	5710.95
1773.77002	5693.35
1776.97499	5675.25
1780.17785	5663.15
1783.37861	5652.65
1786.57727	5631.55
1789.77382	5615.75
1792.96828	5594.95
1796.16064	5596.05
1799.3509	5567.15
1802.53907	5564.05
1805.72514	5564.35
1808.90913	5543.85
1812.09102	5511.05
1815.27083	5519.25
1818.44856	5509.45
1821.6242	5484.15
1824.79776	5471.65
1827.96924	5473.35
1831.13864	5429.05
1834.30597	5418.85
1837.47122	5421.15
1840.6344	5414.75
1843.7955	5411.45
1846.95454	5411.85
1850.11151	5412.15
1853.26642	5408.65
1856.41926	5383.95
1859.57004	5407.05
1862.71876	5384.65
1865.86542	5358.75
1869.01003	5370.25
1872.15258	5364.95
1875.29308	5360.15
1878.43152	5358.95
1881.56792	5341.45
1884.70227	5336.75
1887.83457	5340.35
1890.96482	5311.15
1894.09304	5308.05
1897.21921	5297.35
1900.34335	5282.05
1903.46544	5274.75
1906.58551	5257.85
1909.70353	5260.25
1912.81953	5251.35
1915.93349	5235.55
1919.04543	5221.35
1922.15534	5210.75
1925.26322	5209.95
1928.36908	5198.15
1931.47292	5202.75
1934.57473	5184.05
1937.67453	5144.15
1940.77232	5141.15
1943.86808	5113.85
1946.96184	5093.85
1950.05358	5092.05
1953.14331	5074.05
1956.23103	5057.45
1959.31675	5036.25
1962.40046	5025.75
1965.48217	5027.45
1968.56188	4992.55
1971.63959	5006.65
1974.7153	4966.95
1977.78901	4961.05
1980.86073	4953.25
1983.93046	4934.85
1986.99819	4922.85
1990.06394	4893.55
1993.1277	4864.25
1996.18947	4863.75
1999.24925	4827.55
2002.30706	4822.65
2005.36288	4782.15
2008.41672	4772.65
2011.46859	4764.15
2014.51848	4762.25
2017.56639	4742.75
2020.61233	4724.35
2023.6563	4709.55
2026.6983	4697.65
2029.73833	4668.05
2032.7764	4648.65
2035.8125	4620.85
2038.84664	4632.35
2041.87881	4636.35
2044.90903	4614.35
2047.93729	4599.45
2050.96359	4586.55
2053.98794	4599.15
2057.01034	4576.75
2060.03078	4602.95
2063.04927	4578.25
2066.06582	4579.75
2069.08042	4571.05
2072.09307	4551.85
2075.10378	4537.75
2078.11255	4537.35
2081.11938	4553.85
2084.12426	4538.55
2087.12722	4531.35
2090.12824	4527.75
2093.12732	4534.65
2096.12447	4538.35
2099.11969	4537.55
2102.11299	4519.55
2105.10435	4539.85
2108.09379	4555.65
2111.08131	4539.65
2114.0669	4537.95
2117.05057	4536.15
2120.03233	4556.85
2123.01216	4529.75
2125.99008	4524.65
2128.96609	4553.35
2131.94018	4543.35
2134.91236	4538.95
2137.88263	4542.85
2140.851	4545.95
2143.81746	4544.15
2146.78201	4527.95
2149.74466	4521.75
2152.7054	4536.65
2155.66425	4539.85
2158.6212	4519.95
2161.57625	4509.65
2164.52941	4521.65
2167.48067	4495.35
2170.43004	4511.35
2173.37752	4492.25
2176.32311	4509.25
2179.26681	4501.65
2182.20863	4498.55
2185.14856	4507.65
2188.08661	4492.65
2191.02278	4488.65
2193.95707	4471.65
2196.88948	4470.65
2199.82001	4478.85
2202.74867	4470.55
2205.67545	4469.55
2208.60037	4456.25
2211.52341	4467.35
2214.44458	4444.75
2217.36388	4431.95
2220.28132	4433.45
2223.1969	4399.85
2226.11061	4377.35
2229.02246	4370.15
2231.93245	4372.85
2234.84058	4363.65
2237.74686	4363.15
2240.65128	4371.55
2243.55385	4348.25
2246.45456	4338.05
2249.35343	4338.95
2252.25044	4331.45
2255.14561	4327.35
2258.03893	4310.25
2260.93041	4316.05
2263.82004	4317.25
2266.70783	4301.85
2269.59378	4290.25
2272.4779	4283.05
2275.36017	4256.05
2278.24061	4240.95
2281.11922	4234.55
2283.996	4225.45
2286.87094	4218.95
2289.74405	4213.05
2292.61534	4212.65
2295.4848	4200.15
2298.35243	4200.75
2301.21824	4210.35
2304.08223	4171.45
2306.94439	4183.45
2309.80474	4188.95
2312.66327	4183.25
2315.51999	4197.85
2318.37489	4168.85
2321.22797	4158.85
2324.07925	4141.75
2326.92871	4133.55
2329.77637	4127.55
2332.62222	4120.45
2335.46626	4108.55
2338.3085	4104.25
2341.14893	4107.45
2343.98756	4105.45
2346.8244	4091.35
2349.65943	4090.55
2352.49267	4091.35
2355.32411	4105.85
2358.15376	4083.95
2360.98161	4081.05
2363.80768	4096.35
2366.63195	4087.75
2369.45444	4085.95
2372.27514	4083.05
2375.09405	4079.95
2377.91118	4069.95
2380.72652	4058.05
2383.54009	4042.55
2386.35187	4026.35
2389.16188	4025.55
2391.97011	4021.35
2394.77657	3999.85
2397.58125	3980.45
2400.38416	3976.45
2403.18529	3977.85
2405.98466	3975.75
2408.78226	3956.45
2411.57809	3946.65
2414.37216	3944.35
2417.16446	3923.75
2419.955	3939.85
2422.74378	3929.85
2425.5308	3940.55
2428.31606	3932.75
2431.09956	3936.45
2433.88131	3916.95
2436.6613	3913.85
2439.43954	3904.05
2442.21603	3915.35
2444.99077	3912.55
2447.76377	3905.45
2450.53501	3900.65
2453.30451	3877.05
2456.07226	3906.35
2458.83827	3879.05
2461.60254	3883.65
2464.36507	3871.25
2467.12586	3882.05
2469.88492	3865.15
2472.64224	3862.25
2475.39782	3867.15
2478.15167	3857.45
2480.90379	3866.35
2483.65417	3868.65
2486.40283	3862.65
2489.14976	3855.75
2491.89497	3874.05
2494.63845	3869.25
2497.3802	3842.15
2500.12024	3845.35
2502.85855	3826.05
2505.59514	3829.05
2508.33002	3824.55
2511.06318	3808.85
2513.79462	3800.05
2516.52435	3780.35
2519.25237	3770.15
2521.97867	3767.95
2524.70327	3770.05
2527.42616	3756.85
2530.14734	3753.15
2532.86681	3753.95
2535.58458	3759.65
2538.30065	3761.45
2541.01501	3756.25
2543.72768	3742.65
2546.43864	3730.15
2549.14791	3724.55
2551.85548	3720.65
2554.56136	3726.55
2557.26554	3716.45
2559.96803	3697.75
2562.66883	3693.45
2565.36794	3680.45
2568.06536	3667.35
2570.7611	3670.05
2573.45514	3670.35
2576.14751	3655.15
2578.83819	3636.35
2581.52719	3626.15
2584.21451	3618.25
2586.90015	3632.25
2589.58411	3610.65
2592.2664	3615.35
2594.94701	3604.35
2597.62594	3609.15
2600.30321	3602.95
2602.9788	3606.75
2605.65273	3574.25
2608.32498	3589.85
2610.99557	3587.45
2613.66449	3578.05
2616.33175	3576.25
2618.99734	3568.95
2621.66128	3570.55
2624.32355	3557.65
2626.98416	3548.95
2629.64311	3531.25
2632.30041	3524.55
2634.95605	3523.55
2637.61004	3507.35
2640.26238	3496.45
2642.91306	3499.45
2645.56209	3497.25
2648.20948	3498.15
2650.85521	3492.15
2653.4993	3477.15
2656.14175	3478.65
2658.78255	3500.15
2661.42171	3504.55
2664.05923	3485.85
2666.6951	3507.55
2669.32934	3496.45
2671.96194	3474.55
2674.59291	3485.05
2677.22224	3478.85
2679.84993	3484.15
2682.476	3480.75
2685.10043	3476.85
2687.72324	3472.45
2690.34441	3485.55
2692.96396	3472.65
2695.58188	3472.35
2698.19818	3461.25
2700.81285	3476.75
2703.4259	3461.85
2706.03733	3478.35
2708.64714	3470.05
2711.25533	3449.25
2713.86191	3456.55
2716.46687	3447.75
2719.07021	3446.05
2721.67194	3454.85
2724.27206	3461.05
2726.87057	3455.05
2729.46747	3452.75
2732.06276	3442.95
2734.65644	3438.35
2737.24852	3436.45
2739.83899	3436.65
2742.42786	3440.15
2745.01513	3418.45
2747.60079	3421.55
2750.18486	3417.95
2752.76733	3406.75
2755.3482	3400.35
2757.92747	3385.05
2760.50515	3372.35
2763.08123	3372.05
2765.65573	3363.95
2768.22863	3351.35
2770.79994	3347.45
2773.36967	3356.95
2775.9378	3349.35
2778.50435	3345.95
2781.06932	3356.85
2783.6327	3349.35
2786.1945	3333.75
2788.75471	3323.15
2791.31335	3330.65
2793.87041	3317.25
2796.42589	3314.75
2798.97979	3313.95
2801.53212	3302.45
2804.08288	3298.65
2806.63206	3293.45
2809.17967	3290.75
2811.72571	3252.35
2814.27018	3267.95
2816.81308	3266.45
2819.35442	3262.45
2821.89419	3259.05
2824.43239	3240.35
2826.96904	3228.55
2829.50412	3237.55
2832.03763	3209.55
2834.56959	3215.65
2837.1	3216.15
2839.62884	3209.15
2842.15613	3211.75
2844.68186	3196.65
2847.20604	3189.75
2849.72867	3181.95
2852.24974	3172.75
2854.76927	3178.25
2857.28724	3171.75
2859.80367	3167.65
2862.31855	3168.45
2864.83189	3181.95
2867.34368	3166.35
2869.85393	3166.65
2872.36264	3164.15
2874.8698	3161.85
2877.37543	3165.15
2879.87952	3142.05
2882.38207	3127.25
2884.88308	3140.65
2887.38256	3139.75
2889.88051	3124.85
2892.37692	3119.15
2894.8718	3111.75
2897.36515	3119.15
2899.85698	3101.75
2902.34727	3121.05
2904.83604	3110.55
2907.32328	3125.55
2909.809	3132.05
2912.29319	3141.05
2914.77587	3135.15
2917.25702	3135.95
2919.73665	3130.35
2922.21476	3138.55
2924.69136	3123.15
2927.16644	3110.05
2929.64	3099.85
2932.11205	3098.05
2934.58258	3093.45
2937.05161	3102.25
2939.51912	3086.25
2941.98513	3087.05
2944.44962	3061.15
2946.91261	3060.65
2949.37409	3083.45
2951.83407	3061.05
2954.29254	3065.65
2956.74951	3061.75
2959.20498	3051.45
2961.65895	3049.75
2964.11142	3057.35
2966.56239	3041.05
2969.01186	3043.15
2971.45984	3050.85
2973.90632	3030.85
2976.35131	3031.05
2978.7948	3037.25
2981.23681	3016.65
2983.67732	3022.75
2986.11635	3011.65
2988.55388	2998.25
2990.98993	2996.35
2993.4245	2978.55
2995.85758	2977.15
2998.28917	2990.35
3000.71928	2974.05
3003.14791	2963.55
3005.57506	2970.05
3008.00073	2946.95
3010.42493	2944.25
3012.84764	2938.35
3015.26888	2933.25
3017.68865	2912.45
3020.10694	2915.65
3022.52376	2911.95
3024.9391	2910.75
3027.35298	2888.55
3029.76539	2880.15
3032.17632	2889.15
3034.5858	2870.25
3036.9938	2854.15
3039.40034	2858.85
3041.80542	2852.45
3044.20903	2843.45
3046.61118	2841.35
3049.01187	2818.55
3051.4111	2823.35
3053.80888	2819.05
3056.20519	2812.65
3058.60005	2805.75
3060.99345	2798.45
3063.3854	2804.25
3065.7759	2778.35
3068.16494	2780.35
3070.55254	2757.05
3072.93868	2768.85
3075.32338	2753.45
3077.70662	2750.25
3080.08842	2749.15
3082.46878	2741.95
3084.84769	2729.35
3087.22515	2722.65
3089.60118	2726.45
3091.97576	2728.75
3094.3489	2716.35
3096.72061	2721.05
3099.09087	2711.65
3101.4597	2718.95
3103.82709	2710.15
3106.19305	2694.95
3108.55757	2691.95
3110.92066	2697.35
3113.28232	2682.75
3115.64255	2667.35
3118.00134	2666.35
3120.35871	2668.35
3122.71466	2660.55
3125.06917	2654.05
3127.42226	2651.65
3129.77393	2669.45
3132.12417	2637.95
3134.47299	2638.15
3136.82039	2637.15
3139.16636	2631.45
3141.51092	2633.55
3143.85406	2620.15
3146.19579	2624.65
3148.53609	2628.65
3150.87499	2628.45
3153.21246	2627.05
3155.54853	2629.25
3157.88318	2626.65
3160.21642	2613.65
3162.54826	2617.55
3164.87868	2623.45
3167.2077	2622.85
3169.5353	2595.75
3171.86151	2602.75
3174.18631	2597.85
3176.5097	2595.45
3178.83169	2587.55
3181.15228	2594.85
3183.47147	2586.85
3185.78926	2577.65
3188.10565	2560.05
3190.42065	2569.45
3192.73424	2552.05
3195.04645	2543.65
3197.35725	2549.75
3199.66667	2538.25
3201.97469	2549.45
3204.28132	2543.45
3206.58656	2553.55
3208.8904	2548.35
3211.19287	2545.55
3213.49394	2551.25
3215.79363	2535.95
3218.09193	2540.75
3220.38884	2546.65
3222.68438	2543.05
3224.97853	2530.25
3227.2713	2530.15
3229.56269	2533.45
3231.8527	2527.15
3234.14133	2505.25
3236.42858	2498.55
3238.71446	2495.05
3240.99896	2494.15
3243.28209	2491.25
3245.56384	2490.85
3247.84423	2486.05
3250.12324	2486.95
3252.40088	2492.45
3254.67715	2473.85
3256.95205	2462.65
3259.22558	2470.25
3261.49775	2463.25
3263.76855	2460.05
3266.03799	2460.45
3268.30606	2455.65
3270.57277	2450.45
3272.83812	2433.35
3275.10211	2435.45
3277.36474	2432.95
3279.62601	2420.75
3281.88593	2420.25
3284.14448	2409.05
3286.40168	2422.75
3288.65753	2418.45
3290.91202	2427.35
3293.16516	2422.55
3295.41695	2425.75
3297.66738	2391.95
3299.91647	2377.55
3302.16421	2369.35
3304.4106	2364.15
3306.65564	2344.55
3308.89933	2325.65
3311.14169	2312.35
3313.38269	2290.35
3315.62236	2277.25
3317.86068	2259.45
3320.09766	2246.25
3322.3333	2223.45
3324.5676	2212.65
3326.80056	2177.15
3329.03219	2156.75
3331.26248	0.15
3333.49143	1.45
3335.71905	0.95
