Data from AgNPs_UA_5uM_CRN_500uM_SU_RamanShift__275__12-15-13-195.txt Node

Date: Thu Aug 04 12:15:13 BST 2022
User: TCL
Spectrometer: QEP01345
Trigger mode: 4
Integration Time (sec): 1.000000E0
Scans to average: 10
Electric dark correction enabled: true
Nonlinearity correction enabled: false
Boxcar width: 0
XAxis mode: Raman Shifts
Number of Pixels in Spectrum: 1044
>>>>>Begin Spectral Data<<<<<
46.04893	-0.15
50.45542	-0.35
54.85868	0.35
59.25871	-1.05
63.6555	-59.15
68.04907	-41.65
72.43941	-72.25
76.82654	-57.15
81.21044	-57.55
85.59113	-49.75
89.96862	-76.25
94.34289	-56.65
98.71396	-77.65
103.08183	-58.15
107.4465	-49.75
111.80798	-57.95
116.16626	-46.95
120.52136	-74.25
124.87327	-49.15
129.222	-64.65
133.56755	-49.35
137.90993	-63.15
142.24913	-52.65
146.58517	-43.75
150.91804	-42.05
155.24774	-31.05
159.57429	-9.45
163.89768	-5.05
168.21792	36.35
172.53501	56.05
176.84895	138.75
181.15975	269.95
185.46741	410.25
189.77193	596.55
194.07331	886.55
198.37157	1164.45
202.6667	1450.55
206.9587	1764.25
211.24758	2076.95
215.53334	2402.75
219.81599	2749.35
224.09553	3158.55
228.37195	3597.05
232.64527	4051.25
236.91549	4514.65
241.18261	4864.15
245.44663	5143.55
249.70755	5286.15
253.96539	5447.25
258.22014	5532.45
262.4718	5603.35
266.72039	5635.25
270.96589	5607.15
275.20832	5528.35
279.44768	5410.95
283.68397	5303.75
287.91719	5262.55
292.14735	5295.75
296.37445	5465.05
300.59849	5757.55
304.81948	6125.35
309.03742	6496.85
313.25231	6718.85
317.46415	6702.05
321.67296	6303.55
325.87872	5890.55
330.08145	5684.25
334.28114	5640.85
338.47781	5705.25
342.67145	5834.15
346.86207	6057.55
351.04966	6419.85
355.23424	6826.65
359.4158	7068.25
363.59435	7115.25
367.76989	7064.45
371.94243	6915.55
376.11196	6793.45
380.27849	6722.65
384.44203	6632.45
388.60257	6624.15
392.76012	6604.35
396.91468	6752.95
401.06626	6898.25
405.21485	6908.65
409.36047	6755.55
413.50311	6439.45
417.64277	6132.75
421.77947	5913.55
425.9132	5868.65
430.04396	5823.95
434.17176	5876.65
438.2966	5967.95
442.41849	6037.95
446.53742	6160.15
450.6534	6271.95
454.76644	6338.25
458.87653	6341.15
462.98368	6297.35
467.08789	6218.35
471.18916	6132.15
475.2875	6010.85
479.38291	5894.85
483.4754	5804.95
487.56496	5763.15
491.6516	5720.25
495.73531	5753.25
499.81612	5778.65
503.89401	5869.85
507.96899	5920.45
512.04106	5985.35
516.11023	6095.35
520.1765	6178.95
524.23987	6205.45
528.30034	6190.25
532.35792	6115.85
536.41261	6073.65
540.46441	5969.35
544.51333	5911.05
548.55936	5953.55
552.60252	6083.25
556.64279	6199.85
560.6802	6311.25
564.71473	6451.75
568.7464	6638.65
572.7752	6621.05
576.80114	6310.15
580.82422	6085.15
584.84444	5988.85
588.86181	5970.65
592.87633	5994.15
596.888	6143.45
600.89682	6493.05
604.9028	7468.95
608.90594	9576.45
612.90624	11976.35
616.90371	11086.85
620.89834	7965.95
624.89015	6586.55
628.87913	6370.25
632.86528	6526.55
636.84862	6692.15
640.82913	6570.55
644.80683	6223.65
648.78172	6026.55
652.75379	6063.75
656.72306	6296.65
660.68952	6529.95
664.65319	6438.35
668.61405	6190.55
672.57211	6117.45
676.52738	6127.05
680.47986	6041.75
684.42955	5940.55
688.37646	5873.85
692.32058	5893.35
696.26192	5944.45
700.20048	6055.05
704.13626	6099.15
708.06928	6040.65
711.99952	6024.95
715.927	5993.75
719.85171	6044.95
723.77365	6075.85
727.69284	6048.25
731.60928	6041.45
735.52295	6002.15
739.43388	6066.55
743.34206	6067.95
747.24749	6079.35
751.15017	6127.65
755.05012	6185.35
758.94733	6584.05
762.8418	7457.85
766.73354	8830.85
770.62254	9884.05
774.50882	9965.15
778.39237	9394.35
782.27321	8427.05
786.15132	7357.25
790.02671	6671.45
793.89938	6282.55
797.76935	6141.15
801.6366	6057.25
805.50115	6008.35
809.36299	6002.25
813.22213	5984.25
817.07857	5992.65
820.93231	5998.25
824.78336	6014.05
828.63172	6020.55
832.47738	6040.65
836.32036	6016.35
840.16066	5990.35
843.99827	5967.85
847.8332	5969.45
851.66546	6005.55
855.49504	5973.85
859.32195	6011.45
863.1462	6002.65
866.96777	6003.95
870.78668	5972.25
874.60293	6008.15
878.41652	6020.65
882.22745	6125.35
886.03573	6133.25
889.84136	6123.75
893.64433	6126.05
897.44466	6119.85
901.24235	6116.45
905.0374	6116.05
908.8298	6046.35
912.61957	6020.85
916.40671	5964.85
920.19121	6039.55
923.97308	6125.05
927.75233	6197.45
931.52895	6251.15
935.30295	6205.55
939.07433	6037.75
942.84309	5918.65
946.60924	5911.25
950.37278	5862.25
954.13371	5861.75
957.89203	5855.65
961.64774	5868.15
965.40086	5857.35
969.15137	5819.95
972.89929	5868.05
976.64461	5862.55
980.38733	5875.55
984.12747	5871.25
987.86502	5890.55
991.59999	5917.95
995.33237	5964.75
999.06217	6041.75
1002.78939	6115.55
1006.51404	6249.75
1010.23611	6352.75
1013.95561	6416.75
1017.67255	6407.65
1021.38692	6371.85
1025.09872	6326.65
1028.80796	6233.35
1032.51465	6234.25
1036.21877	6209.05
1039.92035	6284.35
1043.61937	6298.15
1047.31584	6370.95
1051.00976	6408.35
1054.70114	6411.85
1058.38998	6406.15
1062.07627	6396.65
1065.76003	6431.45
1069.44126	6503.65
1073.11995	6590.45
1076.79611	6720.65
1080.46974	6895.15
1084.14085	7056.75
1087.80943	7175.35
1091.47549	7214.35
1095.13903	7123.45
1098.80005	6995.45
1102.45857	6914.05
1106.11456	6872.65
1109.76805	6829.05
1113.41903	6944.25
1117.06751	7121.75
1120.71348	7372.85
1124.35696	7782.15
1127.99793	8073.15
1131.63641	7895.25
1135.2724	7491.15
1138.90589	7176.15
1142.5369	6976.65
1146.16542	6861.45
1149.79145	6753.45
1153.415	6705.65
1157.03607	6704.05
1160.65467	6830.25
1164.27079	7047.35
1167.88443	7303.05
1171.49561	7751.85
1175.10432	8369.75
1178.71056	9320.85
1182.31434	10145.85
1185.91565	10396.25
1189.51451	10269.95
1193.11091	10015.25
1196.70485	9728.05
1200.29634	9488.95
1203.88538	9173.65
1207.47197	8705.65
1211.05612	8197.05
1214.63782	7767.45
1218.21708	7509.95
1221.79391	7372.15
1225.36829	7289.25
1228.94024	7285.55
1232.50976	7312.05
1236.07685	7320.55
1239.6415	7358.45
1243.20374	7372.65
1246.76355	7426.25
1250.32093	7485.45
1253.8759	7566.35
1257.42845	7735.35
1260.97859	7934.35
1264.52631	8175.95
1268.07163	8345.75
1271.61453	8485.75
1275.15503	8549.55
1278.69312	8530.15
1282.22882	8593.05
1285.76211	8813.55
1289.29301	9086.75
1292.82151	9337.85
1296.34761	9556.55
1299.87133	9965.15
1303.39266	10695.95
1306.9116	11855.75
1310.42815	13115.75
1313.94233	13549.45
1317.45412	12766.85
1320.96354	11635.45
1324.47058	10565.95
1327.97525	9783.75
1331.47754	9366.65
1334.97747	9247.25
1338.47502	9371.25
1341.97022	9752.25
1345.46305	10499.45
1348.95352	11641.35
1352.44163	13008.95
1355.92738	14414.35
1359.41078	16148.85
1362.89183	17725.75
1366.37053	17104.45
1369.84688	14206.25
1373.32088	11386.55
1376.79254	9870.55
1380.26186	9166.05
1383.72883	8728.55
1387.19347	8313.85
1390.65578	7968.15
1394.11575	7686.75
1397.57339	7532.45
1401.0287	7403.45
1404.48168	7359.95
1407.93234	7379.35
1411.38068	7411.35
1414.82669	7474.15
1418.27039	7546.35
1421.71177	7557.15
1425.15083	7442.55
1428.58758	7358.75
1432.02203	7376.55
1435.45416	7461.75
1438.88399	7456.25
1442.31151	7444.35
1445.73673	7514.05
1449.15965	7563.35
1452.58027	7581.75
1455.9986	7573.15
1459.41463	7594.95
1462.82837	7697.85
1466.23982	7876.65
1469.64898	8119.95
1473.05586	8260.35
1476.46045	8364.35
1479.86276	8432.45
1483.26279	8547.45
1486.66054	8768.05
1490.05602	9053.75
1493.44922	9651.35
1496.84016	10539.55
1500.22882	11982.35
1503.61521	13777.85
1506.99934	15646.85
1510.38121	16896.25
1513.76081	16713.85
1517.13816	15063.25
1520.51324	12895.15
1523.88607	11086.45
1527.25665	10093.65
1530.62498	9577.35
1533.99105	9385.35
1537.35488	9240.45
1540.71647	9155.95
1544.07581	8998.05
1547.4329	8847.45
1550.78776	8730.15
1554.14038	8618.05
1557.49077	8593.25
1560.83892	8704.25
1564.18484	8934.25
1567.52853	9293.55
1570.86999	9633.05
1574.20922	9796.85
1577.54624	9654.65
1580.88103	9133.55
1584.2136	8400.65
1587.54395	8013.35
1590.87208	7922.75
1594.19801	8071.25
1597.52172	8466.55
1600.84321	8602.65
1604.16251	8454.95
1607.47959	8264.15
1610.79447	8052.15
1614.10715	7767.55
1617.41763	7470.35
1620.7259	7185.05
1624.03199	7023.15
1627.33587	6968.35
1630.63757	7025.15
1633.93707	7248.35
1637.23439	7661.95
1640.52951	8378.55
1643.82246	9373.95
1647.11321	10597.75
1650.40179	11321.05
1653.68819	11023.35
1656.97241	9727.75
1660.25446	8296.15
1663.53433	7274.95
1666.81203	6624.05
1670.08756	6287.95
1673.36092	6098.15
1676.63211	5954.95
1679.90115	5863.25
1683.16801	5761.55
1686.43272	5695.75
1689.69527	5655.65
1692.95567	5593.45
1696.2139	5558.35
1699.46999	5500.05
1702.72392	5531.75
1705.97571	5521.85
1709.22535	5505.35
1712.47284	5539.05
1715.71819	5552.45
1718.96139	5551.45
1722.20246	5529.65
1725.44139	5476.75
1728.67818	5461.25
1731.91284	5425.15
1735.14537	5386.65
1738.37576	5354.35
1741.60403	5343.35
1744.83017	5299.55
1748.05418	5292.35
1751.27607	5307.95
1754.49584	5260.65
1757.71349	5229.95
1760.92903	5248.05
1764.14244	5190.35
1767.35375	5206.95
1770.56294	5203.25
1773.77002	5160.65
1776.97499	5175.25
1780.17785	5149.65
1783.37861	5141.35
1786.57727	5153.05
1789.77382	5084.95
1792.96828	5115.55
1796.16064	5120.45
1799.3509	5091.75
1802.53907	5119.25
1805.72514	5077.55
1808.90913	5059.45
1812.09102	5057.05
1815.27083	5038.35
1818.44856	5035.45
1821.6242	5013.55
1824.79776	5012.85
1827.96924	4994.45
1831.13864	4970.55
1834.30597	4985.65
1837.47122	4955.25
1840.6344	4952.65
1843.7955	4931.15
1846.95454	4923.35
1850.11151	4955.15
1853.26642	4911.35
1856.41926	4921.05
1859.57004	4914.85
1862.71876	4900.15
1865.86542	4901.85
1869.01003	4911.45
1872.15258	4862.65
1875.29308	4897.85
1878.43152	4891.25
1881.56792	4874.55
1884.70227	4850.05
1887.83457	4865.95
1890.96482	4836.35
1894.09304	4822.05
1897.21921	4831.35
1900.34335	4834.75
1903.46544	4802.75
1906.58551	4815.15
1909.70353	4805.55
1912.81953	4808.35
1915.93349	4783.55
1919.04543	4788.45
1922.15534	4765.05
1925.26322	4769.35
1928.36908	4746.25
1931.47292	4745.25
1934.57473	4753.15
1937.67453	4711.05
1940.77232	4700.75
1943.86808	4675.85
1946.96184	4686.85
1950.05358	4646.35
1953.14331	4647.95
1956.23103	4651.25
1959.31675	4607.35
1962.40046	4569.85
1965.48217	4588.95
1968.56188	4573.65
1971.63959	4573.55
1974.7153	4572.25
1977.78901	4556.15
1980.86073	4528.65
1983.93046	4504.15
1986.99819	4423.05
1990.06394	4437.35
1993.1277	4463.65
1996.18947	4431.15
1999.24925	4402.85
2002.30706	4398.75
2005.36288	4405.35
2008.41672	4371.15
2011.46859	4339.75
2014.51848	4339.45
2017.56639	4325.95
2020.61233	4312.15
2023.6563	4301.35
2026.6983	4260.65
2029.73833	4266.15
2032.7764	4280.45
2035.8125	4238.75
2038.84664	4234.05
2041.87881	4213.35
2044.90903	4222.95
2047.93729	4220.25
2050.96359	4186.95
2053.98794	4199.85
2057.01034	4197.75
2060.03078	4189.55
2063.04927	4171.85
2066.06582	4183.75
2069.08042	4165.75
2072.09307	4161.35
2075.10378	4161.45
2078.11255	4143.85
2081.11938	4143.45
2084.12426	4136.95
2087.12722	4136.25
2090.12824	4145.45
2093.12732	4130.15
2096.12447	4148.45
2099.11969	4134.95
2102.11299	4122.05
2105.10435	4155.55
2108.09379	4148.55
2111.08131	4125.85
2114.0669	4133.95
2117.05057	4125.65
2120.03233	4115.95
2123.01216	4155.55
2125.99008	4147.95
2128.96609	4150.05
2131.94018	4147.85
2134.91236	4151.95
2137.88263	4148.35
2140.851	4148.85
2143.81746	4168.35
2146.78201	4149.15
2149.74466	4134.25
2152.7054	4147.95
2155.66425	4137.75
2158.6212	4135.65
2161.57625	4100.55
2164.52941	4081.75
2167.48067	4101.15
2170.43004	4100.25
2173.37752	4105.05
2176.32311	4107.55
2179.26681	4110.45
2182.20863	4119.35
2185.14856	4111.95
2188.08661	4113.15
2191.02278	4105.35
2193.95707	4085.15
2196.88948	4067.65
2199.82001	4082.95
2202.74867	4071.75
2205.67545	4051.15
2208.60037	4081.95
2211.52341	4066.05
2214.44458	4054.95
2217.36388	4033.85
2220.28132	4028.05
2223.1969	4007.55
2226.11061	4007.85
2229.02246	4005.45
2231.93245	3985.35
2234.84058	3984.35
2237.74686	3965.15
2240.65128	3945.85
2243.55385	3974.35
2246.45456	3929.55
2249.35343	3958.85
2252.25044	3949.35
2255.14561	3942.25
2258.03893	3935.35
2260.93041	3919.65
2263.82004	3918.85
2266.70783	3904.35
2269.59378	3904.15
2272.4779	3880.75
2275.36017	3887.65
2278.24061	3876.15
2281.11922	3841.55
2283.996	3856.35
2286.87094	3831.65
2289.74405	3842.15
2292.61534	3825.35
2295.4848	3820.95
2298.35243	3808.15
2301.21824	3809.75
2304.08223	3811.25
2306.94439	3816.75
2309.80474	3802.45
2312.66327	3802.25
2315.51999	3781.55
2318.37489	3783.35
2321.22797	3752.45
2324.07925	3758.95
2326.92871	3739.55
2329.77637	3743.35
2332.62222	3734.55
2335.46626	3712.75
2338.3085	3720.95
2341.14893	3727.65
2343.98756	3738.55
2346.8244	3706.85
2349.65943	3687.85
2352.49267	3714.45
2355.32411	3706.15
2358.15376	3704.95
2360.98161	3709.25
2363.80768	3689.05
2366.63195	3704.05
2369.45444	3710.85
2372.27514	3703.15
2375.09405	3698.55
2377.91118	3660.55
2380.72652	3676.65
2383.54009	3686.65
2386.35187	3670.15
2389.16188	3641.75
2391.97011	3633.25
2394.77657	3611.55
2397.58125	3619.95
2400.38416	3612.95
2403.18529	3590.15
2405.98466	3590.45
2408.78226	3590.35
2411.57809	3583.45
2414.37216	3555.65
2417.16446	3562.45
2419.955	3537.95
2422.74378	3558.05
2425.5308	3541.95
2428.31606	3545.55
2431.09956	3550.45
2433.88131	3506.15
2436.6613	3542.05
2439.43954	3531.35
2442.21603	3532.85
2444.99077	3518.45
2447.76377	3531.85
2450.53501	3505.45
2453.30451	3510.25
2456.07226	3501.45
2458.83827	3487.25
2461.60254	3465.15
2464.36507	3483.15
2467.12586	3473.55
2469.88492	3474.35
2472.64224	3481.55
2475.39782	3456.75
2478.15167	3483.05
2480.90379	3470.15
2483.65417	3475.35
2486.40283	3477.25
2489.14976	3495.65
2491.89497	3481.05
2494.63845	3477.05
2497.3802	3465.05
2500.12024	3446.25
2502.85855	3464.05
2505.59514	3455.65
2508.33002	3433.35
2511.06318	3419.65
2513.79462	3411.25
2516.52435	3395.75
2519.25237	3376.45
2521.97867	3362.55
2524.70327	3369.95
2527.42616	3387.35
2530.14734	3382.35
2532.86681	3344.85
2535.58458	3358.75
2538.30065	3343.15
2541.01501	3362.95
2543.72768	3334.65
2546.43864	3340.45
2549.14791	3318.15
2551.85548	3331.15
2554.56136	3312.65
2557.26554	3325.05
2559.96803	3304.35
2562.66883	3297.95
2565.36794	3282.25
2568.06536	3248.75
2570.7611	3290.55
2573.45514	3265.55
2576.14751	3256.35
2578.83819	3247.65
2581.52719	3235.95
2584.21451	3240.65
2586.90015	3227.45
2589.58411	3204.45
2592.2664	3215.05
2594.94701	3220.75
2597.62594	3211.65
2600.30321	3148.05
2602.9788	3157.75
2605.65273	3158.05
2608.32498	3163.55
2610.99557	3184.35
2613.66449	3149.75
2616.33175	3169.05
2618.99734	3166.55
2621.66128	3156.85
2624.32355	3137.45
2626.98416	3132.15
2629.64311	3113.15
2632.30041	3111.75
2634.95605	3113.05
2637.61004	3095.45
2640.26238	3070.95
2642.91306	3085.75
2645.56209	3089.55
2648.20948	3089.75
2650.85521	3079.35
2653.4993	3079.15
2656.14175	3084.05
2658.78255	3063.15
2661.42171	3038.75
2664.05923	3086.25
2666.6951	3089.25
2669.32934	3090.55
2671.96194	3096.45
2674.59291	3080.95
2677.22224	3100.25
2679.84993	3064.65
2682.476	3056.85
2685.10043	3059.75
2687.72324	3050.85
2690.34441	3062.65
2692.96396	3043.35
2695.58188	3071.75
2698.19818	3062.65
2700.81285	3058.55
2703.4259	3034.15
2706.03733	3021.15
2708.64714	3022.15
2711.25533	3047.45
2713.86191	3058.25
2716.46687	3041.85
2719.07021	3035.15
2721.67194	3038.75
2724.27206	3053.35
2726.87057	3033.25
2729.46747	3023.85
2732.06276	3026.65
2734.65644	3015.55
2737.24852	3021.55
2739.83899	3000.35
2742.42786	3007.35
2745.01513	3010.15
2747.60079	2991.95
2750.18486	2964.65
2752.76733	2989.75
2755.3482	2983.25
2757.92747	2986.55
2760.50515	2960.15
2763.08123	2952.55
2765.65573	2957.25
2768.22863	2948.55
2770.79994	2935.85
2773.36967	2939.55
2775.9378	2920.25
2778.50435	2914.05
2781.06932	2914.25
2783.6327	2904.55
2786.1945	2922.75
2788.75471	2913.65
2791.31335	2900.85
2793.87041	2911.35
2796.42589	2886.45
2798.97979	2874.45
2801.53212	2872.05
2804.08288	2887.05
2806.63206	2863.95
2809.17967	2858.15
2811.72571	2862.35
2814.27018	2865.15
2816.81308	2842.25
2819.35442	2817.85
2821.89419	2833.75
2824.43239	2820.35
2826.96904	2840.15
2829.50412	2816.95
2832.03763	2831.65
2834.56959	2824.25
2837.1	2819.65
2839.62884	2818.35
2842.15613	2794.15
2844.68186	2816.85
2847.20604	2792.15
2849.72867	2790.25
2852.24974	2794.65
2854.76927	2766.75
2857.28724	2739.05
2859.80367	2773.55
2862.31855	2787.35
2864.83189	2769.55
2867.34368	2771.45
2869.85393	2791.85
2872.36264	2768.15
2874.8698	2758.35
2877.37543	2765.85
2879.87952	2756.75
2882.38207	2744.75
2884.88308	2744.85
2887.38256	2742.15
2889.88051	2740.15
2892.37692	2735.65
2894.8718	2712.45
2897.36515	2736.75
2899.85698	2737.65
2902.34727	2727.05
2904.83604	2736.35
2907.32328	2748.85
2909.809	2752.05
2912.29319	2752.25
2914.77587	2750.75
2917.25702	2768.65
2919.73665	2764.55
2922.21476	2784.15
2924.69136	2766.25
2927.16644	2747.55
2929.64	2745.85
2932.11205	2740.55
2934.58258	2734.05
2937.05161	2728.15
2939.51912	2725.05
2941.98513	2736.85
2944.44962	2711.25
2946.91261	2693.15
2949.37409	2702.45
2951.83407	2689.15
2954.29254	2698.35
2956.74951	2681.95
2959.20498	2676.45
2961.65895	2663.15
2964.11142	2653.85
2966.56239	2659.65
2969.01186	2658.05
2971.45984	2660.35
2973.90632	2645.15
2976.35131	2662.65
2978.7948	2648.95
2981.23681	2645.75
2983.67732	2651.65
2986.11635	2646.05
2988.55388	2604.15
2990.98993	2604.25
2993.4245	2603.65
2995.85758	2584.05
2998.28917	2587.45
3000.71928	2573.35
3003.14791	2572.55
3005.57506	2566.45
3008.00073	2547.15
3010.42493	2494.95
3012.84764	2535.55
3015.26888	2542.05
3017.68865	2539.75
3020.10694	2491.05
3022.52376	2496.95
3024.9391	2510.05
3027.35298	2502.85
3029.76539	2482.05
3032.17632	2498.65
3034.5858	2470.85
3036.9938	2477.55
3039.40034	2472.45
3041.80542	2467.25
3044.20903	2453.15
3046.61118	2446.85
3049.01187	2460.85
3051.4111	2438.55
3053.80888	2428.75
3056.20519	2424.45
3058.60005	2413.35
3060.99345	2440.65
3063.3854	2402.25
3065.7759	2383.45
3068.16494	2382.25
3070.55254	2378.85
3072.93868	2393.55
3075.32338	2372.75
3077.70662	2369.05
3080.08842	2358.75
3082.46878	2342.65
3084.84769	2371.85
3087.22515	2348.95
3089.60118	2355.35
3091.97576	2343.85
3094.3489	2348.95
3096.72061	2341.95
3099.09087	2323.05
3101.4597	2329.15
3103.82709	2328.05
3106.19305	2312.95
3108.55757	2336.15
3110.92066	2302.15
3113.28232	2311.35
3115.64255	2321.05
3118.00134	2311.45
3120.35871	2302.35
3122.71466	2275.55
3125.06917	2285.15
3127.42226	2277.15
3129.77393	2249.35
3132.12417	2261.45
3134.47299	2266.05
3136.82039	2251.65
3139.16636	2228.85
3141.51092	2260.25
3143.85406	2258.85
3146.19579	2231.25
3148.53609	2234.95
3150.87499	2236.55
3153.21246	2232.75
3155.54853	2242.85
3157.88318	2242.45
3160.21642	2251.15
3162.54826	2240.25
3164.87868	2242.45
3167.2077	2194.85
3169.5353	2224.15
3171.86151	2234.95
3174.18631	2224.75
3176.5097	2208.85
3178.83169	2209.55
3181.15228	2209.45
3183.47147	2184.75
3185.78926	2171.65
3188.10565	2182.55
3190.42065	2166.05
3192.73424	2168.75
3195.04645	2165.75
3197.35725	2150.85
3199.66667	2162.85
3201.97469	2152.05
3204.28132	2137.55
3206.58656	2158.05
3208.8904	2166.35
3211.19287	2161.65
3213.49394	2142.65
3215.79363	2141.75
3218.09193	2156.85
3220.38884	2157.75
3222.68438	2152.25
3224.97853	2125.15
3227.2713	2149.35
3229.56269	2133.05
3231.8527	2136.05
3234.14133	2122.95
3236.42858	2114.15
3238.71446	2089.05
3240.99896	2109.55
3243.28209	2098.35
3245.56384	2101.05
3247.84423	2085.75
3250.12324	2093.95
3252.40088	2091.15
3254.67715	2069.75
3256.95205	2067.15
3259.22558	2076.15
3261.49775	2082.85
3263.76855	2079.25
3266.03799	2071.15
3268.30606	2071.95
3270.57277	2068.45
3272.83812	2054.05
3275.10211	2047.65
3277.36474	2062.25
3279.62601	2059.95
3281.88593	2033.45
3284.14448	2017.55
3286.40168	2036.85
3288.65753	2025.05
3290.91202	2026.15
3293.16516	2004.65
3295.41695	2032.85
3297.66738	2027.35
3299.91647	2011.05
3302.16421	2000.45
3304.4106	1961.45
3306.65564	1977.85
3308.89933	1953.35
3311.14169	1949.75
3313.38269	1930.25
3315.62236	1908.95
3317.86068	1900.05
3320.09766	1897.95
3322.3333	1858.25
3324.5676	1858.65
3326.80056	1832.25
3329.03219	1823.65
3331.26248	0.45
3333.49143	-0.35
3335.71905	0.95
