Data from AgNPs_UA_5uM_CRN_500uM_SU_RamanShift__260__12-12-43-192.txt Node

Date: Thu Aug 04 12:12:43 BST 2022
User: TCL
Spectrometer: QEP01345
Trigger mode: 4
Integration Time (sec): 1.000000E0
Scans to average: 10
Electric dark correction enabled: true
Nonlinearity correction enabled: false
Boxcar width: 0
XAxis mode: Raman Shifts
Number of Pixels in Spectrum: 1044
>>>>>Begin Spectral Data<<<<<
46.04893	-0.45
50.45542	-0.55
54.85868	0.05
59.25871	-0.45
63.6555	-57.55
68.04907	-38.25
72.43941	-72.05
76.82654	-55.25
81.21044	-56.35
85.59113	-49.15
89.96862	-73.55
94.34289	-55.85
98.71396	-77.05
103.08183	-58.75
107.4465	-50.65
111.80798	-55.35
116.16626	-44.15
120.52136	-74.15
124.87327	-51.25
129.222	-62.55
133.56755	-49.05
137.90993	-64.55
142.24913	-51.95
146.58517	-45.55
150.91804	-40.45
155.24774	-30.65
159.57429	-10.75
163.89768	-7.45
168.21792	33.45
172.53501	52.45
176.84895	136.15
181.15975	261.65
185.46741	405.05
189.77193	578.55
194.07331	857.25
198.37157	1134.55
202.6667	1412.55
206.9587	1722.35
211.24758	2032.95
215.53334	2341.85
219.81599	2669.35
224.09553	3077.35
228.37195	3504.35
232.64527	3950.55
236.91549	4410.75
241.18261	4751.95
245.44663	5015.15
249.70755	5189.35
253.96539	5288.15
258.22014	5399.15
262.4718	5463.05
266.72039	5517.85
270.96589	5493.65
275.20832	5386.45
279.44768	5298.75
283.68397	5179.55
287.91719	5137.45
292.14735	5183.55
296.37445	5344.85
300.59849	5609.45
304.81948	5966.65
309.03742	6334.85
313.25231	6565.75
317.46415	6524.15
321.67296	6142.65
325.87872	5741.35
330.08145	5560.85
334.28114	5504.85
338.47781	5572.25
342.67145	5705.75
346.86207	5942.75
351.04966	6293.15
355.23424	6660.15
359.4158	6921.25
363.59435	6961.35
367.76989	6886.65
371.94243	6751.75
376.11196	6637.05
380.27849	6553.35
384.44203	6486.25
388.60257	6470.85
392.76012	6468.85
396.91468	6599.55
401.06626	6738.35
405.21485	6774.85
409.36047	6620.65
413.50311	6285.15
417.64277	5984.45
421.77947	5788.25
425.9132	5736.45
430.04396	5710.95
434.17176	5751.15
438.2966	5835.45
442.41849	5941.85
446.53742	6027.15
450.6534	6137.05
454.76644	6185.25
458.87653	6212.25
462.98368	6174.85
467.08789	6094.85
471.18916	6011.95
475.2875	5898.95
479.38291	5805.75
483.4754	5699.85
487.56496	5659.45
491.6516	5631.65
495.73531	5628.75
499.81612	5659.15
503.89401	5742.95
507.96899	5792.45
512.04106	5870.45
516.11023	5993.25
520.1765	6049.55
524.23987	6079.05
528.30034	6062.45
532.35792	5987.35
536.41261	5951.05
540.46441	5842.45
544.51333	5792.65
548.55936	5834.95
552.60252	5960.55
556.64279	6076.35
560.6802	6214.75
564.71473	6330.85
568.7464	6506.75
572.7752	6476.65
576.80114	6194.75
580.82422	5971.85
584.84444	5860.85
588.86181	5859.25
592.87633	5872.15
596.888	6000.65
600.89682	6348.35
604.9028	7300.75
608.90594	9376.05
612.90624	11721.25
616.90371	10852.25
620.89834	7790.85
624.89015	6486.55
628.87913	6266.75
632.86528	6414.75
636.84862	6584.65
640.82913	6454.85
644.80683	6105.65
648.78172	5900.15
652.75379	5932.75
656.72306	6180.65
660.68952	6408.25
664.65319	6326.05
668.61405	6075.85
672.57211	6027.25
676.52738	6016.95
680.47986	5922.95
684.42955	5828.05
688.37646	5780.75
692.32058	5780.65
696.26192	5869.25
700.20048	5952.65
704.13626	5987.35
708.06928	5921.75
711.99952	5902.55
715.927	5871.05
719.85171	5926.95
723.77365	5978.15
727.69284	5941.15
731.60928	5917.05
735.52295	5908.35
739.43388	5944.25
743.34206	5966.35
747.24749	5991.45
751.15017	5995.65
755.05012	6074.45
758.94733	6465.55
762.8418	7312.75
766.73354	8663.85
770.62254	9654.15
774.50882	9751.85
778.39237	9210.55
782.27321	8267.65
786.15132	7230.05
790.02671	6542.25
793.89938	6167.65
797.76935	6045.65
801.6366	5971.75
805.50115	5914.65
809.36299	5885.05
813.22213	5875.95
817.07857	5883.45
820.93231	5887.45
824.78336	5903.35
828.63172	5923.85
832.47738	5921.15
836.32036	5909.25
840.16066	5891.95
843.99827	5876.55
847.8332	5868.15
851.66546	5889.45
855.49504	5883.35
859.32195	5908.65
863.1462	5884.95
866.96777	5906.55
870.78668	5878.45
874.60293	5919.85
878.41652	5934.95
882.22745	5998.55
886.03573	6040.65
889.84136	6017.55
893.64433	6037.55
897.44466	6004.75
901.24235	6005.85
905.0374	6007.35
908.8298	5951.75
912.61957	5919.25
916.40671	5869.35
920.19121	5935.95
923.97308	6030.45
927.75233	6082.35
931.52895	6131.85
935.30295	6087.95
939.07433	5955.75
942.84309	5847.85
946.60924	5810.45
950.37278	5768.65
954.13371	5778.75
957.89203	5760.55
961.64774	5773.35
965.40086	5759.35
969.15137	5720.35
972.89929	5780.75
976.64461	5766.95
980.38733	5786.35
984.12747	5778.75
987.86502	5789.25
991.59999	5821.15
995.33237	5881.35
999.06217	5922.85
1002.78939	6031.65
1006.51404	6155.35
1010.23611	6271.85
1013.95561	6292.65
1017.67255	6311.55
1021.38692	6289.25
1025.09872	6221.75
1028.80796	6140.15
1032.51465	6133.85
1036.21877	6126.75
1039.92035	6173.35
1043.61937	6198.95
1047.31584	6269.45
1051.00976	6302.05
1054.70114	6308.95
1058.38998	6296.65
1062.07627	6297.35
1065.76003	6321.85
1069.44126	6415.15
1073.11995	6500.25
1076.79611	6617.35
1080.46974	6770.15
1084.14085	6923.35
1087.80943	7073.05
1091.47549	7081.75
1095.13903	7014.55
1098.80005	6875.35
1102.45857	6785.65
1106.11456	6758.35
1109.76805	6703.15
1113.41903	6802.05
1117.06751	7015.25
1120.71348	7280.55
1124.35696	7629.75
1127.99793	7924.25
1131.63641	7753.75
1135.2724	7360.35
1138.90589	7065.15
1142.5369	6846.45
1146.16542	6735.95
1149.79145	6624.75
1153.415	6587.65
1157.03607	6588.75
1160.65467	6688.05
1164.27079	6911.15
1167.88443	7171.95
1171.49561	7599.85
1175.10432	8230.15
1178.71056	9154.15
1182.31434	9942.35
1185.91565	10201.15
1189.51451	10033.95
1193.11091	9782.35
1196.70485	9522.95
1200.29634	9284.55
1203.88538	8999.05
1207.47197	8543.25
1211.05612	8055.55
1214.63782	7624.95
1218.21708	7394.05
1221.79391	7232.35
1225.36829	7144.45
1228.94024	7173.35
1232.50976	7172.35
1236.07685	7217.35
1239.6415	7244.85
1243.20374	7245.15
1246.76355	7284.65
1250.32093	7365.95
1253.8759	7428.15
1257.42845	7605.55
1260.97859	7811.55
1264.52631	8037.45
1268.07163	8185.35
1271.61453	8334.95
1275.15503	8357.85
1278.69312	8368.05
1282.22882	8451.65
1285.76211	8634.45
1289.29301	8883.75
1292.82151	9125.35
1296.34761	9362.85
1299.87133	9762.45
1303.39266	10484.65
1306.9116	11622.65
1310.42815	12857.85
1313.94233	13293.25
1317.45412	12523.95
1320.96354	11388.45
1324.47058	10370.95
1327.97525	9585.25
1331.47754	9190.15
1334.97747	9067.55
1338.47502	9182.65
1341.97022	9564.35
1345.46305	10316.05
1348.95352	11398.25
1352.44163	12710.55
1355.92738	14119.95
1359.41078	15803.45
1362.89183	17311.35
1366.37053	16717.95
1369.84688	13847.65
1373.32088	11129.45
1376.79254	9685.45
1380.26186	8985.55
1383.72883	8569.25
1387.19347	8172.45
1390.65578	7812.15
1394.11575	7573.45
1397.57339	7409.75
1401.0287	7278.35
1404.48168	7222.25
1407.93234	7253.35
1411.38068	7263.75
1414.82669	7346.05
1418.27039	7414.55
1421.71177	7424.75
1425.15083	7318.65
1428.58758	7230.75
1432.02203	7250.65
1435.45416	7332.65
1438.88399	7342.95
1442.31151	7303.35
1445.73673	7384.65
1449.15965	7429.95
1452.58027	7455.05
1455.9986	7438.25
1459.41463	7461.35
1462.82837	7559.75
1466.23982	7744.25
1469.64898	7977.55
1473.05586	8098.35
1476.46045	8199.95
1479.86276	8293.05
1483.26279	8414.45
1486.66054	8589.05
1490.05602	8875.05
1493.44922	9464.95
1496.84016	10341.55
1500.22882	11716.25
1503.61521	13494.35
1506.99934	15287.35
1510.38121	16499.15
1513.76081	16338.85
1517.13816	14736.75
1520.51324	12596.05
1523.88607	10861.55
1527.25665	9899.85
1530.62498	9367.75
1533.99105	9176.55
1537.35488	9075.25
1540.71647	8964.45
1544.07581	8827.05
1547.4329	8674.55
1550.78776	8563.95
1554.14038	8435.35
1557.49077	8417.55
1560.83892	8503.75
1564.18484	8740.15
1567.52853	9107.95
1570.86999	9417.15
1574.20922	9595.65
1577.54624	9458.25
1580.88103	8949.45
1584.2136	8251.55
1587.54395	7880.25
1590.87208	7773.05
1594.19801	7935.45
1597.52172	8295.75
1600.84321	8465.45
1604.16251	8284.55
1607.47959	8097.05
1610.79447	7905.15
1614.10715	7621.05
1617.41763	7338.15
1620.7259	7072.55
1624.03199	6921.55
1627.33587	6848.25
1630.63757	6874.35
1633.93707	7130.75
1637.23439	7542.15
1640.52951	8224.35
1643.82246	9189.95
1647.11321	10382.75
1650.40179	11114.15
1653.68819	10775.55
1656.97241	9525.95
1660.25446	8136.45
1663.53433	7122.45
1666.81203	6512.75
1670.08756	6186.05
1673.36092	5996.45
1676.63211	5855.75
1679.90115	5760.85
1683.16801	5683.25
1686.43272	5603.75
1689.69527	5563.55
1692.95567	5500.75
1696.2139	5477.05
1699.46999	5430.85
1702.72392	5418.55
1705.97571	5450.75
1709.22535	5417.75
1712.47284	5464.25
1715.71819	5472.95
1718.96139	5458.05
1722.20246	5421.75
1725.44139	5421.25
1728.67818	5396.95
1731.91284	5331.85
1735.14537	5318.65
1738.37576	5280.05
1741.60403	5249.45
1744.83017	5225.25
1748.05418	5223.15
1751.27607	5232.85
1754.49584	5194.05
1757.71349	5171.35
1760.92903	5165.75
1764.14244	5121.45
1767.35375	5117.05
1770.56294	5118.55
1773.77002	5076.35
1776.97499	5117.25
1780.17785	5071.15
1783.37861	5072.25
1786.57727	5075.95
1789.77382	4999.15
1792.96828	5042.25
1796.16064	5044.85
1799.3509	5048.05
1802.53907	5033.15
1805.72514	5001.05
1808.90913	4982.85
1812.09102	4980.25
1815.27083	4973.25
1818.44856	4956.45
1821.6242	4940.35
1824.79776	4930.55
1827.96924	4928.95
1831.13864	4897.95
1834.30597	4923.35
1837.47122	4898.85
1840.6344	4878.75
1843.7955	4869.45
1846.95454	4873.65
1850.11151	4894.45
1853.26642	4835.45
1856.41926	4833.85
1859.57004	4841.35
1862.71876	4833.85
1865.86542	4825.65
1869.01003	4822.25
1872.15258	4795.25
1875.29308	4826.05
1878.43152	4823.95
1881.56792	4796.25
1884.70227	4793.45
1887.83457	4789.45
1890.96482	4776.45
1894.09304	4764.35
1897.21921	4754.75
1900.34335	4769.55
1903.46544	4738.95
1906.58551	4741.35
1909.70353	4754.25
1912.81953	4738.95
1915.93349	4731.75
1919.04543	4707.75
1922.15534	4706.95
1925.26322	4697.65
1928.36908	4679.45
1931.47292	4694.45
1934.57473	4692.45
1937.67453	4654.55
1940.77232	4635.95
1943.86808	4629.75
1946.96184	4633.15
1950.05358	4602.35
1953.14331	4582.75
1956.23103	4597.25
1959.31675	4549.55
1962.40046	4504.75
1965.48217	4532.25
1968.56188	4527.75
1971.63959	4508.05
1974.7153	4514.25
1977.78901	4510.85
1980.86073	4479.65
1983.93046	4438.25
1986.99819	4374.95
1990.06394	4376.95
1993.1277	4408.75
1996.18947	4379.95
1999.24925	4339.15
2002.30706	4348.05
2005.36288	4335.15
2008.41672	4318.75
2011.46859	4299.35
2014.51848	4284.85
2017.56639	4281.55
2020.61233	4245.05
2023.6563	4257.15
2026.6983	4219.25
2029.73833	4218.75
2032.7764	4224.35
2035.8125	4157.55
2038.84664	4176.75
2041.87881	4162.45
2044.90903	4181.85
2047.93729	4161.95
2050.96359	4147.65
2053.98794	4146.55
2057.01034	4147.95
2060.03078	4127.95
2063.04927	4116.15
2066.06582	4107.25
2069.08042	4097.15
2072.09307	4106.35
2075.10378	4115.45
2078.11255	4099.25
2081.11938	4114.65
2084.12426	4087.05
2087.12722	4083.75
2090.12824	4089.05
2093.12732	4074.75
2096.12447	4089.65
2099.11969	4101.85
2102.11299	4082.95
2105.10435	4098.25
2108.09379	4089.15
2111.08131	4080.15
2114.0669	4073.25
2117.05057	4078.65
2120.03233	4072.45
2123.01216	4104.85
2125.99008	4081.45
2128.96609	4080.55
2131.94018	4101.45
2134.91236	4101.85
2137.88263	4090.75
2140.851	4105.25
2143.81746	4114.25
2146.78201	4098.55
2149.74466	4087.25
2152.7054	4103.55
2155.66425	4080.95
2158.6212	4097.55
2161.57625	4060.35
2164.52941	4047.65
2167.48067	4068.25
2170.43004	4052.45
2173.37752	4073.85
2176.32311	4060.35
2179.26681	4053.05
2182.20863	4059.05
2185.14856	4058.75
2188.08661	4054.05
2191.02278	4068.75
2193.95707	4036.15
2196.88948	4033.05
2199.82001	4045.35
2202.74867	4016.45
2205.67545	4008.15
2208.60037	4034.05
2211.52341	4008.95
2214.44458	3994.25
2217.36388	3993.45
2220.28132	3972.35
2223.1969	3955.25
2226.11061	3938.45
2229.02246	3949.75
2231.93245	3947.15
2234.84058	3930.55
2237.74686	3924.85
2240.65128	3927.35
2243.55385	3918.95
2246.45456	3911.25
2249.35343	3904.35
2252.25044	3896.35
2255.14561	3877.65
2258.03893	3890.35
2260.93041	3887.95
2263.82004	3892.85
2266.70783	3889.85
2269.59378	3864.55
2272.4779	3841.25
2275.36017	3833.35
2278.24061	3823.85
2281.11922	3787.55
2283.996	3800.95
2286.87094	3770.25
2289.74405	3796.55
2292.61534	3785.15
2295.4848	3775.15
2298.35243	3777.65
2301.21824	3766.55
2304.08223	3762.35
2306.94439	3768.05
2309.80474	3766.15
2312.66327	3756.05
2315.51999	3733.75
2318.37489	3744.25
2321.22797	3718.35
2324.07925	3715.95
2326.92871	3710.75
2329.77637	3700.05
2332.62222	3694.05
2335.46626	3665.55
2338.3085	3673.05
2341.14893	3673.55
2343.98756	3677.65
2346.8244	3651.25
2349.65943	3646.25
2352.49267	3645.55
2355.32411	3657.65
2358.15376	3650.85
2360.98161	3667.55
2363.80768	3646.75
2366.63195	3660.65
2369.45444	3653.45
2372.27514	3652.35
2375.09405	3661.15
2377.91118	3628.65
2380.72652	3630.35
2383.54009	3623.15
2386.35187	3625.35
2389.16188	3603.45
2391.97011	3593.85
2394.77657	3574.65
2397.58125	3583.25
2400.38416	3571.65
2403.18529	3552.35
2405.98466	3537.25
2408.78226	3543.85
2411.57809	3528.85
2414.37216	3508.35
2417.16446	3510.15
2419.955	3492.65
2422.74378	3510.05
2425.5308	3499.15
2428.31606	3506.25
2431.09956	3502.05
2433.88131	3486.65
2436.6613	3489.45
2439.43954	3496.45
2442.21603	3476.95
2444.99077	3466.75
2447.76377	3489.55
2450.53501	3468.95
2453.30451	3465.35
2456.07226	3469.25
2458.83827	3447.85
2461.60254	3405.05
2464.36507	3442.55
2467.12586	3439.55
2469.88492	3445.25
2472.64224	3436.55
2475.39782	3419.65
2478.15167	3437.75
2480.90379	3425.35
2483.65417	3441.05
2486.40283	3439.85
2489.14976	3444.35
2491.89497	3425.55
2494.63845	3431.25
2497.3802	3420.15
2500.12024	3413.45
2502.85855	3413.45
2505.59514	3409.15
2508.33002	3410.95
2511.06318	3376.95
2513.79462	3384.55
2516.52435	3344.25
2519.25237	3319.95
2521.97867	3317.95
2524.70327	3327.85
2527.42616	3322.95
2530.14734	3340.95
2532.86681	3313.15
2535.58458	3301.25
2538.30065	3307.55
2541.01501	3313.25
2543.72768	3290.65
2546.43864	3298.85
2549.14791	3287.55
2551.85548	3275.25
2554.56136	3266.45
2557.26554	3291.25
2559.96803	3271.45
2562.66883	3259.65
2565.36794	3249.55
2568.06536	3220.55
2570.7611	3236.35
2573.45514	3240.95
2576.14751	3216.35
2578.83819	3206.55
2581.52719	3208.15
2584.21451	3205.75
2586.90015	3173.25
2589.58411	3162.85
2592.2664	3176.65
2594.94701	3163.35
2597.62594	3186.05
2600.30321	3115.35
2602.9788	3136.95
2605.65273	3119.35
2608.32498	3128.65
2610.99557	3149.45
2613.66449	3108.15
2616.33175	3124.55
2618.99734	3124.05
2621.66128	3120.45
2624.32355	3117.85
2626.98416	3080.55
2629.64311	3070.05
2632.30041	3088.65
2634.95605	3066.65
2637.61004	3055.15
2640.26238	3026.75
2642.91306	3043.25
2645.56209	3068.25
2648.20948	3044.65
2650.85521	3032.55
2653.4993	3056.35
2656.14175	3038.05
2658.78255	3035.85
2661.42171	3005.05
2664.05923	3047.55
2666.6951	3046.75
2669.32934	3051.75
2671.96194	3065.25
2674.59291	3061.35
2677.22224	3052.95
2679.84993	3052.55
2682.476	3040.45
2685.10043	3031.95
2687.72324	3016.95
2690.34441	3017.35
2692.96396	3026.35
2695.58188	3036.75
2698.19818	3029.05
2700.81285	3026.15
2703.4259	2999.75
2706.03733	2973.45
2708.64714	2981.35
2711.25533	3001.15
2713.86191	3009.55
2716.46687	3007.65
2719.07021	3015.75
2721.67194	3011.45
2724.27206	3021.75
2726.87057	3010.45
2729.46747	2989.45
2732.06276	2998.05
2734.65644	2985.25
2737.24852	2981.75
2739.83899	2965.15
2742.42786	2971.75
2745.01513	2970.95
2747.60079	2962.55
2750.18486	2933.05
2752.76733	2962.15
2755.3482	2935.85
2757.92747	2941.85
2760.50515	2924.55
2763.08123	2926.85
2765.65573	2920.35
2768.22863	2907.75
2770.79994	2890.65
2773.36967	2889.35
2775.9378	2895.85
2778.50435	2898.25
2781.06932	2889.85
2783.6327	2858.45
2786.1945	2897.55
2788.75471	2869.25
2791.31335	2874.95
2793.87041	2877.05
2796.42589	2847.35
2798.97979	2846.15
2801.53212	2849.65
2804.08288	2852.75
2806.63206	2842.85
2809.17967	2825.55
2811.72571	2835.95
2814.27018	2828.85
2816.81308	2811.75
2819.35442	2788.15
2821.89419	2804.15
2824.43239	2788.55
2826.96904	2809.25
2829.50412	2789.65
2832.03763	2789.85
2834.56959	2793.45
2837.1	2789.35
2839.62884	2786.05
2842.15613	2782.45
2844.68186	2789.55
2847.20604	2753.55
2849.72867	2748.15
2852.24974	2772.95
2854.76927	2732.75
2857.28724	2697.25
2859.80367	2744.75
2862.31855	2759.95
2864.83189	2738.15
2867.34368	2750.15
2869.85393	2760.45
2872.36264	2726.15
2874.8698	2722.65
2877.37543	2739.85
2879.87952	2743.35
2882.38207	2705.55
2884.88308	2709.95
2887.38256	2716.75
2889.88051	2706.45
2892.37692	2703.55
2894.8718	2693.55
2897.36515	2707.75
2899.85698	2702.65
2902.34727	2712.85
2904.83604	2713.95
2907.32328	2725.05
2909.809	2716.55
2912.29319	2726.25
2914.77587	2716.05
2917.25702	2727.85
2919.73665	2742.75
2922.21476	2747.75
2924.69136	2732.45
2927.16644	2715.45
2929.64	2718.35
2932.11205	2703.55
2934.58258	2715.55
2937.05161	2681.35
2939.51912	2693.45
2941.98513	2711.65
2944.44962	2693.65
2946.91261	2663.05
2949.37409	2667.05
2951.83407	2648.95
2954.29254	2658.65
2956.74951	2655.25
2959.20498	2633.95
2961.65895	2633.45
2964.11142	2634.05
2966.56239	2626.75
2969.01186	2631.15
2971.45984	2626.75
2973.90632	2611.95
2976.35131	2632.55
2978.7948	2619.15
2981.23681	2612.35
2983.67732	2604.85
2986.11635	2605.55
2988.55388	2574.45
2990.98993	2579.85
2993.4245	2574.55
2995.85758	2546.25
2998.28917	2550.15
3000.71928	2555.15
3003.14791	2536.45
3005.57506	2529.45
3008.00073	2522.65
3010.42493	2461.25
3012.84764	2521.45
3015.26888	2511.95
3017.68865	2497.35
3020.10694	2448.25
3022.52376	2478.65
3024.9391	2474.65
3027.35298	2453.15
3029.76539	2458.25
3032.17632	2446.45
3034.5858	2449.35
3036.9938	2456.95
3039.40034	2440.25
3041.80542	2437.45
3044.20903	2424.35
3046.61118	2417.85
3049.01187	2433.45
3051.4111	2407.75
3053.80888	2389.65
3056.20519	2388.85
3058.60005	2376.65
3060.99345	2405.05
3063.3854	2372.85
3065.7759	2364.75
3068.16494	2361.65
3070.55254	2341.65
3072.93868	2351.65
3075.32338	2359.95
3077.70662	2344.35
3080.08842	2339.35
3082.46878	2314.65
3084.84769	2332.35
3087.22515	2327.85
3089.60118	2326.75
3091.97576	2321.75
3094.3489	2327.15
3096.72061	2315.55
3099.09087	2302.05
3101.4597	2309.05
3103.82709	2291.95
3106.19305	2280.45
3108.55757	2292.85
3110.92066	2285.55
3113.28232	2286.85
3115.64255	2289.45
3118.00134	2281.85
3120.35871	2269.75
3122.71466	2248.55
3125.06917	2257.15
3127.42226	2243.65
3129.77393	2228.45
3132.12417	2244.35
3134.47299	2255.85
3136.82039	2220.25
3139.16636	2210.25
3141.51092	2229.75
3143.85406	2230.55
3146.19579	2213.85
3148.53609	2206.55
3150.87499	2217.55
3153.21246	2214.15
3155.54853	2219.55
3157.88318	2200.15
3160.21642	2225.05
3162.54826	2213.05
3164.87868	2213.55
3167.2077	2174.15
3169.5353	2201.25
3171.86151	2199.25
3174.18631	2182.15
3176.5097	2183.25
3178.83169	2188.85
3181.15228	2180.35
3183.47147	2156.85
3185.78926	2138.45
3188.10565	2147.55
3190.42065	2143.95
3192.73424	2152.35
3195.04645	2140.15
3197.35725	2121.15
3199.66667	2133.55
3201.97469	2134.15
3204.28132	2113.15
3206.58656	2131.25
3208.8904	2140.65
3211.19287	2131.85
3213.49394	2117.95
3215.79363	2116.35
3218.09193	2125.55
3220.38884	2111.45
3222.68438	2125.25
3224.97853	2102.95
3227.2713	2126.15
3229.56269	2112.85
3231.8527	2104.95
3234.14133	2097.05
3236.42858	2084.75
3238.71446	2074.95
3240.99896	2089.55
3243.28209	2063.75
3245.56384	2078.65
3247.84423	2060.75
3250.12324	2065.55
3252.40088	2065.65
3254.67715	2051.45
3256.95205	2036.65
3259.22558	2050.45
3261.49775	2058.55
3263.76855	2046.75
3266.03799	2049.35
3268.30606	2042.05
3270.57277	2051.85
3272.83812	2026.75
3275.10211	2026.35
3277.36474	2038.45
3279.62601	2039.95
3281.88593	2004.05
3284.14448	1974.85
3286.40168	2006.15
3288.65753	1995.15
3290.91202	1997.35
3293.16516	1977.25
3295.41695	2006.05
3297.66738	2002.15
3299.91647	1981.55
3302.16421	1980.75
3304.4106	1937.25
3306.65564	1967.75
3308.89933	1920.55
3311.14169	1923.95
3313.38269	1908.55
3315.62236	1889.85
3317.86068	1880.15
3320.09766	1876.05
3322.3333	1836.15
3324.5676	1829.65
3326.80056	1806.55
3329.03219	1805.05
3331.26248	0.35
3333.49143	0.35
3335.71905	0.35
