Data from AgNPs_UA_10uM_CRN_500uM_SU_RamanShift__83__13-19-10-270.txt Node

Date: Thu Aug 04 13:19:10 BST 2022
User: TCL
Spectrometer: QEP01345
Trigger mode: 4
Integration Time (sec): 1.000000E0
Scans to average: 10
Electric dark correction enabled: true
Nonlinearity correction enabled: false
Boxcar width: 0
XAxis mode: Raman Shifts
Number of Pixels in Spectrum: 1044
>>>>>Begin Spectral Data<<<<<
46.04893	0.35
50.45542	-1.05
54.85868	0.95
59.25871	-0.85
63.6555	21.65
68.04907	20.85
72.43941	22.35
76.82654	23.15
81.21044	24.95
85.59113	26.85
89.96862	28.15
94.34289	27.45
98.71396	27.35
103.08183	30.25
107.4465	29.95
111.80798	29.35
116.16626	30.55
120.52136	34.45
124.87327	35.15
129.222	36.75
133.56755	39.55
137.90993	43.85
142.24913	46.85
146.58517	55.05
150.91804	62.35
155.24774	76.95
159.57429	96.15
163.89768	128.15
168.21792	170.35
172.53501	231.55
176.84895	330.85
181.15975	467.75
185.46741	665.15
189.77193	912.45
194.07331	1238.45
198.37157	1593.05
202.6667	1978.55
206.9587	2355.65
211.24758	2735.45
215.53334	3106.65
219.81599	3513.85
224.09553	3951.95
228.37195	4438.85
232.64527	4992.85
236.91549	5516.65
241.18261	6010.55
245.44663	6426.25
249.70755	6784.95
253.96539	7109.25
258.22014	7380.75
262.4718	7584.55
266.72039	7717.95
270.96589	7811.35
275.20832	7786.45
279.44768	7675.85
283.68397	7553.15
287.91719	7496.55
292.14735	7475.55
296.37445	7567.55
300.59849	7721.15
304.81948	7936.85
309.03742	8127.65
313.25231	8198.05
317.46415	8151.45
321.67296	7908.15
325.87872	7678.65
330.08145	7587.45
334.28114	7594.45
338.47781	7656.35
342.67145	7798.65
346.86207	7975.05
351.04966	8248.55
355.23424	8516.25
359.4158	8716.05
363.59435	8868.05
367.76989	8926.75
371.94243	8948.55
376.11196	8985.65
380.27849	8987.85
384.44203	9034.75
388.60257	9109.45
392.76012	9195.75
396.91468	9313.05
401.06626	9451.45
405.21485	9504.25
409.36047	9428.15
413.50311	9194.45
417.64277	8999.15
421.77947	8861.55
425.9132	8806.05
430.04396	8797.35
434.17176	8855.65
438.2966	8950.25
442.41849	9138.35
446.53742	9357.25
450.6534	9566.85
454.76644	9721.75
458.87653	9783.45
462.98368	9779.95
467.08789	9699.55
471.18916	9537.75
475.2875	9314.15
479.38291	9154.25
483.4754	9040.45
487.56496	8979.35
491.6516	8908.55
495.73531	8906.25
499.81612	8950.75
503.89401	9029.85
507.96899	9064.75
512.04106	9109.55
516.11023	9158.55
520.1765	9215.15
524.23987	9207.85
528.30034	9216.05
532.35792	9194.15
536.41261	9140.85
540.46441	9043.15
544.51333	9005.65
548.55936	9061.05
552.60252	9187.95
556.64279	9347.05
560.6802	9433.85
564.71473	9514.05
568.7464	9570.45
572.7752	9527.25
576.80114	9361.45
580.82422	9240.95
584.84444	9236.95
588.86181	9283.65
592.87633	9367.85
596.888	9599.95
600.89682	9971.25
604.9028	10940.15
608.90594	12857.25
612.90624	14582.95
616.90371	13503.85
620.89834	11001.95
624.89015	9978.55
628.87913	9929.05
632.86528	10053.25
636.84862	9999.55
640.82913	9777.55
644.80683	9440.45
648.78172	9249.85
652.75379	9306.85
656.72306	9559.15
660.68952	9807.95
664.65319	9773.55
668.61405	9688.15
672.57211	9773.85
676.52738	9780.45
680.47986	9571.35
684.42955	9376.35
688.37646	9368.15
692.32058	9480.65
696.26192	9632.95
700.20048	9803.35
704.13626	9840.35
708.06928	9707.35
711.99952	9587.15
715.927	9583.85
719.85171	9621.55
723.77365	9658.75
727.69284	9577.65
731.60928	9505.95
735.52295	9504.15
739.43388	9537.55
743.34206	9606.75
747.24749	9627.55
751.15017	9635.55
755.05012	9716.55
758.94733	10011.05
762.8418	10679.45
766.73354	11683.05
770.62254	12527.55
774.50882	12742.15
778.39237	12405.85
782.27321	11690.85
786.15132	10856.75
790.02671	10255.35
793.89938	9932.25
797.76935	9777.15
801.6366	9718.15
805.50115	9639.75
809.36299	9610.15
813.22213	9609.45
817.07857	9614.45
820.93231	9586.05
824.78336	9604.35
828.63172	9612.15
832.47738	9619.55
836.32036	9628.85
840.16066	9650.35
843.99827	9636.85
847.8332	9651.15
851.66546	9644.45
855.49504	9668.85
859.32195	9671.95
863.1462	9635.35
866.96777	9626.35
870.78668	9653.55
874.60293	9710.85
878.41652	9717.95
882.22745	9817.55
886.03573	9831.65
889.84136	9841.05
893.64433	9810.95
897.44466	9770.25
901.24235	9727.65
905.0374	9710.55
908.8298	9703.75
912.61957	9696.55
916.40671	9720.25
920.19121	9750.05
923.97308	9830.15
927.75233	9923.25
931.52895	9993.15
935.30295	9930.85
939.07433	9777.45
942.84309	9694.35
946.60924	9667.35
950.37278	9651.15
954.13371	9623.05
957.89203	9605.45
961.64774	9579.65
965.40086	9577.35
969.15137	9547.95
972.89929	9580.15
976.64461	9547.75
980.38733	9580.35
984.12747	9610.85
987.86502	9683.55
991.59999	9756.75
995.33237	9852.75
999.06217	10039.05
1002.78939	10245.85
1006.51404	10382.05
1010.23611	10504.85
1013.95561	10618.65
1017.67255	10672.95
1021.38692	10696.15
1025.09872	10642.95
1028.80796	10671.45
1032.51465	10837.25
1036.21877	10914.15
1039.92035	10903.25
1043.61937	10858.05
1047.31584	10713.85
1051.00976	10621.75
1054.70114	10590.95
1058.38998	10599.65
1062.07627	10681.85
1065.76003	10703.75
1069.44126	10799.95
1073.11995	10930.25
1076.79611	11114.15
1080.46974	11211.15
1084.14085	11287.05
1087.80943	11384.55
1091.47549	11407.45
1095.13903	11406.45
1098.80005	11367.55
1102.45857	11440.85
1106.11456	11437.65
1109.76805	11319.25
1113.41903	11299.45
1117.06751	11410.25
1120.71348	11538.25
1124.35696	11695.05
1127.99793	11781.55
1131.63641	11617.15
1135.2724	11364.85
1138.90589	11154.65
1142.5369	10990.75
1146.16542	10903.85
1149.79145	10813.55
1153.415	10753.25
1157.03607	10751.05
1160.65467	10861.45
1164.27079	11083.55
1167.88443	11414.25
1171.49561	11918.05
1175.10432	12673.55
1178.71056	13575.65
1182.31434	14418.45
1185.91565	14830.85
1189.51451	14879.95
1193.11091	14697.15
1196.70485	14326.45
1200.29634	13882.45
1203.88538	13431.55
1207.47197	12943.15
1211.05612	12462.25
1214.63782	12111.15
1218.21708	11915.95
1221.79391	11849.25
1225.36829	11830.95
1228.94024	11818.05
1232.50976	11757.15
1236.07685	11774.25
1239.6415	11727.05
1243.20374	11805.35
1246.76355	11890.45
1250.32093	11964.95
1253.8759	12188.65
1257.42845	12491.05
1260.97859	12826.55
1264.52631	13117.85
1268.07163	13316.75
1271.61453	13550.35
1275.15503	13649.25
1278.69312	13766.25
1282.22882	13855.95
1285.76211	13995.65
1289.29301	14113.85
1292.82151	14316.75
1296.34761	14592.75
1299.87133	14987.85
1303.39266	15740.55
1306.9116	16874.75
1310.42815	18005.95
1313.94233	18563.25
1317.45412	18222.35
1320.96354	17371.65
1324.47058	16483.65
1327.97525	15772.75
1331.47754	15333.65
1334.97747	15223.95
1338.47502	15449.85
1341.97022	15937.55
1345.46305	16671.95
1348.95352	17622.55
1352.44163	18627.65
1355.92738	19678.95
1359.41078	20778.85
1362.89183	21406.05
1366.37053	20341.05
1369.84688	17972.85
1373.32088	15814.85
1376.79254	14520.25
1380.26186	13931.65
1383.72883	13602.25
1387.19347	13238.95
1390.65578	12887.05
1394.11575	12554.75
1397.57339	12375.65
1401.0287	12317.65
1404.48168	12373.55
1407.93234	12502.95
1411.38068	12750.95
1414.82669	12907.65
1418.27039	12912.05
1421.71177	12820.45
1425.15083	12736.95
1428.58758	12714.35
1432.02203	12807.75
1435.45416	12911.05
1438.88399	12870.35
1442.31151	12832.75
1445.73673	12778.55
1449.15965	12756.05
1452.58027	12695.45
1455.9986	12663.95
1459.41463	12628.85
1462.82837	12748.85
1466.23982	12943.45
1469.64898	13169.85
1473.05586	13319.35
1476.46045	13476.05
1479.86276	13623.45
1483.26279	13761.15
1486.66054	13974.75
1490.05602	14313.65
1493.44922	14829.35
1496.84016	15554.75
1500.22882	16541.65
1503.61521	17694.55
1506.99934	18776.05
1510.38121	19354.15
1513.76081	19054.15
1517.13816	17892.05
1520.51324	16436.05
1523.88607	15257.95
1527.25665	14538.05
1530.62498	14180.55
1533.99105	14019.95
1537.35488	13933.15
1540.71647	13827.25
1544.07581	13725.35
1547.4329	13581.45
1550.78776	13444.85
1554.14038	13304.65
1557.49077	13254.55
1560.83892	13341.55
1564.18484	13545.35
1567.52853	13755.65
1570.86999	13831.55
1574.20922	13851.75
1577.54624	13683.65
1580.88103	13287.85
1584.2136	12850.45
1587.54395	12677.25
1590.87208	12873.05
1594.19801	13452.05
1597.52172	14127.15
1600.84321	14484.95
1604.16251	14377.75
1607.47959	14022.85
1610.79447	13440.55
1614.10715	12718.45
1617.41763	12100.95
1620.7259	11627.05
1624.03199	11392.65
1627.33587	11353.35
1630.63757	11532.45
1633.93707	11979.45
1637.23439	12728.05
1640.52951	13776.85
1643.82246	14985.85
1647.11321	15994.85
1650.40179	16192.45
1653.68819	15221.95
1656.97241	13581.75
1660.25446	12137.25
1663.53433	11137.75
1666.81203	10561.65
1670.08756	10196.75
1673.36092	9991.05
1676.63211	9839.05
1679.90115	9693.65
1683.16801	9632.05
1686.43272	9544.75
1689.69527	9472.45
1692.95567	9457.25
1696.2139	9415.25
1699.46999	9381.75
1702.72392	9389.45
1705.97571	9346.75
1709.22535	9362.25
1712.47284	9390.75
1715.71819	9378.95
1718.96139	9359.65
1722.20246	9343.95
1725.44139	9316.75
1728.67818	9279.85
1731.91284	9251.45
1735.14537	9160.05
1738.37576	9164.15
1741.60403	9111.65
1744.83017	9097.65
1748.05418	9083.15
1751.27607	9039.85
1754.49584	9040.45
1757.71349	9038.25
1760.92903	9038.25
1764.14244	8983.35
1767.35375	8970.45
1770.56294	8988.15
1773.77002	8984.05
1776.97499	8938.95
1780.17785	8913.25
1783.37861	8893.95
1786.57727	8884.15
1789.77382	8874.15
1792.96828	8879.25
1796.16064	8860.25
1799.3509	8847.95
1802.53907	8836.25
1805.72514	8836.15
1808.90913	8781.85
1812.09102	8771.45
1815.27083	8764.65
1818.44856	8719.25
1821.6242	8711.75
1824.79776	8702.45
1827.96924	8692.95
1831.13864	8667.55
1834.30597	8673.55
1837.47122	8649.85
1840.6344	8617.45
1843.7955	8648.15
1846.95454	8614.95
1850.11151	8625.15
1853.26642	8613.75
1856.41926	8609.05
1859.57004	8618.55
1862.71876	8623.85
1865.86542	8596.55
1869.01003	8598.65
1872.15258	8558.75
1875.29308	8583.75
1878.43152	8577.05
1881.56792	8554.95
1884.70227	8543.75
1887.83457	8521.65
1890.96482	8503.65
1894.09304	8483.45
1897.21921	8461.05
1900.34335	8456.95
1903.46544	8485.95
1906.58551	8457.45
1909.70353	8443.05
1912.81953	8443.95
1915.93349	8423.25
1919.04543	8416.35
1922.15534	8402.95
1925.26322	8401.75
1928.36908	8359.35
1931.47292	8329.95
1934.57473	8337.65
1937.67453	8315.15
1940.77232	8317.55
1943.86808	8275.25
1946.96184	8258.35
1950.05358	8231.85
1953.14331	8219.25
1956.23103	8197.35
1959.31675	8161.85
1962.40046	8127.05
1965.48217	8103.15
1968.56188	8081.05
1971.63959	8074.35
1974.7153	8058.75
1977.78901	8045.45
1980.86073	8039.25
1983.93046	7976.15
1986.99819	7940.15
1990.06394	7929.95
1993.1277	7908.15
1996.18947	7880.05
1999.24925	7852.65
2002.30706	7806.35
2005.36288	7797.45
2008.41672	7757.75
2011.46859	7750.25
2014.51848	7718.15
2017.56639	7717.25
2020.61233	7667.55
2023.6563	7664.15
2026.6983	7645.45
2029.73833	7623.95
2032.7764	7608.65
2035.8125	7571.55
2038.84664	7571.45
2041.87881	7546.25
2044.90903	7534.95
2047.93729	7533.55
2050.96359	7515.05
2053.98794	7504.45
2057.01034	7510.25
2060.03078	7499.45
2063.04927	7473.15
2066.06582	7468.15
2069.08042	7473.35
2072.09307	7445.45
2075.10378	7445.75
2078.11255	7447.75
2081.11938	7422.75
2084.12426	7410.85
2087.12722	7392.35
2090.12824	7402.25
2093.12732	7407.85
2096.12447	7416.65
2099.11969	7419.25
2102.11299	7443.65
2105.10435	7432.45
2108.09379	7425.65
2111.08131	7427.85
2114.0669	7431.95
2117.05057	7444.35
2120.03233	7446.05
2123.01216	7434.95
2125.99008	7440.75
2128.96609	7449.45
2131.94018	7469.45
2134.91236	7443.25
2137.88263	7443.75
2140.851	7445.15
2143.81746	7456.65
2146.78201	7450.25
2149.74466	7431.45
2152.7054	7445.55
2155.66425	7438.25
2158.6212	7441.45
2161.57625	7397.35
2164.52941	7420.55
2167.48067	7428.45
2170.43004	7414.05
2173.37752	7397.35
2176.32311	7380.65
2179.26681	7408.85
2182.20863	7429.35
2185.14856	7437.65
2188.08661	7417.25
2191.02278	7429.25
2193.95707	7437.75
2196.88948	7400.45
2199.82001	7412.85
2202.74867	7391.15
2205.67545	7399.35
2208.60037	7377.65
2211.52341	7371.65
2214.44458	7347.25
2217.36388	7337.35
2220.28132	7316.85
2223.1969	7288.55
2226.11061	7283.45
2229.02246	7273.05
2231.93245	7265.95
2234.84058	7241.35
2237.74686	7242.25
2240.65128	7234.15
2243.55385	7185.25
2246.45456	7209.55
2249.35343	7174.85
2252.25044	7186.15
2255.14561	7170.45
2258.03893	7168.85
2260.93041	7168.55
2263.82004	7159.85
2266.70783	7142.95
2269.59378	7102.55
2272.4779	7067.35
2275.36017	7061.55
2278.24061	7042.95
2281.11922	7031.95
2283.996	6998.65
2286.87094	7005.15
2289.74405	7007.75
2292.61534	6979.95
2295.4848	6957.55
2298.35243	6978.15
2301.21824	6962.15
2304.08223	6959.75
2306.94439	6966.15
2309.80474	6963.25
2312.66327	6949.35
2315.51999	6940.85
2318.37489	6934.75
2321.22797	6922.95
2324.07925	6927.95
2326.92871	6922.05
2329.77637	6911.05
2332.62222	6883.65
2335.46626	6892.85
2338.3085	6886.75
2341.14893	6876.15
2343.98756	6871.85
2346.8244	6885.65
2349.65943	6862.35
2352.49267	6849.45
2355.32411	6840.25
2358.15376	6851.85
2360.98161	6831.45
2363.80768	6849.65
2366.63195	6827.15
2369.45444	6828.55
2372.27514	6812.25
2375.09405	6798.65
2377.91118	6784.65
2380.72652	6762.25
2383.54009	6745.05
2386.35187	6757.75
2389.16188	6723.95
2391.97011	6706.85
2394.77657	6689.25
2397.58125	6677.35
2400.38416	6654.35
2403.18529	6676.75
2405.98466	6638.95
2408.78226	6621.15
2411.57809	6610.35
2414.37216	6591.15
2417.16446	6605.45
2419.955	6587.15
2422.74378	6594.35
2425.5308	6591.15
2428.31606	6576.05
2431.09956	6569.75
2433.88131	6544.05
2436.6613	6556.35
2439.43954	6546.85
2442.21603	6540.85
2444.99077	6562.75
2447.76377	6535.35
2450.53501	6531.15
2453.30451	6541.65
2456.07226	6523.65
2458.83827	6517.75
2461.60254	6487.55
2464.36507	6482.75
2467.12586	6466.95
2469.88492	6449.85
2472.64224	6489.45
2475.39782	6485.25
2478.15167	6472.85
2480.90379	6434.15
2483.65417	6448.55
2486.40283	6457.45
2489.14976	6453.35
2491.89497	6462.15
2494.63845	6460.75
2497.3802	6454.45
2500.12024	6442.45
2502.85855	6406.75
2505.59514	6434.15
2508.33002	6404.15
2511.06318	6385.95
2513.79462	6393.65
2516.52435	6372.85
2519.25237	6362.65
2521.97867	6360.55
2524.70327	6343.95
2527.42616	6338.95
2530.14734	6325.85
2532.86681	6309.85
2535.58458	6335.45
2538.30065	6347.65
2541.01501	6323.95
2543.72768	6312.05
2546.43864	6299.75
2549.14791	6290.55
2551.85548	6285.25
2554.56136	6286.45
2557.26554	6271.25
2559.96803	6243.55
2562.66883	6238.55
2565.36794	6230.05
2568.06536	6213.05
2570.7611	6195.75
2573.45514	6185.45
2576.14751	6178.05
2578.83819	6157.65
2581.52719	6160.55
2584.21451	6151.75
2586.90015	6152.75
2589.58411	6147.55
2592.2664	6127.45
2594.94701	6125.35
2597.62594	6104.25
2600.30321	6104.65
2602.9788	6110.65
2605.65273	6108.65
2608.32498	6069.25
2610.99557	6076.35
2613.66449	6080.35
2616.33175	6080.05
2618.99734	6083.15
2621.66128	6067.65
2624.32355	6070.45
2626.98416	6042.45
2629.64311	6028.75
2632.30041	6031.25
2634.95605	6023.75
2637.61004	6015.15
2640.26238	6003.55
2642.91306	6005.45
2645.56209	5998.05
2648.20948	5981.25
2650.85521	5995.15
2653.4993	5984.05
2656.14175	5962.15
2658.78255	5951.65
2661.42171	5946.45
2664.05923	5958.75
2666.6951	5974.15
2669.32934	5990.15
2671.96194	5970.15
2674.59291	5968.65
2677.22224	5966.25
2679.84993	5976.65
2682.476	5969.35
2685.10043	5963.45
2687.72324	5963.15
2690.34441	5969.95
2692.96396	5952.65
2695.58188	5935.65
2698.19818	5931.95
2700.81285	5942.25
2703.4259	5931.75
2706.03733	5918.65
2708.64714	5904.95
2711.25533	5922.45
2713.86191	5909.65
2716.46687	5936.75
2719.07021	5928.45
2721.67194	5928.05
2724.27206	5926.45
2726.87057	5910.35
2729.46747	5907.75
2732.06276	5934.95
2734.65644	5918.45
2737.24852	5898.45
2739.83899	5885.35
2742.42786	5883.15
2745.01513	5867.15
2747.60079	5854.55
2750.18486	5850.15
2752.76733	5860.15
2755.3482	5847.25
2757.92747	5828.25
2760.50515	5820.25
2763.08123	5826.05
2765.65573	5799.75
2768.22863	5801.75
2770.79994	5785.85
2773.36967	5775.95
2775.9378	5787.15
2778.50435	5774.65
2781.06932	5781.15
2783.6327	5763.35
2786.1945	5767.45
2788.75471	5766.85
2791.31335	5751.65
2793.87041	5710.55
2796.42589	5714.65
2798.97979	5716.25
2801.53212	5706.85
2804.08288	5685.05
2806.63206	5670.55
2809.17967	5665.75
2811.72571	5639.55
2814.27018	5651.55
2816.81308	5633.05
2819.35442	5609.15
2821.89419	5607.25
2824.43239	5597.35
2826.96904	5589.75
2829.50412	5590.35
2832.03763	5567.75
2834.56959	5574.55
2837.1	5552.15
2839.62884	5547.25
2842.15613	5532.65
2844.68186	5535.45
2847.20604	5538.15
2849.72867	5518.05
2852.24974	5507.55
2854.76927	5488.45
2857.28724	5490.25
2859.80367	5471.65
2862.31855	5484.85
2864.83189	5472.45
2867.34368	5481.35
2869.85393	5473.15
2872.36264	5450.95
2874.8698	5433.45
2877.37543	5440.65
2879.87952	5429.35
2882.38207	5427.65
2884.88308	5413.65
2887.38256	5430.65
2889.88051	5428.55
2892.37692	5394.55
2894.8718	5419.55
2897.36515	5418.15
2899.85698	5402.55
2902.34727	5419.85
2904.83604	5423.45
2907.32328	5417.35
2909.809	5430.35
2912.29319	5437.25
2914.77587	5429.85
2917.25702	5444.25
2919.73665	5426.05
2922.21476	5419.55
2924.69136	5406.95
2927.16644	5401.05
2929.64	5386.35
2932.11205	5400.95
2934.58258	5346.45
2937.05161	5363.65
2939.51912	5379.05
2941.98513	5371.55
2944.44962	5340.35
2946.91261	5341.05
2949.37409	5352.05
2951.83407	5337.65
2954.29254	5329.55
2956.74951	5331.65
2959.20498	5321.65
2961.65895	5325.55
2964.11142	5321.45
2966.56239	5301.75
2969.01186	5319.65
2971.45984	5306.35
2973.90632	5302.15
2976.35131	5271.95
2978.7948	5270.85
2981.23681	5278.05
2983.67732	5253.75
2986.11635	5259.25
2988.55388	5216.95
2990.98993	5215.35
2993.4245	5213.85
2995.85758	5199.75
2998.28917	5183.55
3000.71928	5178.45
3003.14791	5154.25
3005.57506	5154.85
3008.00073	5107.05
3010.42493	5105.75
3012.84764	5097.15
3015.26888	5114.05
3017.68865	5099.95
3020.10694	5089.85
3022.52376	5054.25
3024.9391	5046.55
3027.35298	5027.25
3029.76539	5019.55
3032.17632	5012.55
3034.5858	5007.65
3036.9938	4995.45
3039.40034	4977.35
3041.80542	4971.75
3044.20903	4950.85
3046.61118	4949.95
3049.01187	4939.35
3051.4111	4935.75
3053.80888	4914.45
3056.20519	4908.25
3058.60005	4879.95
3060.99345	4894.75
3063.3854	4869.15
3065.7759	4850.25
3068.16494	4845.75
3070.55254	4826.75
3072.93868	4820.65
3075.32338	4804.95
3077.70662	4804.35
3080.08842	4774.15
3082.46878	4802.35
3084.84769	4760.65
3087.22515	4768.65
3089.60118	4746.65
3091.97576	4752.05
3094.3489	4734.85
3096.72061	4738.55
3099.09087	4736.35
3101.4597	4723.65
3103.82709	4731.05
3106.19305	4728.45
3108.55757	4725.85
3110.92066	4696.75
3113.28232	4699.05
3115.64255	4679.65
3118.00134	4677.25
3120.35871	4662.55
3122.71466	4664.65
3125.06917	4654.95
3127.42226	4638.25
3129.77393	4624.05
3132.12417	4618.45
3134.47299	4606.35
3136.82039	4598.15
3139.16636	4593.85
3141.51092	4614.45
3143.85406	4588.85
3146.19579	4583.25
3148.53609	4594.65
3150.87499	4586.45
3153.21246	4586.85
3155.54853	4573.65
3157.88318	4579.85
3160.21642	4557.55
3162.54826	4581.45
3164.87868	4576.05
3167.2077	4556.75
3169.5353	4544.75
3171.86151	4532.95
3174.18631	4519.95
3176.5097	4521.65
3178.83169	4502.75
3181.15228	4513.75
3183.47147	4479.95
3185.78926	4476.15
3188.10565	4453.85
3190.42065	4465.65
3192.73424	4447.15
3195.04645	4452.95
3197.35725	4447.55
3199.66667	4440.75
3201.97469	4421.85
3204.28132	4425.55
3206.58656	4435.55
3208.8904	4444.95
3211.19287	4437.35
3213.49394	4436.65
3215.79363	4430.95
3218.09193	4432.75
3220.38884	4428.65
3222.68438	4438.25
3224.97853	4420.75
3227.2713	4431.95
3229.56269	4397.25
3231.8527	4407.75
3234.14133	4394.45
3236.42858	4373.95
3238.71446	4376.35
3240.99896	4372.25
3243.28209	4347.05
3245.56384	4336.65
3247.84423	4327.55
3250.12324	4311.25
3252.40088	4312.05
3254.67715	4307.65
3256.95205	4308.45
3259.22558	4318.35
3261.49775	4303.45
3263.76855	4302.55
3266.03799	4293.25
3268.30606	4299.15
3270.57277	4291.55
3272.83812	4286.85
3275.10211	4268.95
3277.36474	4256.65
3279.62601	4248.95
3281.88593	4248.55
3284.14448	4249.85
3286.40168	4232.75
3288.65753	4243.85
3290.91202	4231.05
3293.16516	4221.75
3295.41695	4214.05
3297.66738	4201.45
3299.91647	4177.35
3302.16421	4148.05
3304.4106	4111.55
3306.65564	4094.15
3308.89933	4081.65
3311.14169	4036.25
3313.38269	3997.25
3315.62236	3973.75
3317.86068	3951.95
3320.09766	3923.05
3322.3333	3900.05
3324.5676	3864.15
3326.80056	3813.05
3329.03219	3777.05
3331.26248	0.95
3333.49143	-0.25
3335.71905	-0.55
