Data from AgNPs_UA_20uM_CRN_500uM_SU_RamanShift__51__13-45-00-301.txt Node

Date: Thu Aug 04 13:45:00 BST 2022
User: TCL
Spectrometer: QEP01345
Trigger mode: 4
Integration Time (sec): 1.000000E0
Scans to average: 10
Electric dark correction enabled: true
Nonlinearity correction enabled: false
Boxcar width: 0
XAxis mode: Raman Shifts
Number of Pixels in Spectrum: 1044
>>>>>Begin Spectral Data<<<<<
46.04893	-1.05
50.45542	-0.45
54.85868	0.35
59.25871	-0.35
63.6555	19.45
68.04907	16.35
72.43941	18.85
76.82654	18.05
81.21044	19.05
85.59113	19.75
89.96862	20.35
94.34289	21.05
98.71396	22.35
103.08183	23.75
107.4465	22.95
111.80798	26.25
116.16626	27.55
120.52136	29.45
124.87327	25.45
129.222	31.85
133.56755	30.75
137.90993	33.05
142.24913	37.85
146.58517	43.85
150.91804	49.45
155.24774	58.55
159.57429	77.85
163.89768	97.25
168.21792	131.85
172.53501	182.55
176.84895	249.75
181.15975	357.55
185.46741	501.85
189.77193	696.55
194.07331	930.05
198.37157	1201.95
202.6667	1492.05
206.9587	1779.75
211.24758	2054.65
215.53334	2343.45
219.81599	2636.95
224.09553	2977.65
228.37195	3343.75
232.64527	3736.75
236.91549	4154.85
241.18261	4535.85
245.44663	4856.15
249.70755	5111.75
253.96539	5362.65
258.22014	5547.45
262.4718	5739.85
266.72039	5860.95
270.96589	5919.05
275.20832	5895.85
279.44768	5848.95
283.68397	5733.75
287.91719	5680.15
292.14735	5662.25
296.37445	5734.35
300.59849	5860.05
304.81948	6024.95
309.03742	6185.15
313.25231	6222.95
317.46415	6145.65
321.67296	5965.15
325.87872	5784.85
330.08145	5700.05
334.28114	5700.15
338.47781	5792.25
342.67145	5908.05
346.86207	6058.15
351.04966	6244.25
355.23424	6471.35
359.4158	6625.25
363.59435	6748.45
367.76989	6797.95
371.94243	6852.15
376.11196	6856.15
380.27849	6883.05
384.44203	6915.45
388.60257	6932.55
392.76012	7014.85
396.91468	7079.15
401.06626	7186.05
405.21485	7259.35
409.36047	7177.55
413.50311	7003.65
417.64277	6800.85
421.77947	6701.95
425.9132	6653.25
430.04396	6682.95
434.17176	6726.35
438.2966	6824.55
442.41849	6987.05
446.53742	7204.35
450.6534	7406.95
454.76644	7540.35
458.87653	7547.15
462.98368	7512.05
467.08789	7400.05
471.18916	7256.25
475.2875	7069.15
479.38291	6918.75
483.4754	6829.55
487.56496	6781.55
491.6516	6730.65
495.73531	6715.55
499.81612	6702.85
503.89401	6769.55
507.96899	6815.05
512.04106	6852.55
516.11023	6909.15
520.1765	6934.75
524.23987	6965.85
528.30034	6948.75
532.35792	6898.75
536.41261	6844.75
540.46441	6773.25
544.51333	6742.45
548.55936	6801.85
552.60252	6893.75
556.64279	6988.25
560.6802	7055.85
564.71473	7111.45
568.7464	7153.85
572.7752	7150.45
576.80114	7060.15
580.82422	6952.85
584.84444	6957.75
588.86181	7064.75
592.87633	7196.55
596.888	7361.85
600.89682	7641.45
604.9028	8426.35
608.90594	9938.05
612.90624	11297.95
616.90371	10408.45
620.89834	8381.75
624.89015	7598.35
628.87913	7577.95
632.86528	7557.85
636.84862	7517.45
640.82913	7289.15
644.80683	7034.35
648.78172	6892.35
652.75379	6937.55
656.72306	7154.55
660.68952	7360.35
664.65319	7329.95
668.61405	7229.75
672.57211	7246.25
676.52738	7219.35
680.47986	7116.35
684.42955	6997.85
688.37646	6992.35
692.32058	7052.15
696.26192	7178.75
700.20048	7293.85
704.13626	7316.35
708.06928	7236.15
711.99952	7161.65
715.927	7175.05
719.85171	7196.95
723.77365	7177.85
727.69284	7133.15
731.60928	7064.65
735.52295	7076.65
739.43388	7120.05
743.34206	7165.05
747.24749	7203.85
751.15017	7216.35
755.05012	7300.85
758.94733	7524.05
762.8418	8041.95
766.73354	8855.15
770.62254	9567.25
774.50882	9742.75
778.39237	9386.05
782.27321	8725.85
786.15132	8032.75
790.02671	7573.75
793.89938	7352.55
797.76935	7269.65
801.6366	7231.15
805.50115	7193.85
809.36299	7163.45
813.22213	7131.65
817.07857	7136.85
820.93231	7129.65
824.78336	7125.95
828.63172	7150.55
832.47738	7170.95
836.32036	7178.05
840.16066	7200.95
843.99827	7220.85
847.8332	7220.45
851.66546	7183.85
855.49504	7191.85
859.32195	7203.35
863.1462	7178.95
866.96777	7164.65
870.78668	7112.05
874.60293	7164.75
878.41652	7193.35
882.22745	7244.15
886.03573	7259.35
889.84136	7265.35
893.64433	7238.35
897.44466	7218.15
901.24235	7206.65
905.0374	7176.75
908.8298	7165.45
912.61957	7144.75
916.40671	7187.55
920.19121	7217.45
923.97308	7334.15
927.75233	7380.85
931.52895	7440.75
935.30295	7390.85
939.07433	7258.75
942.84309	7157.45
946.60924	7137.25
950.37278	7123.35
954.13371	7089.85
957.89203	7061.65
961.64774	7037.35
965.40086	7031.95
969.15137	7012.95
972.89929	7010.65
976.64461	7018.45
980.38733	7017.15
984.12747	7065.45
987.86502	7105.35
991.59999	7206.05
995.33237	7331.05
999.06217	7528.95
1002.78939	7754.75
1006.51404	7854.05
1010.23611	7912.35
1013.95561	7985.45
1017.67255	8089.05
1021.38692	8054.15
1025.09872	8060.15
1028.80796	8130.35
1032.51465	8331.75
1036.21877	8464.05
1039.92035	8412.25
1043.61937	8341.05
1047.31584	8119.55
1051.00976	7943.65
1054.70114	7875.55
1058.38998	7839.75
1062.07627	7876.45
1065.76003	7921.75
1069.44126	7940.65
1073.11995	8059.15
1076.79611	8148.25
1080.46974	8219.05
1084.14085	8327.05
1087.80943	8394.85
1091.47549	8398.85
1095.13903	8319.65
1098.80005	8230.65
1102.45857	8189.55
1106.11456	8154.05
1109.76805	8173.65
1113.41903	8198.05
1117.06751	8302.85
1120.71348	8445.05
1124.35696	8604.65
1127.99793	8688.65
1131.63641	8562.75
1135.2724	8338.15
1138.90589	8182.05
1142.5369	8031.45
1146.16542	7974.65
1149.79145	7908.65
1153.415	7888.55
1157.03607	7910.05
1160.65467	7992.75
1164.27079	8177.15
1167.88443	8433.55
1171.49561	8853.85
1175.10432	9471.65
1178.71056	10288.25
1182.31434	11059.55
1185.91565	11425.25
1189.51451	11369.85
1193.11091	11065.15
1196.70485	10585.25
1200.29634	10134.25
1203.88538	9764.15
1207.47197	9394.45
1211.05612	9036.15
1214.63782	8818.15
1218.21708	8707.15
1221.79391	8748.85
1225.36829	8779.35
1228.94024	8790.55
1232.50976	8682.05
1236.07685	8659.45
1239.6415	8679.95
1243.20374	8708.75
1246.76355	8762.25
1250.32093	8869.25
1253.8759	9063.75
1257.42845	9328.45
1260.97859	9587.85
1264.52631	9792.05
1268.07163	9975.95
1271.61453	10111.85
1275.15503	10267.45
1278.69312	10408.45
1282.22882	10568.55
1285.76211	10683.05
1289.29301	10818.05
1292.82151	11013.55
1296.34761	11257.75
1299.87133	11662.35
1303.39266	12339.95
1306.9116	13249.45
1310.42815	14233.35
1313.94233	14630.15
1317.45412	14278.05
1320.96354	13528.85
1324.47058	12775.15
1327.97525	12183.95
1331.47754	11880.95
1334.97747	11886.95
1338.47502	12100.25
1341.97022	12427.45
1345.46305	12871.35
1348.95352	13489.25
1352.44163	14120.65
1355.92738	14922.15
1359.41078	15963.95
1362.89183	16602.75
1366.37053	15791.15
1369.84688	13891.15
1373.32088	12101.75
1376.79254	11094.15
1380.26186	10600.15
1383.72883	10332.05
1387.19347	10074.55
1390.65578	9788.75
1394.11575	9525.25
1397.57339	9381.05
1401.0287	9358.65
1404.48168	9414.35
1407.93234	9553.05
1411.38068	9722.75
1414.82669	9867.25
1418.27039	9831.65
1421.71177	9724.85
1425.15083	9628.35
1428.58758	9669.75
1432.02203	9791.45
1435.45416	9893.75
1438.88399	9930.35
1442.31151	9872.05
1445.73673	9812.15
1449.15965	9756.85
1452.58027	9661.05
1455.9986	9555.75
1459.41463	9530.45
1462.82837	9616.95
1466.23982	9786.85
1469.64898	9946.35
1473.05586	10101.95
1476.46045	10225.55
1479.86276	10349.15
1483.26279	10458.45
1486.66054	10589.45
1490.05602	10851.95
1493.44922	11206.45
1496.84016	11718.75
1500.22882	12484.85
1503.61521	13420.45
1506.99934	14247.05
1510.38121	14716.05
1513.76081	14465.75
1517.13816	13553.75
1520.51324	12452.55
1523.88607	11536.45
1527.25665	11005.95
1530.62498	10724.85
1533.99105	10580.15
1537.35488	10499.15
1540.71647	10462.85
1544.07581	10341.75
1547.4329	10217.75
1550.78776	10104.65
1554.14038	10012.45
1557.49077	9940.15
1560.83892	9996.75
1564.18484	10126.55
1567.52853	10250.85
1570.86999	10352.75
1574.20922	10355.45
1577.54624	10214.55
1580.88103	9876.35
1584.2136	9571.35
1587.54395	9479.95
1590.87208	9746.05
1594.19801	10353.15
1597.52172	11046.95
1600.84321	11478.95
1604.16251	11332.65
1607.47959	10866.45
1610.79447	10206.65
1614.10715	9534.75
1617.41763	8979.85
1620.7259	8612.95
1624.03199	8428.85
1627.33587	8436.05
1630.63757	8625.95
1633.93707	9041.95
1637.23439	9648.15
1640.52951	10483.05
1643.82246	11437.05
1647.11321	12175.75
1650.40179	12212.45
1653.68819	11383.45
1656.97241	10085.65
1660.25446	8931.95
1663.53433	8157.95
1666.81203	7706.95
1670.08756	7445.65
1673.36092	7283.05
1676.63211	7124.05
1679.90115	7061.55
1683.16801	6984.85
1686.43272	6910.45
1689.69527	6892.45
1692.95567	6861.45
1696.2139	6849.65
1699.46999	6811.95
1702.72392	6823.25
1705.97571	6831.15
1709.22535	6825.55
1712.47284	6818.45
1715.71819	6798.05
1718.96139	6793.05
1722.20246	6773.05
1725.44139	6758.15
1728.67818	6725.55
1731.91284	6696.45
1735.14537	6659.95
1738.37576	6641.15
1741.60403	6620.15
1744.83017	6609.85
1748.05418	6593.55
1751.27607	6582.15
1754.49584	6576.05
1757.71349	6555.15
1760.92903	6540.25
1764.14244	6516.05
1767.35375	6532.25
1770.56294	6517.85
1773.77002	6513.85
1776.97499	6507.25
1780.17785	6490.35
1783.37861	6476.75
1786.57727	6461.45
1789.77382	6446.15
1792.96828	6441.75
1796.16064	6425.55
1799.3509	6421.55
1802.53907	6408.25
1805.72514	6415.15
1808.90913	6390.75
1812.09102	6388.55
1815.27083	6378.75
1818.44856	6332.95
1821.6242	6332.55
1824.79776	6329.35
1827.96924	6321.55
1831.13864	6320.85
1834.30597	6308.85
1837.47122	6289.95
1840.6344	6280.55
1843.7955	6264.45
1846.95454	6274.65
1850.11151	6270.25
1853.26642	6280.55
1856.41926	6264.85
1859.57004	6252.55
1862.71876	6252.65
1865.86542	6247.85
1869.01003	6250.95
1872.15258	6239.95
1875.29308	6255.75
1878.43152	6234.85
1881.56792	6209.35
1884.70227	6218.65
1887.83457	6215.35
1890.96482	6208.05
1894.09304	6190.25
1897.21921	6171.15
1900.34335	6147.75
1903.46544	6164.95
1906.58551	6181.35
1909.70353	6168.75
1912.81953	6174.25
1915.93349	6173.95
1919.04543	6116.95
1922.15534	6143.45
1925.26322	6127.85
1928.36908	6101.75
1931.47292	6112.25
1934.57473	6087.55
1937.67453	6096.35
1940.77232	6086.45
1943.86808	6064.45
1946.96184	6025.95
1950.05358	6028.25
1953.14331	6017.45
1956.23103	5978.55
1959.31675	5941.55
1962.40046	5952.35
1965.48217	5921.55
1968.56188	5925.25
1971.63959	5894.75
1974.7153	5886.65
1977.78901	5857.15
1980.86073	5851.85
1983.93046	5827.35
1986.99819	5815.65
1990.06394	5795.65
1993.1277	5767.75
1996.18947	5757.65
1999.24925	5730.85
2002.30706	5713.65
2005.36288	5699.85
2008.41672	5671.95
2011.46859	5667.45
2014.51848	5659.95
2017.56639	5627.35
2020.61233	5608.55
2023.6563	5608.65
2026.6983	5598.85
2029.73833	5577.15
2032.7764	5570.95
2035.8125	5560.95
2038.84664	5534.95
2041.87881	5550.35
2044.90903	5536.55
2047.93729	5518.35
2050.96359	5520.15
2053.98794	5518.35
2057.01034	5503.15
2060.03078	5486.05
2063.04927	5488.55
2066.06582	5484.15
2069.08042	5461.55
2072.09307	5469.45
2075.10378	5453.35
2078.11255	5461.05
2081.11938	5445.35
2084.12426	5462.25
2087.12722	5433.45
2090.12824	5437.35
2093.12732	5431.05
2096.12447	5447.95
2099.11969	5444.65
2102.11299	5445.15
2105.10435	5451.15
2108.09379	5437.85
2111.08131	5439.85
2114.0669	5436.05
2117.05057	5443.15
2120.03233	5443.65
2123.01216	5450.85
2125.99008	5438.25
2128.96609	5446.45
2131.94018	5460.75
2134.91236	5463.75
2137.88263	5454.05
2140.851	5464.35
2143.81746	5470.75
2146.78201	5458.95
2149.74466	5459.45
2152.7054	5454.25
2155.66425	5470.15
2158.6212	5450.25
2161.57625	5456.35
2164.52941	5456.05
2167.48067	5454.05
2170.43004	5429.05
2173.37752	5438.15
2176.32311	5452.65
2179.26681	5451.45
2182.20863	5438.85
2185.14856	5435.65
2188.08661	5437.45
2191.02278	5449.85
2193.95707	5440.15
2196.88948	5440.65
2199.82001	5447.85
2202.74867	5430.05
2205.67545	5444.05
2208.60037	5418.65
2211.52341	5412.35
2214.44458	5422.35
2217.36388	5393.85
2220.28132	5375.25
2223.1969	5365.75
2226.11061	5361.85
2229.02246	5338.05
2231.93245	5337.95
2234.84058	5330.85
2237.74686	5316.95
2240.65128	5303.75
2243.55385	5310.65
2246.45456	5295.15
2249.35343	5291.35
2252.25044	5282.35
2255.14561	5289.05
2258.03893	5272.15
2260.93041	5268.45
2263.82004	5250.15
2266.70783	5249.95
2269.59378	5208.65
2272.4779	5215.45
2275.36017	5193.35
2278.24061	5168.75
2281.11922	5165.25
2283.996	5156.95
2286.87094	5159.65
2289.74405	5139.75
2292.61534	5133.65
2295.4848	5139.85
2298.35243	5144.05
2301.21824	5129.85
2304.08223	5133.75
2306.94439	5144.55
2309.80474	5131.75
2312.66327	5129.85
2315.51999	5133.95
2318.37489	5125.85
2321.22797	5123.45
2324.07925	5114.35
2326.92871	5116.05
2329.77637	5098.25
2332.62222	5085.05
2335.46626	5090.95
2338.3085	5088.55
2341.14893	5093.65
2343.98756	5091.05
2346.8244	5096.45
2349.65943	5091.55
2352.49267	5089.25
2355.32411	5076.75
2358.15376	5081.25
2360.98161	5071.05
2363.80768	5072.45
2366.63195	5061.25
2369.45444	5052.75
2372.27514	5036.85
2375.09405	5049.95
2377.91118	5039.95
2380.72652	5015.75
2383.54009	5004.75
2386.35187	5001.75
2389.16188	4984.45
2391.97011	4960.45
2394.77657	4949.85
2397.58125	4949.55
2400.38416	4946.95
2403.18529	4925.45
2405.98466	4932.55
2408.78226	4901.75
2411.57809	4910.85
2414.37216	4896.95
2417.16446	4884.35
2419.955	4874.15
2422.74378	4883.75
2425.5308	4870.25
2428.31606	4863.15
2431.09956	4847.85
2433.88131	4837.15
2436.6613	4853.35
2439.43954	4853.25
2442.21603	4843.65
2444.99077	4836.85
2447.76377	4858.55
2450.53501	4837.75
2453.30451	4827.95
2456.07226	4820.85
2458.83827	4818.75
2461.60254	4819.95
2464.36507	4798.75
2467.12586	4796.05
2469.88492	4797.05
2472.64224	4816.45
2475.39782	4787.35
2478.15167	4807.55
2480.90379	4789.05
2483.65417	4797.35
2486.40283	4806.85
2489.14976	4812.55
2491.89497	4804.15
2494.63845	4815.25
2497.3802	4805.25
2500.12024	4811.75
2502.85855	4775.65
2505.59514	4767.15
2508.33002	4762.15
2511.06318	4724.75
2513.79462	4743.05
2516.52435	4721.85
2519.25237	4731.35
2521.97867	4733.85
2524.70327	4728.35
2527.42616	4722.75
2530.14734	4703.95
2532.86681	4708.65
2535.58458	4716.35
2538.30065	4714.45
2541.01501	4706.35
2543.72768	4681.65
2546.43864	4702.85
2549.14791	4680.95
2551.85548	4684.75
2554.56136	4687.75
2557.26554	4677.45
2559.96803	4674.65
2562.66883	4656.35
2565.36794	4643.45
2568.06536	4646.55
2570.7611	4614.75
2573.45514	4623.65
2576.14751	4616.35
2578.83819	4606.25
2581.52719	4601.55
2584.21451	4611.55
2586.90015	4596.35
2589.58411	4577.95
2592.2664	4587.05
2594.94701	4577.45
2597.62594	4587.55
2600.30321	4566.95
2602.9788	4571.95
2605.65273	4555.45
2608.32498	4566.65
2610.99557	4550.75
2613.66449	4556.65
2616.33175	4551.55
2618.99734	4546.95
2621.66128	4530.95
2624.32355	4555.85
2626.98416	4559.05
2629.64311	4550.05
2632.30041	4536.35
2634.95605	4538.25
2637.61004	4525.25
2640.26238	4525.75
2642.91306	4521.05
2645.56209	4496.65
2648.20948	4496.25
2650.85521	4497.45
2653.4993	4491.65
2656.14175	4493.15
2658.78255	4487.75
2661.42171	4504.25
2664.05923	4495.05
2666.6951	4506.65
2669.32934	4506.45
2671.96194	4512.65
2674.59291	4492.35
2677.22224	4509.85
2679.84993	4487.15
2682.476	4504.95
2685.10043	4492.75
2687.72324	4486.45
2690.34441	4481.15
2692.96396	4466.65
2695.58188	4466.75
2698.19818	4463.95
2700.81285	4465.35
2703.4259	4472.55
2706.03733	4479.65
2708.64714	4454.35
2711.25533	4448.15
2713.86191	4447.95
2716.46687	4457.45
2719.07021	4456.15
2721.67194	4463.85
2724.27206	4464.85
2726.87057	4468.25
2729.46747	4461.25
2732.06276	4466.75
2734.65644	4448.95
2737.24852	4447.55
2739.83899	4455.95
2742.42786	4443.75
2745.01513	4436.75
2747.60079	4438.35
2750.18486	4415.95
2752.76733	4414.25
2755.3482	4422.15
2757.92747	4416.85
2760.50515	4394.45
2763.08123	4400.95
2765.65573	4394.25
2768.22863	4387.45
2770.79994	4379.15
2773.36967	4385.55
2775.9378	4382.75
2778.50435	4387.75
2781.06932	4367.75
2783.6327	4378.55
2786.1945	4361.55
2788.75471	4357.45
2791.31335	4333.25
2793.87041	4335.25
2796.42589	4327.05
2798.97979	4331.35
2801.53212	4335.05
2804.08288	4317.45
2806.63206	4295.55
2809.17967	4298.95
2811.72571	4286.35
2814.27018	4294.85
2816.81308	4282.55
2819.35442	4262.55
2821.89419	4237.05
2824.43239	4241.45
2826.96904	4245.15
2829.50412	4253.05
2832.03763	4230.35
2834.56959	4229.95
2837.1	4219.05
2839.62884	4214.05
2842.15613	4211.55
2844.68186	4229.05
2847.20604	4213.75
2849.72867	4201.75
2852.24974	4192.55
2854.76927	4168.15
2857.28724	4160.25
2859.80367	4165.05
2862.31855	4145.25
2864.83189	4161.85
2867.34368	4154.35
2869.85393	4152.55
2872.36264	4153.55
2874.8698	4116.35
2877.37543	4131.15
2879.87952	4122.35
2882.38207	4120.05
2884.88308	4112.65
2887.38256	4124.85
2889.88051	4127.75
2892.37692	4122.45
2894.8718	4101.55
2897.36515	4128.65
2899.85698	4116.05
2902.34727	4118.55
2904.83604	4116.65
2907.32328	4119.95
2909.809	4126.25
2912.29319	4129.35
2914.77587	4129.45
2917.25702	4122.75
2919.73665	4140.45
2922.21476	4132.65
2924.69136	4106.05
2927.16644	4122.45
2929.64	4109.35
2932.11205	4102.25
2934.58258	4080.15
2937.05161	4085.65
2939.51912	4081.65
2941.98513	4071.55
2944.44962	4064.15
2946.91261	4058.25
2949.37409	4079.55
2951.83407	4074.15
2954.29254	4064.65
2956.74951	4056.55
2959.20498	4056.25
2961.65895	4042.95
2964.11142	4042.05
2966.56239	4029.45
2969.01186	4041.45
2971.45984	4022.45
2973.90632	4034.25
2976.35131	4028.55
2978.7948	4004.15
2981.23681	3981.75
2983.67732	3980.65
2986.11635	3989.95
2988.55388	3971.45
2990.98993	3960.65
2993.4245	3950.55
2995.85758	3951.65
2998.28917	3945.25
3000.71928	3925.15
3003.14791	3918.25
3005.57506	3907.25
3008.00073	3903.05
3010.42493	3888.85
3012.84764	3867.85
3015.26888	3847.15
3017.68865	3854.35
3020.10694	3861.65
3022.52376	3844.65
3024.9391	3835.65
3027.35298	3813.25
3029.76539	3815.05
3032.17632	3811.25
3034.5858	3815.35
3036.9938	3797.35
3039.40034	3789.05
3041.80542	3785.25
3044.20903	3773.55
3046.61118	3777.65
3049.01187	3752.95
3051.4111	3747.55
3053.80888	3742.25
3056.20519	3728.85
3058.60005	3722.65
3060.99345	3721.45
3063.3854	3717.45
3065.7759	3701.35
3068.16494	3700.25
3070.55254	3675.35
3072.93868	3665.45
3075.32338	3653.95
3077.70662	3639.15
3080.08842	3627.65
3082.46878	3630.05
3084.84769	3600.35
3087.22515	3606.45
3089.60118	3630.15
3091.97576	3619.05
3094.3489	3611.25
3096.72061	3614.55
3099.09087	3601.85
3101.4597	3605.55
3103.82709	3601.15
3106.19305	3583.85
3108.55757	3584.35
3110.92066	3582.35
3113.28232	3578.05
3115.64255	3570.85
3118.00134	3548.65
3120.35871	3550.65
3122.71466	3541.85
3125.06917	3544.05
3127.42226	3528.35
3129.77393	3531.15
3132.12417	3515.65
3134.47299	3515.75
3136.82039	3513.95
3139.16636	3498.15
3141.51092	3491.75
3143.85406	3506.95
3146.19579	3480.15
3148.53609	3508.35
3150.87499	3487.85
3153.21246	3498.95
3155.54853	3476.75
3157.88318	3483.05
3160.21642	3494.35
3162.54826	3486.45
3164.87868	3470.65
3167.2077	3471.05
3169.5353	3465.15
3171.86151	3480.65
3174.18631	3457.45
3176.5097	3456.45
3178.83169	3446.85
3181.15228	3448.35
3183.47147	3437.25
3185.78926	3431.45
3188.10565	3413.65
3190.42065	3421.05
3192.73424	3399.75
3195.04645	3398.55
3197.35725	3389.85
3199.66667	3393.95
3201.97469	3394.45
3204.28132	3379.35
3206.58656	3384.35
3208.8904	3382.85
3211.19287	3408.85
3213.49394	3399.25
3215.79363	3394.95
3218.09193	3392.55
3220.38884	3383.35
3222.68438	3374.15
3224.97853	3385.95
3227.2713	3394.25
3229.56269	3372.95
3231.8527	3380.45
3234.14133	3362.75
3236.42858	3368.05
3238.71446	3325.95
3240.99896	3340.15
3243.28209	3327.75
3245.56384	3325.05
3247.84423	3329.65
3250.12324	3330.75
3252.40088	3316.75
3254.67715	3308.55
3256.95205	3305.15
3259.22558	3290.25
3261.49775	3305.25
3263.76855	3306.25
3266.03799	3308.35
3268.30606	3301.75
3270.57277	3298.95
3272.83812	3297.35
3275.10211	3270.85
3277.36474	3274.25
3279.62601	3266.85
3281.88593	3254.75
3284.14448	3255.05
3286.40168	3246.35
3288.65753	3257.15
3290.91202	3240.65
3293.16516	3233.65
3295.41695	3230.95
3297.66738	3218.95
3299.91647	3192.55
3302.16421	3180.15
3304.4106	3160.75
3306.65564	3144.55
3308.89933	3108.65
3311.14169	3079.45
3313.38269	3076.15
3315.62236	3054.45
3317.86068	3027.75
3320.09766	2996.45
3322.3333	2955.65
3324.5676	2953.55
3326.80056	2914.45
3329.03219	2894.35
3331.26248	3.25
3333.49143	-0.05
3335.71905	-1.65
