Data from AgNPs_UA_5uM_CRN_500uM_SU_RamanShift__58__11-39-03-149.txt Node

Date: Thu Aug 04 11:39:03 BST 2022
User: TCL
Spectrometer: QEP01345
Trigger mode: 4
Integration Time (sec): 1.000000E0
Scans to average: 10
Electric dark correction enabled: true
Nonlinearity correction enabled: false
Boxcar width: 0
XAxis mode: Raman Shifts
Number of Pixels in Spectrum: 1044
>>>>>Begin Spectral Data<<<<<
46.04893	-0.75
50.45542	-0.25
54.85868	0.55
59.25871	0.05
63.6555	-55.25
68.04907	-38.15
72.43941	-70.05
76.82654	-54.05
81.21044	-54.75
85.59113	-46.75
89.96862	-72.55
94.34289	-52.85
98.71396	-73.75
103.08183	-55.45
107.4465	-45.15
111.80798	-54.55
116.16626	-41.65
120.52136	-71.05
124.87327	-46.45
129.222	-56.35
133.56755	-45.85
137.90993	-56.75
142.24913	-41.75
146.58517	-32.15
150.91804	-28.95
155.24774	-10.75
159.57429	15.25
163.89768	27.15
168.21792	90.05
172.53501	124.55
176.84895	240.55
181.15975	415.65
185.46741	624.65
189.77193	882.25
194.07331	1263.85
198.37157	1662.95
202.6667	2090.15
206.9587	2548.25
211.24758	3021.15
215.53334	3556.05
219.81599	4140.45
224.09553	4848.35
228.37195	5558.35
232.64527	6245.25
236.91549	6850.85
241.18261	7157.85
245.44663	7346.85
249.70755	7373.35
253.96539	7435.35
258.22014	7546.35
262.4718	7651.55
266.72039	7667.45
270.96589	7535.95
275.20832	7293.65
279.44768	7031.95
283.68397	6825.35
287.91719	6740.95
292.14735	6866.15
296.37445	7268.15
300.59849	7982.15
304.81948	8996.05
309.03742	10122.55
313.25231	10926.05
317.46415	10828.15
321.67296	9640.05
325.87872	8277.95
330.08145	7528.15
334.28114	7369.65
338.47781	7574.95
342.67145	8039.15
346.86207	8741.75
351.04966	9824.35
355.23424	10948.95
359.4158	11396.95
363.59435	11078.55
367.76989	10476.85
371.94243	9855.75
376.11196	9352.95
380.27849	8980.45
384.44203	8714.35
388.60257	8588.65
392.76012	8602.15
396.91468	8858.65
401.06626	9164.65
405.21485	9200.25
409.36047	8744.75
413.50311	7914.45
417.64277	7145.05
421.77947	6667.35
425.9132	6448.35
430.04396	6329.85
434.17176	6300.35
438.2966	6414.75
442.41849	6585.75
446.53742	6775.35
450.6534	6905.45
454.76644	6946.65
458.87653	6884.75
462.98368	6784.45
467.08789	6677.05
471.18916	6514.45
475.2875	6262.25
479.38291	6067.15
483.4754	5945.25
487.56496	5899.95
491.6516	5851.05
495.73531	5841.15
499.81612	5882.95
503.89401	6050.05
507.96899	6206.05
512.04106	6403.15
516.11023	6627.25
520.1765	6787.35
524.23987	6839.75
528.30034	6825.25
532.35792	6694.05
536.41261	6557.45
540.46441	6398.15
544.51333	6249.15
548.55936	6249.75
552.60252	6400.35
556.64279	6574.35
560.6802	6922.05
564.71473	7636.65
568.7464	8543.45
572.7752	8471.85
576.80114	7272.75
580.82422	6292.35
584.84444	5896.55
588.86181	5782.25
592.87633	5797.55
596.888	5979.55
600.89682	6626.55
604.9028	8686.95
608.90594	13902.55
612.90624	20212.75
616.90371	18415.35
620.89834	10631.55
624.89015	7227.75
628.87913	6833.75
632.86528	7311.95
636.84862	7539.95
640.82913	6990.95
644.80683	6145.75
648.78172	5754.85
652.75379	5872.55
656.72306	6491.15
660.68952	7102.95
664.65319	6822.65
668.61405	6078.55
672.57211	5798.05
676.52738	5806.65
680.47986	5711.75
684.42955	5544.25
688.37646	5490.55
692.32058	5491.85
696.26192	5600.45
700.20048	5727.45
704.13626	5775.85
708.06928	5687.05
711.99952	5630.15
715.927	5667.05
719.85171	5838.65
723.77365	5942.25
727.69284	5833.45
731.60928	5719.35
735.52295	5673.65
739.43388	5712.05
743.34206	5742.75
747.24749	5777.95
751.15017	5782.15
755.05012	6024.05
758.94733	7029.35
762.8418	9277.15
766.73354	12269.15
770.62254	13807.75
774.50882	13272.75
778.39237	12210.75
782.27321	10548.65
786.15132	8306.15
790.02671	6790.85
793.89938	6039.35
797.76935	5789.05
801.6366	5674.75
805.50115	5575.15
809.36299	5583.55
813.22213	5558.65
817.07857	5545.55
820.93231	5568.35
824.78336	5649.65
828.63172	5733.35
832.47738	5787.65
836.32036	5713.05
840.16066	5559.75
843.99827	5469.35
847.8332	5430.45
851.66546	5430.05
855.49504	5415.15
859.32195	5427.85
863.1462	5376.05
866.96777	5377.75
870.78668	5356.15
874.60293	5418.95
878.41652	5460.55
882.22745	5597.95
886.03573	5649.85
889.84136	5622.75
893.64433	5613.45
897.44466	5609.15
901.24235	5610.15
905.0374	5559.15
908.8298	5419.35
912.61957	5323.05
916.40671	5245.95
920.19121	5285.05
923.97308	5442.65
927.75233	5740.55
931.52895	6057.05
935.30295	5893.95
939.07433	5427.35
942.84309	5153.15
946.60924	5060.05
950.37278	4986.65
954.13371	4989.35
957.89203	4969.35
961.64774	4992.25
965.40086	4960.15
969.15137	4925.15
972.89929	4961.15
976.64461	4949.55
980.38733	4959.55
984.12747	4940.65
987.86502	4930.35
991.59999	4975.25
995.33237	5041.95
999.06217	5128.25
1002.78939	5252.65
1006.51404	5492.65
1010.23611	5630.25
1013.95561	5543.35
1017.67255	5416.65
1021.38692	5302.65
1025.09872	5178.85
1028.80796	5099.55
1032.51465	5134.75
1036.21877	5161.65
1039.92035	5216.85
1043.61937	5271.45
1047.31584	5335.35
1051.00976	5368.05
1054.70114	5326.75
1058.38998	5290.75
1062.07627	5300.15
1065.76003	5291.45
1069.44126	5364.15
1073.11995	5461.25
1076.79611	5701.45
1080.46974	6106.75
1084.14085	6660.35
1087.80943	7111.95
1091.47549	7110.15
1095.13903	6687.55
1098.80005	6272.25
1102.45857	6075.15
1106.11456	6056.45
1109.76805	6047.95
1113.41903	6337.65
1117.06751	6808.05
1120.71348	7588.75
1124.35696	8730.65
1127.99793	9528.05
1131.63641	8899.15
1135.2724	7659.35
1138.90589	6807.65
1142.5369	6324.75
1146.16542	6019.65
1149.79145	5815.25
1153.415	5733.15
1157.03607	5763.55
1160.65467	5927.45
1164.27079	6258.35
1167.88443	6711.75
1171.49561	7500.95
1175.10432	8870.35
1178.71056	10752.95
1182.31434	12130.25
1185.91565	11992.75
1189.51451	10826.25
1193.11091	9554.65
1196.70485	8771.45
1200.29634	8439.05
1203.88538	8003.05
1207.47197	7229.35
1211.05612	6490.75
1214.63782	5983.05
1218.21708	5764.85
1221.79391	5656.75
1225.36829	5615.05
1228.94024	5630.95
1232.50976	5617.15
1236.07685	5633.15
1239.6415	5695.85
1243.20374	5768.55
1246.76355	5895.75
1250.32093	6066.85
1253.8759	6279.55
1257.42845	6678.35
1260.97859	7192.05
1264.52631	7732.45
1268.07163	7980.35
1271.61453	8043.05
1275.15503	7880.95
1278.69312	7708.55
1282.22882	7836.55
1285.76211	8478.25
1289.29301	9417.05
1292.82151	10040.85
1296.34761	10285.35
1299.87133	10935.45
1303.39266	12537.15
1306.9116	15566.25
1310.42815	19148.05
1313.94233	20425.95
1317.45412	17645.65
1320.96354	13707.75
1324.47058	10746.85
1327.97525	8888.75
1331.47754	7928.45
1334.97747	7598.25
1338.47502	7739.65
1341.97022	8510.15
1345.46305	10143.15
1348.95352	12501.05
1352.44163	14908.45
1355.92738	17752.95
1359.41078	22636.35
1362.89183	27984.25
1366.37053	26811.75
1369.84688	19275.05
1373.32088	12917.35
1376.79254	10150.35
1380.26186	8922.85
1383.72883	7980.15
1387.19347	7109.45
1390.65578	6422.95
1394.11575	6045.95
1397.57339	5816.25
1401.0287	5694.85
1404.48168	5585.25
1407.93234	5556.85
1411.38068	5646.75
1414.82669	5953.45
1418.27039	6273.55
1421.71177	6366.05
1425.15083	6187.35
1428.58758	6179.55
1432.02203	6479.25
1435.45416	6717.15
1438.88399	6528.95
1442.31151	6269.95
1445.73673	6214.75
1449.15965	6205.65
1452.58027	6102.85
1455.9986	5991.65
1459.41463	5871.55
1462.82837	5881.45
1466.23982	6095.15
1469.64898	6369.45
1473.05586	6464.75
1476.46045	6469.15
1479.86276	6519.65
1483.26279	6731.95
1486.66054	7227.45
1490.05602	7981.95
1493.44922	9217.55
1496.84016	11166.35
1500.22882	14168.05
1503.61521	18368.45
1506.99934	23552.35
1510.38121	28546.35
1513.76081	30266.65
1517.13816	26846.25
1520.51324	20443.05
1523.88607	14800.85
1527.25665	11220.05
1530.62498	9259.75
1533.99105	8104.95
1537.35488	7393.75
1540.71647	6933.35
1544.07581	6748.85
1547.4329	6778.05
1550.78776	6889.55
1554.14038	7138.85
1557.49077	7501.15
1560.83892	8186.05
1564.18484	9239.25
1567.52853	10448.75
1570.86999	11210.25
1574.20922	11303.75
1577.54624	10865.75
1580.88103	9463.65
1584.2136	7761.65
1587.54395	6778.25
1590.87208	6508.45
1594.19801	6797.55
1597.52172	7362.15
1600.84321	7389.25
1604.16251	6801.75
1607.47959	6248.75
1610.79447	5888.45
1614.10715	5578.55
1617.41763	5375.85
1620.7259	5234.05
1624.03199	5250.75
1627.33587	5349.35
1630.63757	5625.95
1633.93707	6142.25
1637.23439	7035.75
1640.52951	8715.05
1643.82246	11538.25
1647.11321	15346.15
1650.40179	18360.95
1653.68819	18041.55
1656.97241	14524.55
1660.25446	10429.75
1663.53433	7667.65
1666.81203	6139.05
1670.08756	5364.65
1673.36092	4940.75
1676.63211	4680.15
1679.90115	4521.55
1683.16801	4389.15
1686.43272	4278.35
1689.69527	4224.15
1692.95567	4148.45
1696.2139	4114.45
1699.46999	4047.45
1702.72392	4065.35
1705.97571	4053.15
1709.22535	4039.85
1712.47284	4114.85
1715.71819	4119.05
1718.96139	4130.25
1722.20246	4109.55
1725.44139	4079.75
1728.67818	4022.65
1731.91284	3942.35
1735.14537	3903.35
1738.37576	3867.15
1741.60403	3864.35
1744.83017	3820.25
1748.05418	3814.05
1751.27607	3808.65
1754.49584	3753.35
1757.71349	3715.15
1760.92903	3676.25
1764.14244	3623.55
1767.35375	3614.85
1770.56294	3580.75
1773.77002	3554.55
1776.97499	3547.55
1780.17785	3500.25
1783.37861	3491.95
1786.57727	3490.25
1789.77382	3440.65
1792.96828	3469.75
1796.16064	3469.25
1799.3509	3453.55
1802.53907	3453.05
1805.72514	3413.65
1808.90913	3411.65
1812.09102	3414.15
1815.27083	3396.35
1818.44856	3373.35
1821.6242	3373.65
1824.79776	3355.65
1827.96924	3341.35
1831.13864	3317.85
1834.30597	3318.05
1837.47122	3280.75
1840.6344	3261.25
1843.7955	3249.05
1846.95454	3224.25
1850.11151	3247.05
1853.26642	3195.55
1856.41926	3217.45
1859.57004	3223.95
1862.71876	3215.65
1865.86542	3216.45
1869.01003	3220.25
1872.15258	3189.15
1875.29308	3229.65
1878.43152	3228.55
1881.56792	3194.25
1884.70227	3192.75
1887.83457	3183.65
1890.96482	3163.85
1894.09304	3151.35
1897.21921	3143.55
1900.34335	3153.95
1903.46544	3141.25
1906.58551	3143.55
1909.70353	3129.75
1912.81953	3143.75
1915.93349	3128.65
1919.04543	3118.85
1922.15534	3087.95
1925.26322	3090.15
1928.36908	3060.35
1931.47292	3045.05
1934.57473	3048.15
1937.67453	2993.45
1940.77232	2981.25
1943.86808	2974.75
1946.96184	2972.55
1950.05358	2931.35
1953.14331	2929.65
1956.23103	2942.45
1959.31675	2910.25
1962.40046	2885.55
1965.48217	2919.75
1968.56188	2921.45
1971.63959	2930.65
1974.7153	2933.05
1977.78901	2912.25
1980.86073	2886.65
1983.93046	2854.25
1986.99819	2768.45
1990.06394	2775.55
1993.1277	2795.55
1996.18947	2776.35
1999.24925	2746.55
2002.30706	2751.45
2005.36288	2742.65
2008.41672	2719.65
2011.46859	2697.75
2014.51848	2696.35
2017.56639	2673.25
2020.61233	2657.75
2023.6563	2659.35
2026.6983	2630.65
2029.73833	2637.75
2032.7764	2648.25
2035.8125	2592.95
2038.84664	2611.85
2041.87881	2592.25
2044.90903	2608.85
2047.93729	2590.85
2050.96359	2571.05
2053.98794	2573.65
2057.01034	2576.35
2060.03078	2553.85
2063.04927	2547.15
2066.06582	2544.15
2069.08042	2525.95
2072.09307	2527.55
2075.10378	2519.25
2078.11255	2505.65
2081.11938	2514.05
2084.12426	2505.45
2087.12722	2513.35
2090.12824	2504.85
2093.12732	2508.15
2096.12447	2511.85
2099.11969	2513.85
2102.11299	2490.35
2105.10435	2521.15
2108.09379	2504.35
2111.08131	2504.45
2114.0669	2512.45
2117.05057	2523.05
2120.03233	2508.85
2123.01216	2529.65
2125.99008	2557.65
2128.96609	2546.35
2131.94018	2559.35
2134.91236	2541.45
2137.88263	2529.05
2140.851	2526.45
2143.81746	2529.35
2146.78201	2511.05
2149.74466	2494.85
2152.7054	2497.45
2155.66425	2475.25
2158.6212	2457.65
2161.57625	2428.05
2164.52941	2408.35
2167.48067	2433.45
2170.43004	2433.65
2173.37752	2458.85
2176.32311	2448.05
2179.26681	2460.45
2182.20863	2449.55
2185.14856	2461.55
2188.08661	2454.15
2191.02278	2451.35
2193.95707	2432.95
2196.88948	2400.45
2199.82001	2418.45
2202.74867	2392.85
2205.67545	2403.05
2208.60037	2418.95
2211.52341	2401.05
2214.44458	2382.75
2217.36388	2397.45
2220.28132	2366.25
2223.1969	2350.95
2226.11061	2352.55
2229.02246	2335.65
2231.93245	2348.65
2234.84058	2335.75
2237.74686	2322.85
2240.65128	2315.45
2243.55385	2338.95
2246.45456	2307.25
2249.35343	2344.35
2252.25044	2330.85
2255.14561	2356.05
2258.03893	2369.75
2260.93041	2372.85
2263.82004	2373.65
2266.70783	2383.65
2269.59378	2352.85
2272.4779	2339.85
2275.36017	2350.55
2278.24061	2331.75
2281.11922	2309.65
2283.996	2313.25
2286.87094	2295.65
2289.74405	2294.95
2292.61534	2277.45
2295.4848	2269.45
2298.35243	2255.15
2301.21824	2235.05
2304.08223	2239.05
2306.94439	2254.35
2309.80474	2244.65
2312.66327	2242.05
2315.51999	2227.45
2318.37489	2223.25
2321.22797	2206.65
2324.07925	2209.15
2326.92871	2201.65
2329.77637	2192.35
2332.62222	2200.95
2335.46626	2182.25
2338.3085	2182.35
2341.14893	2186.05
2343.98756	2216.75
2346.8244	2190.65
2349.65943	2169.15
2352.49267	2201.25
2355.32411	2202.55
2358.15376	2205.25
2360.98161	2220.35
2363.80768	2212.25
2366.63195	2237.35
2369.45444	2256.25
2372.27514	2260.55
2375.09405	2261.65
2377.91118	2222.45
2380.72652	2222.75
2383.54009	2199.55
2386.35187	2207.75
2389.16188	2169.15
2391.97011	2166.15
2394.77657	2149.85
2397.58125	2146.95
2400.38416	2136.85
2403.18529	2118.45
2405.98466	2099.05
2408.78226	2104.15
2411.57809	2104.05
2414.37216	2098.95
2417.16446	2094.85
2419.955	2081.45
2422.74378	2095.65
2425.5308	2086.75
2428.31606	2087.05
2431.09956	2093.95
2433.88131	2080.55
2436.6613	2096.55
2439.43954	2103.65
2442.21603	2085.35
2444.99077	2093.85
2447.76377	2118.55
2450.53501	2104.75
2453.30451	2097.65
2456.07226	2121.55
2458.83827	2095.75
2461.60254	2067.65
2464.36507	2094.75
2467.12586	2067.15
2469.88492	2074.95
2472.64224	2091.15
2475.39782	2072.85
2478.15167	2094.55
2480.90379	2099.05
2483.65417	2124.25
2486.40283	2139.15
2489.14976	2150.75
2491.89497	2142.25
2494.63845	2138.45
2497.3802	2122.05
2500.12024	2113.95
2502.85855	2101.35
2505.59514	2091.75
2508.33002	2071.15
2511.06318	2034.65
2513.79462	2021.45
2516.52435	1982.85
2519.25237	1954.55
2521.97867	1948.75
2524.70327	1943.15
2527.42616	1934.25
2530.14734	1947.95
2532.86681	1914.35
2535.58458	1931.25
2538.30065	1920.55
2541.01501	1939.55
2543.72768	1924.05
2546.43864	1931.85
2549.14791	1929.25
2551.85548	1922.55
2554.56136	1927.15
2557.26554	1944.35
2559.96803	1933.15
2562.66883	1938.55
2565.36794	1929.35
2568.06536	1895.25
2570.7611	1924.25
2573.45514	1916.35
2576.14751	1919.85
2578.83819	1897.75
2581.52719	1881.85
2584.21451	1881.65
2586.90015	1863.35
2589.58411	1856.15
2592.2664	1862.25
2594.94701	1862.05
2597.62594	1867.35
2600.30321	1813.55
2602.9788	1824.85
2605.65273	1832.65
2608.32498	1830.25
2610.99557	1859.55
2613.66449	1823.15
2616.33175	1850.05
2618.99734	1850.85
2621.66128	1844.45
2624.32355	1821.85
2626.98416	1806.05
2629.64311	1797.25
2632.30041	1794.15
2634.95605	1768.35
2637.61004	1752.05
2640.26238	1745.55
2642.91306	1748.45
2645.56209	1760.85
2648.20948	1750.95
2650.85521	1737.65
2653.4993	1767.65
2656.14175	1754.25
2658.78255	1749.25
2661.42171	1727.15
2664.05923	1762.55
2666.6951	1769.65
2669.32934	1782.45
2671.96194	1795.75
2674.59291	1788.15
2677.22224	1791.35
2679.84993	1777.35
2682.476	1768.35
2685.10043	1763.65
2687.72324	1751.85
2690.34441	1748.85
2692.96396	1744.85
2695.58188	1763.35
2698.19818	1747.35
2700.81285	1735.25
2703.4259	1729.85
2706.03733	1700.55
2708.64714	1704.95
2711.25533	1737.95
2713.86191	1743.35
2716.46687	1732.85
2719.07021	1737.45
2721.67194	1732.25
2724.27206	1747.05
2726.87057	1730.15
2729.46747	1719.65
2732.06276	1720.95
2734.65644	1707.25
2737.24852	1697.35
2739.83899	1676.65
2742.42786	1692.55
2745.01513	1701.25
2747.60079	1669.85
2750.18486	1652.55
2752.76733	1661.05
2755.3482	1647.35
2757.92747	1643.85
2760.50515	1623.75
2763.08123	1629.75
2765.65573	1624.75
2768.22863	1615.75
2770.79994	1604.75
2773.36967	1605.65
2775.9378	1600.65
2778.50435	1598.05
2781.06932	1597.05
2783.6327	1584.65
2786.1945	1613.65
2788.75471	1607.85
2791.31335	1603.55
2793.87041	1596.85
2796.42589	1596.25
2798.97979	1585.05
2801.53212	1594.85
2804.08288	1621.05
2806.63206	1610.35
2809.17967	1605.95
2811.72571	1629.15
2814.27018	1623.55
2816.81308	1629.15
2819.35442	1592.55
2821.89419	1626.95
2824.43239	1624.55
2826.96904	1662.75
2829.50412	1635.85
2832.03763	1644.15
2834.56959	1633.85
2837.1	1611.75
2839.62884	1607.55
2842.15613	1597.55
2844.68186	1608.55
2847.20604	1590.85
2849.72867	1593.75
2852.24974	1597.35
2854.76927	1578.65
2857.28724	1549.05
2859.80367	1615.85
2862.31855	1631.95
2864.83189	1628.85
2867.34368	1655.35
2869.85393	1663.45
2872.36264	1645.25
2874.8698	1644.15
2877.37543	1659.95
2879.87952	1629.45
2882.38207	1604.35
2884.88308	1612.35
2887.38256	1615.15
2889.88051	1602.15
2892.37692	1585.15
2894.8718	1561.25
2897.36515	1587.55
2899.85698	1575.75
2902.34727	1584.75
2904.83604	1593.95
2907.32328	1614.15
2909.809	1621.35
2912.29319	1628.85
2914.77587	1636.75
2917.25702	1648.85
2919.73665	1635.75
2922.21476	1637.65
2924.69136	1619.55
2927.16644	1590.35
2929.64	1585.35
2932.11205	1561.15
2934.58258	1564.35
2937.05161	1536.75
2939.51912	1549.45
2941.98513	1561.05
2944.44962	1548.05
2946.91261	1531.65
2949.37409	1535.75
2951.83407	1535.65
2954.29254	1542.75
2956.74951	1547.85
2959.20498	1533.85
2961.65895	1530.45
2964.11142	1529.85
2966.56239	1527.95
2969.01186	1523.15
2971.45984	1517.35
2973.90632	1498.65
2976.35131	1529.35
2978.7948	1520.45
2981.23681	1513.05
2983.67732	1528.15
2986.11635	1524.65
2988.55388	1496.85
2990.98993	1513.65
2993.4245	1502.65
2995.85758	1497.45
2998.28917	1502.75
3000.71928	1491.25
3003.14791	1498.15
3005.57506	1487.55
3008.00073	1474.45
3010.42493	1409.05
3012.84764	1481.65
3015.26888	1479.65
3017.68865	1473.75
3020.10694	1426.35
3022.52376	1445.55
3024.9391	1428.55
3027.35298	1431.55
3029.76539	1408.25
3032.17632	1403.45
3034.5858	1391.55
3036.9938	1390.55
3039.40034	1373.95
3041.80542	1358.95
3044.20903	1352.05
3046.61118	1340.05
3049.01187	1346.95
3051.4111	1327.95
3053.80888	1317.95
3056.20519	1326.75
3058.60005	1309.15
3060.99345	1334.05
3063.3854	1306.15
3065.7759	1291.45
3068.16494	1292.85
3070.55254	1285.65
3072.93868	1301.55
3075.32338	1289.45
3077.70662	1279.75
3080.08842	1271.75
3082.46878	1266.15
3084.84769	1280.05
3087.22515	1261.55
3089.60118	1275.85
3091.97576	1253.05
3094.3489	1276.35
3096.72061	1253.25
3099.09087	1250.65
3101.4597	1250.75
3103.82709	1252.15
3106.19305	1236.35
3108.55757	1241.55
3110.92066	1240.35
3113.28232	1251.85
3115.64255	1252.55
3118.00134	1246.55
3120.35871	1232.65
3122.71466	1228.05
3125.06917	1230.05
3127.42226	1224.15
3129.77393	1209.45
3132.12417	1223.15
3134.47299	1223.15
3136.82039	1209.65
3139.16636	1194.05
3141.51092	1218.15
3143.85406	1222.05
3146.19579	1202.95
3148.53609	1202.85
3150.87499	1213.85
3153.21246	1205.55
3155.54853	1220.95
3157.88318	1214.85
3160.21642	1222.15
3162.54826	1208.75
3164.87868	1218.15
3167.2077	1172.35
3169.5353	1199.95
3171.86151	1202.95
3174.18631	1182.65
3176.5097	1182.35
3178.83169	1178.45
3181.15228	1174.75
3183.47147	1155.95
3185.78926	1139.65
3188.10565	1150.65
3190.42065	1137.35
3192.73424	1140.15
3195.04645	1143.25
3197.35725	1120.65
3199.66667	1136.65
3201.97469	1133.95
3204.28132	1129.05
3206.58656	1138.35
3208.8904	1149.45
3211.19287	1143.65
3213.49394	1138.55
3215.79363	1132.35
3218.09193	1149.65
3220.38884	1146.25
3222.68438	1135.25
3224.97853	1115.35
3227.2713	1141.85
3229.56269	1121.55
3231.8527	1129.15
3234.14133	1105.75
3236.42858	1117.75
3238.71446	1099.55
3240.99896	1115.65
3243.28209	1095.75
3245.56384	1105.85
3247.84423	1093.05
3250.12324	1104.55
3252.40088	1104.45
3254.67715	1084.05
3256.95205	1083.55
3259.22558	1098.35
3261.49775	1095.05
3263.76855	1088.45
3266.03799	1099.85
3268.30606	1094.05
3270.57277	1093.45
3272.83812	1079.65
3275.10211	1091.65
3277.36474	1102.75
3279.62601	1104.25
3281.88593	1085.45
3284.14448	1067.55
3286.40168	1084.65
3288.65753	1092.65
3290.91202	1096.15
3293.16516	1087.95
3295.41695	1116.15
3297.66738	1123.05
3299.91647	1104.15
3302.16421	1113.85
3304.4106	1079.65
3306.65564	1106.75
3308.89933	1067.75
3311.14169	1078.65
3313.38269	1069.15
3315.62236	1063.45
3317.86068	1061.05
3320.09766	1063.55
3322.3333	1043.55
3324.5676	1044.65
3326.80056	1037.35
3329.03219	1041.25
3331.26248	-2.05
3333.49143	0.75
3335.71905	1.15
