Data from AgNPs_UA_50uM_CRN_500uM_SU_RamanShift__63__14-06-20-326.txt Node

Date: Thu Aug 04 14:06:20 BST 2022
User: TCL
Spectrometer: QEP01345
Trigger mode: 4
Integration Time (sec): 1.000000E0
Scans to average: 10
Electric dark correction enabled: true
Nonlinearity correction enabled: false
Boxcar width: 0
XAxis mode: Raman Shifts
Number of Pixels in Spectrum: 1044
>>>>>Begin Spectral Data<<<<<
46.04893	1.05
50.45542	0.25
54.85868	-1.75
59.25871	-0.85
63.6555	19.35
68.04907	18.15
72.43941	18.65
76.82654	19.45
81.21044	21.05
85.59113	21.05
89.96862	24.25
94.34289	22.55
98.71396	25.65
103.08183	22.65
107.4465	22.95
111.80798	23.85
116.16626	26.35
120.52136	28.45
124.87327	29.85
129.222	34.05
133.56755	35.45
137.90993	36.35
142.24913	40.45
146.58517	48.25
150.91804	55.55
155.24774	68.35
159.57429	87.35
163.89768	113.15
168.21792	149.65
172.53501	207.35
176.84895	294.75
181.15975	416.35
185.46741	589.05
189.77193	827.85
194.07331	1100.95
198.37157	1422.15
202.6667	1762.75
206.9587	2105.85
211.24758	2446.65
215.53334	2782.75
219.81599	3156.15
224.09553	3584.65
228.37195	4052.45
232.64527	4528.45
236.91549	5016.45
241.18261	5430.05
245.44663	5753.25
249.70755	6006.85
253.96539	6225.25
258.22014	6447.45
262.4718	6608.25
266.72039	6737.55
270.96589	6779.95
275.20832	6740.65
279.44768	6637.35
283.68397	6551.65
287.91719	6457.85
292.14735	6460.75
296.37445	6587.85
300.59849	6816.75
304.81948	7136.95
309.03742	7413.95
313.25231	7549.95
317.46415	7437.35
321.67296	7120.45
325.87872	6754.25
330.08145	6580.85
334.28114	6565.45
338.47781	6649.35
342.67145	6820.35
346.86207	7041.65
351.04966	7347.65
355.23424	7671.95
359.4158	7893.35
363.59435	7988.15
367.76989	7999.35
371.94243	7986.95
376.11196	7920.05
380.27849	7889.05
384.44203	7876.95
388.60257	7861.25
392.76012	7923.25
396.91468	8013.85
401.06626	8157.55
405.21485	8202.55
409.36047	8070.65
413.50311	7753.85
417.64277	7435.65
421.77947	7252.45
425.9132	7184.25
430.04396	7189.45
434.17176	7246.55
438.2966	7353.95
442.41849	7526.95
446.53742	7719.95
450.6534	7919.05
454.76644	8000.65
458.87653	8041.95
462.98368	7989.55
467.08789	7926.75
471.18916	7730.95
475.2875	7523.05
479.38291	7359.85
483.4754	7246.95
487.56496	7195.95
491.6516	7158.45
495.73531	7119.05
499.81612	7142.75
503.89401	7209.75
507.96899	7234.85
512.04106	7296.95
516.11023	7396.15
520.1765	7449.65
524.23987	7484.75
528.30034	7460.05
532.35792	7420.25
536.41261	7350.45
540.46441	7227.65
544.51333	7196.25
548.55936	7251.45
552.60252	7370.25
556.64279	7510.65
560.6802	7609.75
564.71473	7718.75
568.7464	7864.55
572.7752	7850.75
576.80114	7612.95
580.82422	7411.05
584.84444	7351.25
588.86181	7415.05
592.87633	7537.55
596.888	7726.75
600.89682	8069.85
604.9028	9126.05
608.90594	11368.75
612.90624	13561.95
616.90371	12345.05
620.89834	9257.95
624.89015	8048.15
628.87913	7971.05
632.86528	8034.05
636.84862	7984.65
640.82913	7719.85
644.80683	7343.65
648.78172	7174.15
652.75379	7207.65
656.72306	7502.25
660.68952	7780.85
664.65319	7735.35
668.61405	7540.85
672.57211	7520.05
676.52738	7500.85
680.47986	7351.55
684.42955	7205.15
688.37646	7180.55
692.32058	7273.35
696.26192	7410.45
700.20048	7544.95
704.13626	7539.05
708.06928	7426.15
711.99952	7363.85
715.927	7384.55
719.85171	7430.15
723.77365	7420.85
727.69284	7351.95
731.60928	7275.35
735.52295	7272.25
739.43388	7284.65
743.34206	7328.55
747.24749	7357.15
751.15017	7392.35
755.05012	7481.55
758.94733	7824.85
762.8418	8664.75
766.73354	9856.05
770.62254	10781.75
774.50882	10966.35
778.39237	10398.75
782.27321	9445.55
786.15132	8508.15
790.02671	7842.45
793.89938	7556.35
797.76935	7411.15
801.6366	7344.85
805.50115	7301.35
809.36299	7272.45
813.22213	7229.25
817.07857	7236.95
820.93231	7247.55
824.78336	7232.65
828.63172	7274.65
832.47738	7292.45
836.32036	7267.45
840.16066	7264.15
843.99827	7289.95
847.8332	7252.85
851.66546	7221.75
855.49504	7244.05
859.32195	7238.85
863.1462	7225.65
866.96777	7186.15
870.78668	7189.65
874.60293	7201.45
878.41652	7248.45
882.22745	7295.25
886.03573	7334.05
889.84136	7315.95
893.64433	7295.65
897.44466	7258.75
901.24235	7233.85
905.0374	7218.85
908.8298	7201.75
912.61957	7166.15
916.40671	7184.95
920.19121	7236.85
923.97308	7344.45
927.75233	7450.65
931.52895	7541.15
935.30295	7469.75
939.07433	7271.65
942.84309	7141.35
946.60924	7105.35
950.37278	7094.95
954.13371	7067.05
957.89203	7027.95
961.64774	6974.75
965.40086	6973.15
969.15137	6966.35
972.89929	6954.95
976.64461	6943.55
980.38733	6964.55
984.12747	6991.75
987.86502	7039.65
991.59999	7117.25
995.33237	7263.75
999.06217	7450.25
1002.78939	7661.25
1006.51404	7783.45
1010.23611	7856.95
1013.95561	7918.15
1017.67255	7982.05
1021.38692	7969.65
1025.09872	7928.65
1028.80796	8016.35
1032.51465	8170.75
1036.21877	8310.15
1039.92035	8295.25
1043.61937	8178.85
1047.31584	8013.45
1051.00976	7863.35
1054.70114	7790.65
1058.38998	7793.45
1062.07627	7766.05
1065.76003	7802.05
1069.44126	7856.35
1073.11995	7955.95
1076.79611	8063.75
1080.46974	8235.45
1084.14085	8391.75
1087.80943	8481.95
1091.47549	8485.25
1095.13903	8375.45
1098.80005	8229.15
1102.45857	8211.15
1106.11456	8207.85
1109.76805	8184.45
1113.41903	8265.15
1117.06751	8431.15
1120.71348	8651.25
1124.35696	8918.35
1127.99793	9048.65
1131.63641	8881.15
1135.2724	8545.65
1138.90589	8274.55
1142.5369	8101.05
1146.16542	7971.95
1149.79145	7909.55
1153.415	7865.85
1157.03607	7864.25
1160.65467	7949.35
1164.27079	8165.85
1167.88443	8503.45
1171.49561	9004.15
1175.10432	9844.05
1178.71056	10851.95
1182.31434	11721.05
1185.91565	11988.55
1189.51451	11767.85
1193.11091	11273.35
1196.70485	10701.95
1200.29634	10297.65
1203.88538	9897.25
1207.47197	9410.05
1211.05612	9000.15
1214.63782	8722.05
1218.21708	8634.65
1221.79391	8587.35
1225.36829	8649.35
1228.94024	8623.15
1232.50976	8543.95
1236.07685	8484.95
1239.6415	8462.75
1243.20374	8489.75
1246.76355	8539.55
1250.32093	8653.05
1253.8759	8900.95
1257.42845	9163.75
1260.97859	9460.95
1264.52631	9746.65
1268.07163	9955.35
1271.61453	10132.25
1275.15503	10228.15
1278.69312	10369.95
1282.22882	10510.85
1285.76211	10678.75
1289.29301	10881.45
1292.82151	11072.35
1296.34761	11369.05
1299.87133	11881.85
1303.39266	12763.25
1306.9116	14006.75
1310.42815	15382.45
1313.94233	15934.75
1317.45412	15312.45
1320.96354	14172.05
1324.47058	13070.65
1327.97525	12137.55
1331.47754	11638.35
1334.97747	11448.15
1338.47502	11590.65
1341.97022	12006.15
1345.46305	12671.65
1348.95352	13539.85
1352.44163	14561.55
1355.92738	15838.85
1359.41078	17500.95
1362.89183	18675.05
1366.37053	17636.95
1369.84688	14982.75
1373.32088	12583.25
1376.79254	11240.45
1380.26186	10585.95
1383.72883	10227.15
1387.19347	9892.95
1390.65578	9506.55
1394.11575	9229.25
1397.57339	9041.55
1401.0287	8985.65
1404.48168	9008.75
1407.93234	9055.45
1411.38068	9253.25
1414.82669	9406.05
1418.27039	9431.05
1421.71177	9367.05
1425.15083	9266.05
1428.58758	9247.25
1432.02203	9352.95
1435.45416	9504.55
1438.88399	9499.35
1442.31151	9442.55
1445.73673	9413.15
1449.15965	9390.95
1452.58027	9295.25
1455.9986	9164.75
1459.41463	9127.65
1462.82837	9188.25
1466.23982	9349.15
1469.64898	9547.45
1473.05586	9687.65
1476.46045	9828.25
1479.86276	9964.65
1483.26279	10108.15
1486.66054	10310.25
1490.05602	10644.65
1493.44922	11148.95
1496.84016	11902.15
1500.22882	13018.55
1503.61521	14408.85
1506.99934	15860.15
1510.38121	16770.05
1513.76081	16639.95
1517.13816	15338.75
1520.51324	13587.65
1523.88607	12091.75
1527.25665	11175.45
1530.62498	10686.65
1533.99105	10387.15
1537.35488	10243.05
1540.71647	10108.85
1544.07581	9999.35
1547.4329	9857.05
1550.78776	9749.35
1554.14038	9705.55
1557.49077	9760.05
1560.83892	9913.35
1564.18484	10179.55
1567.52853	10451.75
1570.86999	10638.55
1574.20922	10621.75
1577.54624	10413.75
1580.88103	9954.45
1584.2136	9438.45
1587.54395	9239.25
1590.87208	9437.45
1594.19801	10011.75
1597.52172	10645.35
1600.84321	10930.35
1604.16251	10721.75
1607.47959	10263.35
1610.79447	9698.85
1614.10715	9071.75
1617.41763	8531.55
1620.7259	8188.35
1624.03199	8037.45
1627.33587	8052.95
1630.63757	8275.85
1633.93707	8711.05
1637.23439	9372.85
1640.52951	10371.75
1643.82246	11634.45
1647.11321	12817.05
1650.40179	13228.85
1653.68819	12382.15
1656.97241	10730.85
1660.25446	9203.45
1663.53433	8138.55
1666.81203	7555.45
1670.08756	7201.95
1673.36092	6976.75
1676.63211	6820.25
1679.90115	6725.85
1683.16801	6664.05
1686.43272	6587.15
1689.69527	6538.35
1692.95567	6505.25
1696.2139	6480.65
1699.46999	6461.55
1702.72392	6462.35
1705.97571	6481.95
1709.22535	6462.35
1712.47284	6465.05
1715.71819	6453.35
1718.96139	6447.05
1722.20246	6429.25
1725.44139	6407.25
1728.67818	6359.25
1731.91284	6293.05
1735.14537	6291.85
1738.37576	6254.35
1741.60403	6241.15
1744.83017	6211.85
1748.05418	6189.75
1751.27607	6185.55
1754.49584	6168.75
1757.71349	6151.85
1760.92903	6154.05
1764.14244	6156.25
1767.35375	6129.55
1770.56294	6105.25
1773.77002	6100.65
1776.97499	6085.05
1780.17785	6060.45
1783.37861	6042.25
1786.57727	6017.05
1789.77382	6020.45
1792.96828	6013.45
1796.16064	6010.45
1799.3509	5981.25
1802.53907	5988.85
1805.72514	5969.25
1808.90913	5959.45
1812.09102	5933.15
1815.27083	5928.25
1818.44856	5901.85
1821.6242	5902.75
1824.79776	5896.05
1827.96924	5866.45
1831.13864	5854.45
1834.30597	5838.05
1837.47122	5817.35
1840.6344	5828.45
1843.7955	5841.15
1846.95454	5827.75
1850.11151	5818.35
1853.26642	5819.15
1856.41926	5805.65
1859.57004	5805.95
1862.71876	5806.95
1865.86542	5788.65
1869.01003	5800.55
1872.15258	5789.25
1875.29308	5785.55
1878.43152	5779.75
1881.56792	5775.45
1884.70227	5779.45
1887.83457	5772.85
1890.96482	5749.15
1894.09304	5736.55
1897.21921	5717.95
1900.34335	5707.55
1903.46544	5703.95
1906.58551	5701.25
1909.70353	5684.45
1912.81953	5683.75
1915.93349	5685.65
1919.04543	5666.65
1922.15534	5656.65
1925.26322	5642.55
1928.36908	5646.35
1931.47292	5642.45
1934.57473	5625.45
1937.67453	5587.85
1940.77232	5581.45
1943.86808	5579.15
1946.96184	5557.45
1950.05358	5540.95
1953.14331	5517.15
1956.23103	5490.85
1959.31675	5471.55
1962.40046	5475.35
1965.48217	5453.95
1968.56188	5447.85
1971.63959	5422.65
1974.7153	5426.75
1977.78901	5408.05
1980.86073	5391.65
1983.93046	5366.35
1986.99819	5350.05
1990.06394	5347.65
1993.1277	5295.15
1996.18947	5271.45
1999.24925	5282.35
2002.30706	5245.75
2005.36288	5229.05
2008.41672	5215.55
2011.46859	5198.35
2014.51848	5186.25
2017.56639	5163.55
2020.61233	5155.15
2023.6563	5139.15
2026.6983	5128.25
2029.73833	5095.85
2032.7764	5100.35
2035.8125	5087.45
2038.84664	5088.25
2041.87881	5090.45
2044.90903	5060.55
2047.93729	5065.15
2050.96359	5039.45
2053.98794	5026.55
2057.01034	5028.75
2060.03078	5024.85
2063.04927	5042.85
2066.06582	5039.25
2069.08042	5014.75
2072.09307	4998.05
2075.10378	4975.75
2078.11255	4993.15
2081.11938	4979.05
2084.12426	4985.65
2087.12722	4987.35
2090.12824	4990.55
2093.12732	4986.85
2096.12447	4972.45
2099.11969	4994.95
2102.11299	4974.95
2105.10435	4982.35
2108.09379	4984.15
2111.08131	4981.25
2114.0669	4966.15
2117.05057	4965.95
2120.03233	4968.95
2123.01216	4984.45
2125.99008	4993.25
2128.96609	5006.15
2131.94018	4973.75
2134.91236	4986.05
2137.88263	4998.75
2140.851	4983.35
2143.81746	4994.55
2146.78201	5003.05
2149.74466	4994.55
2152.7054	4981.55
2155.66425	4975.05
2158.6212	4984.35
2161.57625	4980.35
2164.52941	4962.95
2167.48067	4963.75
2170.43004	4967.35
2173.37752	4975.95
2176.32311	4959.25
2179.26681	4966.15
2182.20863	4968.95
2185.14856	4960.25
2188.08661	4983.05
2191.02278	4948.55
2193.95707	4942.45
2196.88948	4953.05
2199.82001	4952.75
2202.74867	4949.65
2205.67545	4936.85
2208.60037	4940.55
2211.52341	4941.75
2214.44458	4926.85
2217.36388	4924.05
2220.28132	4916.15
2223.1969	4894.95
2226.11061	4865.15
2229.02246	4870.65
2231.93245	4863.85
2234.84058	4858.65
2237.74686	4841.25
2240.65128	4854.45
2243.55385	4820.35
2246.45456	4796.85
2249.35343	4811.45
2252.25044	4814.35
2255.14561	4807.45
2258.03893	4811.05
2260.93041	4801.05
2263.82004	4797.65
2266.70783	4778.15
2269.59378	4774.65
2272.4779	4747.75
2275.36017	4735.25
2278.24061	4711.75
2281.11922	4709.15
2283.996	4698.15
2286.87094	4694.15
2289.74405	4690.75
2292.61534	4693.65
2295.4848	4674.45
2298.35243	4684.05
2301.21824	4677.35
2304.08223	4672.35
2306.94439	4677.05
2309.80474	4679.65
2312.66327	4682.15
2315.51999	4684.75
2318.37489	4679.15
2321.22797	4662.45
2324.07925	4651.05
2326.92871	4639.25
2329.77637	4643.15
2332.62222	4640.85
2335.46626	4638.85
2338.3085	4624.85
2341.14893	4631.65
2343.98756	4630.55
2346.8244	4635.65
2349.65943	4647.95
2352.49267	4629.55
2355.32411	4636.15
2358.15376	4637.85
2360.98161	4625.15
2363.80768	4625.35
2366.63195	4625.65
2369.45444	4610.45
2372.27514	4603.85
2375.09405	4599.05
2377.91118	4577.85
2380.72652	4555.85
2383.54009	4543.75
2386.35187	4545.45
2389.16188	4528.55
2391.97011	4530.95
2394.77657	4519.55
2397.58125	4500.65
2400.38416	4500.45
2403.18529	4474.95
2405.98466	4473.05
2408.78226	4473.15
2411.57809	4454.95
2414.37216	4440.85
2417.16446	4437.15
2419.955	4444.95
2422.74378	4426.65
2425.5308	4435.75
2428.31606	4413.95
2431.09956	4424.85
2433.88131	4412.35
2436.6613	4414.95
2439.43954	4421.95
2442.21603	4417.35
2444.99077	4394.65
2447.76377	4395.65
2450.53501	4405.85
2453.30451	4388.95
2456.07226	4393.45
2458.83827	4375.15
2461.60254	4391.45
2464.36507	4377.95
2467.12586	4371.45
2469.88492	4363.45
2472.64224	4380.45
2475.39782	4383.95
2478.15167	4368.55
2480.90379	4369.65
2483.65417	4386.35
2486.40283	4380.45
2489.14976	4387.35
2491.89497	4375.65
2494.63845	4378.05
2497.3802	4371.75
2500.12024	4361.65
2502.85855	4357.35
2505.59514	4368.05
2508.33002	4358.35
2511.06318	4334.75
2513.79462	4335.25
2516.52435	4302.65
2519.25237	4308.75
2521.97867	4305.25
2524.70327	4285.05
2527.42616	4294.05
2530.14734	4302.25
2532.86681	4300.35
2535.58458	4304.25
2538.30065	4292.15
2541.01501	4274.25
2543.72768	4294.05
2546.43864	4288.65
2549.14791	4263.95
2551.85548	4253.85
2554.56136	4248.95
2557.26554	4258.75
2559.96803	4235.25
2562.66883	4238.75
2565.36794	4228.55
2568.06536	4224.15
2570.7611	4210.95
2573.45514	4210.45
2576.14751	4193.15
2578.83819	4190.65
2581.52719	4182.65
2584.21451	4176.95
2586.90015	4197.65
2589.58411	4183.85
2592.2664	4170.05
2594.94701	4178.05
2597.62594	4169.35
2600.30321	4162.65
2602.9788	4165.05
2605.65273	4154.65
2608.32498	4139.95
2610.99557	4158.15
2613.66449	4141.35
2616.33175	4152.15
2618.99734	4132.55
2621.66128	4125.45
2624.32355	4149.85
2626.98416	4139.45
2629.64311	4129.15
2632.30041	4122.75
2634.95605	4124.85
2637.61004	4107.15
2640.26238	4092.95
2642.91306	4115.45
2645.56209	4085.85
2648.20948	4095.25
2650.85521	4077.55
2653.4993	4081.25
2656.14175	4069.05
2658.78255	4088.35
2661.42171	4063.05
2664.05923	4087.15
2666.6951	4081.35
2669.32934	4074.45
2671.96194	4086.05
2674.59291	4069.15
2677.22224	4063.85
2679.84993	4078.95
2682.476	4059.05
2685.10043	4064.35
2687.72324	4054.05
2690.34441	4071.15
2692.96396	4050.35
2695.58188	4049.85
2698.19818	4050.75
2700.81285	4048.65
2703.4259	4050.25
2706.03733	4055.05
2708.64714	4045.95
2711.25533	4021.85
2713.86191	4034.75
2716.46687	4038.35
2719.07021	4034.15
2721.67194	4023.95
2724.27206	4034.05
2726.87057	4045.35
2729.46747	4035.95
2732.06276	4034.25
2734.65644	4030.05
2737.24852	4016.85
2739.83899	4015.15
2742.42786	4019.25
2745.01513	4010.65
2747.60079	3991.25
2750.18486	3993.65
2752.76733	3978.35
2755.3482	3983.55
2757.92747	3978.75
2760.50515	3973.35
2763.08123	3969.35
2765.65573	3968.25
2768.22863	3954.15
2770.79994	3942.75
2773.36967	3952.15
2775.9378	3941.85
2778.50435	3944.05
2781.06932	3949.95
2783.6327	3948.55
2786.1945	3932.05
2788.75471	3937.65
2791.31335	3922.95
2793.87041	3906.55
2796.42589	3899.85
2798.97979	3909.05
2801.53212	3910.85
2804.08288	3899.75
2806.63206	3887.75
2809.17967	3877.65
2811.72571	3867.25
2814.27018	3862.75
2816.81308	3864.15
2819.35442	3859.45
2821.89419	3849.25
2824.43239	3826.05
2826.96904	3834.85
2829.50412	3829.55
2832.03763	3821.75
2834.56959	3822.05
2837.1	3801.75
2839.62884	3808.85
2842.15613	3808.45
2844.68186	3796.15
2847.20604	3783.95
2849.72867	3784.45
2852.24974	3786.05
2854.76927	3776.55
2857.28724	3758.85
2859.80367	3780.95
2862.31855	3766.75
2864.83189	3762.35
2867.34368	3760.25
2869.85393	3769.45
2872.36264	3751.65
2874.8698	3754.85
2877.37543	3748.55
2879.87952	3757.95
2882.38207	3733.55
2884.88308	3736.25
2887.38256	3729.85
2889.88051	3712.05
2892.37692	3725.95
2894.8718	3712.25
2897.36515	3722.45
2899.85698	3713.65
2902.34727	3713.95
2904.83604	3727.35
2907.32328	3734.25
2909.809	3729.55
2912.29319	3744.55
2914.77587	3751.75
2917.25702	3757.55
2919.73665	3740.65
2922.21476	3740.75
2924.69136	3732.85
2927.16644	3732.55
2929.64	3711.45
2932.11205	3713.25
2934.58258	3688.65
2937.05161	3690.25
2939.51912	3702.75
2941.98513	3679.75
2944.44962	3680.95
2946.91261	3661.95
2949.37409	3672.65
2951.83407	3666.55
2954.29254	3667.45
2956.74951	3674.05
2959.20498	3664.95
2961.65895	3658.95
2964.11142	3645.95
2966.56239	3642.15
2969.01186	3646.45
2971.45984	3636.35
2973.90632	3638.15
2976.35131	3631.85
2978.7948	3631.95
2981.23681	3618.85
2983.67732	3625.45
2986.11635	3598.85
2988.55388	3581.15
2990.98993	3585.45
2993.4245	3572.75
2995.85758	3565.45
2998.28917	3560.35
3000.71928	3543.95
3003.14791	3546.05
3005.57506	3525.45
3008.00073	3519.35
3010.42493	3526.55
3012.84764	3517.65
3015.26888	3513.35
3017.68865	3495.55
3020.10694	3495.95
3022.52376	3480.25
3024.9391	3458.45
3027.35298	3470.15
3029.76539	3452.15
3032.17632	3447.45
3034.5858	3438.15
3036.9938	3425.25
3039.40034	3424.75
3041.80542	3424.85
3044.20903	3419.45
3046.61118	3408.55
3049.01187	3398.35
3051.4111	3396.65
3053.80888	3368.35
3056.20519	3374.05
3058.60005	3376.45
3060.99345	3375.95
3063.3854	3367.85
3065.7759	3346.05
3068.16494	3338.75
3070.55254	3324.65
3072.93868	3314.25
3075.32338	3317.15
3077.70662	3290.35
3080.08842	3287.45
3082.46878	3283.35
3084.84769	3259.35
3087.22515	3266.65
3089.60118	3269.65
3091.97576	3258.25
3094.3489	3266.15
3096.72061	3257.55
3099.09087	3263.15
3101.4597	3256.45
3103.82709	3242.25
3106.19305	3242.35
3108.55757	3253.75
3110.92066	3242.85
3113.28232	3242.25
3115.64255	3231.35
3118.00134	3217.65
3120.35871	3221.15
3122.71466	3202.05
3125.06917	3197.55
3127.42226	3184.65
3129.77393	3187.95
3132.12417	3183.45
3134.47299	3179.75
3136.82039	3171.15
3139.16636	3166.45
3141.51092	3165.75
3143.85406	3163.45
3146.19579	3151.95
3148.53609	3176.65
3150.87499	3155.85
3153.21246	3153.95
3155.54853	3174.75
3157.88318	3160.95
3160.21642	3172.55
3162.54826	3149.05
3164.87868	3154.65
3167.2077	3160.95
3169.5353	3146.35
3171.86151	3134.15
3174.18631	3140.75
3176.5097	3134.95
3178.83169	3132.35
3181.15228	3123.65
3183.47147	3120.65
3185.78926	3127.55
3188.10565	3098.05
3190.42065	3087.35
3192.73424	3085.95
3195.04645	3084.65
3197.35725	3087.85
3199.66667	3083.75
3201.97469	3087.75
3204.28132	3082.15
3206.58656	3075.75
3208.8904	3078.65
3211.19287	3090.75
3213.49394	3081.75
3215.79363	3092.25
3218.09193	3091.95
3220.38884	3079.35
3222.68438	3084.85
3224.97853	3068.35
3227.2713	3061.75
3229.56269	3074.45
3231.8527	3058.05
3234.14133	3059.55
3236.42858	3038.65
3238.71446	3044.85
3240.99896	3021.45
3243.28209	3020.15
3245.56384	3028.65
3247.84423	3016.25
3250.12324	3024.35
3252.40088	3018.65
3254.67715	3004.75
3256.95205	2990.15
3259.22558	2993.75
3261.49775	2997.75
3263.76855	2999.85
3266.03799	3000.05
3268.30606	2996.05
3270.57277	3002.55
3272.83812	2988.45
3275.10211	2974.95
3277.36474	2978.25
3279.62601	2955.55
3281.88593	2964.65
3284.14448	2960.75
3286.40168	2955.55
3288.65753	2955.75
3290.91202	2946.15
3293.16516	2965.45
3295.41695	2951.05
3297.66738	2922.45
3299.91647	2920.35
3302.16421	2884.25
3304.4106	2878.45
3306.65564	2865.75
3308.89933	2845.85
3311.14169	2816.75
3313.38269	2795.85
3315.62236	2788.65
3317.86068	2760.95
3320.09766	2743.95
3322.3333	2714.65
3324.5676	2693.75
3326.80056	2647.85
3329.03219	2638.45
3331.26248	0.85
3333.49143	0.35
3335.71905	-0.05
