Data from AgNPs_UA_50uM_CRN_500uM_SU_RamanShift__65__14-06-40-326.txt Node

Date: Thu Aug 04 14:06:40 BST 2022
User: TCL
Spectrometer: QEP01345
Trigger mode: 4
Integration Time (sec): 1.000000E0
Scans to average: 10
Electric dark correction enabled: true
Nonlinearity correction enabled: false
Boxcar width: 0
XAxis mode: Raman Shifts
Number of Pixels in Spectrum: 1044
>>>>>Begin Spectral Data<<<<<
46.04893	0.05
50.45542	-1.25
54.85868	0.55
59.25871	-0.45
63.6555	19.05
68.04907	18.35
72.43941	21.15
76.82654	21.25
81.21044	20.65
85.59113	23.25
89.96862	20.95
94.34289	22.05
98.71396	23.95
103.08183	24.95
107.4465	23.55
111.80798	25.95
116.16626	25.45
120.52136	27.75
124.87327	30.45
129.222	33.15
133.56755	34.95
137.90993	38.15
142.24913	40.15
146.58517	48.05
150.91804	53.45
155.24774	68.45
159.57429	85.55
163.89768	110.75
168.21792	148.45
172.53501	207.15
176.84895	294.45
181.15975	419.15
185.46741	590.05
189.77193	821.65
194.07331	1101.95
198.37157	1423.65
202.6667	1758.25
206.9587	2109.25
211.24758	2433.25
215.53334	2791.85
219.81599	3164.15
224.09553	3587.65
228.37195	4059.75
232.64527	4547.35
236.91549	5017.25
241.18261	5411.65
245.44663	5749.65
249.70755	6018.15
253.96539	6231.75
258.22014	6431.95
262.4718	6606.55
266.72039	6728.45
270.96589	6792.45
275.20832	6746.45
279.44768	6635.15
283.68397	6529.75
287.91719	6454.05
292.14735	6465.75
296.37445	6579.15
300.59849	6822.85
304.81948	7137.15
309.03742	7437.05
313.25231	7550.05
317.46415	7433.65
321.67296	7105.75
325.87872	6759.55
330.08145	6554.45
334.28114	6562.25
338.47781	6651.95
342.67145	6807.85
346.86207	7051.95
351.04966	7371.95
355.23424	7673.85
359.4158	7907.55
363.59435	7993.35
367.76989	7999.35
371.94243	7967.95
376.11196	7933.75
380.27849	7871.65
384.44203	7844.15
388.60257	7866.25
392.76012	7929.45
396.91468	8035.25
401.06626	8162.85
405.21485	8208.25
409.36047	8058.85
413.50311	7746.05
417.64277	7444.25
421.77947	7254.55
425.9132	7168.55
430.04396	7175.75
434.17176	7242.75
438.2966	7364.05
442.41849	7530.65
446.53742	7731.35
450.6534	7905.85
454.76644	8035.85
458.87653	8070.55
462.98368	8031.25
467.08789	7927.45
471.18916	7762.25
475.2875	7524.25
479.38291	7373.75
483.4754	7249.15
487.56496	7175.55
491.6516	7144.05
495.73531	7114.75
499.81612	7128.05
503.89401	7170.95
507.96899	7240.45
512.04106	7302.25
516.11023	7382.85
520.1765	7463.25
524.23987	7473.95
528.30034	7462.05
532.35792	7424.45
536.41261	7350.35
540.46441	7227.15
544.51333	7205.95
548.55936	7239.65
552.60252	7369.75
556.64279	7513.35
560.6802	7600.35
564.71473	7715.05
568.7464	7864.75
572.7752	7857.35
576.80114	7607.55
580.82422	7413.15
584.84444	7379.95
588.86181	7417.35
592.87633	7550.75
596.888	7732.65
600.89682	8079.55
604.9028	9113.25
608.90594	11389.55
612.90624	13607.65
616.90371	12342.95
620.89834	9275.45
624.89015	8064.25
628.87913	7991.75
632.86528	8034.85
636.84862	7998.45
640.82913	7719.75
644.80683	7345.75
648.78172	7170.35
652.75379	7197.45
656.72306	7495.75
660.68952	7775.35
664.65319	7715.75
668.61405	7511.15
672.57211	7506.65
676.52738	7506.15
680.47986	7324.85
684.42955	7185.05
688.37646	7203.65
692.32058	7259.45
696.26192	7411.15
700.20048	7522.95
704.13626	7544.45
708.06928	7437.15
711.99952	7356.45
715.927	7356.55
719.85171	7415.65
723.77365	7407.25
727.69284	7356.25
731.60928	7243.15
735.52295	7246.45
739.43388	7291.65
743.34206	7339.95
747.24749	7366.15
751.15017	7372.65
755.05012	7461.15
758.94733	7832.45
762.8418	8653.05
766.73354	9843.15
770.62254	10820.65
774.50882	10984.25
778.39237	10409.05
782.27321	9435.85
786.15132	8476.35
790.02671	7862.05
793.89938	7570.75
797.76935	7422.75
801.6366	7336.35
805.50115	7298.75
809.36299	7243.65
813.22213	7220.95
817.07857	7226.85
820.93231	7221.15
824.78336	7235.85
828.63172	7267.15
832.47738	7282.65
836.32036	7271.95
840.16066	7272.25
843.99827	7285.05
847.8332	7263.95
851.66546	7233.65
855.49504	7254.65
859.32195	7238.45
863.1462	7210.15
866.96777	7200.95
870.78668	7194.85
874.60293	7212.25
878.41652	7245.95
882.22745	7296.55
886.03573	7319.45
889.84136	7309.95
893.64433	7248.55
897.44466	7252.85
901.24235	7238.25
905.0374	7234.75
908.8298	7184.95
912.61957	7175.95
916.40671	7207.35
920.19121	7255.95
923.97308	7357.45
927.75233	7482.15
931.52895	7553.25
935.30295	7456.75
939.07433	7276.15
942.84309	7151.75
946.60924	7110.05
950.37278	7091.95
954.13371	7054.15
957.89203	7025.35
961.64774	6983.65
965.40086	6980.65
969.15137	6968.65
972.89929	6936.95
976.64461	6943.75
980.38733	6972.95
984.12747	6976.15
987.86502	7039.75
991.59999	7120.15
995.33237	7269.05
999.06217	7487.75
1002.78939	7692.35
1006.51404	7807.95
1010.23611	7899.45
1013.95561	7951.35
1017.67255	8008.45
1021.38692	8000.65
1025.09872	7972.35
1028.80796	8071.05
1032.51465	8257.65
1036.21877	8409.45
1039.92035	8386.55
1043.61937	8270.95
1047.31584	8083.85
1051.00976	7893.75
1054.70114	7799.45
1058.38998	7790.05
1062.07627	7802.55
1065.76003	7812.25
1069.44126	7859.35
1073.11995	7965.25
1076.79611	8076.95
1080.46974	8237.55
1084.14085	8388.25
1087.80943	8479.95
1091.47549	8500.15
1095.13903	8364.35
1098.80005	8238.95
1102.45857	8198.55
1106.11456	8190.05
1109.76805	8184.35
1113.41903	8257.95
1117.06751	8420.45
1120.71348	8656.65
1124.35696	8894.95
1127.99793	9069.05
1131.63641	8893.65
1135.2724	8548.35
1138.90589	8291.55
1142.5369	8092.65
1146.16542	7977.15
1149.79145	7913.75
1153.415	7861.45
1157.03607	7864.95
1160.65467	7974.85
1164.27079	8190.55
1167.88443	8521.65
1171.49561	9034.15
1175.10432	9872.35
1178.71056	10933.45
1182.31434	11766.05
1185.91565	12078.35
1189.51451	11860.45
1193.11091	11358.85
1196.70485	10793.05
1200.29634	10342.45
1203.88538	9917.65
1207.47197	9424.15
1211.05612	9027.85
1214.63782	8762.35
1218.21708	8640.55
1221.79391	8655.35
1225.36829	8687.75
1228.94024	8710.25
1232.50976	8581.95
1236.07685	8500.45
1239.6415	8516.95
1243.20374	8521.65
1246.76355	8597.75
1250.32093	8715.35
1253.8759	8914.35
1257.42845	9190.15
1260.97859	9518.05
1264.52631	9783.45
1268.07163	10019.95
1271.61453	10183.15
1275.15503	10327.05
1278.69312	10444.25
1282.22882	10585.75
1285.76211	10791.35
1289.29301	10990.95
1292.82151	11198.35
1296.34761	11487.55
1299.87133	11981.95
1303.39266	12877.75
1306.9116	14217.35
1310.42815	15611.15
1313.94233	16136.95
1317.45412	15568.95
1320.96354	14379.05
1324.47058	13216.05
1327.97525	12289.75
1331.47754	11741.95
1334.97747	11583.05
1338.47502	11721.65
1341.97022	12110.95
1345.46305	12786.45
1348.95352	13654.55
1352.44163	14681.55
1355.92738	15956.15
1359.41078	17640.05
1362.89183	18811.95
1366.37053	17813.55
1369.84688	15078.35
1373.32088	12687.35
1376.79254	11304.75
1380.26186	10647.75
1383.72883	10301.85
1387.19347	9972.85
1390.65578	9576.65
1394.11575	9322.25
1397.57339	9129.15
1401.0287	9102.15
1404.48168	9090.45
1407.93234	9177.05
1411.38068	9328.95
1414.82669	9485.75
1418.27039	9526.75
1421.71177	9446.95
1425.15083	9359.95
1428.58758	9317.75
1432.02203	9453.55
1435.45416	9573.45
1438.88399	9563.45
1442.31151	9532.15
1445.73673	9504.05
1449.15965	9472.15
1452.58027	9371.85
1455.9986	9244.85
1459.41463	9219.65
1462.82837	9255.65
1466.23982	9438.95
1469.64898	9642.45
1473.05586	9785.45
1476.46045	9922.85
1479.86276	10025.25
1483.26279	10216.05
1486.66054	10406.45
1490.05602	10741.05
1493.44922	11238.35
1496.84016	11980.45
1500.22882	13123.25
1503.61521	14497.05
1506.99934	15898.85
1510.38121	16863.15
1513.76081	16720.75
1517.13816	15434.45
1520.51324	13652.55
1523.88607	12158.95
1527.25665	11269.55
1530.62498	10753.55
1533.99105	10475.05
1537.35488	10326.55
1540.71647	10153.05
1544.07581	10081.95
1547.4329	9943.05
1550.78776	9832.65
1554.14038	9779.25
1557.49077	9847.05
1560.83892	9977.05
1564.18484	10221.15
1567.52853	10505.45
1570.86999	10686.35
1574.20922	10688.75
1577.54624	10477.15
1580.88103	10011.15
1584.2136	9492.05
1587.54395	9313.55
1590.87208	9527.95
1594.19801	10125.65
1597.52172	10785.05
1600.84321	11101.35
1604.16251	10886.85
1607.47959	10368.85
1610.79447	9799.35
1614.10715	9140.95
1617.41763	8608.75
1620.7259	8242.25
1624.03199	8103.25
1627.33587	8113.65
1630.63757	8330.85
1633.93707	8781.55
1637.23439	9478.45
1640.52951	10495.85
1643.82246	11738.85
1647.11321	12903.95
1650.40179	13318.55
1653.68819	12469.35
1656.97241	10801.25
1660.25446	9216.75
1663.53433	8198.55
1666.81203	7576.05
1670.08756	7212.45
1673.36092	6995.45
1676.63211	6849.45
1679.90115	6750.55
1683.16801	6683.05
1686.43272	6608.45
1689.69527	6544.15
1692.95567	6514.35
1696.2139	6507.15
1699.46999	6486.95
1702.72392	6492.15
1705.97571	6480.75
1709.22535	6476.85
1712.47284	6474.95
1715.71819	6477.95
1718.96139	6462.65
1722.20246	6441.05
1725.44139	6437.05
1728.67818	6366.85
1731.91284	6335.55
1735.14537	6296.85
1738.37576	6291.55
1741.60403	6258.95
1744.83017	6237.65
1748.05418	6220.55
1751.27607	6197.85
1754.49584	6174.45
1757.71349	6175.15
1760.92903	6166.95
1764.14244	6165.95
1767.35375	6165.65
1770.56294	6141.35
1773.77002	6107.75
1776.97499	6087.45
1780.17785	6083.75
1783.37861	6090.95
1786.57727	6040.25
1789.77382	6034.95
1792.96828	6031.55
1796.16064	6025.95
1799.3509	6016.95
1802.53907	6019.45
1805.72514	5984.55
1808.90913	5980.75
1812.09102	5980.05
1815.27083	5945.25
1818.44856	5940.45
1821.6242	5928.05
1824.79776	5923.15
1827.96924	5909.05
1831.13864	5875.15
1834.30597	5874.55
1837.47122	5853.65
1840.6344	5854.15
1843.7955	5851.95
1846.95454	5846.15
1850.11151	5844.05
1853.26642	5842.15
1856.41926	5836.65
1859.57004	5826.85
1862.71876	5838.95
1865.86542	5820.75
1869.01003	5820.95
1872.15258	5813.25
1875.29308	5832.45
1878.43152	5820.05
1881.56792	5807.05
1884.70227	5803.75
1887.83457	5778.35
1890.96482	5786.25
1894.09304	5755.85
1897.21921	5759.05
1900.34335	5741.95
1903.46544	5739.95
1906.58551	5737.55
1909.70353	5702.65
1912.81953	5715.15
1915.93349	5704.05
1919.04543	5691.25
1922.15534	5690.35
1925.26322	5670.35
1928.36908	5675.35
1931.47292	5666.15
1934.57473	5654.95
1937.67453	5642.05
1940.77232	5615.05
1943.86808	5600.85
1946.96184	5585.25
1950.05358	5574.25
1953.14331	5562.25
1956.23103	5544.65
1959.31675	5507.75
1962.40046	5495.25
1965.48217	5497.75
1968.56188	5482.75
1971.63959	5456.95
1974.7153	5451.05
1977.78901	5428.85
1980.86073	5419.25
1983.93046	5406.15
1986.99819	5362.05
1990.06394	5369.45
1993.1277	5334.65
1996.18947	5323.55
1999.24925	5301.95
2002.30706	5270.05
2005.36288	5269.25
2008.41672	5248.55
2011.46859	5230.95
2014.51848	5211.05
2017.56639	5223.95
2020.61233	5199.25
2023.6563	5162.95
2026.6983	5139.15
2029.73833	5139.15
2032.7764	5128.05
2035.8125	5128.45
2038.84664	5111.95
2041.87881	5117.05
2044.90903	5101.35
2047.93729	5078.75
2050.96359	5080.85
2053.98794	5064.65
2057.01034	5065.25
2060.03078	5061.75
2063.04927	5065.85
2066.06582	5079.55
2069.08042	5043.55
2072.09307	5045.65
2075.10378	5016.85
2078.11255	5029.35
2081.11938	5033.65
2084.12426	5018.75
2087.12722	5018.75
2090.12824	5017.05
2093.12732	5017.25
2096.12447	5005.85
2099.11969	5020.15
2102.11299	5013.35
2105.10435	5010.55
2108.09379	5010.15
2111.08131	5011.55
2114.0669	5003.65
2117.05057	5016.55
2120.03233	5010.45
2123.01216	5027.35
2125.99008	5032.15
2128.96609	5021.65
2131.94018	5030.75
2134.91236	5008.75
2137.88263	5033.45
2140.851	5026.65
2143.81746	5027.85
2146.78201	5032.35
2149.74466	5040.15
2152.7054	5014.15
2155.66425	5028.15
2158.6212	5016.35
2161.57625	5005.05
2164.52941	5003.35
2167.48067	5018.35
2170.43004	4989.75
2173.37752	5005.15
2176.32311	5004.75
2179.26681	5004.45
2182.20863	5014.35
2185.14856	5014.55
2188.08661	4983.95
2191.02278	5002.95
2193.95707	4981.65
2196.88948	4985.05
2199.82001	5001.25
2202.74867	4991.85
2205.67545	4987.95
2208.60037	4982.15
2211.52341	4997.25
2214.44458	4986.85
2217.36388	4963.35
2220.28132	4952.55
2223.1969	4941.95
2226.11061	4909.45
2229.02246	4912.55
2231.93245	4901.95
2234.84058	4897.85
2237.74686	4892.55
2240.65128	4874.15
2243.55385	4871.25
2246.45456	4858.35
2249.35343	4860.75
2252.25044	4845.55
2255.14561	4849.95
2258.03893	4852.35
2260.93041	4862.55
2263.82004	4835.55
2266.70783	4828.55
2269.59378	4818.15
2272.4779	4796.35
2275.36017	4780.45
2278.24061	4755.95
2281.11922	4756.75
2283.996	4730.75
2286.87094	4720.35
2289.74405	4735.95
2292.61534	4730.25
2295.4848	4727.95
2298.35243	4717.15
2301.21824	4722.35
2304.08223	4706.65
2306.94439	4721.25
2309.80474	4723.75
2312.66327	4725.65
2315.51999	4736.25
2318.37489	4743.25
2321.22797	4713.85
2324.07925	4704.85
2326.92871	4689.75
2329.77637	4705.25
2332.62222	4700.25
2335.46626	4677.75
2338.3085	4683.05
2341.14893	4695.45
2343.98756	4700.65
2346.8244	4680.95
2349.65943	4676.05
2352.49267	4670.15
2355.32411	4680.95
2358.15376	4688.45
2360.98161	4666.25
2363.80768	4670.45
2366.63195	4663.35
2369.45444	4661.85
2372.27514	4658.35
2375.09405	4660.15
2377.91118	4637.15
2380.72652	4619.85
2383.54009	4604.65
2386.35187	4592.75
2389.16188	4573.55
2391.97011	4574.45
2394.77657	4562.85
2397.58125	4535.15
2400.38416	4534.45
2403.18529	4533.55
2405.98466	4524.55
2408.78226	4513.45
2411.57809	4497.25
2414.37216	4487.35
2417.16446	4488.95
2419.955	4470.75
2422.74378	4494.25
2425.5308	4473.05
2428.31606	4492.55
2431.09956	4475.55
2433.88131	4468.15
2436.6613	4461.95
2439.43954	4445.45
2442.21603	4456.55
2444.99077	4450.45
2447.76377	4447.55
2450.53501	4454.15
2453.30451	4434.25
2456.07226	4441.65
2458.83827	4438.75
2461.60254	4438.95
2464.36507	4443.55
2467.12586	4430.75
2469.88492	4425.05
2472.64224	4418.25
2475.39782	4415.35
2478.15167	4419.15
2480.90379	4414.55
2483.65417	4410.55
2486.40283	4425.15
2489.14976	4439.45
2491.89497	4436.35
2494.63845	4456.75
2497.3802	4429.45
2500.12024	4424.35
2502.85855	4404.45
2505.59514	4418.75
2508.33002	4406.35
2511.06318	4402.05
2513.79462	4376.75
2516.52435	4372.25
2519.25237	4349.65
2521.97867	4357.25
2524.70327	4351.45
2527.42616	4329.25
2530.14734	4335.15
2532.86681	4332.55
2535.58458	4351.65
2538.30065	4346.55
2541.01501	4338.45
2543.72768	4328.05
2546.43864	4332.25
2549.14791	4316.45
2551.85548	4301.05
2554.56136	4310.05
2557.26554	4299.35
2559.96803	4285.45
2562.66883	4295.55
2565.36794	4276.55
2568.06536	4283.25
2570.7611	4267.25
2573.45514	4252.35
2576.14751	4244.75
2578.83819	4242.75
2581.52719	4226.45
2584.21451	4244.55
2586.90015	4224.35
2589.58411	4223.95
2592.2664	4221.25
2594.94701	4217.55
2597.62594	4220.95
2600.30321	4232.95
2602.9788	4223.95
2605.65273	4208.05
2608.32498	4202.05
2610.99557	4205.65
2613.66449	4213.95
2616.33175	4195.15
2618.99734	4195.75
2621.66128	4189.55
2624.32355	4199.75
2626.98416	4186.05
2629.64311	4183.05
2632.30041	4180.65
2634.95605	4166.65
2637.61004	4155.65
2640.26238	4148.35
2642.91306	4156.65
2645.56209	4154.95
2648.20948	4146.95
2650.85521	4130.35
2653.4993	4136.45
2656.14175	4135.15
2658.78255	4144.75
2661.42171	4127.65
2664.05923	4132.45
2666.6951	4143.35
2669.32934	4144.05
2671.96194	4133.95
2674.59291	4130.45
2677.22224	4140.85
2679.84993	4148.65
2682.476	4131.25
2685.10043	4117.45
2687.72324	4121.55
2690.34441	4123.05
2692.96396	4105.85
2695.58188	4111.55
2698.19818	4101.15
2700.81285	4099.45
2703.4259	4112.15
2706.03733	4097.25
2708.64714	4108.25
2711.25533	4096.25
2713.86191	4089.95
2716.46687	4089.35
2719.07021	4091.65
2721.67194	4108.15
2724.27206	4087.15
2726.87057	4090.95
2729.46747	4089.55
2732.06276	4087.65
2734.65644	4080.35
2737.24852	4087.25
2739.83899	4072.95
2742.42786	4072.35
2745.01513	4080.15
2747.60079	4068.15
2750.18486	4049.65
2752.76733	4063.15
2755.3482	4033.95
2757.92747	4027.45
2760.50515	4024.85
2763.08123	4042.85
2765.65573	4005.25
2768.22863	4003.85
2770.79994	4011.45
2773.36967	4020.45
2775.9378	4008.75
2778.50435	4022.25
2781.06932	4016.65
2783.6327	4012.25
2786.1945	3999.25
2788.75471	4000.05
2791.31335	3973.55
2793.87041	3977.55
2796.42589	3981.85
2798.97979	3975.25
2801.53212	3972.55
2804.08288	3947.85
2806.63206	3944.95
2809.17967	3942.75
2811.72571	3914.55
2814.27018	3927.05
2816.81308	3924.55
2819.35442	3925.35
2821.89419	3908.55
2824.43239	3888.55
2826.96904	3885.15
2829.50412	3888.95
2832.03763	3875.35
2834.56959	3884.55
2837.1	3874.25
2839.62884	3872.65
2842.15613	3863.45
2844.68186	3861.35
2847.20604	3850.55
2849.72867	3845.25
2852.24974	3848.85
2854.76927	3841.85
2857.28724	3816.55
2859.80367	3831.75
2862.31855	3827.55
2864.83189	3825.75
2867.34368	3827.55
2869.85393	3821.55
2872.36264	3821.65
2874.8698	3822.45
2877.37543	3809.05
2879.87952	3807.55
2882.38207	3804.75
2884.88308	3792.25
2887.38256	3791.65
2889.88051	3769.75
2892.37692	3797.15
2894.8718	3773.65
2897.36515	3774.95
2899.85698	3775.95
2902.34727	3778.25
2904.83604	3784.65
2907.32328	3801.95
2909.809	3795.45
2912.29319	3811.25
2914.77587	3811.45
2917.25702	3818.25
2919.73665	3806.85
2922.21476	3809.75
2924.69136	3787.95
2927.16644	3778.55
2929.64	3769.45
2932.11205	3761.95
2934.58258	3763.45
2937.05161	3758.25
2939.51912	3757.05
2941.98513	3750.75
2944.44962	3740.15
2946.91261	3731.65
2949.37409	3749.95
2951.83407	3740.15
2954.29254	3740.85
2956.74951	3741.95
2959.20498	3728.95
2961.65895	3727.35
2964.11142	3722.15
2966.56239	3702.35
2969.01186	3713.35
2971.45984	3710.25
2973.90632	3697.65
2976.35131	3680.95
2978.7948	3685.85
2981.23681	3689.35
2983.67732	3661.45
2986.11635	3676.95
2988.55388	3646.45
2990.98993	3636.75
2993.4245	3625.55
2995.85758	3629.95
2998.28917	3628.85
3000.71928	3609.95
3003.14791	3608.35
3005.57506	3596.65
3008.00073	3580.95
3010.42493	3581.25
3012.84764	3580.35
3015.26888	3572.85
3017.68865	3566.45
3020.10694	3536.25
3022.52376	3532.55
3024.9391	3513.75
3027.35298	3519.25
3029.76539	3513.45
3032.17632	3503.85
3034.5858	3496.35
3036.9938	3488.05
3039.40034	3477.45
3041.80542	3471.85
3044.20903	3479.25
3046.61118	3472.75
3049.01187	3451.25
3051.4111	3439.85
3053.80888	3435.75
3056.20519	3440.65
3058.60005	3434.55
3060.99345	3428.05
3063.3854	3410.95
3065.7759	3395.65
3068.16494	3402.55
3070.55254	3379.55
3072.93868	3373.25
3075.32338	3352.45
3077.70662	3354.75
3080.08842	3333.05
3082.46878	3337.75
3084.84769	3325.55
3087.22515	3329.35
3089.60118	3333.55
3091.97576	3327.55
3094.3489	3317.75
3096.72061	3317.05
3099.09087	3326.85
3101.4597	3314.45
3103.82709	3310.05
3106.19305	3303.45
3108.55757	3301.75
3110.92066	3293.45
3113.28232	3297.55
3115.64255	3280.15
3118.00134	3283.55
3120.35871	3275.45
3122.71466	3263.55
3125.06917	3253.95
3127.42226	3254.65
3129.77393	3244.35
3132.12417	3243.25
3134.47299	3245.75
3136.82039	3221.05
3139.16636	3220.05
3141.51092	3224.05
3143.85406	3217.35
3146.19579	3226.15
3148.53609	3220.65
3150.87499	3226.95
3153.21246	3205.05
3155.54853	3227.25
3157.88318	3212.15
3160.21642	3221.75
3162.54826	3229.05
3164.87868	3216.15
3167.2077	3198.05
3169.5353	3192.85
3171.86151	3192.75
3174.18631	3186.15
3176.5097	3206.15
3178.83169	3192.55
3181.15228	3179.05
3183.47147	3189.05
3185.78926	3168.15
3188.10565	3160.15
3190.42065	3166.35
3192.73424	3150.95
3195.04645	3142.15
3197.35725	3152.05
3199.66667	3143.55
3201.97469	3150.35
3204.28132	3147.75
3206.58656	3145.45
3208.8904	3149.85
3211.19287	3132.35
3213.49394	3141.05
3215.79363	3132.95
3218.09193	3133.65
3220.38884	3134.75
3222.68438	3144.65
3224.97853	3138.85
3227.2713	3130.25
3229.56269	3128.45
3231.8527	3117.65
3234.14133	3107.75
3236.42858	3111.25
3238.71446	3101.95
3240.99896	3100.55
3243.28209	3094.25
3245.56384	3073.45
3247.84423	3095.05
3250.12324	3073.35
3252.40088	3074.95
3254.67715	3066.35
3256.95205	3065.65
3259.22558	3061.15
3261.49775	3050.85
3263.76855	3056.15
3266.03799	3054.05
3268.30606	3056.45
3270.57277	3054.15
3272.83812	3047.35
3275.10211	3035.05
3277.36474	3013.85
3279.62601	3029.65
3281.88593	3012.55
3284.14448	3006.75
3286.40168	3029.95
3288.65753	3025.55
3290.91202	3008.95
3293.16516	3011.45
3295.41695	3007.75
3297.66738	2990.15
3299.91647	2969.85
3302.16421	2937.95
3304.4106	2942.05
3306.65564	2920.55
3308.89933	2902.45
3311.14169	2880.25
3313.38269	2853.55
3315.62236	2847.35
3317.86068	2822.95
3320.09766	2797.75
3322.3333	2776.85
3324.5676	2762.35
3326.80056	2714.45
3329.03219	2696.55
3331.26248	0.65
3333.49143	0.55
3335.71905	-0.15
