Data from AgNPs_UA_10uM_CRN_500uM_SU_RamanShift__128__13-26-40-279.txt Node

Date: Thu Aug 04 13:26:40 BST 2022
User: TCL
Spectrometer: QEP01345
Trigger mode: 4
Integration Time (sec): 1.000000E0
Scans to average: 10
Electric dark correction enabled: true
Nonlinearity correction enabled: false
Boxcar width: 0
XAxis mode: Raman Shifts
Number of Pixels in Spectrum: 1044
>>>>>Begin Spectral Data<<<<<
46.04893	0.45
50.45542	-1.05
54.85868	0.85
59.25871	-0.05
63.6555	20.95
68.04907	21.05
72.43941	21.55
76.82654	23.45
81.21044	22.95
85.59113	24.65
89.96862	27.85
94.34289	26.45
98.71396	26.75
103.08183	29.05
107.4465	28.55
111.80798	29.15
116.16626	31.45
120.52136	33.05
124.87327	37.25
129.222	39.95
133.56755	38.25
137.90993	44.05
142.24913	48.85
146.58517	55.45
150.91804	64.15
155.24774	84.15
159.57429	102.55
163.89768	130.25
168.21792	175.65
172.53501	242.65
176.84895	341.45
181.15975	484.35
185.46741	687.15
189.77193	955.95
194.07331	1284.75
198.37157	1649.45
202.6667	2050.85
206.9587	2437.55
211.24758	2826.25
215.53334	3219.65
219.81599	3641.95
224.09553	4117.75
228.37195	4619.05
232.64527	5184.35
236.91549	5743.25
241.18261	6233.15
245.44663	6643.55
249.70755	6951.65
253.96539	7262.05
258.22014	7527.45
262.4718	7754.65
266.72039	7907.75
270.96589	7948.45
275.20832	7915.05
279.44768	7826.35
283.68397	7697.45
287.91719	7623.25
292.14735	7619.65
296.37445	7711.05
300.59849	7966.65
304.81948	8240.25
309.03742	8470.25
313.25231	8593.25
317.46415	8485.35
321.67296	8192.55
325.87872	7893.35
330.08145	7731.95
334.28114	7743.95
338.47781	7816.45
342.67145	7980.05
346.86207	8201.45
351.04966	8500.45
355.23424	8840.35
359.4158	9064.75
363.59435	9200.55
367.76989	9255.25
371.94243	9239.55
376.11196	9231.95
380.27849	9223.95
384.44203	9242.15
388.60257	9293.25
392.76012	9350.55
396.91468	9497.05
401.06626	9612.55
405.21485	9667.35
409.36047	9564.45
413.50311	9286.95
417.64277	9014.45
421.77947	8826.95
425.9132	8777.05
430.04396	8776.35
434.17176	8842.25
438.2966	8946.45
442.41849	9164.55
446.53742	9430.85
450.6534	9638.75
454.76644	9780.65
458.87653	9813.75
462.98368	9780.75
467.08789	9634.85
471.18916	9457.75
475.2875	9237.95
479.38291	9064.25
483.4754	8922.55
487.56496	8823.25
491.6516	8786.65
495.73531	8785.45
499.81612	8815.25
503.89401	8901.45
507.96899	8952.35
512.04106	9002.75
516.11023	9070.95
520.1765	9108.75
524.23987	9122.85
528.30034	9141.25
532.35792	9102.15
536.41261	8999.05
540.46441	8893.85
544.51333	8870.95
548.55936	8915.75
552.60252	9090.25
556.64279	9222.75
560.6802	9337.85
564.71473	9430.75
568.7464	9550.05
572.7752	9561.15
576.80114	9347.75
580.82422	9201.75
584.84444	9181.45
588.86181	9275.45
592.87633	9405.85
596.888	9620.15
600.89682	10009.65
604.9028	11067.05
608.90594	13314.95
612.90624	15481.65
616.90371	14185.85
620.89834	11131.35
624.89015	9936.45
628.87913	9876.55
632.86528	9950.55
636.84862	9906.35
640.82913	9612.35
644.80683	9230.35
648.78172	9037.05
652.75379	9082.55
656.72306	9382.75
660.68952	9669.55
664.65319	9592.85
668.61405	9443.75
672.57211	9497.35
676.52738	9455.85
680.47986	9302.25
684.42955	9109.35
688.37646	9098.15
692.32058	9209.15
696.26192	9364.45
700.20048	9527.35
704.13626	9542.95
708.06928	9413.45
711.99952	9312.55
715.927	9315.35
719.85171	9382.35
723.77365	9387.75
727.69284	9302.15
731.60928	9224.35
735.52295	9217.45
739.43388	9294.25
743.34206	9347.85
747.24749	9347.85
751.15017	9369.15
755.05012	9492.85
758.94733	9852.15
762.8418	10675.05
766.73354	11873.55
770.62254	12884.25
774.50882	13119.05
778.39237	12554.85
782.27321	11627.65
786.15132	10637.15
790.02671	9971.35
793.89938	9646.55
797.76935	9491.85
801.6366	9417.25
805.50115	9362.75
809.36299	9309.05
813.22213	9304.85
817.07857	9295.45
820.93231	9287.35
824.78336	9299.75
828.63172	9299.95
832.47738	9321.85
836.32036	9319.95
840.16066	9355.45
843.99827	9346.95
847.8332	9322.45
851.66546	9326.25
855.49504	9318.75
859.32195	9318.35
863.1462	9311.15
866.96777	9289.35
870.78668	9333.55
874.60293	9324.95
878.41652	9366.25
882.22745	9423.25
886.03573	9503.65
889.84136	9502.15
893.64433	9458.25
897.44466	9425.45
901.24235	9381.05
905.0374	9362.95
908.8298	9335.25
912.61957	9341.35
916.40671	9363.85
920.19121	9403.85
923.97308	9500.35
927.75233	9617.75
931.52895	9705.95
935.30295	9630.75
939.07433	9434.35
942.84309	9320.65
946.60924	9293.35
950.37278	9279.15
954.13371	9228.05
957.89203	9189.45
961.64774	9177.85
965.40086	9151.35
969.15137	9136.25
972.89929	9140.15
976.64461	9160.85
980.38733	9179.35
984.12747	9228.85
987.86502	9274.55
991.59999	9371.05
995.33237	9511.15
999.06217	9726.55
1002.78939	9983.25
1006.51404	10142.55
1010.23611	10264.05
1013.95561	10358.05
1017.67255	10421.15
1021.38692	10409.45
1025.09872	10399.25
1028.80796	10488.05
1032.51465	10711.05
1036.21877	10853.95
1039.92035	10841.65
1043.61937	10712.45
1047.31584	10537.05
1051.00976	10336.95
1054.70114	10241.35
1058.38998	10242.65
1062.07627	10257.35
1065.76003	10303.25
1069.44126	10347.85
1073.11995	10482.35
1076.79611	10645.85
1080.46974	10805.65
1084.14085	10915.65
1087.80943	11016.05
1091.47549	11028.65
1095.13903	10946.05
1098.80005	10858.15
1102.45857	10867.65
1106.11456	10868.85
1109.76805	10779.75
1113.41903	10849.35
1117.06751	11003.45
1120.71348	11222.75
1124.35696	11450.05
1127.99793	11552.35
1131.63641	11377.95
1135.2724	11080.35
1138.90589	10817.25
1142.5369	10629.85
1146.16542	10507.05
1149.79145	10403.75
1153.415	10359.45
1157.03607	10367.35
1160.65467	10528.55
1164.27079	10747.75
1167.88443	11173.75
1171.49561	11762.95
1175.10432	12656.65
1178.71056	13793.75
1182.31434	14790.45
1185.91565	15194.45
1189.51451	15089.45
1193.11091	14628.75
1196.70485	14091.95
1200.29634	13560.35
1203.88538	13083.35
1207.47197	12525.05
1211.05612	12017.95
1214.63782	11684.25
1218.21708	11522.85
1221.79391	11530.05
1225.36829	11563.55
1228.94024	11548.55
1232.50976	11412.05
1236.07685	11337.15
1239.6415	11346.15
1243.20374	11367.55
1246.76355	11472.65
1250.32093	11630.55
1253.8759	11824.15
1257.42845	12171.25
1260.97859	12519.35
1264.52631	12849.55
1268.07163	13146.25
1271.61453	13376.15
1275.15503	13551.35
1278.69312	13675.65
1282.22882	13811.65
1285.76211	14038.05
1289.29301	14177.75
1292.82151	14459.45
1296.34761	14756.55
1299.87133	15336.15
1303.39266	16273.75
1306.9116	17699.85
1310.42815	19190.05
1313.94233	19851.75
1317.45412	19302.85
1320.96354	18190.25
1324.47058	17015.25
1327.97525	16037.55
1331.47754	15492.35
1334.97747	15307.05
1338.47502	15489.05
1341.97022	15931.45
1345.46305	16675.35
1348.95352	17661.45
1352.44163	18768.15
1355.92738	20002.85
1359.41078	21645.55
1362.89183	22685.05
1366.37053	21566.55
1369.84688	18691.45
1373.32088	16121.85
1376.79254	14666.55
1380.26186	13962.85
1383.72883	13577.35
1387.19347	13182.25
1390.65578	12819.75
1394.11575	12469.05
1397.57339	12261.25
1401.0287	12206.85
1404.48168	12258.05
1407.93234	12404.45
1411.38068	12583.45
1414.82669	12756.45
1418.27039	12752.25
1421.71177	12645.35
1425.15083	12570.95
1428.58758	12547.25
1432.02203	12679.65
1435.45416	12855.75
1438.88399	12869.65
1442.31151	12791.25
1445.73673	12758.65
1449.15965	12734.35
1452.58027	12651.55
1455.9986	12558.15
1459.41463	12522.05
1462.82837	12640.95
1466.23982	12818.75
1469.64898	13041.15
1473.05586	13253.65
1476.46045	13391.95
1479.86276	13561.15
1483.26279	13686.95
1486.66054	13912.85
1490.05602	14275.35
1493.44922	14777.25
1496.84016	15558.55
1500.22882	16665.95
1503.61521	18091.55
1506.99934	19490.75
1510.38121	20354.95
1513.76081	20122.25
1517.13816	18756.45
1520.51324	16956.05
1523.88607	15518.45
1527.25665	14616.65
1530.62498	14162.25
1533.99105	13914.95
1537.35488	13794.25
1540.71647	13677.25
1544.07581	13515.45
1547.4329	13381.35
1550.78776	13261.15
1554.14038	13164.45
1557.49077	13116.65
1560.83892	13288.45
1564.18484	13557.05
1567.52853	13766.15
1570.86999	13899.75
1574.20922	13910.55
1577.54624	13697.75
1580.88103	13198.85
1584.2136	12705.55
1587.54395	12509.95
1590.87208	12822.25
1594.19801	13529.45
1597.52172	14323.85
1600.84321	14716.25
1604.16251	14512.15
1607.47959	13978.85
1610.79447	13316.25
1614.10715	12491.65
1617.41763	11813.65
1620.7259	11321.05
1624.03199	11089.45
1627.33587	11093.15
1630.63757	11337.45
1633.93707	11860.25
1637.23439	12754.45
1640.52951	13905.35
1643.82246	15324.55
1647.11321	16522.45
1650.40179	16819.95
1653.68819	15731.75
1656.97241	13843.55
1660.25446	12082.95
1663.53433	10932.75
1666.81203	10258.85
1670.08756	9847.15
1673.36092	9607.45
1676.63211	9423.35
1679.90115	9290.95
1683.16801	9179.55
1686.43272	9103.35
1689.69527	9064.25
1692.95567	9017.75
1696.2139	8988.35
1699.46999	8960.95
1702.72392	8957.55
1705.97571	8917.15
1709.22535	8953.95
1712.47284	8942.85
1715.71819	8948.75
1718.96139	8936.75
1722.20246	8900.75
1725.44139	8874.85
1728.67818	8817.65
1731.91284	8776.05
1735.14537	8724.45
1738.37576	8708.55
1741.60403	8653.15
1744.83017	8646.05
1748.05418	8621.45
1751.27607	8613.65
1754.49584	8604.25
1757.71349	8606.65
1760.92903	8581.25
1764.14244	8567.75
1767.35375	8538.75
1770.56294	8544.85
1773.77002	8529.45
1776.97499	8478.55
1780.17785	8473.65
1783.37861	8428.95
1786.57727	8456.75
1789.77382	8442.05
1792.96828	8430.95
1796.16064	8415.95
1799.3509	8396.05
1802.53907	8393.75
1805.72514	8402.65
1808.90913	8367.05
1812.09102	8346.45
1815.27083	8326.35
1818.44856	8290.65
1821.6242	8278.35
1824.79776	8252.45
1827.96924	8263.05
1831.13864	8238.15
1834.30597	8247.35
1837.47122	8200.45
1840.6344	8203.75
1843.7955	8194.35
1846.95454	8193.25
1850.11151	8185.95
1853.26642	8203.45
1856.41926	8177.65
1859.57004	8199.75
1862.71876	8192.35
1865.86542	8187.45
1869.01003	8169.55
1872.15258	8143.15
1875.29308	8139.95
1878.43152	8154.75
1881.56792	8128.95
1884.70227	8110.25
1887.83457	8099.55
1890.96482	8092.35
1894.09304	8074.65
1897.21921	8057.85
1900.34335	8076.55
1903.46544	8033.55
1906.58551	8077.85
1909.70353	8042.55
1912.81953	8042.75
1915.93349	8031.95
1919.04543	8007.15
1922.15534	8000.15
1925.26322	7992.45
1928.36908	7959.85
1931.47292	7930.15
1934.57473	7936.65
1937.67453	7920.05
1940.77232	7913.75
1943.86808	7880.05
1946.96184	7855.75
1950.05358	7847.25
1953.14331	7833.25
1956.23103	7801.05
1959.31675	7769.35
1962.40046	7774.15
1965.48217	7734.75
1968.56188	7679.95
1971.63959	7689.75
1974.7153	7694.85
1977.78901	7655.25
1980.86073	7637.85
1983.93046	7614.25
1986.99819	7573.85
1990.06394	7582.35
1993.1277	7550.85
1996.18947	7502.45
1999.24925	7472.65
2002.30706	7454.05
2005.36288	7418.85
2008.41672	7397.35
2011.46859	7394.55
2014.51848	7356.05
2017.56639	7332.35
2020.61233	7325.35
2023.6563	7312.65
2026.6983	7281.15
2029.73833	7262.25
2032.7764	7252.95
2035.8125	7253.15
2038.84664	7229.75
2041.87881	7200.95
2044.90903	7205.55
2047.93729	7187.75
2050.96359	7179.05
2053.98794	7169.15
2057.01034	7151.65
2060.03078	7159.85
2063.04927	7122.75
2066.06582	7137.25
2069.08042	7128.85
2072.09307	7125.25
2075.10378	7110.95
2078.11255	7100.85
2081.11938	7107.75
2084.12426	7081.65
2087.12722	7081.65
2090.12824	7069.65
2093.12732	7096.85
2096.12447	7090.15
2099.11969	7096.95
2102.11299	7095.85
2105.10435	7081.75
2108.09379	7088.85
2111.08131	7100.85
2114.0669	7080.45
2117.05057	7123.25
2120.03233	7116.45
2123.01216	7120.35
2125.99008	7109.25
2128.96609	7114.35
2131.94018	7125.05
2134.91236	7132.85
2137.88263	7118.55
2140.851	7127.25
2143.81746	7122.85
2146.78201	7133.65
2149.74466	7111.85
2152.7054	7131.15
2155.66425	7119.75
2158.6212	7120.55
2161.57625	7108.75
2164.52941	7108.45
2167.48067	7113.95
2170.43004	7095.15
2173.37752	7105.05
2176.32311	7103.65
2179.26681	7098.35
2182.20863	7122.35
2185.14856	7103.15
2188.08661	7112.05
2191.02278	7100.25
2193.95707	7097.55
2196.88948	7102.35
2199.82001	7086.65
2202.74867	7071.85
2205.67545	7092.65
2208.60037	7082.25
2211.52341	7076.05
2214.44458	7041.85
2217.36388	7028.05
2220.28132	7024.15
2223.1969	7020.65
2226.11061	6979.75
2229.02246	6983.25
2231.93245	6970.25
2234.84058	6944.85
2237.74686	6947.25
2240.65128	6911.75
2243.55385	6908.05
2246.45456	6906.25
2249.35343	6910.95
2252.25044	6904.85
2255.14561	6891.95
2258.03893	6868.45
2260.93041	6889.35
2263.82004	6869.25
2266.70783	6842.85
2269.59378	6819.65
2272.4779	6806.25
2275.36017	6768.35
2278.24061	6785.25
2281.11922	6752.05
2283.996	6744.05
2286.87094	6749.75
2289.74405	6727.85
2292.61534	6731.85
2295.4848	6709.15
2298.35243	6711.75
2301.21824	6683.35
2304.08223	6672.45
2306.94439	6701.25
2309.80474	6696.75
2312.66327	6689.25
2315.51999	6699.55
2318.37489	6681.85
2321.22797	6688.05
2324.07925	6680.35
2326.92871	6668.45
2329.77637	6658.05
2332.62222	6648.75
2335.46626	6645.55
2338.3085	6649.25
2341.14893	6643.45
2343.98756	6647.45
2346.8244	6653.55
2349.65943	6641.95
2352.49267	6623.75
2355.32411	6622.15
2358.15376	6632.95
2360.98161	6623.05
2363.80768	6623.25
2366.63195	6613.35
2369.45444	6612.75
2372.27514	6576.75
2375.09405	6585.35
2377.91118	6543.45
2380.72652	6552.35
2383.54009	6533.25
2386.35187	6521.75
2389.16188	6508.65
2391.97011	6477.75
2394.77657	6468.35
2397.58125	6463.85
2400.38416	6467.75
2403.18529	6444.05
2405.98466	6442.05
2408.78226	6403.85
2411.57809	6393.25
2414.37216	6381.85
2417.16446	6379.95
2419.955	6384.95
2422.74378	6373.35
2425.5308	6348.55
2428.31606	6369.45
2431.09956	6351.75
2433.88131	6338.25
2436.6613	6334.55
2439.43954	6349.25
2442.21603	6350.55
2444.99077	6333.85
2447.76377	6350.35
2450.53501	6328.25
2453.30451	6334.95
2456.07226	6309.95
2458.83827	6304.95
2461.60254	6305.65
2464.36507	6285.05
2467.12586	6276.05
2469.88492	6279.65
2472.64224	6307.15
2475.39782	6280.25
2478.15167	6287.35
2480.90379	6267.15
2483.65417	6242.15
2486.40283	6254.75
2489.14976	6286.15
2491.89497	6275.35
2494.63845	6272.55
2497.3802	6270.45
2500.12024	6273.05
2502.85855	6261.15
2505.59514	6246.75
2508.33002	6241.75
2511.06318	6221.95
2513.79462	6188.95
2516.52435	6195.55
2519.25237	6191.95
2521.97867	6178.75
2524.70327	6160.55
2527.42616	6163.85
2530.14734	6150.35
2532.86681	6136.15
2535.58458	6173.05
2538.30065	6163.75
2541.01501	6172.75
2543.72768	6139.05
2546.43864	6130.25
2549.14791	6125.45
2551.85548	6116.75
2554.56136	6119.35
2557.26554	6108.25
2559.96803	6101.95
2562.66883	6086.35
2565.36794	6060.45
2568.06536	6049.55
2570.7611	6046.15
2573.45514	6043.75
2576.14751	6039.35
2578.83819	6034.15
2581.52719	6014.95
2584.21451	6031.85
2586.90015	6007.35
2589.58411	6011.35
2592.2664	5997.75
2594.94701	5990.45
2597.62594	5985.35
2600.30321	5989.25
2602.9788	5993.25
2605.65273	5970.05
2608.32498	5977.95
2610.99557	5961.75
2613.66449	5960.65
2616.33175	5957.95
2618.99734	5961.15
2621.66128	5957.65
2624.32355	5936.45
2626.98416	5927.05
2629.64311	5924.75
2632.30041	5926.05
2634.95605	5899.65
2637.61004	5913.35
2640.26238	5892.75
2642.91306	5893.65
2645.56209	5901.15
2648.20948	5876.45
2650.85521	5881.15
2653.4993	5864.15
2656.14175	5876.25
2658.78255	5846.05
2661.42171	5845.85
2664.05923	5851.55
2666.6951	5878.05
2669.32934	5890.15
2671.96194	5874.55
2674.59291	5884.15
2677.22224	5861.85
2679.84993	5884.95
2682.476	5865.45
2685.10043	5865.65
2687.72324	5867.65
2690.34441	5860.05
2692.96396	5858.95
2695.58188	5852.45
2698.19818	5829.05
2700.81285	5840.35
2703.4259	5834.35
2706.03733	5820.85
2708.64714	5803.65
2711.25533	5821.35
2713.86191	5816.95
2716.46687	5810.95
2719.07021	5801.05
2721.67194	5830.85
2724.27206	5824.95
2726.87057	5817.65
2729.46747	5824.65
2732.06276	5808.25
2734.65644	5834.05
2737.24852	5805.75
2739.83899	5784.55
2742.42786	5784.45
2745.01513	5773.45
2747.60079	5763.15
2750.18486	5754.75
2752.76733	5765.65
2755.3482	5758.75
2757.92747	5739.75
2760.50515	5736.55
2763.08123	5730.15
2765.65573	5722.65
2768.22863	5703.65
2770.79994	5710.55
2773.36967	5701.25
2775.9378	5689.25
2778.50435	5700.25
2781.06932	5700.05
2783.6327	5689.55
2786.1945	5709.55
2788.75471	5693.15
2791.31335	5660.85
2793.87041	5665.85
2796.42589	5626.75
2798.97979	5628.85
2801.53212	5618.35
2804.08288	5592.65
2806.63206	5604.55
2809.17967	5601.05
2811.72571	5610.05
2814.27018	5577.75
2816.81308	5558.15
2819.35442	5553.35
2821.89419	5540.95
2824.43239	5541.75
2826.96904	5550.15
2829.50412	5548.25
2832.03763	5509.05
2834.56959	5503.45
2837.1	5500.05
2839.62884	5481.55
2842.15613	5479.95
2844.68186	5486.75
2847.20604	5473.45
2849.72867	5475.05
2852.24974	5452.45
2854.76927	5435.75
2857.28724	5432.75
2859.80367	5439.95
2862.31855	5424.75
2864.83189	5427.35
2867.34368	5436.45
2869.85393	5431.55
2872.36264	5397.35
2874.8698	5410.05
2877.37543	5422.65
2879.87952	5407.95
2882.38207	5390.25
2884.88308	5371.45
2887.38256	5394.25
2889.88051	5392.65
2892.37692	5386.95
2894.8718	5372.95
2897.36515	5365.65
2899.85698	5381.55
2902.34727	5389.25
2904.83604	5394.05
2907.32328	5397.45
2909.809	5401.55
2912.29319	5395.75
2914.77587	5420.55
2917.25702	5402.25
2919.73665	5398.55
2922.21476	5391.45
2924.69136	5374.35
2927.16644	5386.25
2929.64	5358.25
2932.11205	5357.05
2934.58258	5320.45
2937.05161	5329.05
2939.51912	5347.75
2941.98513	5329.15
2944.44962	5329.45
2946.91261	5314.15
2949.37409	5316.05
2951.83407	5321.85
2954.29254	5312.55
2956.74951	5302.85
2959.20498	5306.65
2961.65895	5312.05
2964.11142	5301.05
2966.56239	5289.45
2969.01186	5289.05
2971.45984	5278.55
2973.90632	5274.85
2976.35131	5257.55
2978.7948	5245.25
2981.23681	5245.45
2983.67732	5236.55
2986.11635	5216.05
2988.55388	5182.15
2990.98993	5186.85
2993.4245	5171.45
2995.85758	5168.25
2998.28917	5156.95
3000.71928	5151.75
3003.14791	5124.85
3005.57506	5127.15
3008.00073	5102.45
3010.42493	5091.25
3012.84764	5094.35
3015.26888	5093.95
3017.68865	5077.75
3020.10694	5081.55
3022.52376	5040.75
3024.9391	5023.35
3027.35298	5024.35
3029.76539	4989.65
3032.17632	4996.35
3034.5858	5002.45
3036.9938	4987.75
3039.40034	4959.05
3041.80542	4954.95
3044.20903	4949.45
3046.61118	4949.65
3049.01187	4926.15
3051.4111	4929.25
3053.80888	4900.25
3056.20519	4894.05
3058.60005	4893.35
3060.99345	4885.85
3063.3854	4868.05
3065.7759	4838.45
3068.16494	4840.05
3070.55254	4825.05
3072.93868	4809.25
3075.32338	4787.15
3077.70662	4796.35
3080.08842	4768.25
3082.46878	4768.45
3084.84769	4772.55
3087.22515	4745.15
3089.60118	4764.65
3091.97576	4757.85
3094.3489	4743.35
3096.72061	4724.25
3099.09087	4731.05
3101.4597	4734.15
3103.82709	4728.65
3106.19305	4718.45
3108.55757	4722.55
3110.92066	4705.15
3113.28232	4690.35
3115.64255	4676.85
3118.00134	4676.75
3120.35871	4671.25
3122.71466	4663.05
3125.06917	4648.95
3127.42226	4629.25
3129.77393	4624.85
3132.12417	4618.15
3134.47299	4607.85
3136.82039	4584.75
3139.16636	4609.95
3141.51092	4608.85
3143.85406	4608.35
3146.19579	4595.85
3148.53609	4594.95
3150.87499	4586.55
3153.21246	4571.05
3155.54853	4582.95
3157.88318	4591.85
3160.21642	4572.05
3162.54826	4577.25
3164.87868	4578.25
3167.2077	4563.55
3169.5353	4544.85
3171.86151	4547.75
3174.18631	4530.55
3176.5097	4531.85
3178.83169	4521.85
3181.15228	4519.95
3183.47147	4504.25
3185.78926	4489.35
3188.10565	4484.65
3190.42065	4474.85
3192.73424	4472.75
3195.04645	4474.65
3197.35725	4454.55
3199.66667	4448.65
3201.97469	4453.55
3204.28132	4456.55
3206.58656	4471.95
3208.8904	4457.05
3211.19287	4453.65
3213.49394	4464.95
3215.79363	4470.55
3218.09193	4455.95
3220.38884	4464.95
3222.68438	4456.45
3224.97853	4447.05
3227.2713	4440.85
3229.56269	4423.25
3231.8527	4421.45
3234.14133	4421.35
3236.42858	4408.45
3238.71446	4385.25
3240.99896	4382.15
3243.28209	4380.65
3245.56384	4359.75
3247.84423	4377.85
3250.12324	4356.65
3252.40088	4353.05
3254.67715	4335.55
3256.95205	4336.85
3259.22558	4336.45
3261.49775	4333.85
3263.76855	4338.65
3266.03799	4331.15
3268.30606	4335.85
3270.57277	4326.55
3272.83812	4325.45
3275.10211	4311.45
3277.36474	4292.85
3279.62601	4289.25
3281.88593	4283.95
3284.14448	4271.95
3286.40168	4292.45
3288.65753	4273.55
3290.91202	4293.05
3293.16516	4257.35
3295.41695	4250.35
3297.66738	4238.55
3299.91647	4230.55
3302.16421	4198.05
3304.4106	4180.15
3306.65564	4146.35
3308.89933	4118.25
3311.14169	4093.45
3313.38269	4045.45
3315.62236	4026.35
3317.86068	3988.05
3320.09766	3976.65
3322.3333	3938.65
3324.5676	3910.85
3326.80056	3850.45
3329.03219	3816.75
3331.26248	0.55
3333.49143	-1.35
3335.71905	0.15
