Data from AgNPs_UA_5uM_CRN_500uM_SU_RamanShift__178__11-59-03-175.txt Node

Date: Thu Aug 04 11:59:03 BST 2022
User: TCL
Spectrometer: QEP01345
Trigger mode: 4
Integration Time (sec): 1.000000E0
Scans to average: 10
Electric dark correction enabled: true
Nonlinearity correction enabled: false
Boxcar width: 0
XAxis mode: Raman Shifts
Number of Pixels in Spectrum: 1044
>>>>>Begin Spectral Data<<<<<
46.04893	-0.65
50.45542	0.65
54.85868	-0.25
59.25871	-1.15
63.6555	-56.65
68.04907	-39.25
72.43941	-71.15
76.82654	-55.95
81.21044	-56.55
85.59113	-47.65
89.96862	-76.25
94.34289	-54.15
98.71396	-77.85
103.08183	-56.85
107.4465	-49.25
111.80798	-56.65
116.16626	-44.15
120.52136	-74.55
124.87327	-49.55
129.222	-62.15
133.56755	-50.55
137.90993	-61.55
142.24913	-50.75
146.58517	-41.55
150.91804	-40.05
155.24774	-28.65
159.57429	-10.15
163.89768	-5.65
168.21792	40.25
172.53501	57.85
176.84895	138.45
181.15975	269.35
185.46741	422.45
189.77193	604.05
194.07331	893.05
198.37157	1177.15
202.6667	1449.05
206.9587	1772.15
211.24758	2087.45
215.53334	2411.65
219.81599	2762.75
224.09553	3166.75
228.37195	3601.65
232.64527	4046.75
236.91549	4515.85
241.18261	4873.55
245.44663	5171.65
249.70755	5328.95
253.96539	5469.85
258.22014	5571.75
262.4718	5635.95
266.72039	5680.05
270.96589	5650.45
275.20832	5557.45
279.44768	5430.05
283.68397	5312.25
287.91719	5256.15
292.14735	5285.35
296.37445	5450.15
300.59849	5751.45
304.81948	6068.05
309.03742	6453.85
313.25231	6669.65
317.46415	6619.15
321.67296	6238.65
325.87872	5841.55
330.08145	5641.35
334.28114	5603.45
338.47781	5676.55
342.67145	5825.75
346.86207	6059.05
351.04966	6419.85
355.23424	6812.65
359.4158	7076.25
363.59435	7111.75
367.76989	7046.85
371.94243	6932.55
376.11196	6783.95
380.27849	6718.95
384.44203	6655.95
388.60257	6630.05
392.76012	6620.35
396.91468	6741.95
401.06626	6898.95
405.21485	6930.95
409.36047	6772.05
413.50311	6468.75
417.64277	6173.05
421.77947	5957.35
425.9132	5887.95
430.04396	5888.35
434.17176	5928.95
438.2966	6034.05
442.41849	6112.75
446.53742	6229.95
450.6534	6341.05
454.76644	6402.25
458.87653	6408.55
462.98368	6380.95
467.08789	6328.75
471.18916	6235.95
475.2875	6127.15
479.38291	6014.05
483.4754	5923.15
487.56496	5875.45
491.6516	5826.65
495.73531	5842.05
499.81612	5882.55
503.89401	5948.75
507.96899	6011.65
512.04106	6093.25
516.11023	6217.35
520.1765	6286.25
524.23987	6316.05
528.30034	6314.45
532.35792	6231.85
536.41261	6191.35
540.46441	6092.55
544.51333	6033.85
548.55936	6079.95
552.60252	6202.55
556.64279	6303.05
560.6802	6422.45
564.71473	6573.05
568.7464	6769.55
572.7752	6723.15
576.80114	6424.35
580.82422	6173.95
584.84444	6077.55
588.86181	6067.25
592.87633	6077.05
596.888	6205.95
600.89682	6583.15
604.9028	7525.35
608.90594	9592.75
612.90624	11926.05
616.90371	11043.15
620.89834	8025.85
624.89015	6721.55
628.87913	6521.85
632.86528	6684.15
636.84862	6827.55
640.82913	6695.15
644.80683	6345.65
648.78172	6189.15
652.75379	6214.15
656.72306	6440.15
660.68952	6695.25
664.65319	6594.75
668.61405	6364.25
672.57211	6310.35
676.52738	6295.15
680.47986	6209.75
684.42955	6113.05
688.37646	6069.35
692.32058	6077.25
696.26192	6151.85
700.20048	6245.85
704.13626	6277.45
708.06928	6250.75
711.99952	6203.55
715.927	6162.35
719.85171	6222.85
723.77365	6265.35
727.69284	6254.35
731.60928	6217.55
735.52295	6213.35
739.43388	6252.75
743.34206	6267.15
747.24749	6300.15
751.15017	6288.15
755.05012	6367.55
758.94733	6710.75
762.8418	7541.95
766.73354	8862.65
770.62254	9836.05
774.50882	9932.05
778.39237	9442.25
782.27321	8541.05
786.15132	7513.55
790.02671	6814.95
793.89938	6449.85
797.76935	6348.05
801.6366	6256.65
805.50115	6227.65
809.36299	6205.65
813.22213	6203.55
817.07857	6200.35
820.93231	6193.25
824.78336	6230.35
828.63172	6249.85
832.47738	6252.15
836.32036	6253.35
840.16066	6227.35
843.99827	6206.45
847.8332	6195.05
851.66546	6216.05
855.49504	6229.45
859.32195	6240.35
863.1462	6236.75
866.96777	6226.35
870.78668	6229.15
874.60293	6223.15
878.41652	6278.95
882.22745	6354.85
886.03573	6363.85
889.84136	6373.85
893.64433	6362.15
897.44466	6367.65
901.24235	6355.25
905.0374	6356.45
908.8298	6287.75
912.61957	6252.75
916.40671	6216.55
920.19121	6278.15
923.97308	6362.05
927.75233	6432.95
931.52895	6482.85
935.30295	6458.35
939.07433	6302.65
942.84309	6185.55
946.60924	6148.55
950.37278	6135.45
954.13371	6116.85
957.89203	6104.55
961.64774	6126.05
965.40086	6102.95
969.15137	6093.05
972.89929	6132.55
976.64461	6103.85
980.38733	6126.85
984.12747	6137.85
987.86502	6163.75
991.59999	6176.95
995.33237	6254.85
999.06217	6312.75
1002.78939	6391.65
1006.51404	6521.95
1010.23611	6645.85
1013.95561	6695.45
1017.67255	6705.65
1021.38692	6692.05
1025.09872	6590.35
1028.80796	6531.85
1032.51465	6531.25
1036.21877	6515.75
1039.92035	6548.05
1043.61937	6600.05
1047.31584	6656.15
1051.00976	6660.05
1054.70114	6676.15
1058.38998	6675.15
1062.07627	6678.65
1065.76003	6704.85
1069.44126	6790.65
1073.11995	6865.35
1076.79611	6989.75
1080.46974	7129.65
1084.14085	7306.05
1087.80943	7428.15
1091.47549	7437.95
1095.13903	7390.35
1098.80005	7269.15
1102.45857	7180.75
1106.11456	7140.55
1109.76805	7075.75
1113.41903	7203.55
1117.06751	7363.55
1120.71348	7611.05
1124.35696	7974.55
1127.99793	8253.45
1131.63641	8096.15
1135.2724	7694.65
1138.90589	7418.55
1142.5369	7210.75
1146.16542	7123.15
1149.79145	7021.05
1153.415	6982.65
1157.03607	6951.55
1160.65467	7052.05
1164.27079	7239.25
1167.88443	7485.85
1171.49561	7886.05
1175.10432	8491.85
1178.71056	9372.55
1182.31434	10129.55
1185.91565	10384.55
1189.51451	10245.35
1193.11091	9971.45
1196.70485	9741.95
1200.29634	9525.95
1203.88538	9266.15
1207.47197	8839.75
1211.05612	8403.65
1214.63782	7996.75
1218.21708	7755.05
1221.79391	7617.45
1225.36829	7518.25
1228.94024	7523.25
1232.50976	7525.25
1236.07685	7562.05
1239.6415	7564.45
1243.20374	7585.85
1246.76355	7646.55
1250.32093	7734.15
1253.8759	7787.65
1257.42845	7970.95
1260.97859	8148.05
1264.52631	8412.05
1268.07163	8543.45
1271.61453	8653.25
1275.15503	8710.45
1278.69312	8712.95
1282.22882	8782.65
1285.76211	8955.05
1289.29301	9237.15
1292.82151	9483.05
1296.34761	9686.35
1299.87133	10077.55
1303.39266	10776.25
1306.9116	11887.85
1310.42815	13115.85
1313.94233	13531.95
1317.45412	12766.15
1320.96354	11614.45
1324.47058	10613.35
1327.97525	9894.15
1331.47754	9520.45
1334.97747	9401.75
1338.47502	9511.05
1341.97022	9883.65
1345.46305	10611.15
1348.95352	11645.55
1352.44163	12909.45
1355.92738	14194.65
1359.41078	15812.05
1362.89183	17262.95
1366.37053	16615.45
1369.84688	13818.05
1373.32088	11222.95
1376.79254	9872.75
1380.26186	9265.65
1383.72883	8853.95
1387.19347	8472.95
1390.65578	8136.85
1394.11575	7918.25
1397.57339	7745.75
1401.0287	7660.85
1404.48168	7606.75
1407.93234	7630.25
1411.38068	7660.45
1414.82669	7720.15
1418.27039	7807.45
1421.71177	7793.15
1425.15083	7702.65
1428.58758	7627.05
1432.02203	7659.45
1435.45416	7727.35
1438.88399	7729.75
1442.31151	7733.75
1445.73673	7800.55
1449.15965	7851.85
1452.58027	7862.25
1455.9986	7836.55
1459.41463	7862.65
1462.82837	7960.25
1466.23982	8136.65
1469.64898	8353.75
1473.05586	8499.35
1476.46045	8585.15
1479.86276	8666.35
1483.26279	8753.95
1486.66054	8932.95
1490.05602	9200.95
1493.44922	9710.95
1496.84016	10588.95
1500.22882	11898.55
1503.61521	13581.15
1506.99934	15331.85
1510.38121	16497.15
1513.76081	16400.35
1517.13816	14848.65
1520.51324	12770.25
1523.88607	11078.35
1527.25665	10140.15
1530.62498	9631.35
1533.99105	9427.05
1537.35488	9309.65
1540.71647	9197.55
1544.07581	9091.25
1547.4329	8986.85
1550.78776	8866.65
1554.14038	8781.75
1557.49077	8746.85
1560.83892	8848.45
1564.18484	9063.85
1567.52853	9389.05
1570.86999	9690.25
1574.20922	9825.95
1577.54624	9727.85
1580.88103	9218.65
1584.2136	8580.55
1587.54395	8230.45
1590.87208	8170.45
1594.19801	8323.25
1597.52172	8682.45
1600.84321	8808.85
1604.16251	8693.45
1607.47959	8503.15
1610.79447	8296.45
1614.10715	8026.05
1617.41763	7728.15
1620.7259	7463.95
1624.03199	7295.35
1627.33587	7244.15
1630.63757	7299.05
1633.93707	7516.25
1637.23439	7914.65
1640.52951	8607.45
1643.82246	9583.95
1647.11321	10715.35
1650.40179	11407.05
1653.68819	11070.35
1656.97241	9861.65
1660.25446	8494.85
1663.53433	7510.75
1666.81203	6912.65
1670.08756	6598.35
1673.36092	6414.15
1676.63211	6276.65
1679.90115	6191.75
1683.16801	6114.45
1686.43272	6023.45
1689.69527	5985.85
1692.95567	5916.95
1696.2139	5905.95
1699.46999	5854.65
1702.72392	5839.75
1705.97571	5861.75
1709.22535	5835.25
1712.47284	5864.85
1715.71819	5884.05
1718.96139	5868.55
1722.20246	5854.05
1725.44139	5815.95
1728.67818	5817.05
1731.91284	5758.25
1735.14537	5728.35
1738.37576	5687.35
1741.60403	5679.35
1744.83017	5651.65
1748.05418	5658.45
1751.27607	5653.15
1754.49584	5617.75
1757.71349	5571.85
1760.92903	5585.15
1764.14244	5531.55
1767.35375	5539.05
1770.56294	5528.45
1773.77002	5516.25
1776.97499	5530.25
1780.17785	5514.65
1783.37861	5500.35
1786.57727	5510.45
1789.77382	5448.25
1792.96828	5460.05
1796.16064	5491.95
1799.3509	5435.15
1802.53907	5473.85
1805.72514	5433.15
1808.90913	5399.95
1812.09102	5412.45
1815.27083	5404.35
1818.44856	5389.35
1821.6242	5377.65
1824.79776	5374.15
1827.96924	5355.65
1831.13864	5323.65
1834.30597	5351.35
1837.47122	5318.45
1840.6344	5317.05
1843.7955	5286.35
1846.95454	5284.75
1850.11151	5304.55
1853.26642	5276.55
1856.41926	5273.75
1859.57004	5281.15
1862.71876	5256.35
1865.86542	5269.55
1869.01003	5238.95
1872.15258	5239.45
1875.29308	5262.45
1878.43152	5238.75
1881.56792	5233.75
1884.70227	5201.35
1887.83457	5214.35
1890.96482	5187.25
1894.09304	5182.55
1897.21921	5176.45
1900.34335	5193.55
1903.46544	5157.25
1906.58551	5178.05
1909.70353	5163.15
1912.81953	5164.15
1915.93349	5153.95
1919.04543	5134.55
1922.15534	5122.85
1925.26322	5115.45
1928.36908	5115.05
1931.47292	5105.35
1934.57473	5095.85
1937.67453	5078.25
1940.77232	5048.15
1943.86808	5054.15
1946.96184	5042.65
1950.05358	5017.95
1953.14331	5011.25
1956.23103	5004.15
1959.31675	4960.25
1962.40046	4915.55
1965.48217	4934.55
1968.56188	4919.85
1971.63959	4901.75
1974.7153	4913.35
1977.78901	4889.95
1980.86073	4875.55
1983.93046	4839.45
1986.99819	4756.15
1990.06394	4783.35
1993.1277	4810.15
1996.18947	4785.15
1999.24925	4754.55
2002.30706	4733.35
2005.36288	4740.55
2008.41672	4721.25
2011.46859	4697.45
2014.51848	4676.05
2017.56639	4666.05
2020.61233	4629.65
2023.6563	4661.35
2026.6983	4616.85
2029.73833	4601.15
2032.7764	4613.35
2035.8125	4553.45
2038.84664	4563.15
2041.87881	4542.75
2044.90903	4577.75
2047.93729	4541.85
2050.96359	4532.45
2053.98794	4536.65
2057.01034	4530.25
2060.03078	4502.45
2063.04927	4505.25
2066.06582	4504.95
2069.08042	4506.65
2072.09307	4499.95
2075.10378	4482.35
2078.11255	4498.55
2081.11938	4480.15
2084.12426	4474.55
2087.12722	4472.85
2090.12824	4460.75
2093.12732	4470.05
2096.12447	4493.35
2099.11969	4474.45
2102.11299	4465.65
2105.10435	4490.15
2108.09379	4460.75
2111.08131	4461.45
2114.0669	4476.95
2117.05057	4466.25
2120.03233	4468.75
2123.01216	4463.25
2125.99008	4480.85
2128.96609	4487.15
2131.94018	4494.95
2134.91236	4483.15
2137.88263	4481.45
2140.851	4486.95
2143.81746	4500.55
2146.78201	4495.05
2149.74466	4482.75
2152.7054	4473.05
2155.66425	4474.65
2158.6212	4460.35
2161.57625	4448.95
2164.52941	4411.65
2167.48067	4445.45
2170.43004	4433.55
2173.37752	4439.65
2176.32311	4448.55
2179.26681	4440.85
2182.20863	4444.95
2185.14856	4439.95
2188.08661	4454.65
2191.02278	4421.55
2193.95707	4424.35
2196.88948	4408.25
2199.82001	4417.35
2202.74867	4401.95
2205.67545	4410.15
2208.60037	4415.55
2211.52341	4385.85
2214.44458	4373.55
2217.36388	4355.15
2220.28132	4362.85
2223.1969	4331.65
2226.11061	4332.85
2229.02246	4329.05
2231.93245	4331.35
2234.84058	4295.95
2237.74686	4296.95
2240.65128	4291.65
2243.55385	4285.45
2246.45456	4269.75
2249.35343	4272.55
2252.25044	4264.45
2255.14561	4276.75
2258.03893	4270.75
2260.93041	4258.35
2263.82004	4245.85
2266.70783	4248.55
2269.59378	4227.35
2272.4779	4203.85
2275.36017	4210.05
2278.24061	4181.95
2281.11922	4169.75
2283.996	4174.15
2286.87094	4155.45
2289.74405	4164.95
2292.61534	4156.35
2295.4848	4141.25
2298.35243	4145.05
2301.21824	4133.85
2304.08223	4112.45
2306.94439	4130.75
2309.80474	4121.85
2312.66327	4099.95
2315.51999	4110.35
2318.37489	4087.35
2321.22797	4088.05
2324.07925	4080.15
2326.92871	4071.35
2329.77637	4049.05
2332.62222	4048.55
2335.46626	4014.65
2338.3085	4035.85
2341.14893	4055.75
2343.98756	4037.95
2346.8244	4020.85
2349.65943	4016.05
2352.49267	4005.65
2355.32411	4013.45
2358.15376	4003.15
2360.98161	4024.15
2363.80768	3992.75
2366.63195	4007.55
2369.45444	4018.55
2372.27514	3995.15
2375.09405	4025.85
2377.91118	3978.45
2380.72652	3975.95
2383.54009	3963.05
2386.35187	3974.45
2389.16188	3945.55
2391.97011	3932.45
2394.77657	3930.25
2397.58125	3918.25
2400.38416	3906.65
2403.18529	3890.85
2405.98466	3892.35
2408.78226	3892.75
2411.57809	3877.35
2414.37216	3865.45
2417.16446	3861.05
2419.955	3840.75
2422.74378	3861.35
2425.5308	3841.95
2428.31606	3851.05
2431.09956	3856.55
2433.88131	3822.25
2436.6613	3826.85
2439.43954	3821.85
2442.21603	3829.15
2444.99077	3813.15
2447.76377	3813.75
2450.53501	3816.05
2453.30451	3788.95
2456.07226	3807.95
2458.83827	3801.05
2461.60254	3749.05
2464.36507	3785.75
2467.12586	3773.15
2469.88492	3759.75
2472.64224	3773.45
2475.39782	3750.35
2478.15167	3763.45
2480.90379	3756.95
2483.65417	3758.45
2486.40283	3763.75
2489.14976	3767.65
2491.89497	3760.75
2494.63845	3762.25
2497.3802	3752.05
2500.12024	3742.55
2502.85855	3746.95
2505.59514	3756.45
2508.33002	3731.95
2511.06318	3689.85
2513.79462	3715.75
2516.52435	3666.25
2519.25237	3654.15
2521.97867	3657.35
2524.70327	3667.35
2527.42616	3651.15
2530.14734	3669.35
2532.86681	3647.65
2535.58458	3640.15
2538.30065	3635.05
2541.01501	3642.75
2543.72768	3626.45
2546.43864	3621.15
2549.14791	3609.45
2551.85548	3609.75
2554.56136	3586.85
2557.26554	3592.95
2559.96803	3589.05
2562.66883	3584.65
2565.36794	3569.95
2568.06536	3546.25
2570.7611	3569.95
2573.45514	3544.75
2576.14751	3537.25
2578.83819	3515.75
2581.52719	3509.35
2584.21451	3527.15
2586.90015	3493.25
2589.58411	3484.55
2592.2664	3474.75
2594.94701	3486.75
2597.62594	3493.05
2600.30321	3429.95
2602.9788	3436.15
2605.65273	3425.85
2608.32498	3436.15
2610.99557	3452.85
2613.66449	3417.95
2616.33175	3437.95
2618.99734	3436.75
2621.66128	3433.95
2624.32355	3427.95
2626.98416	3401.65
2629.64311	3387.95
2632.30041	3401.25
2634.95605	3370.75
2637.61004	3355.95
2640.26238	3360.35
2642.91306	3343.35
2645.56209	3362.45
2648.20948	3366.35
2650.85521	3336.55
2653.4993	3368.25
2656.14175	3358.55
2658.78255	3359.45
2661.42171	3312.45
2664.05923	3359.95
2666.6951	3352.95
2669.32934	3363.55
2671.96194	3368.35
2674.59291	3357.85
2677.22224	3345.25
2679.84993	3346.25
2682.476	3333.85
2685.10043	3332.95
2687.72324	3325.15
2690.34441	3316.85
2692.96396	3315.25
2695.58188	3335.65
2698.19818	3330.35
2700.81285	3321.45
2703.4259	3302.65
2706.03733	3276.45
2708.64714	3282.85
2711.25533	3313.95
2713.86191	3309.45
2716.46687	3306.35
2719.07021	3313.25
2721.67194	3311.85
2724.27206	3320.45
2726.87057	3309.65
2729.46747	3302.85
2732.06276	3300.05
2734.65644	3297.55
2737.24852	3284.25
2739.83899	3261.75
2742.42786	3280.95
2745.01513	3284.05
2747.60079	3246.45
2750.18486	3240.35
2752.76733	3256.75
2755.3482	3242.95
2757.92747	3235.85
2760.50515	3209.85
2763.08123	3217.95
2765.65573	3218.15
2768.22863	3206.15
2770.79994	3207.55
2773.36967	3190.65
2775.9378	3193.15
2778.50435	3186.35
2781.06932	3182.25
2783.6327	3176.05
2786.1945	3196.25
2788.75471	3170.65
2791.31335	3165.85
2793.87041	3160.45
2796.42589	3145.95
2798.97979	3125.05
2801.53212	3133.75
2804.08288	3154.45
2806.63206	3122.45
2809.17967	3117.05
2811.72571	3126.35
2814.27018	3115.75
2816.81308	3107.35
2819.35442	3059.05
2821.89419	3086.35
2824.43239	3076.75
2826.96904	3101.65
2829.50412	3064.65
2832.03763	3059.35
2834.56959	3064.45
2837.1	3060.35
2839.62884	3054.85
2842.15613	3058.35
2844.68186	3059.55
2847.20604	3024.25
2849.72867	3021.75
2852.24974	3035.15
2854.76927	3002.65
2857.28724	2955.35
2859.80367	3014.85
2862.31855	3036.15
2864.83189	3004.25
2867.34368	3017.15
2869.85393	3020.95
2872.36264	2985.65
2874.8698	3001.85
2877.37543	2995.45
2879.87952	2989.65
2882.38207	2958.05
2884.88308	2982.95
2887.38256	2982.55
2889.88051	2982.35
2892.37692	2976.85
2894.8718	2968.35
2897.36515	2974.85
2899.85698	2968.05
2902.34727	2969.15
2904.83604	2968.15
2907.32328	2989.05
2909.809	2979.45
2912.29319	2982.55
2914.77587	2984.25
2917.25702	3003.35
2919.73665	2994.25
2922.21476	2994.75
2924.69136	2988.85
2927.16644	2984.85
2929.64	2982.35
2932.11205	2964.65
2934.58258	2965.25
2937.05161	2960.45
2939.51912	2941.95
2941.98513	2957.95
2944.44962	2949.75
2946.91261	2913.35
2949.37409	2935.45
2951.83407	2913.35
2954.29254	2918.65
2956.74951	2908.15
2959.20498	2893.65
2961.65895	2900.15
2964.11142	2892.95
2966.56239	2890.25
2969.01186	2903.75
2971.45984	2889.15
2973.90632	2869.05
2976.35131	2893.85
2978.7948	2874.65
2981.23681	2869.15
2983.67732	2863.55
2986.11635	2873.15
2988.55388	2841.05
2990.98993	2826.95
2993.4245	2831.85
2995.85758	2816.85
2998.28917	2805.65
3000.71928	2795.45
3003.14791	2791.05
3005.57506	2785.65
3008.00073	2770.65
3010.42493	2709.55
3012.84764	2762.85
3015.26888	2762.65
3017.68865	2745.45
3020.10694	2715.75
3022.52376	2737.45
3024.9391	2719.45
3027.35298	2720.85
3029.76539	2700.75
3032.17632	2687.85
3034.5858	2687.25
3036.9938	2697.65
3039.40034	2692.55
3041.80542	2681.45
3044.20903	2671.85
3046.61118	2671.95
3049.01187	2668.65
3051.4111	2648.35
3053.80888	2638.85
3056.20519	2633.05
3058.60005	2627.95
3060.99345	2649.35
3063.3854	2618.95
3065.7759	2604.65
3068.16494	2596.85
3070.55254	2580.45
3072.93868	2607.45
3075.32338	2586.15
3077.70662	2579.55
3080.08842	2563.25
3082.46878	2547.15
3084.84769	2573.85
3087.22515	2558.05
3089.60118	2564.15
3091.97576	2548.15
3094.3489	2551.95
3096.72061	2547.65
3099.09087	2533.65
3101.4597	2553.45
3103.82709	2544.95
3106.19305	2518.45
3108.55757	2522.65
3110.92066	2518.75
3113.28232	2529.95
3115.64255	2509.55
3118.00134	2515.65
3120.35871	2494.25
3122.71466	2478.55
3125.06917	2488.45
3127.42226	2453.75
3129.77393	2462.65
3132.12417	2483.85
3134.47299	2462.65
3136.82039	2448.25
3139.16636	2434.85
3141.51092	2446.55
3143.85406	2458.05
3146.19579	2425.85
3148.53609	2430.05
3150.87499	2434.55
3153.21246	2424.85
3155.54853	2442.95
3157.88318	2445.55
3160.21642	2436.75
3162.54826	2436.65
3164.87868	2425.65
3167.2077	2388.55
3169.5353	2418.25
3171.86151	2424.85
3174.18631	2412.75
3176.5097	2385.05
3178.83169	2407.05
3181.15228	2406.95
3183.47147	2384.65
3185.78926	2361.15
3188.10565	2362.75
3190.42065	2357.45
3192.73424	2367.55
3195.04645	2340.25
3197.35725	2341.55
3199.66667	2337.65
3201.97469	2349.45
3204.28132	2324.45
3206.58656	2348.55
3208.8904	2349.05
3211.19287	2345.85
3213.49394	2332.05
3215.79363	2330.85
3218.09193	2328.65
3220.38884	2320.85
3222.68438	2328.65
3224.97853	2311.85
3227.2713	2333.25
3229.56269	2315.45
3231.8527	2312.45
3234.14133	2296.65
3236.42858	2309.95
3238.71446	2275.95
3240.99896	2297.25
3243.28209	2276.35
3245.56384	2286.15
3247.84423	2275.45
3250.12324	2275.85
3252.40088	2270.55
3254.67715	2247.05
3256.95205	2256.55
3259.22558	2272.55
3261.49775	2263.75
3263.76855	2254.85
3266.03799	2253.85
3268.30606	2265.05
3270.57277	2235.85
3272.83812	2228.75
3275.10211	2230.15
3277.36474	2239.05
3279.62601	2236.55
3281.88593	2197.35
3284.14448	2198.65
3286.40168	2219.35
3288.65753	2209.75
3290.91202	2201.85
3293.16516	2181.85
3295.41695	2215.35
3297.66738	2192.85
3299.91647	2179.05
3302.16421	2179.65
3304.4106	2138.85
3306.65564	2146.55
3308.89933	2119.25
3311.14169	2113.75
3313.38269	2098.05
3315.62236	2083.85
3317.86068	2067.55
3320.09766	2058.45
3322.3333	2014.15
3324.5676	2013.25
3326.80056	1981.85
3329.03219	1974.75
3331.26248	-0.75
3333.49143	0.35
3335.71905	0.95
