Data from AgNPs_UA_10uM_CRN_500uM_SU_RamanShift__46__13-13-00-262.txt Node

Date: Thu Aug 04 13:13:00 BST 2022
User: TCL
Spectrometer: QEP01345
Trigger mode: 4
Integration Time (sec): 1.000000E0
Scans to average: 10
Electric dark correction enabled: true
Nonlinearity correction enabled: false
Boxcar width: 0
XAxis mode: Raman Shifts
Number of Pixels in Spectrum: 1044
>>>>>Begin Spectral Data<<<<<
46.04893	-0.05
50.45542	-1.45
54.85868	0.65
59.25871	-0.65
63.6555	20.75
68.04907	19.75
72.43941	21.75
76.82654	20.35
81.21044	24.05
85.59113	25.85
89.96862	24.65
94.34289	26.85
98.71396	26.75
103.08183	27.85
107.4465	28.25
111.80798	28.05
116.16626	29.25
120.52136	32.05
124.87327	34.05
129.222	37.85
133.56755	38.75
137.90993	42.15
142.24913	46.55
146.58517	54.05
150.91804	61.15
155.24774	77.95
159.57429	97.85
163.89768	125.25
168.21792	168.65
172.53501	228.95
176.84895	323.25
181.15975	458.45
185.46741	643.05
189.77193	905.05
194.07331	1219.45
198.37157	1572.15
202.6667	1940.55
206.9587	2316.45
211.24758	2680.35
215.53334	3061.45
219.81599	3458.05
224.09553	3896.55
228.37195	4366.65
232.64527	4901.65
236.91549	5439.35
241.18261	5956.75
245.44663	6368.25
249.70755	6753.55
253.96539	7067.15
258.22014	7340.35
262.4718	7577.25
266.72039	7721.85
270.96589	7766.35
275.20832	7721.45
279.44768	7661.75
283.68397	7525.65
287.91719	7428.65
292.14735	7435.95
296.37445	7493.65
300.59849	7638.85
304.81948	7793.15
309.03742	7947.25
313.25231	8048.85
317.46415	7967.15
321.67296	7783.85
325.87872	7582.55
330.08145	7503.85
334.28114	7496.05
338.47781	7561.85
342.67145	7681.95
346.86207	7866.05
351.04966	8104.75
355.23424	8365.25
359.4158	8561.15
363.59435	8700.75
367.76989	8745.65
371.94243	8792.75
376.11196	8808.95
380.27849	8851.95
384.44203	8902.45
388.60257	8955.65
392.76012	9041.35
396.91468	9154.75
401.06626	9288.65
405.21485	9337.35
409.36047	9281.05
413.50311	9082.85
417.64277	8896.75
421.77947	8788.85
425.9132	8726.55
430.04396	8696.95
434.17176	8748.15
438.2966	8810.85
442.41849	8943.65
446.53742	9115.75
450.6534	9276.85
454.76644	9395.25
458.87653	9462.75
462.98368	9527.25
467.08789	9491.05
471.18916	9396.85
475.2875	9263.05
479.38291	9155.05
483.4754	9054.15
487.56496	8971.55
491.6516	8972.05
495.73531	8958.85
499.81612	9006.55
503.89401	9083.95
507.96899	9124.65
512.04106	9153.85
516.11023	9199.55
520.1765	9197.85
524.23987	9223.55
528.30034	9246.85
532.35792	9270.85
536.41261	9207.05
540.46441	9142.85
544.51333	9119.95
548.55936	9183.35
552.60252	9283.15
556.64279	9413.55
560.6802	9523.85
564.71473	9584.85
568.7464	9607.75
572.7752	9522.95
576.80114	9350.35
580.82422	9243.15
584.84444	9211.45
588.86181	9192.75
592.87633	9215.25
596.888	9373.45
600.89682	9742.15
604.9028	10599.35
608.90594	12231.65
612.90624	13761.25
616.90371	12915.35
620.89834	10712.15
624.89015	9810.25
628.87913	9734.65
632.86528	9907.55
636.84862	10030.25
640.82913	9869.65
644.80683	9622.75
648.78172	9491.75
652.75379	9466.35
656.72306	9651.95
660.68952	9871.55
664.65319	9864.75
668.61405	9810.25
672.57211	9926.45
676.52738	9936.05
680.47986	9741.85
684.42955	9540.65
688.37646	9508.25
692.32058	9559.05
696.26192	9768.95
700.20048	9910.75
704.13626	9945.25
708.06928	9847.15
711.99952	9745.15
715.927	9717.45
719.85171	9782.55
723.77365	9795.75
727.69284	9736.15
731.60928	9664.75
735.52295	9676.35
739.43388	9717.45
743.34206	9739.95
747.24749	9728.05
751.15017	9746.25
755.05012	9793.55
758.94733	10024.55
762.8418	10591.65
766.73354	11420.25
770.62254	12113.95
774.50882	12327.25
778.39237	12175.15
782.27321	11680.75
786.15132	10946.25
790.02671	10394.15
793.89938	10071.15
797.76935	9910.25
801.6366	9824.15
805.50115	9766.25
809.36299	9747.15
813.22213	9750.85
817.07857	9750.85
820.93231	9744.35
824.78336	9754.15
828.63172	9760.85
832.47738	9791.95
836.32036	9795.25
840.16066	9758.15
843.99827	9784.45
847.8332	9779.25
851.66546	9790.05
855.49504	9815.25
859.32195	9821.05
863.1462	9824.75
866.96777	9821.75
870.78668	9846.55
874.60293	9873.45
878.41652	9907.45
882.22745	9997.45
886.03573	10032.55
889.84136	10001.05
893.64433	9984.25
897.44466	9977.05
901.24235	9938.55
905.0374	9929.25
908.8298	9892.75
912.61957	9885.85
916.40671	9875.35
920.19121	9890.25
923.97308	9918.55
927.75233	9962.95
931.52895	10047.45
935.30295	10012.75
939.07433	9893.45
942.84309	9833.45
946.60924	9828.35
950.37278	9822.05
954.13371	9795.55
957.89203	9797.45
961.64774	9814.75
965.40086	9805.95
969.15137	9787.25
972.89929	9784.65
976.64461	9782.85
980.38733	9794.25
984.12747	9818.85
987.86502	9850.65
991.59999	9881.95
995.33237	9953.75
999.06217	10025.45
1002.78939	10146.25
1006.51404	10311.35
1010.23611	10480.15
1013.95561	10544.85
1017.67255	10613.35
1021.38692	10591.95
1025.09872	10478.65
1028.80796	10349.55
1032.51465	10332.65
1036.21877	10346.45
1039.92035	10365.85
1043.61937	10421.15
1047.31584	10460.35
1051.00976	10470.75
1054.70114	10496.45
1058.38998	10515.55
1062.07627	10571.45
1065.76003	10623.05
1069.44126	10733.45
1073.11995	10952.95
1076.79611	11224.25
1080.46974	11363.25
1084.14085	11396.75
1087.80943	11423.85
1091.47549	11561.35
1095.13903	11641.95
1098.80005	11785.25
1102.45857	11834.55
1106.11456	11699.35
1109.76805	11497.75
1113.41903	11402.65
1117.06751	11432.45
1120.71348	11519.85
1124.35696	11612.55
1127.99793	11669.05
1131.63641	11559.85
1135.2724	11343.15
1138.90589	11170.95
1142.5369	11064.55
1146.16542	11054.15
1149.79145	11009.15
1153.415	10873.05
1157.03607	10753.15
1160.65467	10784.95
1164.27079	10906.05
1167.88443	11161.25
1171.49561	11500.35
1175.10432	11976.25
1178.71056	12661.95
1182.31434	13275.55
1185.91565	13595.05
1189.51451	13665.85
1193.11091	13643.25
1196.70485	13543.45
1200.29634	13349.35
1203.88538	13101.65
1207.47197	12793.55
1211.05612	12500.05
1214.63782	12215.65
1218.21708	11931.55
1221.79391	11678.05
1225.36829	11509.55
1228.94024	11427.25
1232.50976	11371.35
1236.07685	11421.15
1239.6415	11446.35
1243.20374	11500.55
1246.76355	11584.65
1250.32093	11688.55
1253.8759	11873.25
1257.42845	12165.65
1260.97859	12492.35
1264.52631	12708.85
1268.07163	12891.75
1271.61453	12973.45
1275.15503	12971.05
1278.69312	12958.75
1282.22882	12902.85
1285.76211	12883.55
1289.29301	12944.25
1292.82151	13112.55
1296.34761	13273.95
1299.87133	13583.25
1303.39266	14035.35
1306.9116	14769.05
1310.42815	15544.75
1313.94233	15863.05
1317.45412	15578.05
1320.96354	15067.85
1324.47058	14580.45
1327.97525	14024.35
1331.47754	13657.85
1334.97747	13529.25
1338.47502	13689.65
1341.97022	14169.85
1345.46305	14900.15
1348.95352	15864.75
1352.44163	16819.45
1355.92738	17584.55
1359.41078	18270.85
1362.89183	18640.75
1366.37053	17759.15
1369.84688	15903.85
1373.32088	14198.95
1376.79254	13262.45
1380.26186	12770.35
1383.72883	12441.35
1387.19347	12133.65
1390.65578	11846.65
1394.11575	11597.55
1397.57339	11392.35
1401.0287	11324.85
1404.48168	11283.75
1407.93234	11371.15
1411.38068	11547.15
1414.82669	11692.25
1418.27039	11703.45
1421.71177	11679.15
1425.15083	11593.05
1428.58758	11500.65
1432.02203	11485.45
1435.45416	11495.15
1438.88399	11473.95
1442.31151	11498.05
1445.73673	11560.85
1449.15965	11578.35
1452.58027	11584.85
1455.9986	11579.45
1459.41463	11561.55
1462.82837	11665.75
1466.23982	11810.35
1469.64898	11960.45
1473.05586	12117.85
1476.46045	12185.15
1479.86276	12300.45
1483.26279	12384.15
1486.66054	12581.35
1490.05602	12868.95
1493.44922	13315.25
1496.84016	13983.85
1500.22882	14937.75
1503.61521	16011.65
1506.99934	16930.75
1510.38121	17313.55
1513.76081	16936.75
1517.13816	15986.95
1520.51324	14775.45
1523.88607	13781.95
1527.25665	13168.95
1530.62498	12844.35
1533.99105	12700.05
1537.35488	12620.55
1540.71647	12592.35
1544.07581	12576.85
1547.4329	12496.95
1550.78776	12387.65
1554.14038	12214.65
1557.49077	12117.95
1560.83892	12178.65
1564.18484	12362.65
1567.52853	12541.15
1570.86999	12667.15
1574.20922	12752.35
1577.54624	12612.55
1580.88103	12252.15
1584.2136	11856.05
1587.54395	11649.55
1590.87208	11671.65
1594.19801	11952.15
1597.52172	12275.05
1600.84321	12458.05
1604.16251	12495.45
1607.47959	12401.65
1610.79447	12104.25
1614.10715	11665.35
1617.41763	11197.45
1620.7259	10853.85
1624.03199	10639.85
1627.33587	10546.95
1630.63757	10606.05
1633.93707	10838.55
1637.23439	11256.85
1640.52951	11947.85
1643.82246	12880.05
1647.11321	13774.75
1650.40179	14141.55
1653.68819	13578.05
1656.97241	12443.55
1660.25446	11321.05
1663.53433	10594.35
1666.81203	10143.35
1670.08756	9875.95
1673.36092	9716.95
1676.63211	9610.15
1679.90115	9512.75
1683.16801	9448.75
1686.43272	9368.25
1689.69527	9305.85
1692.95567	9283.85
1696.2139	9253.65
1699.46999	9229.85
1702.72392	9186.05
1705.97571	9200.35
1709.22535	9189.15
1712.47284	9207.15
1715.71819	9192.35
1718.96139	9200.65
1722.20246	9187.55
1725.44139	9143.25
1728.67818	9104.25
1731.91284	9067.45
1735.14537	9051.75
1738.37576	9002.65
1741.60403	8971.65
1744.83017	8940.65
1748.05418	8974.35
1751.27607	8921.05
1754.49584	8902.95
1757.71349	8906.75
1760.92903	8888.95
1764.14244	8859.45
1767.35375	8838.35
1770.56294	8833.65
1773.77002	8826.55
1776.97499	8827.45
1780.17785	8770.05
1783.37861	8754.95
1786.57727	8730.85
1789.77382	8730.25
1792.96828	8714.75
1796.16064	8712.95
1799.3509	8702.45
1802.53907	8695.55
1805.72514	8676.15
1808.90913	8648.85
1812.09102	8617.65
1815.27083	8596.95
1818.44856	8564.25
1821.6242	8568.65
1824.79776	8511.05
1827.96924	8533.05
1831.13864	8520.45
1834.30597	8495.85
1837.47122	8478.65
1840.6344	8456.15
1843.7955	8466.15
1846.95454	8461.35
1850.11151	8435.25
1853.26642	8479.45
1856.41926	8471.05
1859.57004	8472.35
1862.71876	8458.05
1865.86542	8440.45
1869.01003	8414.95
1872.15258	8415.45
1875.29308	8393.55
1878.43152	8369.65
1881.56792	8368.55
1884.70227	8346.25
1887.83457	8330.75
1890.96482	8311.85
1894.09304	8277.15
1897.21921	8298.65
1900.34335	8281.05
1903.46544	8268.55
1906.58551	8261.15
1909.70353	8250.75
1912.81953	8236.35
1915.93349	8220.85
1919.04543	8203.75
1922.15534	8196.95
1925.26322	8197.05
1928.36908	8149.95
1931.47292	8130.55
1934.57473	8107.35
1937.67453	8115.45
1940.77232	8083.95
1943.86808	8056.15
1946.96184	8031.55
1950.05358	7999.65
1953.14331	7982.35
1956.23103	7967.45
1959.31675	7920.75
1962.40046	7905.85
1965.48217	7861.15
1968.56188	7854.15
1971.63959	7831.45
1974.7153	7840.65
1977.78901	7812.15
1980.86073	7783.15
1983.93046	7752.85
1986.99819	7726.25
1990.06394	7712.05
1993.1277	7683.45
1996.18947	7669.55
1999.24925	7602.75
2002.30706	7590.75
2005.36288	7545.35
2008.41672	7541.65
2011.46859	7532.45
2014.51848	7498.05
2017.56639	7457.75
2020.61233	7445.25
2023.6563	7420.75
2026.6983	7406.25
2029.73833	7385.85
2032.7764	7342.75
2035.8125	7344.55
2038.84664	7318.85
2041.87881	7294.95
2044.90903	7281.05
2047.93729	7277.15
2050.96359	7252.25
2053.98794	7243.35
2057.01034	7225.05
2060.03078	7218.85
2063.04927	7215.75
2066.06582	7219.55
2069.08042	7200.25
2072.09307	7195.75
2075.10378	7186.05
2078.11255	7174.85
2081.11938	7160.05
2084.12426	7143.75
2087.12722	7154.75
2090.12824	7152.35
2093.12732	7153.85
2096.12447	7160.35
2099.11969	7178.55
2102.11299	7157.05
2105.10435	7190.25
2108.09379	7169.35
2111.08131	7157.75
2114.0669	7162.95
2117.05057	7177.95
2120.03233	7201.65
2123.01216	7173.85
2125.99008	7175.45
2128.96609	7176.05
2131.94018	7176.65
2134.91236	7170.95
2137.88263	7171.05
2140.851	7170.85
2143.81746	7169.65
2146.78201	7163.65
2149.74466	7145.15
2152.7054	7154.55
2155.66425	7161.65
2158.6212	7145.35
2161.57625	7146.85
2164.52941	7151.75
2167.48067	7155.35
2170.43004	7126.55
2173.37752	7115.35
2176.32311	7135.95
2179.26681	7134.45
2182.20863	7122.35
2185.14856	7112.75
2188.08661	7118.05
2191.02278	7115.15
2193.95707	7118.75
2196.88948	7109.85
2199.82001	7103.75
2202.74867	7084.65
2205.67545	7092.65
2208.60037	7071.25
2211.52341	7051.15
2214.44458	7033.85
2217.36388	7008.95
2220.28132	6987.45
2223.1969	6968.85
2226.11061	6954.75
2229.02246	6957.25
2231.93245	6943.55
2234.84058	6930.55
2237.74686	6904.45
2240.65128	6887.15
2243.55385	6890.35
2246.45456	6876.65
2249.35343	6867.35
2252.25044	6861.15
2255.14561	6843.15
2258.03893	6847.55
2260.93041	6817.65
2263.82004	6809.35
2266.70783	6788.35
2269.59378	6768.05
2272.4779	6756.15
2275.36017	6711.05
2278.24061	6738.15
2281.11922	6713.35
2283.996	6682.85
2286.87094	6687.35
2289.74405	6680.15
2292.61534	6648.15
2295.4848	6632.55
2298.35243	6653.95
2301.21824	6639.15
2304.08223	6606.15
2306.94439	6602.05
2309.80474	6617.95
2312.66327	6588.65
2315.51999	6578.05
2318.37489	6565.65
2321.22797	6543.25
2324.07925	6553.45
2326.92871	6530.65
2329.77637	6506.05
2332.62222	6494.75
2335.46626	6506.95
2338.3085	6476.05
2341.14893	6482.45
2343.98756	6469.45
2346.8244	6470.55
2349.65943	6451.85
2352.49267	6443.45
2355.32411	6450.05
2358.15376	6443.15
2360.98161	6415.15
2363.80768	6448.05
2366.63195	6425.05
2369.45444	6409.75
2372.27514	6427.85
2375.09405	6405.95
2377.91118	6386.95
2380.72652	6366.65
2383.54009	6332.65
2386.35187	6348.35
2389.16188	6324.05
2391.97011	6290.25
2394.77657	6293.05
2397.58125	6265.95
2400.38416	6278.65
2403.18529	6270.05
2405.98466	6257.05
2408.78226	6233.15
2411.57809	6225.05
2414.37216	6215.45
2417.16446	6223.25
2419.955	6205.55
2422.74378	6181.95
2425.5308	6188.05
2428.31606	6175.65
2431.09956	6178.15
2433.88131	6165.55
2436.6613	6161.95
2439.43954	6158.95
2442.21603	6137.05
2444.99077	6134.45
2447.76377	6150.85
2450.53501	6129.45
2453.30451	6139.05
2456.07226	6118.35
2458.83827	6095.85
2461.60254	6074.05
2464.36507	6065.95
2467.12586	6057.65
2469.88492	6069.35
2472.64224	6039.95
2475.39782	6068.15
2478.15167	6065.05
2480.90379	6059.35
2483.65417	6006.35
2486.40283	6017.85
2489.14976	6023.05
2491.89497	6017.95
2494.63845	6019.65
2497.3802	6007.35
2500.12024	5986.25
2502.85855	5984.05
2505.59514	5974.15
2508.33002	5963.95
2511.06318	5940.95
2513.79462	5934.45
2516.52435	5926.65
2519.25237	5911.35
2521.97867	5898.65
2524.70327	5892.65
2527.42616	5886.45
2530.14734	5860.35
2532.86681	5854.65
2535.58458	5879.25
2538.30065	5867.75
2541.01501	5853.05
2543.72768	5860.65
2546.43864	5851.95
2549.14791	5818.15
2551.85548	5830.15
2554.56136	5813.55
2557.26554	5819.35
2559.96803	5798.95
2562.66883	5775.85
2565.36794	5763.25
2568.06536	5738.15
2570.7611	5710.05
2573.45514	5690.25
2576.14751	5701.15
2578.83819	5675.25
2581.52719	5662.85
2584.21451	5663.55
2586.90015	5660.05
2589.58411	5643.45
2592.2664	5637.65
2594.94701	5600.65
2597.62594	5600.15
2600.30321	5590.15
2602.9788	5586.65
2605.65273	5608.75
2608.32498	5590.35
2610.99557	5578.05
2613.66449	5555.25
2616.33175	5560.15
2618.99734	5549.85
2621.66128	5528.65
2624.32355	5508.95
2626.98416	5481.45
2629.64311	5468.75
2632.30041	5470.25
2634.95605	5456.45
2637.61004	5454.55
2640.26238	5437.15
2642.91306	5437.05
2645.56209	5441.65
2648.20948	5404.45
2650.85521	5396.55
2653.4993	5418.55
2656.14175	5415.95
2658.78255	5395.05
2661.42171	5388.95
2664.05923	5398.85
2666.6951	5397.35
2669.32934	5416.85
2671.96194	5410.15
2674.59291	5407.25
2677.22224	5397.25
2679.84993	5395.05
2682.476	5408.55
2685.10043	5391.75
2687.72324	5397.55
2690.34441	5400.65
2692.96396	5386.75
2695.58188	5382.35
2698.19818	5391.05
2700.81285	5361.95
2703.4259	5354.85
2706.03733	5331.25
2708.64714	5362.35
2711.25533	5353.05
2713.86191	5328.55
2716.46687	5348.25
2719.07021	5347.55
2721.67194	5335.65
2724.27206	5343.65
2726.87057	5320.45
2729.46747	5330.35
2732.06276	5323.95
2734.65644	5310.65
2737.24852	5315.05
2739.83899	5309.35
2742.42786	5290.45
2745.01513	5268.65
2747.60079	5267.95
2750.18486	5252.35
2752.76733	5264.55
2755.3482	5241.65
2757.92747	5239.55
2760.50515	5215.95
2763.08123	5217.05
2765.65573	5199.85
2768.22863	5188.95
2770.79994	5175.25
2773.36967	5169.05
2775.9378	5153.35
2778.50435	5141.35
2781.06932	5135.75
2783.6327	5140.25
2786.1945	5124.85
2788.75471	5130.25
2791.31335	5102.65
2793.87041	5102.95
2796.42589	5087.75
2798.97979	5076.95
2801.53212	5065.05
2804.08288	5061.45
2806.63206	5043.75
2809.17967	5033.85
2811.72571	5017.25
2814.27018	5012.25
2816.81308	5004.55
2819.35442	4977.35
2821.89419	4980.65
2824.43239	4973.15
2826.96904	4948.25
2829.50412	4947.35
2832.03763	4905.65
2834.56959	4904.15
2837.1	4896.45
2839.62884	4901.15
2842.15613	4892.55
2844.68186	4884.85
2847.20604	4874.25
2849.72867	4858.75
2852.24974	4859.05
2854.76927	4830.65
2857.28724	4834.85
2859.80367	4817.85
2862.31855	4806.95
2864.83189	4802.15
2867.34368	4803.05
2869.85393	4801.45
2872.36264	4791.75
2874.8698	4793.95
2877.37543	4793.25
2879.87952	4783.45
2882.38207	4766.55
2884.88308	4747.35
2887.38256	4759.95
2889.88051	4751.15
2892.37692	4753.35
2894.8718	4736.85
2897.36515	4736.35
2899.85698	4720.95
2902.34727	4741.35
2904.83604	4734.55
2907.32328	4744.75
2909.809	4718.85
2912.29319	4747.55
2914.77587	4731.65
2917.25702	4732.15
2919.73665	4730.65
2922.21476	4728.65
2924.69136	4724.75
2927.16644	4714.35
2929.64	4702.35
2932.11205	4698.85
2934.58258	4670.65
2937.05161	4683.65
2939.51912	4679.15
2941.98513	4675.15
2944.44962	4663.05
2946.91261	4644.95
2949.37409	4643.05
2951.83407	4645.35
2954.29254	4653.45
2956.74951	4624.75
2959.20498	4650.75
2961.65895	4625.75
2964.11142	4639.95
2966.56239	4616.35
2969.01186	4625.35
2971.45984	4615.45
2973.90632	4614.85
2976.35131	4607.65
2978.7948	4591.05
2981.23681	4563.45
2983.67732	4579.25
2986.11635	4566.25
2988.55388	4563.55
2990.98993	4540.05
2993.4245	4536.25
2995.85758	4521.55
2998.28917	4523.45
3000.71928	4507.95
3003.14791	4475.05
3005.57506	4491.05
3008.00073	4468.55
3010.42493	4442.75
3012.84764	4437.65
3015.26888	4441.55
3017.68865	4438.85
3020.10694	4415.85
3022.52376	4400.85
3024.9391	4375.15
3027.35298	4366.45
3029.76539	4360.55
3032.17632	4354.45
3034.5858	4333.15
3036.9938	4351.05
3039.40034	4310.15
3041.80542	4310.05
3044.20903	4301.85
3046.61118	4305.55
3049.01187	4281.35
3051.4111	4273.45
3053.80888	4282.85
3056.20519	4246.35
3058.60005	4232.15
3060.99345	4235.15
3063.3854	4209.95
3065.7759	4225.25
3068.16494	4203.95
3070.55254	4192.95
3072.93868	4175.85
3075.32338	4153.75
3077.70662	4158.75
3080.08842	4140.75
3082.46878	4151.35
3084.84769	4123.25
3087.22515	4100.65
3089.60118	4125.55
3091.97576	4110.45
3094.3489	4109.65
3096.72061	4089.85
3099.09087	4089.15
3101.4597	4104.35
3103.82709	4107.55
3106.19305	4099.05
3108.55757	4098.25
3110.92066	4068.85
3113.28232	4058.95
3115.64255	4060.85
3118.00134	4048.15
3120.35871	4049.05
3122.71466	4038.15
3125.06917	4025.95
3127.42226	3996.45
3129.77393	4008.85
3132.12417	3991.55
3134.47299	3968.25
3136.82039	3987.95
3139.16636	3978.45
3141.51092	3993.55
3143.85406	3973.75
3146.19579	3975.85
3148.53609	3968.65
3150.87499	3960.15
3153.21246	3944.85
3155.54853	3961.55
3157.88318	3963.45
3160.21642	3955.45
3162.54826	3943.35
3164.87868	3934.45
3167.2077	3924.15
3169.5353	3930.15
3171.86151	3925.15
3174.18631	3907.15
3176.5097	3898.65
3178.83169	3892.45
3181.15228	3887.35
3183.47147	3879.95
3185.78926	3868.75
3188.10565	3858.95
3190.42065	3838.75
3192.73424	3832.05
3195.04645	3849.75
3197.35725	3833.55
3199.66667	3821.95
3201.97469	3816.75
3204.28132	3820.75
3206.58656	3832.65
3208.8904	3818.75
3211.19287	3828.35
3213.49394	3831.45
3215.79363	3820.45
3218.09193	3797.95
3220.38884	3809.25
3222.68438	3818.05
3224.97853	3793.05
3227.2713	3802.85
3229.56269	3786.65
3231.8527	3803.65
3234.14133	3769.85
3236.42858	3756.65
3238.71446	3747.25
3240.99896	3743.55
3243.28209	3728.85
3245.56384	3734.75
3247.84423	3723.25
3250.12324	3706.55
3252.40088	3707.05
3254.67715	3712.75
3256.95205	3678.05
3259.22558	3692.55
3261.49775	3680.25
3263.76855	3701.05
3266.03799	3697.25
3268.30606	3684.45
3270.57277	3687.15
3272.83812	3670.15
3275.10211	3639.95
3277.36474	3635.45
3279.62601	3636.75
3281.88593	3630.35
3284.14448	3613.15
3286.40168	3623.05
3288.65753	3617.65
3290.91202	3614.65
3293.16516	3610.35
3295.41695	3582.15
3297.66738	3588.35
3299.91647	3566.55
3302.16421	3548.95
3304.4106	3518.85
3306.65564	3504.25
3308.89933	3472.65
3311.14169	3430.25
3313.38269	3400.15
3315.62236	3370.85
3317.86068	3350.45
3320.09766	3335.15
3322.3333	3316.35
3324.5676	3278.75
3326.80056	3241.45
3329.03219	3211.35
3331.26248	1.95
3333.49143	-0.95
3335.71905	0.35
