Data from AgNPs_APTES_FTO_UA_100uM_CRN_0uM_R6G_10uM_Scan_RamanShift__22__12-29-43-531.txt Node

Date: Thu Jun 23 12:29:43 BST 2022
User: TCL
Spectrometer: QEP01345
Trigger mode: 4
Integration Time (sec): 7.000000E0
Scans to average: 10
Electric dark correction enabled: true
Nonlinearity correction enabled: false
Boxcar width: 0
XAxis mode: Raman Shifts
Number of Pixels in Spectrum: 1044
>>>>>Begin Spectral Data<<<<<
46.04893	-0.0875
50.45542	0.3125
54.85868	-0.7875
59.25871	0.3125
63.6555	30.9125
68.04907	32.6125
72.43941	39.5125
76.82654	41.1125
81.21044	39.5125
85.59113	41.5125
89.96862	46.6125
94.34289	45.1125
98.71396	47.7125
103.08183	46.1125
107.4465	51.4125
111.80798	52.1125
116.16626	48.3125
120.52136	53.9125
124.87327	49.8125
129.222	46.6125
133.56755	50.7125
137.90993	49.0125
142.24913	51.9125
146.58517	48.6125
150.91804	47.3125
155.24774	55.7125
159.57429	57.3125
163.89768	63.4125
168.21792	74.2125
172.53501	91.2125
176.84895	113.2125
181.15975	142.6125
185.46741	195.4125
189.77193	258.7125
194.07331	338.6125
198.37157	424.0125
202.6667	521.5125
206.9587	620.0125
211.24758	709.4125
215.53334	804.7125
219.81599	903.3125
224.09553	1010.1125
228.37195	1130.4125
232.64527	1248.1125
236.91549	1377.6125
241.18261	1499.9125
245.44663	1603.8125
249.70755	1704.1125
253.96539	1777.3125
258.22014	1841.6125
262.4718	1888.5125
266.72039	1911.1125
270.96589	1925.6125
275.20832	1892.0125
279.44768	1860.6125
283.68397	1833.6125
287.91719	1787.2125
292.14735	1763.0125
296.37445	1746.6125
300.59849	1760.7125
304.81948	1770.3125
309.03742	1779.7125
313.25231	1782.2125
317.46415	1746.6125
321.67296	1690.1125
325.87872	1633.1125
330.08145	1608.2125
334.28114	1598.7125
338.47781	1610.3125
342.67145	1625.0125
346.86207	1650.8125
351.04966	1693.1125
355.23424	1739.7125
359.4158	1787.2125
363.59435	1812.6125
367.76989	1825.2125
371.94243	1837.6125
376.11196	1855.3125
380.27849	1853.9125
384.44203	1862.8125
388.60257	1864.8125
392.76012	1868.8125
396.91468	1879.2125
401.06626	1899.0125
405.21485	1922.1125
409.36047	1894.5125
413.50311	1852.4125
417.64277	1803.7125
421.77947	1778.9125
425.9132	1763.6125
430.04396	1761.2125
434.17176	1769.0125
438.2966	1789.5125
442.41849	1811.5125
446.53742	1840.8125
450.6534	1863.5125
454.76644	1889.7125
458.87653	1887.9125
462.98368	1883.2125
467.08789	1882.2125
471.18916	1872.7125
475.2875	1864.2125
479.38291	1850.6125
483.4754	1855.8125
487.56496	1871.3125
491.6516	1900.7125
495.73531	1908.3125
499.81612	1909.0125
503.89401	1919.1125
507.96899	1904.7125
512.04106	1910.1125
516.11023	1910.7125
520.1765	1914.9125
524.23987	1926.3125
528.30034	1925.0125
532.35792	1906.3125
536.41261	1913.6125
540.46441	1862.2125
544.51333	1850.2125
548.55936	1840.3125
552.60252	1841.5125
556.64279	1861.2125
560.6802	1859.7125
564.71473	1867.0125
568.7464	1876.3125
572.7752	1891.5125
576.80114	1880.9125
580.82422	1872.9125
584.84444	1885.7125
588.86181	1903.9125
592.87633	1917.0125
596.888	1943.0125
600.89682	1986.6125
604.9028	2090.7125
608.90594	2391.6125
612.90624	2747.8125
616.90371	2689.4125
620.89834	2316.9125
624.89015	2143.0125
628.87913	2148.1125
632.86528	2213.8125
636.84862	2265.6125
640.82913	2221.1125
644.80683	2122.5125
648.78172	2028.5125
652.75379	1970.5125
656.72306	1959.7125
660.68952	1975.6125
664.65319	1959.6125
668.61405	1913.4125
672.57211	1909.7125
676.52738	1930.8125
680.47986	1965.5125
684.42955	2003.0125
688.37646	2016.4125
692.32058	1990.3125
696.26192	1945.7125
700.20048	1896.2125
704.13626	1895.7125
708.06928	1872.4125
711.99952	1863.6125
715.927	1876.8125
719.85171	1886.0125
723.77365	1899.8125
727.69284	1887.7125
731.60928	1888.4125
735.52295	1877.6125
739.43388	1868.2125
743.34206	1866.3125
747.24749	1864.7125
751.15017	1863.2125
755.05012	1867.0125
758.94733	1891.9125
762.8418	1984.7125
766.73354	2136.0125
770.62254	2288.1125
774.50882	2398.3125
778.39237	2345.0125
782.27321	2191.8125
786.15132	2024.5125
790.02671	1934.9125
793.89938	1899.3125
797.76935	1890.8125
801.6366	1906.5125
805.50115	1933.9125
809.36299	1975.9125
813.22213	1972.7125
817.07857	1959.1125
820.93231	1917.3125
824.78336	1883.3125
828.63172	1852.1125
832.47738	1837.9125
836.32036	1834.3125
840.16066	1828.4125
843.99827	1827.9125
847.8332	1832.6125
851.66546	1831.6125
855.49504	1830.4125
859.32195	1832.6125
863.1462	1823.9125
866.96777	1832.6125
870.78668	1850.8125
874.60293	1887.1125
878.41652	1925.1125
882.22745	1965.8125
886.03573	1997.1125
889.84136	2004.0125
893.64433	1995.3125
897.44466	1959.0125
901.24235	1935.9125
905.0374	1911.8125
908.8298	1910.4125
912.61957	1915.0125
916.40671	1934.8125
920.19121	1974.6125
923.97308	2002.0125
927.75233	2028.4125
931.52895	2022.2125
935.30295	1997.3125
939.07433	1953.6125
942.84309	1905.8125
946.60924	1858.7125
950.37278	1830.6125
954.13371	1796.4125
957.89203	1767.1125
961.64774	1750.3125
965.40086	1719.1125
969.15137	1693.6125
972.89929	1688.9125
976.64461	1672.6125
980.38733	1657.4125
984.12747	1647.6125
987.86502	1661.0125
991.59999	1649.5125
995.33237	1662.7125
999.06217	1668.2125
1002.78939	1689.1125
1006.51404	1723.7125
1010.23611	1740.3125
1013.95561	1761.8125
1017.67255	1778.2125
1021.38692	1761.2125
1025.09872	1756.1125
1028.80796	1726.1125
1032.51465	1705.5125
1036.21877	1688.9125
1039.92035	1693.6125
1043.61937	1693.6125
1047.31584	1677.4125
1051.00976	1672.5125
1054.70114	1682.9125
1058.38998	1668.8125
1062.07627	1668.2125
1065.76003	1673.3125
1069.44126	1677.6125
1073.11995	1688.4125
1076.79611	1688.3125
1080.46974	1701.0125
1084.14085	1702.6125
1087.80943	1698.2125
1091.47549	1708.8125
1095.13903	1685.0125
1098.80005	1660.8125
1102.45857	1625.5125
1106.11456	1620.6125
1109.76805	1636.7125
1113.41903	1660.1125
1117.06751	1682.8125
1120.71348	1757.6125
1124.35696	1843.7125
1127.99793	1938.8125
1131.63641	2008.8125
1135.2724	2018.8125
1138.90589	1971.7125
1142.5369	1912.5125
1146.16542	1831.3125
1149.79145	1760.1125
1153.415	1700.1125
1157.03607	1669.3125
1160.65467	1646.3125
1164.27079	1654.7125
1167.88443	1686.1125
1171.49561	1733.6125
1175.10432	1843.4125
1178.71056	1976.6125
1182.31434	2105.4125
1185.91565	2135.8125
1189.51451	2106.3125
1193.11091	2053.3125
1196.70485	2006.0125
1200.29634	1968.4125
1203.88538	1931.0125
1207.47197	1866.9125
1211.05612	1803.9125
1214.63782	1741.3125
1218.21708	1688.5125
1221.79391	1668.1125
1225.36829	1647.8125
1228.94024	1640.9125
1232.50976	1632.0125
1236.07685	1639.0125
1239.6415	1629.3125
1243.20374	1639.6125
1246.76355	1646.1125
1250.32093	1653.4125
1253.8759	1657.2125
1257.42845	1680.4125
1260.97859	1710.5125
1264.52631	1747.0125
1268.07163	1764.0125
1271.61453	1801.0125
1275.15503	1818.6125
1278.69312	1833.4125
1282.22882	1835.5125
1285.76211	1844.2125
1289.29301	1887.1125
1292.82151	1939.0125
1296.34761	1970.8125
1299.87133	2049.1125
1303.39266	2148.6125
1306.9116	2295.0125
1310.42815	2431.6125
1313.94233	2531.7125
1317.45412	2474.9125
1320.96354	2361.8125
1324.47058	2234.8125
1327.97525	2129.1125
1331.47754	2054.0125
1334.97747	2028.2125
1338.47502	2047.1125
1341.97022	2084.9125
1345.46305	2167.4125
1348.95352	2303.6125
1352.44163	2454.8125
1355.92738	2668.3125
1359.41078	2919.2125
1362.89183	3155.7125
1366.37053	3133.0125
1369.84688	2850.0125
1373.32088	2540.1125
1376.79254	2316.0125
1380.26186	2207.5125
1383.72883	2116.1125
1387.19347	2061.3125
1390.65578	1996.3125
1394.11575	1967.1125
1397.57339	1930.4125
1401.0287	1894.7125
1404.48168	1877.9125
1407.93234	1828.9125
1411.38068	1796.7125
1414.82669	1762.0125
1418.27039	1729.3125
1421.71177	1719.8125
1425.15083	1684.7125
1428.58758	1661.2125
1432.02203	1638.1125
1435.45416	1636.1125
1438.88399	1628.7125
1442.31151	1616.5125
1445.73673	1604.5125
1449.15965	1601.8125
1452.58027	1611.4125
1455.9986	1593.8125
1459.41463	1595.0125
1462.82837	1610.4125
1466.23982	1610.9125
1469.64898	1626.9125
1473.05586	1642.7125
1476.46045	1651.9125
1479.86276	1659.4125
1483.26279	1676.3125
1486.66054	1694.6125
1490.05602	1732.6125
1493.44922	1794.9125
1496.84016	1868.1125
1500.22882	2007.0125
1503.61521	2182.0125
1506.99934	2391.9125
1510.38121	2580.2125
1513.76081	2653.8125
1517.13816	2516.9125
1520.51324	2295.7125
1523.88607	2068.7125
1527.25665	1907.6125
1530.62498	1815.5125
1533.99105	1765.8125
1537.35488	1730.9125
1540.71647	1721.9125
1544.07581	1704.1125
1547.4329	1698.9125
1550.78776	1718.8125
1554.14038	1733.0125
1557.49077	1736.1125
1560.83892	1754.8125
1564.18484	1774.8125
1567.52853	1818.7125
1570.86999	1859.2125
1574.20922	1887.5125
1577.54624	1878.2125
1580.88103	1824.9125
1584.2136	1736.2125
1587.54395	1656.1125
1590.87208	1630.6125
1594.19801	1638.2125
1597.52172	1671.3125
1600.84321	1686.7125
1604.16251	1673.7125
1607.47959	1645.2125
1610.79447	1594.6125
1614.10715	1560.5125
1617.41763	1532.8125
1620.7259	1521.4125
1624.03199	1503.5125
1627.33587	1505.5125
1630.63757	1502.7125
1633.93707	1528.0125
1637.23439	1553.6125
1640.52951	1607.9125
1643.82246	1716.5125
1647.11321	1854.3125
1650.40179	1956.3125
1653.68819	1928.4125
1656.97241	1794.5125
1660.25446	1619.5125
1663.53433	1477.5125
1666.81203	1381.8125
1670.08756	1335.2125
1673.36092	1309.6125
1676.63211	1288.5125
1679.90115	1289.4125
1683.16801	1260.6125
1686.43272	1262.0125
1689.69527	1249.0125
1692.95567	1206.9125
1696.2139	1174.1125
1699.46999	1142.4125
1702.72392	1115.0125
1705.97571	1118.6125
1709.22535	1115.6125
1712.47284	1124.3125
1715.71819	1108.5125
1718.96139	1093.2125
1722.20246	1073.7125
1725.44139	1058.6125
1728.67818	1053.3125
1731.91284	1025.7125
1735.14537	1019.6125
1738.37576	1008.8125
1741.60403	1008.3125
1744.83017	984.8125
1748.05418	978.3125
1751.27607	952.6125
1754.49584	944.8125
1757.71349	920.5125
1760.92903	904.5125
1764.14244	902.3125
1767.35375	903.6125
1770.56294	893.6125
1773.77002	904.0125
1776.97499	907.8125
1780.17785	926.6125
1783.37861	932.8125
1786.57727	929.6125
1789.77382	935.8125
1792.96828	928.8125
1796.16064	933.8125
1799.3509	921.6125
1802.53907	920.3125
1805.72514	917.1125
1808.90913	917.2125
1812.09102	904.5125
1815.27083	898.9125
1818.44856	896.3125
1821.6242	913.3125
1824.79776	899.5125
1827.96924	889.9125
1831.13864	888.8125
1834.30597	888.0125
1837.47122	883.1125
1840.6344	888.1125
1843.7955	886.8125
1846.95454	883.0125
1850.11151	880.1125
1853.26642	872.2125
1856.41926	877.6125
1859.57004	879.9125
1862.71876	872.7125
1865.86542	869.4125
1869.01003	869.0125
1872.15258	862.0125
1875.29308	858.1125
1878.43152	858.4125
1881.56792	863.7125
1884.70227	851.3125
1887.83457	854.4125
1890.96482	850.6125
1894.09304	843.6125
1897.21921	837.7125
1900.34335	844.3125
1903.46544	839.6125
1906.58551	832.9125
1909.70353	832.5125
1912.81953	829.0125
1915.93349	832.3125
1919.04543	825.0125
1922.15534	828.0125
1925.26322	827.6125
1928.36908	817.2125
1931.47292	809.4125
1934.57473	808.1125
1937.67453	804.2125
1940.77232	807.0125
1943.86808	806.1125
1946.96184	802.2125
1950.05358	794.2125
1953.14331	792.0125
1956.23103	788.0125
1959.31675	793.9125
1962.40046	783.0125
1965.48217	781.7125
1968.56188	781.8125
1971.63959	777.8125
1974.7153	771.6125
1977.78901	780.4125
1980.86073	767.5125
1983.93046	765.8125
1986.99819	768.7125
1990.06394	757.7125
1993.1277	757.9125
1996.18947	749.3125
1999.24925	748.2125
2002.30706	747.1125
2005.36288	742.2125
2008.41672	739.8125
2011.46859	734.9125
2014.51848	748.9125
2017.56639	730.1125
2020.61233	726.4125
2023.6563	730.1125
2026.6983	726.5125
2029.73833	717.0125
2032.7764	713.5125
2035.8125	723.4125
2038.84664	712.0125
2041.87881	717.3125
2044.90903	703.7125
2047.93729	715.0125
2050.96359	710.1125
2053.98794	706.7125
2057.01034	705.8125
2060.03078	703.8125
2063.04927	706.7125
2066.06582	700.7125
2069.08042	702.6125
2072.09307	696.6125
2075.10378	700.0125
2078.11255	699.1125
2081.11938	700.6125
2084.12426	690.4125
2087.12722	695.6125
2090.12824	693.2125
2093.12732	701.9125
2096.12447	695.3125
2099.11969	691.1125
2102.11299	685.5125
2105.10435	688.2125
2108.09379	692.4125
2111.08131	686.1125
2114.0669	687.5125
2117.05057	687.7125
2120.03233	682.4125
2123.01216	681.7125
2125.99008	680.3125
2128.96609	689.8125
2131.94018	685.8125
2134.91236	679.3125
2137.88263	681.3125
2140.851	687.9125
2143.81746	679.0125
2146.78201	678.1125
2149.74466	675.7125
2152.7054	677.1125
2155.66425	678.8125
2158.6212	669.0125
2161.57625	672.9125
2164.52941	669.3125
2167.48067	669.7125
2170.43004	664.3125
2173.37752	657.8125
2176.32311	661.5125
2179.26681	659.3125
2182.20863	665.2125
2185.14856	659.5125
2188.08661	656.6125
2191.02278	655.8125
2193.95707	660.9125
2196.88948	655.0125
2199.82001	651.1125
2202.74867	645.8125
2205.67545	652.7125
2208.60037	649.7125
2211.52341	645.4125
2214.44458	647.1125
2217.36388	634.7125
2220.28132	637.4125
2223.1969	633.2125
2226.11061	626.5125
2229.02246	634.8125
2231.93245	629.7125
2234.84058	626.7125
2237.74686	628.4125
2240.65128	625.8125
2243.55385	627.0125
2246.45456	619.1125
2249.35343	612.5125
2252.25044	617.0125
2255.14561	616.4125
2258.03893	616.9125
2260.93041	604.2125
2263.82004	603.2125
2266.70783	612.9125
2269.59378	608.5125
2272.4779	604.2125
2275.36017	612.2125
2278.24061	596.0125
2281.11922	595.7125
2283.996	601.8125
2286.87094	592.4125
2289.74405	597.2125
2292.61534	597.9125
2295.4848	598.5125
2298.35243	590.5125
2301.21824	587.9125
2304.08223	586.8125
2306.94439	592.9125
2309.80474	582.9125
2312.66327	585.9125
2315.51999	578.8125
2318.37489	576.1125
2321.22797	580.4125
2324.07925	577.7125
2326.92871	579.0125
2329.77637	574.9125
2332.62222	572.1125
2335.46626	564.9125
2338.3085	568.2125
2341.14893	568.7125
2343.98756	562.6125
2346.8244	553.7125
2349.65943	558.2125
2352.49267	560.8125
2355.32411	557.7125
2358.15376	559.0125
2360.98161	557.1125
2363.80768	556.9125
2366.63195	559.4125
2369.45444	561.8125
2372.27514	553.8125
2375.09405	555.7125
2377.91118	559.4125
2380.72652	553.6125
2383.54009	548.4125
2386.35187	550.3125
2389.16188	544.2125
2391.97011	546.0125
2394.77657	545.2125
2397.58125	537.1125
2400.38416	536.8125
2403.18529	532.7125
2405.98466	533.5125
2408.78226	535.6125
2411.57809	529.7125
2414.37216	529.4125
2417.16446	528.8125
2419.955	521.4125
2422.74378	521.5125
2425.5308	528.2125
2428.31606	522.1125
2431.09956	521.0125
2433.88131	522.6125
2436.6613	520.0125
2439.43954	522.8125
2442.21603	521.2125
2444.99077	522.4125
2447.76377	519.9125
2450.53501	518.0125
2453.30451	517.5125
2456.07226	523.1125
2458.83827	516.4125
2461.60254	509.7125
2464.36507	509.5125
2467.12586	508.3125
2469.88492	509.2125
2472.64224	509.7125
2475.39782	502.1125
2478.15167	499.4125
2480.90379	498.9125
2483.65417	509.3125
2486.40283	509.4125
2489.14976	506.9125
2491.89497	505.0125
2494.63845	497.6125
2497.3802	490.2125
2500.12024	499.1125
2502.85855	494.0125
2505.59514	495.1125
2508.33002	496.0125
2511.06318	489.4125
2513.79462	494.4125
2516.52435	495.9125
2519.25237	487.9125
2521.97867	485.3125
2524.70327	482.9125
2527.42616	478.8125
2530.14734	480.9125
2532.86681	480.4125
2535.58458	474.4125
2538.30065	480.4125
2541.01501	475.1125
2543.72768	474.7125
2546.43864	478.3125
2549.14791	477.1125
2551.85548	470.8125
2554.56136	475.3125
2557.26554	473.4125
2559.96803	469.9125
2562.66883	464.7125
2565.36794	468.2125
2568.06536	470.4125
2570.7611	467.8125
2573.45514	469.8125
2576.14751	464.2125
2578.83819	458.8125
2581.52719	461.2125
2584.21451	459.9125
2586.90015	457.2125
2589.58411	454.1125
2592.2664	457.6125
2594.94701	453.8125
2597.62594	453.4125
2600.30321	451.2125
2602.9788	451.5125
2605.65273	444.3125
2608.32498	449.9125
2610.99557	449.9125
2613.66449	445.3125
2616.33175	452.3125
2618.99734	446.4125
2621.66128	447.4125
2624.32355	445.5125
2626.98416	445.0125
2629.64311	438.9125
2632.30041	446.9125
2634.95605	437.5125
2637.61004	438.5125
2640.26238	435.9125
2642.91306	440.5125
2645.56209	440.2125
2648.20948	434.2125
2650.85521	432.8125
2653.4993	438.4125
2656.14175	434.2125
2658.78255	434.7125
2661.42171	434.4125
2664.05923	433.7125
2666.6951	437.9125
2669.32934	441.0125
2671.96194	431.6125
2674.59291	433.4125
2677.22224	438.7125
2679.84993	428.2125
2682.476	429.4125
2685.10043	431.9125
2687.72324	432.4125
2690.34441	436.2125
2692.96396	431.7125
2695.58188	430.5125
2698.19818	432.9125
2700.81285	430.4125
2703.4259	414.1125
2706.03733	376.8125
2708.64714	393.7125
2711.25533	410.6125
2713.86191	418.5125
2716.46687	423.0125
2719.07021	424.1125
2721.67194	427.3125
2724.27206	428.4125
2726.87057	423.6125
2729.46747	430.8125
2732.06276	433.7125
2734.65644	431.8125
2737.24852	428.2125
2739.83899	430.6125
2742.42786	436.5125
2745.01513	420.0125
2747.60079	424.6125
2750.18486	430.1125
2752.76733	427.0125
2755.3482	424.0125
2757.92747	424.9125
2760.50515	420.6125
2763.08123	420.7125
2765.65573	419.3125
2768.22863	423.1125
2770.79994	422.9125
2773.36967	420.2125
2775.9378	416.5125
2778.50435	413.5125
2781.06932	422.3125
2783.6327	414.5125
2786.1945	419.3125
2788.75471	411.3125
2791.31335	415.2125
2793.87041	416.2125
2796.42589	411.0125
2798.97979	415.9125
2801.53212	409.5125
2804.08288	407.7125
2806.63206	414.1125
2809.17967	408.6125
2811.72571	409.3125
2814.27018	414.5125
2816.81308	410.2125
2819.35442	408.0125
2821.89419	410.6125
2824.43239	400.5125
2826.96904	402.9125
2829.50412	404.3125
2832.03763	410.6125
2834.56959	410.7125
2837.1	407.6125
2839.62884	408.3125
2842.15613	406.4125
2844.68186	412.0125
2847.20604	410.9125
2849.72867	414.6125
2852.24974	414.6125
2854.76927	411.2125
2857.28724	394.5125
2859.80367	409.3125
2862.31855	415.7125
2864.83189	416.4125
2867.34368	413.0125
2869.85393	420.6125
2872.36264	416.4125
2874.8698	421.2125
2877.37543	420.3125
2879.87952	417.5125
2882.38207	415.5125
2884.88308	421.2125
2887.38256	419.7125
2889.88051	426.5125
2892.37692	421.0125
2894.8718	424.3125
2897.36515	428.6125
2899.85698	428.9125
2902.34727	428.4125
2904.83604	433.4125
2907.32328	434.9125
2909.809	440.3125
2912.29319	439.2125
2914.77587	440.0125
2917.25702	452.3125
2919.73665	448.3125
2922.21476	449.2125
2924.69136	448.5125
2927.16644	454.9125
2929.64	449.8125
2932.11205	449.8125
2934.58258	450.7125
2937.05161	453.4125
2939.51912	442.4125
2941.98513	449.7125
2944.44962	442.5125
2946.91261	438.2125
2949.37409	442.0125
2951.83407	436.6125
2954.29254	433.6125
2956.74951	428.8125
2959.20498	429.8125
2961.65895	428.5125
2964.11142	422.7125
2966.56239	424.2125
2969.01186	421.1125
2971.45984	430.2125
2973.90632	423.1125
2976.35131	425.8125
2978.7948	420.0125
2981.23681	419.5125
2983.67732	415.3125
2986.11635	417.0125
2988.55388	413.0125
2990.98993	416.4125
2993.4245	421.7125
2995.85758	415.2125
2998.28917	416.0125
3000.71928	418.7125
3003.14791	421.2125
3005.57506	418.2125
3008.00073	418.0125
3010.42493	430.5125
3012.84764	419.3125
3015.26888	424.7125
3017.68865	422.3125
3020.10694	427.1125
3022.52376	427.9125
3024.9391	425.3125
3027.35298	426.8125
3029.76539	429.1125
3032.17632	427.8125
3034.5858	425.1125
3036.9938	431.6125
3039.40034	441.1125
3041.80542	434.5125
3044.20903	433.9125
3046.61118	442.5125
3049.01187	440.5125
3051.4111	441.2125
3053.80888	445.5125
3056.20519	452.4125
3058.60005	448.4125
3060.99345	451.9125
3063.3854	461.3125
3065.7759	457.2125
3068.16494	457.4125
3070.55254	459.0125
3072.93868	466.7125
3075.32338	466.0125
3077.70662	463.6125
3080.08842	472.5125
3082.46878	472.6125
3084.84769	476.2125
3087.22515	480.4125
3089.60118	482.3125
3091.97576	491.0125
3094.3489	489.1125
3096.72061	499.8125
3099.09087	497.6125
3101.4597	503.0125
3103.82709	508.5125
3106.19305	514.1125
3108.55757	515.6125
3110.92066	522.5125
3113.28232	526.6125
3115.64255	529.4125
3118.00134	534.4125
3120.35871	539.7125
3122.71466	545.6125
3125.06917	547.4125
3127.42226	552.0125
3129.77393	558.4125
3132.12417	559.8125
3134.47299	570.3125
3136.82039	573.4125
3139.16636	581.0125
3141.51092	587.7125
3143.85406	586.3125
3146.19579	594.1125
3148.53609	600.7125
3150.87499	608.2125
3153.21246	614.3125
3155.54853	618.7125
3157.88318	626.0125
3160.21642	638.4125
3162.54826	639.6125
3164.87868	645.2125
3167.2077	657.5125
3169.5353	654.7125
3171.86151	674.0125
3174.18631	670.3125
3176.5097	675.3125
3178.83169	682.1125
3181.15228	685.5125
3183.47147	696.0125
3185.78926	695.5125
3188.10565	697.9125
3190.42065	700.7125
3192.73424	704.7125
3195.04645	710.5125
3197.35725	713.7125
3199.66667	720.8125
3201.97469	722.0125
3204.28132	730.2125
3206.58656	738.3125
3208.8904	741.9125
3211.19287	741.9125
3213.49394	742.5125
3215.79363	750.6125
3218.09193	751.6125
3220.38884	748.9125
3222.68438	736.3125
3224.97853	752.9125
3227.2713	758.2125
3229.56269	763.0125
3231.8527	763.6125
3234.14133	765.1125
3236.42858	770.8125
3238.71446	774.6125
3240.99896	776.8125
3243.28209	775.6125
3245.56384	775.4125
3247.84423	768.9125
3250.12324	777.5125
3252.40088	774.5125
3254.67715	776.7125
3256.95205	775.5125
3259.22558	768.5125
3261.49775	784.9125
3263.76855	776.0125
3266.03799	773.7125
3268.30606	781.1125
3270.57277	778.7125
3272.83812	784.7125
3275.10211	776.7125
3277.36474	770.2125
3279.62601	778.9125
3281.88593	771.0125
3284.14448	780.8125
3286.40168	775.7125
3288.65753	776.7125
3290.91202	773.0125
3293.16516	769.7125
3295.41695	770.6125
3297.66738	769.0125
3299.91647	773.6125
3302.16421	767.3125
3304.4106	760.4125
3306.65564	764.0125
3308.89933	754.3125
3311.14169	747.9125
3313.38269	741.5125
3315.62236	743.3125
3317.86068	733.0125
3320.09766	735.8125
3322.3333	730.2125
3324.5676	723.4125
3326.80056	695.1125
3329.03219	704.6125
3331.26248	-1.0875
3333.49143	-0.0875
3335.71905	1.0125
