Data from AgNP_FTO_CRN_0.5mM_NaF_0.1M_X_RamanShift__0__10-59-16-332.txt Node

Date: Tue May 18 10:59:16 BST 2021
User: TCL
Spectrometer: QEP01345
Trigger mode: 4
Integration Time (sec): 7.000000E0
Scans to average: 10
Electric dark correction enabled: true
Nonlinearity correction enabled: false
Boxcar width: 0
XAxis mode: Raman Shifts
Number of Pixels in Spectrum: 1044
>>>>>Begin Spectral Data<<<<<
46.049	0.91
50.455	0.11
54.859	1.41
59.259	-1.89
63.656	25.71
68.049	25.51
72.439	30.71
76.827	31.91
81.21	34.81
85.591	33.71
89.969	39.21
94.343	38.61
98.714	37.81
103.082	37.41
107.446	42.41
111.808	37.71
116.166	39.11
120.521	40.81
124.873	40.81
129.222	39.31
133.568	41.31
137.91	42.51
142.249	39.51
146.585	45.81
150.918	44.51
155.248	52.11
159.574	57.51
163.898	71.61
168.218	89.51
172.535	113.31
176.849	142.91
181.16	198.41
185.467	268.61
189.772	369.71
194.073	502.31
198.372	676.51
202.667	852.81
206.959	1046.31
211.248	1240.81
215.533	1467.21
219.816	1692.61
224.096	1946.21
228.372	2230.01
232.645	2542.81
236.915	2875.31
241.183	3166.61
245.447	3435.81
249.708	3658.51
253.965	3777.11
258.22	3836.11
262.472	3817.21
266.72	3751.91
270.966	3640.81
275.208	3500.21
279.448	3288.61
283.684	3092.21
287.917	2888.41
292.147	2676.71
296.374	2488.81
300.598	2306.31
304.819	2145.71
309.037	2013.01
313.252	1899.51
317.464	1805.61
321.673	1730.31
325.879	1673.81
330.081	1634.61
334.281	1605.51
338.478	1583.81
342.671	1562.31
346.862	1556.41
351.05	1545.81
355.234	1525.81
359.416	1515.41
363.594	1505.31
367.77	1498.51
371.942	1474.61
376.112	1466.31
380.278	1457.11
384.442	1445.71
388.603	1441.31
392.76	1429.91
396.915	1420.91
401.066	1425.91
405.215	1426.91
409.36	1420.41
413.503	1426.21
417.643	1430.51
421.779	1430.81
425.913	1433.51
430.044	1453.61
434.172	1458.11
438.297	1483.01
442.418	1485.01
446.537	1495.71
450.653	1511.51
454.766	1517.31
458.877	1521.31
462.984	1521.31
467.088	1526.11
471.189	1519.61
475.288	1517.81
479.383	1522.21
483.475	1523.11
487.565	1528.41
491.652	1534.71
495.735	1531.81
499.816	1515.61
503.894	1516.31
507.969	1516.41
512.041	1507.41
516.11	1513.51
520.176	1509.91
524.24	1499.41
528.3	1491.61
532.358	1498.31
536.413	1496.81
540.464	1499.01
544.513	1501.01
548.559	1502.91
552.603	1503.11
556.643	1507.11
560.68	1514.31
564.715	1513.01
568.746	1515.51
572.775	1521.81
576.801	1521.81
580.824	1533.91
584.844	1541.51
588.862	1537.71
592.876	1543.11
596.888	1553.01
600.897	1585.81
604.903	1616.61
608.906	1635.11
612.906	1647.31
616.904	1666.81
620.898	1672.71
624.89	1672.21
628.879	1645.01
632.865	1619.91
636.849	1614.11
640.829	1613.41
644.807	1639.81
648.782	1657.31
652.754	1671.01
656.723	1675.11
660.69	1698.41
664.653	1753.41
668.614	1833.61
672.572	1942.01
676.527	2045.71
680.48	2161.81
684.43	2225.21
688.376	2234.31
692.321	2233.51
696.262	2226.21
700.2	2217.31
704.136	2209.81
708.069	2169.51
712	2114.41
715.927	2060.51
719.852	1996.61
723.774	1934.51
727.693	1899.71
731.609	1855.81
735.523	1824.11
739.434	1810.31
743.342	1792.21
747.247	1792.81
751.15	1786.71
755.05	1796.91
758.947	1784.51
762.842	1778.71
766.734	1768.41
770.623	1747.21
774.509	1752.11
778.392	1749.11
782.273	1744.41
786.151	1763.11
790.027	1772.11
793.899	1784.61
797.769	1804.31
801.637	1813.11
805.501	1827.81
809.363	1840.81
813.222	1848.81
817.079	1862.51
820.932	1873.91
824.783	1868.81
828.632	1869.01
832.477	1855.91
836.32	1842.31
840.161	1844.41
843.998	1850.11
847.833	1830.21
851.665	1827.61
855.495	1810.51
859.322	1820.21
863.146	1837.51
866.968	1862.71
870.787	1882.81
874.603	1893.11
878.417	1878.21
882.227	1903.31
886.036	1935.51
889.841	1968.81
893.644	1999.31
897.445	2002.01
901.242	1997.81
905.037	1993.61
908.83	2002.21
912.62	2018.71
916.407	2044.11
920.191	2096.51
923.973	2128.91
927.752	2180.11
931.529	2191.91
935.303	2176.61
939.074	2150.61
942.843	2099.51
946.609	2055.51
950.373	2018.11
954.134	1985.41
957.892	1947.01
961.648	1928.81
965.401	1911.11
969.151	1886.01
972.899	1876.31
976.645	1871.61
980.387	1862.61
984.127	1837.31
987.865	1854.61
991.6	1854.41
995.332	1839.71
999.062	1839.91
1002.789	1850.81
1006.514	1846.91
1010.236	1855.21
1013.956	1865.51
1017.673	1882.11
1021.387	1893.71
1025.099	1915.21
1028.808	1947.51
1032.515	1988.41
1036.219	2033.41
1039.92	2093.01
1043.619	2173.11
1047.316	2230.71
1051.01	2294.31
1054.701	2301.41
1058.39	2257.51
1062.076	2170.31
1065.76	2090.21
1069.441	1994.21
1073.12	1949.41
1076.796	1888.91
1080.47	1867.11
1084.141	1860.11
1087.809	1830.51
1091.475	1817.41
1095.139	1803.71
1098.8	1818.11
1102.459	1810.61
1106.115	1814.11
1109.768	1819.51
1113.419	1803.41
1117.068	1802.51
1120.713	1812.91
1124.357	1831.11
1127.998	1843.01
1131.636	1862.41
1135.272	1860.31
1138.906	1851.91
1142.537	1836.31
1146.165	1848.11
1149.791	1847.31
1153.415	1838.11
1157.036	1833.71
1160.655	1840.61
1164.271	1838.01
1167.884	1837.91
1171.496	1843.51
1175.104	1850.31
1178.711	1849.71
1182.314	1863.91
1185.916	1860.81
1189.515	1873.01
1193.111	1872.11
1196.705	1883.61
1200.296	1880.91
1203.885	1883.01
1207.472	1887.61
1211.056	1894.11
1214.638	1908.71
1218.217	1922.51
1221.794	1923.71
1225.368	1933.51
1228.94	1935.21
1232.51	1944.81
1236.077	1959.61
1239.642	1984.71
1243.204	1991.01
1246.764	2015.31
1250.321	2017.51
1253.876	2031.31
1257.428	2048.21
1260.979	2057.71
1264.526	2078.81
1268.072	2101.31
1271.615	2142.81
1275.155	2165.61
1278.693	2203.51
1282.229	2236.91
1285.762	2275.01
1289.293	2312.91
1292.822	2325.41
1296.348	2358.51
1299.871	2370.31
1303.393	2369.01
1306.912	2389.71
1310.428	2421.71
1313.942	2422.71
1317.454	2429.71
1320.964	2446.01
1324.471	2438.51
1327.975	2464.21
1331.478	2475.01
1334.977	2510.91
1338.475	2521.61
1341.97	2527.41
1345.463	2538.81
1348.954	2550.71
1352.442	2578.01
1355.927	2593.81
1359.411	2629.11
1362.892	2641.21
1366.371	2629.81
1369.847	2634.41
1373.321	2630.41
1376.793	2622.01
1380.262	2632.41
1383.729	2629.01
1387.193	2633.91
1390.656	2649.11
1394.116	2669.81
1397.573	2683.31
1401.029	2697.51
1404.482	2732.41
1407.932	2750.21
1411.381	2772.61
1414.827	2820.91
1418.27	2841.71
1421.712	2870.51
1425.151	2859.01
1428.588	2821.71
1432.022	2787.81
1435.454	2728.11
1438.884	2678.41
1442.312	2641.41
1445.737	2607.71
1449.16	2589.21
1452.58	2560.51
1455.999	2526.71
1459.415	2502.61
1462.828	2488.21
1466.24	2455.61
1469.649	2432.71
1473.056	2406.61
1476.46	2360.21
1479.863	2342.41
1483.263	2308.51
1486.661	2274.81
1490.056	2246.61
1493.449	2228.51
1496.84	2203.21
1500.229	2197.01
1503.615	2173.81
1506.999	2164.91
1510.381	2153.21
1513.761	2141.41
1517.138	2139.01
1520.513	2143.71
1523.886	2145.71
1527.257	2132.31
1530.625	2134.61
1533.991	2136.91
1537.355	2133.61
1540.716	2133.21
1544.076	2124.71
1547.433	2124.01
1550.788	2114.31
1554.14	2121.41
1557.491	2116.21
1560.839	2100.71
1564.185	2105.21
1567.529	2097.11
1570.87	2090.41
1574.209	2076.21
1577.546	2057.71
1580.881	2058.31
1584.214	2038.51
1587.544	2043.31
1590.872	2040.91
1594.198	2017.51
1597.522	2006.61
1600.843	2001.51
1604.163	1988.71
1607.48	1994.71
1610.794	1992.01
1614.107	1986.01
1617.418	1979.21
1620.726	1979.01
1624.032	1981.21
1627.336	1991.81
1630.638	1982.11
1633.937	1988.91
1637.234	1976.61
1640.53	1979.41
1643.822	1972.41
1647.113	1965.71
1650.402	1934.81
1653.688	1916.31
1656.972	1890.91
1660.254	1860.71
1663.534	1832.21
1666.812	1814.91
1670.088	1791.51
1673.361	1764.61
1676.632	1764.61
1679.901	1726.61
1683.168	1732.11
1686.433	1711.81
1689.695	1705.71
1692.956	1682.81
1696.214	1690.81
1699.47	1680.01
1702.724	1670.21
1705.976	1667.31
1709.225	1664.11
1712.473	1669.31
1715.718	1661.01
1718.961	1664.71
1722.202	1658.91
1725.441	1662.21
1728.678	1663.01
1731.913	1654.11
1735.145	1650.21
1738.376	1669.31
1741.604	1662.91
1744.83	1668.11
1748.054	1665.91
1751.276	1684.11
1754.496	1695.61
1757.713	1705.51
1760.929	1704.31
1764.142	1708.11
1767.354	1707.61
1770.563	1713.01
1773.77	1702.11
1776.975	1701.51
1780.178	1704.81
1783.379	1701.31
1786.577	1684.51
1789.774	1681.21
1792.968	1681.81
1796.161	1670.51
1799.351	1653.11
1802.539	1645.61
1805.725	1633.41
1808.909	1618.11
1812.091	1610.01
1815.271	1598.61
1818.449	1593.91
1821.624	1584.01
1824.798	1576.81
1827.969	1569.61
1831.139	1564.41
1834.306	1555.51
1837.471	1562.61
1840.634	1551.41
1843.796	1545.71
1846.955	1550.21
1850.112	1548.11
1853.266	1539.31
1856.419	1543.41
1859.57	1536.71
1862.719	1539.91
1865.865	1538.41
1869.01	1538.61
1872.153	1545.31
1875.293	1534.81
1878.432	1531.61
1881.568	1535.51
1884.702	1525.41
1887.835	1522.01
1890.965	1524.71
1894.093	1524.81
1897.219	1522.11
1900.343	1529.91
1903.465	1528.61
1906.586	1533.31
1909.704	1529.61
1912.82	1526.91
1915.933	1533.21
1919.045	1519.11
1922.155	1524.61
1925.263	1512.21
1928.369	1516.61
1931.473	1531.61
1934.575	1525.51
1937.675	1528.21
1940.772	1527.51
1943.868	1526.31
1946.962	1520.61
1950.054	1516.31
1953.143	1499.71
1956.231	1500.31
1959.317	1499.11
1962.4	1490.51
1965.482	1489.81
1968.562	1484.41
1971.64	1481.71
1974.715	1473.41
1977.789	1465.61
1980.861	1474.51
1983.93	1466.11
1986.998	1473.21
1990.064	1461.01
1993.128	1460.21
1996.189	1454.11
1999.249	1465.61
2002.307	1449.41
2005.363	1454.81
2008.417	1459.11
2011.469	1451.61
2014.518	1450.21
2017.566	1447.51
2020.612	1448.01
2023.656	1445.51
2026.698	1460.61
2029.738	1443.41
2032.776	1448.61
2035.812	1457.71
2038.847	1450.51
2041.879	1456.51
2044.909	1473.01
2047.937	1469.51
2050.964	1482.61
2053.988	1504.81
2057.01	1524.41
2060.031	1536.81
2063.049	1561.81
2066.066	1576.31
2069.08	1602.01
2072.093	1625.71
2075.104	1657.11
2078.113	1684.11
2081.119	1701.71
2084.124	1717.61
2087.127	1729.91
2090.128	1743.11
2093.127	1752.11
2096.124	1754.01
2099.12	1756.41
2102.113	1744.21
2105.104	1729.91
2108.094	1723.71
2111.081	1696.11
2114.067	1689.01
2117.051	1668.21
2120.032	1641.01
2123.012	1622.91
2125.99	1610.71
2128.966	1585.61
2131.94	1572.91
2134.912	1554.11
2137.883	1530.11
2140.851	1525.11
2143.817	1503.31
2146.782	1491.71
2149.745	1476.11
2152.705	1481.61
2155.664	1453.31
2158.621	1447.31
2161.576	1448.31
2164.529	1431.51
2167.481	1438.51
2170.43	1424.11
2173.378	1422.71
2176.323	1417.21
2179.267	1414.61
2182.209	1415.51
2185.149	1404.81
2188.087	1403.21
2191.023	1398.01
2193.957	1392.31
2196.889	1395.91
2199.82	1384.31
2202.749	1392.21
2205.675	1385.61
2208.6	1383.51
2211.523	1380.01
2214.445	1378.21
2217.364	1370.81
2220.281	1369.31
2223.197	1359.61
2226.111	1366.61
2229.022	1369.91
2231.932	1357.81
2234.841	1352.01
2237.747	1351.81
2240.651	1356.81
2243.554	1358.41
2246.455	1354.31
2249.353	1347.41
2252.25	1354.01
2255.146	1349.81
2258.039	1351.91
2260.93	1339.41
2263.82	1346.81
2266.708	1338.91
2269.594	1344.21
2272.478	1329.61
2275.36	1327.41
2278.241	1333.81
2281.119	1328.91
2283.996	1330.31
2286.871	1316.31
2289.744	1317.71
2292.615	1310.91
2295.485	1315.61
2298.352	1317.91
2301.218	1318.11
2304.082	1320.51
2306.944	1317.61
2309.805	1314.61
2312.663	1306.21
2315.52	1312.11
2318.375	1296.71
2321.228	1305.91
2324.079	1299.91
2326.929	1297.71
2329.776	1301.21
2332.622	1299.61
2335.466	1303.01
2338.308	1296.71
2341.149	1287.21
2343.988	1289.61
2346.824	1285.91
2349.659	1281.81
2352.493	1286.81
2355.324	1295.11
2358.154	1286.91
2360.982	1277.41
2363.808	1288.91
2366.632	1287.51
2369.454	1270.11
2372.275	1273.61
2375.094	1280.71
2377.911	1272.41
2380.727	1266.31
2383.54	1263.21
2386.352	1275.41
2389.162	1271.91
2391.97	1269.41
2394.777	1256.51
2397.581	1266.71
2400.384	1256.51
2403.185	1247.51
2405.985	1254.91
2408.782	1256.91
2411.578	1256.01
2414.372	1248.91
2417.164	1248.81
2419.955	1245.41
2422.744	1248.41
2425.531	1237.61
2428.316	1242.71
2431.1	1238.41
2433.881	1242.41
2436.661	1247.51
2439.44	1246.31
2442.216	1239.51
2444.991	1240.01
2447.764	1236.61
2450.535	1233.91
2453.305	1232.41
2456.072	1236.81
2458.838	1236.71
2461.603	1233.01
2464.365	1233.91
2467.126	1228.21
2469.885	1226.41
2472.642	1233.61
2475.398	1222.21
2478.152	1226.91
2480.904	1221.81
2483.654	1228.81
2486.403	1227.61
2489.15	1226.71
2491.895	1225.01
2494.638	1217.01
2497.38	1208.71
2500.12	1217.91
2502.859	1220.81
2505.595	1219.81
2508.33	1217.21
2511.063	1216.21
2513.795	1219.01
2516.524	1216.31
2519.252	1214.71
2521.979	1213.31
2524.703	1209.01
2527.426	1206.91
2530.147	1208.51
2532.867	1209.81
2535.585	1208.71
2538.301	1205.61
2541.015	1202.91
2543.728	1203.01
2546.439	1201.31
2549.148	1188.91
2551.855	1199.11
2554.561	1181.51
2557.266	1196.91
2559.968	1191.41
2562.669	1197.71
2565.368	1191.81
2568.065	1184.31
2570.761	1183.21
2573.455	1180.61
2576.148	1179.61
2578.838	1188.61
2581.527	1184.81
2584.215	1180.01
2586.9	1180.21
2589.584	1176.21
2592.266	1170.81
2594.947	1174.31
2597.626	1174.81
2600.303	1162.31
2602.979	1166.01
2605.653	1160.81
2608.325	1164.01
2610.996	1164.01
2613.664	1161.81
2616.332	1154.61
2618.997	1159.31
2621.661	1160.31
2624.324	1160.41
2626.984	1155.01
2629.643	1152.71
2632.3	1143.11
2634.956	1152.41
2637.61	1144.31
2640.262	1145.01
2642.913	1145.41
2645.562	1147.71
2648.209	1136.81
2650.855	1140.41
2653.499	1144.01
2656.142	1136.31
2658.783	1143.51
2661.422	1139.61
2664.059	1144.31
2666.695	1144.01
2669.329	1144.71
2671.962	1138.31
2674.593	1134.01
2677.222	1141.71
2679.85	1142.61
2682.476	1143.71
2685.1	1144.91
2687.723	1141.21
2690.344	1144.81
2692.964	1144.41
2695.582	1141.31
2698.198	1141.01
2700.813	1146.61
2703.426	1144.81
2706.037	1138.61
2708.647	1139.41
2711.255	1144.81
2713.862	1145.61
2716.467	1148.51
2719.07	1139.01
2721.672	1142.51
2724.272	1145.71
2726.871	1141.81
2729.467	1147.81
2732.063	1144.11
2734.656	1133.81
2737.249	1141.81
2739.839	1141.81
2742.428	1151.41
2745.015	1143.91
2747.601	1137.91
2750.185	1127.71
2752.767	1141.11
2755.348	1135.71
2757.927	1135.91
2760.505	1133.61
2763.081	1131.51
2765.656	1131.01
2768.229	1134.71
2770.8	1130.91
2773.37	1124.61
2775.938	1132.31
2778.504	1127.51
2781.069	1119.11
2783.633	1126.31
2786.194	1129.01
2788.755	1124.61
2791.313	1119.31
2793.87	1111.91
2796.426	1116.21
2798.98	1121.01
2801.532	1108.01
2804.083	1114.81
2806.632	1113.31
2809.18	1118.91
2811.726	1118.51
2814.27	1117.71
2816.813	1113.01
2819.354	1110.41
2821.894	1106.81
2824.432	1113.61
2826.969	1107.21
2829.504	1103.31
2832.038	1110.71
2834.57	1110.11
2837.1	1106.11
2839.629	1114.51
2842.156	1124.91
2844.682	1113.71
2847.206	1122.61
2849.729	1126.01
2852.25	1127.11
2854.769	1129.71
2857.287	1130.31
2859.804	1126.31
2862.319	1137.41
2864.832	1126.81
2867.344	1130.51
2869.854	1131.31
2872.363	1121.81
2874.87	1133.81
2877.375	1143.71
2879.88	1146.21
2882.382	1146.01
2884.883	1152.91
2887.383	1158.11
2889.881	1172.41
2892.377	1175.31
2894.872	1174.21
2897.365	1186.01
2899.857	1204.11
2902.347	1212.41
2904.836	1223.41
2907.323	1239.41
2909.809	1252.31
2912.293	1254.01
2914.776	1270.51
2917.257	1282.01
2919.737	1282.81
2922.215	1288.81
2924.691	1293.51
2927.166	1309.71
2929.64	1300.61
2932.112	1305.71
2934.583	1295.41
2937.052	1307.11
2939.519	1294.41
2941.985	1285.41
2944.45	1285.41
2946.913	1263.81
2949.374	1256.11
2951.834	1242.61
2954.293	1226.91
2956.75	1217.71
2959.205	1211.51
2961.659	1204.91
2964.111	1192.91
2966.562	1184.91
2969.012	1178.41
2971.46	1168.41
2973.906	1161.81
2976.351	1151.91
2978.795	1141.71
2981.237	1135.71
2983.677	1127.41
2986.116	1128.31
2988.554	1123.11
2990.99	1113.81
2993.424	1108.71
2995.858	1113.61
2998.289	1104.11
3000.719	1100.31
3003.148	1105.11
3005.575	1102.71
3008.001	1100.01
3010.425	1096.31
3012.848	1093.01
3015.269	1093.61
3017.689	1085.91
3020.107	1082.41
3022.524	1092.41
3024.939	1082.81
3027.353	1078.91
3029.765	1073.61
3032.176	1076.11
3034.586	1066.31
3036.994	1074.11
3039.4	1074.41
3041.805	1076.51
3044.209	1073.41
3046.611	1065.61
3049.012	1056.61
3051.411	1062.31
3053.809	1064.51
3056.205	1060.51
3058.6	1064.01
3060.993	1056.71
3063.385	1061.21
3065.776	1055.41
3068.165	1056.21
3070.553	1057.41
3072.939	1056.41
3075.323	1057.51
3077.707	1063.21
3080.088	1061.61
3082.469	1054.51
3084.848	1058.41
3087.225	1058.91
3089.601	1061.91
3091.976	1060.61
3094.349	1071.61
3096.721	1073.01
3099.091	1062.61
3101.46	1075.21
3103.827	1078.81
3106.193	1077.61
3108.558	1087.81
3110.921	1079.51
3113.282	1082.51
3115.643	1076.71
3118.001	1082.41
3120.359	1091.81
3122.715	1080.81
3125.069	1088.11
3127.422	1083.11
3129.774	1092.61
3132.124	1091.21
3134.473	1093.61
3136.82	1100.21
3139.166	1103.51
3141.511	1105.71
3143.854	1113.11
3146.196	1120.41
3148.536	1120.01
3150.875	1130.21
3153.212	1125.31
3155.549	1127.51
3157.883	1138.51
3160.216	1134.91
3162.548	1144.31
3164.879	1147.21
3167.208	1151.81
3169.535	1147.01
3171.862	1154.41
3174.186	1155.01
3176.51	1153.01
3178.832	1160.61
3181.152	1158.01
3183.471	1168.41
3185.789	1174.31
3188.106	1164.61
3190.421	1170.01
3192.734	1178.31
3195.046	1181.11
3197.357	1177.61
3199.667	1182.91
3201.975	1187.21
3204.281	1194.51
3206.587	1189.91
3208.89	1195.11
3211.193	1195.01
3213.494	1197.01
3215.794	1203.71
3218.092	1193.91
3220.389	1200.01
3222.684	1212.41
3224.979	1202.81
3227.271	1196.91
3229.563	1202.51
3231.853	1206.91
3234.141	1205.91
3236.429	1209.81
3238.714	1199.51
3240.999	1194.71
3243.282	1197.31
3245.564	1211.31
3247.844	1205.71
3250.123	1209.81
3252.401	1211.61
3254.677	1196.71
3256.952	1202.51
3259.226	1206.01
3261.498	1200.51
3263.769	1203.41
3266.038	1208.61
3268.306	1199.51
3270.573	1204.61
3272.838	1195.51
3275.102	1203.21
3277.365	1200.51
3279.626	1196.01
3281.886	1195.41
3284.144	1205.41
3286.402	1194.41
3288.658	1196.11
3290.912	1191.91
3293.165	1196.51
3295.417	1188.61
3297.667	1181.31
3299.916	1175.51
3302.164	1167.41
3304.411	1170.81
3306.656	1167.91
3308.899	1165.31
3311.142	1162.11
3313.383	1149.81
3315.622	1153.61
3317.861	1141.51
3320.098	1140.31
3322.333	1132.11
3324.568	1130.21
3326.801	1112.81
3329.032	1118.91
3331.262	0.31
3333.491	1.41
3335.719	-1.29
