Data from AgNPs_UA_50uM_CRN_0uM_R6G_0uM_Pure_RamanShift__15__14-47-01-680.txt Node

Date: Tue Aug 23 14:47:01 BST 2022
User: TCL
Spectrometer: QEP01345
Trigger mode: 4
Integration Time (sec): 7.000000E0
Scans to average: 10
Electric dark correction enabled: true
Nonlinearity correction enabled: false
Boxcar width: 0
XAxis mode: Raman Shifts
Number of Pixels in Spectrum: 1044
>>>>>Begin Spectral Data<<<<<
46.04893	-0.9875
50.45542	1.1125
54.85868	1.8125
59.25871	0.4125
63.6555	24.1125
68.04907	27.7125
72.43941	32.0125
76.82654	34.3125
81.21044	32.4125
85.59113	37.6125
89.96862	41.2125
94.34289	42.2125
98.71396	39.7125
103.08183	44.7125
107.4465	41.9125
111.80798	44.4125
116.16626	47.6125
120.52136	45.1125
124.87327	44.8125
129.222	39.0125
133.56755	43.4125
137.90993	45.1125
142.24913	45.0125
146.58517	42.5125
150.91804	43.2125
155.24774	45.1125
159.57429	50.6125
163.89768	63.2125
168.21792	64.7125
172.53501	78.0125
176.84895	102.7125
181.15975	129.4125
185.46741	176.6125
189.77193	232.8125
194.07331	310.6125
198.37157	390.1125
202.6667	482.9125
206.9587	568.9125
211.24758	661.5125
215.53334	750.4125
219.81599	837.4125
224.09553	943.0125
228.37195	1042.2125
232.64527	1166.2125
236.91549	1277.9125
241.18261	1407.0125
245.44663	1510.3125
249.70755	1591.5125
253.96539	1668.0125
258.22014	1705.9125
262.4718	1729.9125
266.72039	1731.7125
270.96589	1702.0125
275.20832	1668.3125
279.44768	1623.5125
283.68397	1568.3125
287.91719	1529.0125
292.14735	1475.9125
296.37445	1429.2125
300.59849	1410.7125
304.81948	1382.2125
309.03742	1365.9125
313.25231	1358.2125
317.46415	1336.7125
321.67296	1322.3125
325.87872	1320.2125
330.08145	1304.7125
334.28114	1311.0125
338.47781	1316.9125
342.67145	1330.6125
346.86207	1339.1125
351.04966	1338.0125
355.23424	1350.5125
359.4158	1364.7125
363.59435	1359.2125
367.76989	1389.0125
371.94243	1379.1125
376.11196	1395.0125
380.27849	1408.0125
384.44203	1415.9125
388.60257	1441.6125
392.76012	1444.1125
396.91468	1449.7125
401.06626	1459.4125
405.21485	1474.9125
409.36047	1490.6125
413.50311	1492.5125
417.64277	1495.2125
421.77947	1511.4125
425.9132	1519.9125
430.04396	1527.7125
434.17176	1546.2125
438.2966	1552.1125
442.41849	1567.2125
446.53742	1582.4125
450.6534	1614.4125
454.76644	1623.6125
458.87653	1649.2125
462.98368	1658.1125
467.08789	1652.7125
471.18916	1641.4125
475.2875	1644.2125
479.38291	1635.6125
483.4754	1635.3125
487.56496	1644.6125
491.6516	1648.4125
495.73531	1661.4125
499.81612	1642.6125
503.89401	1649.3125
507.96899	1637.5125
512.04106	1617.0125
516.11023	1607.8125
520.1765	1597.2125
524.23987	1604.4125
528.30034	1604.6125
532.35792	1610.6125
536.41261	1601.0125
540.46441	1599.2125
544.51333	1584.1125
548.55936	1580.7125
552.60252	1591.8125
556.64279	1598.4125
560.6802	1602.2125
564.71473	1624.6125
568.7464	1637.7125
572.7752	1662.3125
576.80114	1667.0125
580.82422	1677.8125
584.84444	1674.6125
588.86181	1685.9125
592.87633	1669.6125
596.888	1678.3125
600.89682	1679.2125
604.9028	1689.0125
608.90594	1703.0125
612.90624	1724.8125
616.90371	1692.1125
620.89834	1659.7125
624.89015	1693.9125
628.87913	1719.0125
632.86528	1762.1125
636.84862	1792.0125
640.82913	1803.8125
644.80683	1782.2125
648.78172	1772.4125
652.75379	1748.1125
656.72306	1726.2125
660.68952	1715.9125
664.65319	1734.9125
668.61405	1755.0125
672.57211	1809.3125
676.52738	1922.2125
680.47986	2049.9125
684.42955	2122.9125
688.37646	2143.0125
692.32058	2068.7125
696.26192	1966.9125
700.20048	1870.1125
704.13626	1796.9125
708.06928	1750.1125
711.99952	1719.5125
715.927	1706.3125
719.85171	1719.0125
723.77365	1748.9125
727.69284	1821.4125
731.60928	1903.0125
735.52295	1944.1125
739.43388	1930.0125
743.34206	1897.2125
747.24749	1844.0125
751.15017	1775.9125
755.05012	1731.5125
758.94733	1724.1125
762.8418	1724.8125
766.73354	1739.2125
770.62254	1747.4125
774.50882	1721.3125
778.39237	1707.4125
782.27321	1695.0125
786.15132	1664.1125
790.02671	1647.4125
793.89938	1647.8125
797.76935	1653.3125
801.6366	1659.9125
805.50115	1679.4125
809.36299	1687.9125
813.22213	1698.0125
817.07857	1687.3125
820.93231	1674.4125
824.78336	1649.0125
828.63172	1623.6125
832.47738	1615.4125
836.32036	1617.1125
840.16066	1602.8125
843.99827	1592.0125
847.8332	1583.6125
851.66546	1605.8125
855.49504	1599.1125
859.32195	1600.9125
863.1462	1596.6125
866.96777	1606.0125
870.78668	1607.3125
874.60293	1620.6125
878.41652	1625.5125
882.22745	1635.2125
886.03573	1654.9125
889.84136	1648.2125
893.64433	1650.7125
897.44466	1626.3125
901.24235	1610.0125
905.0374	1609.4125
908.8298	1601.8125
912.61957	1610.0125
916.40671	1603.9125
920.19121	1611.8125
923.97308	1610.1125
927.75233	1598.6125
931.52895	1592.6125
935.30295	1575.9125
939.07433	1569.2125
942.84309	1560.2125
946.60924	1545.4125
950.37278	1551.5125
954.13371	1566.7125
957.89203	1572.9125
961.64774	1564.8125
965.40086	1578.5125
969.15137	1571.9125
972.89929	1553.8125
976.64461	1549.5125
980.38733	1548.2125
984.12747	1552.8125
987.86502	1556.3125
991.59999	1568.3125
995.33237	1569.2125
999.06217	1570.9125
1002.78939	1614.0125
1006.51404	1627.9125
1010.23611	1665.0125
1013.95561	1671.4125
1017.67255	1707.3125
1021.38692	1712.1125
1025.09872	1713.7125
1028.80796	1703.9125
1032.51465	1704.0125
1036.21877	1704.0125
1039.92035	1701.7125
1043.61937	1699.5125
1047.31584	1708.1125
1051.00976	1697.4125
1054.70114	1686.0125
1058.38998	1671.2125
1062.07627	1671.5125
1065.76003	1662.9125
1069.44126	1663.7125
1073.11995	1672.0125
1076.79611	1684.8125
1080.46974	1683.5125
1084.14085	1681.1125
1087.80943	1666.2125
1091.47549	1659.6125
1095.13903	1637.3125
1098.80005	1623.8125
1102.45857	1619.3125
1106.11456	1595.2125
1109.76805	1604.0125
1113.41903	1601.4125
1117.06751	1618.2125
1120.71348	1645.6125
1124.35696	1693.4125
1127.99793	1743.1125
1131.63641	1773.4125
1135.2724	1789.5125
1138.90589	1792.1125
1142.5369	1782.8125
1146.16542	1761.9125
1149.79145	1742.1125
1153.415	1731.5125
1157.03607	1727.1125
1160.65467	1733.7125
1164.27079	1744.3125
1167.88443	1755.6125
1171.49561	1772.4125
1175.10432	1796.4125
1178.71056	1819.3125
1182.31434	1867.1125
1185.91565	1888.7125
1189.51451	1922.9125
1193.11091	1953.0125
1196.70485	1950.9125
1200.29634	1947.1125
1203.88538	1942.5125
1207.47197	1926.4125
1211.05612	1900.3125
1214.63782	1885.6125
1218.21708	1887.8125
1221.79391	1888.7125
1225.36829	1905.5125
1228.94024	1931.2125
1232.50976	1953.7125
1236.07685	1997.9125
1239.6415	2032.4125
1243.20374	2063.8125
1246.76355	2086.1125
1250.32093	2084.0125
1253.8759	2079.0125
1257.42845	2071.1125
1260.97859	2050.7125
1264.52631	2046.0125
1268.07163	2033.0125
1271.61453	2014.9125
1275.15503	2016.0125
1278.69312	2017.4125
1282.22882	2024.5125
1285.76211	2031.8125
1289.29301	2048.3125
1292.82151	2084.1125
1296.34761	2125.3125
1299.87133	2195.5125
1303.39266	2253.4125
1306.9116	2311.4125
1310.42815	2356.6125
1313.94233	2376.6125
1317.45412	2370.8125
1320.96354	2380.1125
1324.47058	2383.1125
1327.97525	2394.7125
1331.47754	2404.2125
1334.97747	2415.1125
1338.47502	2416.9125
1341.97022	2418.2125
1345.46305	2424.5125
1348.95352	2396.0125
1352.44163	2384.5125
1355.92738	2391.5125
1359.41078	2389.5125
1362.89183	2395.2125
1366.37053	2399.6125
1369.84688	2403.8125
1373.32088	2386.3125
1376.79254	2377.2125
1380.26186	2344.7125
1383.72883	2331.8125
1387.19347	2313.5125
1390.65578	2286.1125
1394.11575	2282.9125
1397.57339	2256.8125
1401.0287	2195.6125
1404.48168	2142.8125
1407.93234	2087.4125
1411.38068	2036.1125
1414.82669	1988.1125
1418.27039	1928.7125
1421.71177	1890.1125
1425.15083	1867.2125
1428.58758	1847.7125
1432.02203	1841.8125
1435.45416	1838.4125
1438.88399	1856.6125
1442.31151	1865.7125
1445.73673	1889.3125
1449.15965	1900.4125
1452.58027	1905.1125
1455.9986	1915.6125
1459.41463	1913.0125
1462.82837	1884.8125
1466.23982	1881.5125
1469.64898	1866.6125
1473.05586	1852.7125
1476.46045	1820.7125
1479.86276	1806.2125
1483.26279	1798.3125
1486.66054	1770.3125
1490.05602	1746.2125
1493.44922	1755.8125
1496.84016	1758.0125
1500.22882	1736.7125
1503.61521	1750.6125
1506.99934	1743.0125
1510.38121	1756.2125
1513.76081	1754.4125
1517.13816	1768.0125
1520.51324	1757.0125
1523.88607	1780.5125
1527.25665	1803.5125
1530.62498	1829.0125
1533.99105	1850.1125
1537.35488	1864.3125
1540.71647	1857.6125
1544.07581	1850.5125
1547.4329	1833.4125
1550.78776	1823.5125
1554.14038	1804.9125
1557.49077	1809.8125
1560.83892	1804.3125
1564.18484	1804.8125
1567.52853	1779.7125
1570.86999	1787.5125
1574.20922	1794.1125
1577.54624	1805.3125
1580.88103	1809.7125
1584.2136	1822.1125
1587.54395	1836.4125
1590.87208	1852.4125
1594.19801	1899.1125
1597.52172	1921.1125
1600.84321	1936.1125
1604.16251	1920.8125
1607.47959	1882.3125
1610.79447	1827.1125
1614.10715	1786.0125
1617.41763	1741.4125
1620.7259	1709.2125
1624.03199	1685.5125
1627.33587	1667.5125
1630.63757	1654.3125
1633.93707	1684.5125
1637.23439	1700.3125
1640.52951	1737.5125
1643.82246	1782.2125
1647.11321	1806.8125
1650.40179	1811.6125
1653.68819	1777.1125
1656.97241	1737.4125
1660.25446	1662.9125
1663.53433	1620.0125
1666.81203	1582.6125
1670.08756	1550.3125
1673.36092	1535.4125
1676.63211	1497.2125
1679.90115	1472.7125
1683.16801	1449.1125
1686.43272	1418.9125
1689.69527	1398.6125
1692.95567	1359.8125
1696.2139	1338.8125
1699.46999	1326.8125
1702.72392	1300.3125
1705.97571	1277.2125
1709.22535	1257.0125
1712.47284	1249.2125
1715.71819	1230.5125
1718.96139	1216.9125
1722.20246	1212.2125
1725.44139	1210.8125
1728.67818	1200.7125
1731.91284	1198.0125
1735.14537	1194.4125
1738.37576	1190.3125
1741.60403	1193.2125
1744.83017	1194.6125
1748.05418	1203.8125
1751.27607	1230.1125
1754.49584	1242.5125
1757.71349	1244.2125
1760.92903	1244.3125
1764.14244	1221.3125
1767.35375	1205.2125
1770.56294	1162.7125
1773.77002	1150.5125
1776.97499	1124.3125
1780.17785	1102.6125
1783.37861	1086.0125
1786.57727	1091.3125
1789.77382	1077.7125
1792.96828	1068.4125
1796.16064	1056.1125
1799.3509	1048.6125
1802.53907	1043.5125
1805.72514	1042.4125
1808.90913	1032.0125
1812.09102	1028.7125
1815.27083	1027.8125
1818.44856	1016.9125
1821.6242	1016.1125
1824.79776	1015.4125
1827.96924	1017.8125
1831.13864	1009.5125
1834.30597	1004.2125
1837.47122	998.3125
1840.6344	997.0125
1843.7955	997.3125
1846.95454	992.4125
1850.11151	994.8125
1853.26642	992.6125
1856.41926	986.0125
1859.57004	989.8125
1862.71876	994.4125
1865.86542	988.3125
1869.01003	982.7125
1872.15258	977.8125
1875.29308	977.1125
1878.43152	977.2125
1881.56792	970.3125
1884.70227	977.6125
1887.83457	969.6125
1890.96482	966.1125
1894.09304	958.0125
1897.21921	975.5125
1900.34335	965.9125
1903.46544	969.2125
1906.58551	960.9125
1909.70353	952.6125
1912.81953	952.8125
1915.93349	953.0125
1919.04543	947.6125
1922.15534	952.4125
1925.26322	942.7125
1928.36908	948.5125
1931.47292	949.1125
1934.57473	939.7125
1937.67453	944.7125
1940.77232	935.4125
1943.86808	931.4125
1946.96184	929.2125
1950.05358	925.9125
1953.14331	927.2125
1956.23103	922.5125
1959.31675	915.3125
1962.40046	908.7125
1965.48217	908.3125
1968.56188	910.2125
1971.63959	899.2125
1974.7153	898.0125
1977.78901	895.1125
1980.86073	893.0125
1983.93046	886.0125
1986.99819	888.9125
1990.06394	882.4125
1993.1277	873.6125
1996.18947	876.7125
1999.24925	868.7125
2002.30706	868.6125
2005.36288	869.5125
2008.41672	862.5125
2011.46859	864.0125
2014.51848	862.7125
2017.56639	855.1125
2020.61233	857.7125
2023.6563	860.7125
2026.6983	847.3125
2029.73833	855.1125
2032.7764	847.1125
2035.8125	845.1125
2038.84664	842.7125
2041.87881	846.0125
2044.90903	836.8125
2047.93729	837.4125
2050.96359	833.8125
2053.98794	836.6125
2057.01034	841.2125
2060.03078	834.4125
2063.04927	847.4125
2066.06582	844.3125
2069.08042	833.7125
2072.09307	848.4125
2075.10378	845.1125
2078.11255	837.2125
2081.11938	857.1125
2084.12426	853.6125
2087.12722	854.3125
2090.12824	861.0125
2093.12732	860.9125
2096.12447	871.3125
2099.11969	869.6125
2102.11299	876.3125
2105.10435	881.8125
2108.09379	880.3125
2111.08131	878.3125
2114.0669	884.7125
2117.05057	886.1125
2120.03233	891.5125
2123.01216	883.7125
2125.99008	888.5125
2128.96609	878.4125
2131.94018	881.4125
2134.91236	874.7125
2137.88263	877.6125
2140.851	869.2125
2143.81746	864.1125
2146.78201	850.0125
2149.74466	845.7125
2152.7054	849.4125
2155.66425	832.6125
2158.6212	832.1125
2161.57625	828.7125
2164.52941	824.7125
2167.48067	826.5125
2170.43004	822.7125
2173.37752	814.9125
2176.32311	817.2125
2179.26681	812.2125
2182.20863	810.3125
2185.14856	813.5125
2188.08661	807.2125
2191.02278	799.6125
2193.95707	803.5125
2196.88948	792.1125
2199.82001	793.8125
2202.74867	801.0125
2205.67545	802.5125
2208.60037	801.7125
2211.52341	796.0125
2214.44458	786.1125
2217.36388	797.3125
2220.28132	785.9125
2223.1969	787.6125
2226.11061	786.1125
2229.02246	787.2125
2231.93245	778.7125
2234.84058	768.2125
2237.74686	772.0125
2240.65128	776.1125
2243.55385	762.7125
2246.45456	768.4125
2249.35343	771.5125
2252.25044	772.1125
2255.14561	769.1125
2258.03893	760.6125
2260.93041	766.3125
2263.82004	760.7125
2266.70783	758.4125
2269.59378	757.9125
2272.4779	755.3125
2275.36017	757.0125
2278.24061	753.5125
2281.11922	742.6125
2283.996	740.4125
2286.87094	744.3125
2289.74405	738.5125
2292.61534	732.8125
2295.4848	735.7125
2298.35243	736.9125
2301.21824	740.4125
2304.08223	738.9125
2306.94439	743.6125
2309.80474	735.6125
2312.66327	727.0125
2315.51999	735.0125
2318.37489	732.6125
2321.22797	727.2125
2324.07925	726.6125
2326.92871	732.6125
2329.77637	730.1125
2332.62222	731.3125
2335.46626	731.2125
2338.3085	722.9125
2341.14893	710.3125
2343.98756	713.2125
2346.8244	718.0125
2349.65943	711.4125
2352.49267	714.9125
2355.32411	719.2125
2358.15376	712.8125
2360.98161	710.1125
2363.80768	712.6125
2366.63195	714.7125
2369.45444	708.1125
2372.27514	706.7125
2375.09405	711.6125
2377.91118	708.4125
2380.72652	707.3125
2383.54009	702.9125
2386.35187	697.5125
2389.16188	694.3125
2391.97011	698.9125
2394.77657	696.4125
2397.58125	694.2125
2400.38416	694.1125
2403.18529	691.1125
2405.98466	690.1125
2408.78226	690.9125
2411.57809	686.0125
2414.37216	686.8125
2417.16446	687.3125
2419.955	692.5125
2422.74378	691.6125
2425.5308	690.5125
2428.31606	685.2125
2431.09956	685.4125
2433.88131	682.9125
2436.6613	682.1125
2439.43954	686.4125
2442.21603	681.6125
2444.99077	678.2125
2447.76377	683.7125
2450.53501	684.0125
2453.30451	679.1125
2456.07226	668.9125
2458.83827	670.2125
2461.60254	678.4125
2464.36507	676.0125
2467.12586	668.7125
2469.88492	672.0125
2472.64224	669.4125
2475.39782	661.4125
2478.15167	670.6125
2480.90379	665.3125
2483.65417	666.2125
2486.40283	661.7125
2489.14976	664.6125
2491.89497	662.4125
2494.63845	661.1125
2497.3802	664.3125
2500.12024	658.9125
2502.85855	657.1125
2505.59514	655.1125
2508.33002	654.5125
2511.06318	653.4125
2513.79462	651.1125
2516.52435	650.8125
2519.25237	645.6125
2521.97867	649.3125
2524.70327	651.5125
2527.42616	647.2125
2530.14734	648.1125
2532.86681	648.3125
2535.58458	654.2125
2538.30065	649.4125
2541.01501	645.5125
2543.72768	641.4125
2546.43864	643.7125
2549.14791	642.1125
2551.85548	634.1125
2554.56136	634.1125
2557.26554	638.9125
2559.96803	639.9125
2562.66883	635.5125
2565.36794	630.3125
2568.06536	634.9125
2570.7611	631.3125
2573.45514	634.3125
2576.14751	629.1125
2578.83819	627.0125
2581.52719	631.7125
2584.21451	629.5125
2586.90015	620.6125
2589.58411	617.6125
2592.2664	626.3125
2594.94701	616.7125
2597.62594	620.5125
2600.30321	620.9125
2602.9788	619.1125
2605.65273	622.6125
2608.32498	619.6125
2610.99557	618.8125
2613.66449	620.2125
2616.33175	623.6125
2618.99734	617.0125
2621.66128	616.5125
2624.32355	614.4125
2626.98416	617.2125
2629.64311	617.9125
2632.30041	614.2125
2634.95605	611.8125
2637.61004	613.4125
2640.26238	617.1125
2642.91306	613.9125
2645.56209	611.5125
2648.20948	615.6125
2650.85521	611.9125
2653.4993	607.9125
2656.14175	609.6125
2658.78255	608.0125
2661.42171	605.2125
2664.05923	613.5125
2666.6951	608.1125
2669.32934	608.0125
2671.96194	600.0125
2674.59291	605.9125
2677.22224	614.5125
2679.84993	610.4125
2682.476	609.7125
2685.10043	607.1125
2687.72324	606.7125
2690.34441	605.4125
2692.96396	603.7125
2695.58188	610.7125
2698.19818	611.3125
2700.81285	615.0125
2703.4259	614.9125
2706.03733	611.8125
2708.64714	610.5125
2711.25533	605.7125
2713.86191	602.2125
2716.46687	609.4125
2719.07021	612.0125
2721.67194	606.7125
2724.27206	606.6125
2726.87057	608.1125
2729.46747	608.4125
2732.06276	609.7125
2734.65644	607.6125
2737.24852	609.7125
2739.83899	605.6125
2742.42786	611.4125
2745.01513	603.9125
2747.60079	602.6125
2750.18486	607.5125
2752.76733	596.4125
2755.3482	597.6125
2757.92747	598.3125
2760.50515	592.6125
2763.08123	598.5125
2765.65573	596.7125
2768.22863	593.6125
2770.79994	596.8125
2773.36967	596.1125
2775.9378	596.1125
2778.50435	596.0125
2781.06932	591.7125
2783.6327	591.4125
2786.1945	597.1125
2788.75471	588.4125
2791.31335	588.7125
2793.87041	585.6125
2796.42589	581.6125
2798.97979	581.7125
2801.53212	584.1125
2804.08288	581.9125
2806.63206	583.3125
2809.17967	579.7125
2811.72571	573.2125
2814.27018	577.8125
2816.81308	571.1125
2819.35442	571.5125
2821.89419	571.9125
2824.43239	573.8125
2826.96904	570.6125
2829.50412	565.8125
2832.03763	571.7125
2834.56959	569.1125
2837.1	569.6125
2839.62884	567.7125
2842.15613	567.7125
2844.68186	571.3125
2847.20604	575.7125
2849.72867	575.2125
2852.24974	576.0125
2854.76927	570.3125
2857.28724	571.7125
2859.80367	573.9125
2862.31855	569.1125
2864.83189	571.5125
2867.34368	569.7125
2869.85393	571.8125
2872.36264	565.9125
2874.8698	567.0125
2877.37543	566.8125
2879.87952	577.9125
2882.38207	574.0125
2884.88308	570.5125
2887.38256	580.2125
2889.88051	574.1125
2892.37692	577.8125
2894.8718	578.4125
2897.36515	579.3125
2899.85698	585.3125
2902.34727	585.2125
2904.83604	584.9125
2907.32328	590.2125
2909.809	587.6125
2912.29319	591.7125
2914.77587	600.5125
2917.25702	599.6125
2919.73665	605.2125
2922.21476	606.6125
2924.69136	607.5125
2927.16644	600.9125
2929.64	611.2125
2932.11205	614.6125
2934.58258	614.7125
2937.05161	609.3125
2939.51912	615.3125
2941.98513	619.5125
2944.44962	617.6125
2946.91261	621.2125
2949.37409	628.8125
2951.83407	629.4125
2954.29254	621.5125
2956.74951	620.4125
2959.20498	620.1125
2961.65895	620.1125
2964.11142	612.9125
2966.56239	616.8125
2969.01186	608.3125
2971.45984	599.3125
2973.90632	597.8125
2976.35131	595.7125
2978.7948	593.5125
2981.23681	594.2125
2983.67732	591.8125
2986.11635	591.8125
2988.55388	590.7125
2990.98993	589.0125
2993.4245	592.2125
2995.85758	589.5125
2998.28917	587.3125
3000.71928	587.2125
3003.14791	594.0125
3005.57506	589.1125
3008.00073	592.1125
3010.42493	597.8125
3012.84764	591.9125
3015.26888	597.0125
3017.68865	600.6125
3020.10694	596.3125
3022.52376	594.9125
3024.9391	593.5125
3027.35298	603.7125
3029.76539	595.3125
3032.17632	605.4125
3034.5858	603.6125
3036.9938	610.9125
3039.40034	605.3125
3041.80542	610.2125
3044.20903	610.1125
3046.61118	609.9125
3049.01187	616.3125
3051.4111	605.4125
3053.80888	613.3125
3056.20519	615.3125
3058.60005	615.4125
3060.99345	618.2125
3063.3854	620.1125
3065.7759	622.2125
3068.16494	618.8125
3070.55254	628.3125
3072.93868	627.7125
3075.32338	630.5125
3077.70662	635.5125
3080.08842	640.0125
3082.46878	641.7125
3084.84769	640.1125
3087.22515	648.5125
3089.60118	646.8125
3091.97576	655.5125
3094.3489	658.6125
3096.72061	670.1125
3099.09087	673.3125
3101.4597	671.9125
3103.82709	679.3125
3106.19305	686.1125
3108.55757	689.3125
3110.92066	688.8125
3113.28232	662.8125
3115.64255	705.0125
3118.00134	710.2125
3120.35871	719.2125
3122.71466	710.2125
3125.06917	718.6125
3127.42226	724.0125
3129.77393	727.4125
3132.12417	734.0125
3134.47299	742.3125
3136.82039	752.4125
3139.16636	749.6125
3141.51092	760.8125
3143.85406	771.4125
3146.19579	772.5125
3148.53609	779.6125
3150.87499	787.2125
3153.21246	792.6125
3155.54853	805.3125
3157.88318	807.8125
3160.21642	813.5125
3162.54826	816.3125
3164.87868	832.9125
3167.2077	839.9125
3169.5353	837.1125
3171.86151	849.4125
3174.18631	854.1125
3176.5097	863.5125
3178.83169	869.0125
3181.15228	873.5125
3183.47147	884.5125
3185.78926	884.9125
3188.10565	883.5125
3190.42065	892.5125
3192.73424	894.7125
3195.04645	903.3125
3197.35725	916.2125
3199.66667	913.1125
3201.97469	917.0125
3204.28132	921.8125
3206.58656	926.5125
3208.8904	932.5125
3211.19287	931.6125
3213.49394	939.8125
3215.79363	942.1125
3218.09193	950.2125
3220.38884	957.3125
3222.68438	959.3125
3224.97853	964.3125
3227.2713	962.9125
3229.56269	969.5125
3231.8527	975.0125
3234.14133	962.7125
3236.42858	969.1125
3238.71446	964.9125
3240.99896	967.4125
3243.28209	968.5125
3245.56384	970.9125
3247.84423	967.3125
3250.12324	963.8125
3252.40088	963.7125
3254.67715	970.0125
3256.95205	975.6125
3259.22558	964.7125
3261.49775	968.1125
3263.76855	967.8125
3266.03799	977.8125
3268.30606	980.0125
3270.57277	985.2125
3272.83812	974.6125
3275.10211	973.0125
3277.36474	971.6125
3279.62601	970.8125
3281.88593	973.0125
3284.14448	968.5125
3286.40168	975.4125
3288.65753	968.8125
3290.91202	973.3125
3293.16516	968.2125
3295.41695	971.5125
3297.66738	962.7125
3299.91647	952.0125
3302.16421	888.9125
3304.4106	953.3125
3306.65564	948.2125
3308.89933	941.6125
3311.14169	936.8125
3313.38269	936.2125
3315.62236	938.9125
3317.86068	919.3125
3320.09766	919.3125
3322.3333	908.8125
3324.5676	910.5125
3326.80056	898.0125
3329.03219	893.3125
3331.26248	0.5125
3333.49143	-2.1875
3335.71905	-0.1875
