Data from UA_Powder_RamanShift__2__15-51-38-851.txt Node

Date: Wed Aug 10 15:51:38 BST 2022
User: TCL
Spectrometer: QEP01345
Trigger mode: 4
Integration Time (sec): 4.000000E0
Scans to average: 10
Electric dark correction enabled: true
Nonlinearity correction enabled: false
Boxcar width: 0
XAxis mode: Raman Shifts
Number of Pixels in Spectrum: 1044
>>>>>Begin Spectral Data<<<<<
46.04893	-2.55
50.45542	-0.05
54.85868	-2.55
59.25871	-0.15
63.6555	182.15
68.04907	194.15
72.43941	189.65
76.82654	199.25
81.21044	203.45
85.59113	211.55
89.96862	211.45
94.34289	224.15
98.71396	225.85
103.08183	243.55
107.4465	255.35
111.80798	263.15
116.16626	280.25
120.52136	280.45
124.87327	311.25
129.222	329.05
133.56755	362.95
137.90993	394.05
142.24913	440.75
146.58517	505.95
150.91804	603.45
155.24774	732.15
159.57429	927.95
163.89768	1196.95
168.21792	1630.95
172.53501	2250.95
176.84895	3184.65
181.15975	4596.45
185.46741	6518.65
189.77193	9145.75
194.07331	12301.45
198.37157	15896.55
202.6667	19653.65
206.9587	23421.85
211.24758	27076.35
215.53334	30636.15
219.81599	34334.95
224.09553	38433.65
228.37195	42889.95
232.64527	47875.55
236.91549	53317.65
241.18261	59138.45
245.44663	65156.65
249.70755	71093.65
253.96539	76473.15
258.22014	81076.05
262.4718	84704.05
266.72039	87222.55
270.96589	88797.75
275.20832	89496.15
279.44768	89469.35
283.68397	88834.85
287.91719	88007.55
292.14735	87320.35
296.37445	86707.05
300.59849	86162.55
304.81948	85854.85
309.03742	85744.75
313.25231	85894.15
317.46415	86286.25
321.67296	86905.75
325.87872	87582.45
330.08145	88439.55
334.28114	89406.45
338.47781	90574.25
342.67145	91655.75
346.86207	92931.45
351.04966	94149.25
355.23424	95405.65
359.4158	96663.55
363.59435	97964.45
367.76989	99315.45
371.94243	100638.35
376.11196	101839.55
380.27849	103181.05
384.44203	104357.35
388.60257	105491.35
392.76012	106445.25
396.91468	107510.35
401.06626	108559.85
405.21485	109463.05
409.36047	110591.15
413.50311	111589.25
417.64277	112516.75
421.77947	113669.65
425.9132	114582.75
430.04396	115614.75
434.17176	116593.55
438.2966	117694.95
442.41849	118569.05
446.53742	119312.45
450.6534	120346.35
454.76644	121161.95
458.87653	122026.35
462.98368	122858.25
467.08789	123793.15
471.18916	124677.65
475.2875	125299.25
479.38291	125504.35
483.4754	126053.85
487.56496	126473.55
491.6516	126949.25
495.73531	127252.15
499.81612	127700.45
503.89401	128316.95
507.96899	128483.25
512.04106	128712.25
516.11023	128966.35
520.1765	129199.55
524.23987	129611.05
528.30034	129884.35
532.35792	130214.35
536.41261	130460.45
540.46441	130749.35
544.51333	131149.45
548.55936	131478.35
552.60252	131853.75
556.64279	132223.05
560.6802	132662.45
564.71473	132969.15
568.7464	132969.25
572.7752	133007.55
576.80114	133025.85
580.82422	133266.35
584.84444	133531.35
588.86181	133645.55
592.87633	133861.95
596.888	134041.15
600.89682	134330.85
604.9028	134621.75
608.90594	135016.35
612.90624	135540.55
616.90371	136295.45
620.89834	137088.95
624.89015	137844.65
628.87913	137946.25
632.86528	137268.45
636.84862	136921.95
640.82913	136819.75
644.80683	136799.45
648.78172	136913.55
652.75379	137276.95
656.72306	137415.45
660.68952	137578.25
664.65319	137602.95
668.61405	137861.75
672.57211	137939.25
676.52738	137942.25
680.47986	138044.75
684.42955	138228.75
688.37646	138390.35
692.32058	138519.25
696.26192	138708.55
700.20048	138713.25
704.13626	138929.05
708.06928	139143.45
711.99952	139012.65
715.927	138716.05
719.85171	138501.35
723.77365	138455.25
727.69284	138429.85
731.60928	138238.25
735.52295	138139.85
739.43388	137950.45
743.34206	137937.55
747.24749	137811.15
751.15017	137650.75
755.05012	137392.65
758.94733	137231.15
762.8418	137150.25
766.73354	137059.05
770.62254	136852.65
774.50882	136727.75
778.39237	136626.75
782.27321	136283.55
786.15132	136031.15
790.02671	135730.55
793.89938	135321.65
797.76935	134868.75
801.6366	134560.25
805.50115	134120.95
809.36299	133925.25
813.22213	133726.65
817.07857	133705.25
820.93231	133573.25
824.78336	133404.25
828.63172	133306.05
832.47738	133118.15
836.32036	132814.35
840.16066	132694.35
843.99827	132443.35
847.8332	132259.35
851.66546	132069.55
855.49504	131954.65
859.32195	131761.85
863.1462	131567.95
866.96777	131492.55
870.78668	131395.15
874.60293	131409.25
878.41652	131295.85
882.22745	130985.55
886.03573	130825.15
889.84136	130384.55
893.64433	129876.35
897.44466	129406.65
901.24235	128897.95
905.0374	128487.85
908.8298	128129.05
912.61957	127639.65
916.40671	127242.75
920.19121	126814.45
923.97308	126477.85
927.75233	125890.55
931.52895	125436.55
935.30295	125162.85
939.07433	124630.75
942.84309	124129.55
946.60924	123766.35
950.37278	123376.15
954.13371	122862.65
957.89203	122487.55
961.64774	122026.45
965.40086	121531.85
969.15137	121033.45
972.89929	120570.65
976.64461	120156.45
980.38733	119826.35
984.12747	119519.35
987.86502	119393.95
991.59999	119431.45
995.33237	119909.35
999.06217	120286.55
1002.78939	119466.25
1006.51404	118623.15
1010.23611	118016.95
1013.95561	117624.95
1017.67255	117363.65
1021.38692	117165.25
1025.09872	117017.85
1028.80796	117113.95
1032.51465	117533.35
1036.21877	118348.15
1039.92035	118573.85
1043.61937	117073.05
1047.31584	115778.75
1051.00976	115275.75
1054.70114	114904.65
1058.38998	114625.95
1062.07627	114398.85
1065.76003	114177.85
1069.44126	113856.75
1073.11995	113596.55
1076.79611	113295.15
1080.46974	112964.25
1084.14085	112511.55
1087.80943	112121.55
1091.47549	111755.15
1095.13903	111339.65
1098.80005	110992.15
1102.45857	110724.65
1106.11456	110455.75
1109.76805	110161.75
1113.41903	110117.05
1117.06751	110221.25
1120.71348	110471.15
1124.35696	110139.25
1127.99793	109347.55
1131.63641	108893.65
1135.2724	108185.45
1138.90589	107712.35
1142.5369	107261.65
1146.16542	106944.35
1149.79145	106498.75
1153.415	106008.95
1157.03607	105667.55
1160.65467	105424.25
1164.27079	105134.15
1167.88443	104852.15
1171.49561	104690.05
1175.10432	104534.35
1178.71056	104537.45
1182.31434	104616.65
1185.91565	104466.65
1189.51451	104333.25
1193.11091	104158.15
1196.70485	103946.25
1200.29634	103669.65
1203.88538	103359.05
1207.47197	103171.05
1211.05612	102889.55
1214.63782	102760.55
1218.21708	102660.85
1221.79391	102466.65
1225.36829	102420.15
1228.94024	102660.85
1232.50976	103160.35
1236.07685	103084.85
1239.6415	102538.05
1243.20374	102283.05
1246.76355	102068.35
1250.32093	101816.65
1253.8759	101636.95
1257.42845	101609.65
1260.97859	101477.25
1264.52631	101140.15
1268.07163	100995.35
1271.61453	100807.85
1275.15503	100527.65
1278.69312	100549.55
1282.22882	100649.75
1285.76211	101010.45
1289.29301	100855.25
1292.82151	100285.75
1296.34761	99840.05
1299.87133	99699.05
1303.39266	99529.25
1306.9116	99575.55
1310.42815	99341.85
1313.94233	99095.75
1317.45412	98724.25
1320.96354	98385.15
1324.47058	97970.55
1327.97525	97487.55
1331.47754	97125.15
1334.97747	96809.05
1338.47502	96427.25
1341.97022	96109.45
1345.46305	95769.45
1348.95352	95630.15
1352.44163	95605.55
1355.92738	95408.65
1359.41078	95239.45
1362.89183	94835.65
1366.37053	94313.45
1369.84688	93998.15
1373.32088	93578.75
1376.79254	93216.95
1380.26186	92757.45
1383.72883	92383.55
1387.19347	92037.55
1390.65578	91716.95
1394.11575	91696.55
1397.57339	91707.55
1401.0287	91865.35
1404.48168	91976.15
1407.93234	91803.75
1411.38068	91318.95
1414.82669	90654.35
1418.27039	90233.95
1421.71177	89780.55
1425.15083	89277.65
1428.58758	88745.35
1432.02203	88422.95
1435.45416	88106.75
1438.88399	87825.25
1442.31151	87596.95
1445.73673	87351.25
1449.15965	87193.05
1452.58027	86950.05
1455.9986	86515.25
1459.41463	86297.35
1462.82837	86158.95
1466.23982	86062.05
1469.64898	86164.55
1473.05586	86190.15
1476.46045	86294.85
1479.86276	86411.45
1483.26279	86608.15
1486.66054	86860.75
1490.05602	87020.55
1493.44922	87317.65
1496.84016	87544.05
1500.22882	87623.75
1503.61521	87515.35
1506.99934	87297.45
1510.38121	87032.05
1513.76081	86787.55
1517.13816	86513.35
1520.51324	86487.95
1523.88607	86510.35
1527.25665	86498.35
1530.62498	86651.15
1533.99105	86873.95
1537.35488	86901.35
1540.71647	86997.15
1544.07581	87087.95
1547.4329	87098.35
1550.78776	87029.45
1554.14038	86932.25
1557.49077	86947.75
1560.83892	86929.45
1564.18484	86902.95
1567.52853	86842.65
1570.86999	86710.15
1574.20922	86605.95
1577.54624	86522.35
1580.88103	86418.55
1584.2136	86518.55
1587.54395	86560.55
1590.87208	86639.45
1594.19801	86649.55
1597.52172	86495.75
1600.84321	86204.15
1604.16251	85973.05
1607.47959	85665.25
1610.79447	85472.05
1614.10715	85142.65
1617.41763	84936.05
1620.7259	84753.75
1624.03199	84588.65
1627.33587	84497.05
1630.63757	84423.15
1633.93707	84505.45
1637.23439	84594.05
1640.52951	84766.25
1643.82246	84958.05
1647.11321	85271.85
1650.40179	85578.25
1653.68819	85256.25
1656.97241	84594.15
1660.25446	83908.05
1663.53433	83272.15
1666.81203	82871.25
1670.08756	82612.15
1673.36092	82361.75
1676.63211	82162.65
1679.90115	81987.15
1683.16801	81697.35
1686.43272	81527.45
1689.69527	81364.25
1692.95567	80978.75
1696.2139	80702.85
1699.46999	80453.75
1702.72392	80206.35
1705.97571	80112.35
1709.22535	79987.35
1712.47284	79842.25
1715.71819	79730.25
1718.96139	79545.35
1722.20246	79421.35
1725.44139	79209.75
1728.67818	78898.35
1731.91284	78784.35
1735.14537	78521.65
1738.37576	78321.05
1741.60403	78076.55
1744.83017	77844.35
1748.05418	77657.95
1751.27607	77439.55
1754.49584	77313.45
1757.71349	77199.95
1760.92903	77007.25
1764.14244	76864.95
1767.35375	76721.75
1770.56294	76573.95
1773.77002	76561.45
1776.97499	76369.65
1780.17785	76249.05
1783.37861	75999.15
1786.57727	75839.55
1789.77382	75604.55
1792.96828	75447.95
1796.16064	75120.35
1799.3509	74991.25
1802.53907	74722.55
1805.72514	74484.15
1808.90913	74229.95
1812.09102	73971.45
1815.27083	73827.55
1818.44856	73659.35
1821.6242	73353.95
1824.79776	73150.55
1827.96924	72909.95
1831.13864	72764.25
1834.30597	72610.05
1837.47122	72346.25
1840.6344	72062.65
1843.7955	71984.95
1846.95454	71835.65
1850.11151	71682.45
1853.26642	71402.65
1856.41926	71288.65
1859.57004	71088.65
1862.71876	70889.55
1865.86542	70743.15
1869.01003	70427.75
1872.15258	70305.45
1875.29308	70113.55
1878.43152	69849.65
1881.56792	69633.45
1884.70227	69403.15
1887.83457	69248.65
1890.96482	69023.45
1894.09304	68745.55
1897.21921	68543.45
1900.34335	68277.25
1903.46544	68072.05
1906.58551	67940.05
1909.70353	67732.65
1912.81953	67478.55
1915.93349	67213.05
1919.04543	67009.75
1922.15534	66788.65
1925.26322	66430.85
1928.36908	66186.05
1931.47292	65918.95
1934.57473	65734.35
1937.67453	65520.25
1940.77232	65285.15
1943.86808	64889.95
1946.96184	64695.35
1950.05358	64363.35
1953.14331	64020.35
1956.23103	63656.35
1959.31675	63359.85
1962.40046	63043.05
1965.48217	62747.25
1968.56188	62462.75
1971.63959	62036.45
1974.7153	61740.45
1977.78901	61403.75
1980.86073	61083.85
1983.93046	60820.75
1986.99819	60437.85
1990.06394	60185.85
1993.1277	59958.95
1996.18947	59608.85
1999.24925	59287.55
2002.30706	59020.75
2005.36288	58759.25
2008.41672	58436.45
2011.46859	58147.25
2014.51848	57783.15
2017.56639	57483.15
2020.61233	57314.05
2023.6563	56914.55
2026.6983	56679.15
2029.73833	56460.15
2032.7764	56201.95
2035.8125	55835.95
2038.84664	55566.85
2041.87881	55348.35
2044.90903	55108.75
2047.93729	54896.75
2050.96359	54661.35
2053.98794	54460.35
2057.01034	54264.35
2060.03078	54103.15
2063.04927	53845.95
2066.06582	53751.25
2069.08042	53598.65
2072.09307	53436.55
2075.10378	53277.45
2078.11255	53137.75
2081.11938	53037.25
2084.12426	52842.85
2087.12722	52610.25
2090.12824	52449.75
2093.12732	52273.55
2096.12447	52182.15
2099.11969	52035.35
2102.11299	51917.35
2105.10435	51797.45
2108.09379	51632.85
2111.08131	51567.45
2114.0669	51473.65
2117.05057	51313.65
2120.03233	51184.55
2123.01216	51062.05
2125.99008	51008.35
2128.96609	50954.15
2131.94018	50842.95
2134.91236	50710.95
2137.88263	50613.45
2140.851	50548.05
2143.81746	50535.55
2146.78201	50388.35
2149.74466	50260.95
2152.7054	50092.95
2155.66425	49951.85
2158.6212	49792.05
2161.57625	49658.15
2164.52941	49470.05
2167.48067	49351.05
2170.43004	49174.45
2173.37752	49001.35
2176.32311	48846.45
2179.26681	48693.95
2182.20863	48535.85
2185.14856	48493.25
2188.08661	48358.95
2191.02278	48214.05
2193.95707	48007.45
2196.88948	47789.95
2199.82001	47613.35
2202.74867	47478.45
2205.67545	47323.25
2208.60037	47112.25
2211.52341	46821.65
2214.44458	46704.45
2217.36388	46482.65
2220.28132	46210.15
2223.1969	45939.35
2226.11061	45767.35
2229.02246	45507.05
2231.93245	45366.05
2234.84058	45170.95
2237.74686	44966.25
2240.65128	44831.85
2243.55385	44649.45
2246.45456	44406.85
2249.35343	44240.45
2252.25044	44094.95
2255.14561	43899.85
2258.03893	43718.75
2260.93041	43507.35
2263.82004	43282.35
2266.70783	43092.95
2269.59378	42783.65
2272.4779	42574.35
2275.36017	42382.65
2278.24061	42208.95
2281.11922	41992.85
2283.996	41767.95
2286.87094	41557.75
2289.74405	41441.95
2292.61534	41199.65
2295.4848	41054.75
2298.35243	40964.35
2301.21824	40797.65
2304.08223	40583.15
2306.94439	40429.15
2309.80474	40308.75
2312.66327	40161.95
2315.51999	39928.75
2318.37489	39782.05
2321.22797	39602.05
2324.07925	39487.75
2326.92871	39304.35
2329.77637	39150.25
2332.62222	38946.05
2335.46626	38684.75
2338.3085	38505.85
2341.14893	38362.75
2343.98756	38232.75
2346.8244	38030.95
2349.65943	37865.45
2352.49267	37740.75
2355.32411	37620.65
2358.15376	37472.65
2360.98161	37291.35
2363.80768	37139.45
2366.63195	37012.25
2369.45444	36871.35
2372.27514	36766.25
2375.09405	36623.25
2377.91118	36446.95
2380.72652	36267.25
2383.54009	36066.35
2386.35187	35951.95
2389.16188	35710.95
2391.97011	35617.35
2394.77657	35459.45
2397.58125	35239.95
2400.38416	35112.05
2403.18529	34928.55
2405.98466	34787.95
2408.78226	34649.05
2411.57809	34504.35
2414.37216	34345.55
2417.16446	34217.25
2419.955	34101.05
2422.74378	33966.65
2425.5308	33834.15
2428.31606	33705.55
2431.09956	33615.15
2433.88131	33439.45
2436.6613	33348.55
2439.43954	33218.45
2442.21603	33061.95
2444.99077	32925.35
2447.76377	32820.55
2450.53501	32605.55
2453.30451	32503.95
2456.07226	32348.45
2458.83827	32219.75
2461.60254	32048.65
2464.36507	31981.15
2467.12586	31846.85
2469.88492	31672.15
2472.64224	31605.85
2475.39782	31495.75
2478.15167	31365.35
2480.90379	31268.55
2483.65417	31205.55
2486.40283	31047.45
2489.14976	30914.35
2491.89497	30809.45
2494.63845	30740.65
2497.3802	30589.05
2500.12024	30470.75
2502.85855	30380.25
2505.59514	30265.45
2508.33002	30160.55
2511.06318	29944.95
2513.79462	29878.75
2516.52435	29730.25
2519.25237	29621.45
2521.97867	29542.45
2524.70327	29439.45
2527.42616	29243.85
2530.14734	29200.35
2532.86681	29019.95
2535.58458	28941.25
2538.30065	28800.85
2541.01501	28710.65
2543.72768	28527.95
2546.43864	28439.05
2549.14791	28334.25
2551.85548	28182.75
2554.56136	28069.55
2557.26554	27935.45
2559.96803	27801.15
2562.66883	27667.95
2565.36794	27532.15
2568.06536	27484.35
2570.7611	27323.75
2573.45514	27184.25
2576.14751	27076.25
2578.83819	26935.15
2581.52719	26803.05
2584.21451	26732.35
2586.90015	26574.05
2589.58411	26481.15
2592.2664	26404.45
2594.94701	26252.05
2597.62594	26188.05
2600.30321	26053.85
2602.9788	25919.85
2605.65273	25824.65
2608.32498	25719.65
2610.99557	25651.15
2613.66449	25518.65
2616.33175	25447.75
2618.99734	25321.85
2621.66128	25200.75
2624.32355	25049.45
2626.98416	24976.85
2629.64311	24851.05
2632.30041	24783.35
2634.95605	24671.55
2637.61004	24561.65
2640.26238	24444.35
2642.91306	24421.55
2645.56209	24263.55
2648.20948	24234.45
2650.85521	24116.65
2653.4993	24078.55
2656.14175	24040.65
2658.78255	23965.75
2661.42171	23864.45
2664.05923	23906.35
2666.6951	23760.05
2669.32934	23743.25
2671.96194	23651.45
2674.59291	23599.75
2677.22224	23485.95
2679.84993	23444.55
2682.476	23372.75
2685.10043	23295.85
2687.72324	23215.35
2690.34441	23152.35
2692.96396	23090.65
2695.58188	23051.15
2698.19818	23009.35
2700.81285	22929.85
2703.4259	22887.05
2706.03733	22808.55
2708.64714	22722.25
2711.25533	22692.45
2713.86191	22620.45
2716.46687	22611.65
2719.07021	22526.35
2721.67194	22519.15
2724.27206	22416.95
2726.87057	22353.15
2729.46747	22284.15
2732.06276	22242.35
2734.65644	22173.15
2737.24852	22114.85
2739.83899	22056.05
2742.42786	21984.65
2745.01513	21921.95
2747.60079	21804.65
2750.18486	21718.35
2752.76733	21638.65
2755.3482	21545.75
2757.92747	21480.95
2760.50515	21376.25
2763.08123	21324.65
2765.65573	21202.85
2768.22863	21159.05
2770.79994	21092.25
2773.36967	21070.25
2775.9378	20971.95
2778.50435	20899.65
2781.06932	20794.55
2783.6327	20753.65
2786.1945	20718.35
2788.75471	20668.55
2791.31335	20530.75
2793.87041	20463.25
2796.42589	20358.05
2798.97979	20285.85
2801.53212	20208.25
2804.08288	20112.25
2806.63206	19994.95
2809.17967	19922.95
2811.72571	19825.85
2814.27018	19733.35
2816.81308	19620.55
2819.35442	19543.25
2821.89419	19451.25
2824.43239	19372.35
2826.96904	19287.05
2829.50412	19245.25
2832.03763	19141.55
2834.56959	19097.95
2837.1	18990.65
2839.62884	18955.35
2842.15613	18909.15
2844.68186	18833.05
2847.20604	18737.95
2849.72867	18696.45
2852.24974	18610.15
2854.76927	18573.15
2857.28724	18494.65
2859.80367	18444.85
2862.31855	18367.75
2864.83189	18300.35
2867.34368	18194.75
2869.85393	18144.05
2872.36264	18050.75
2874.8698	18009.05
2877.37543	17948.45
2879.87952	17877.75
2882.38207	17881.65
2884.88308	17818.45
2887.38256	17785.65
2889.88051	17718.55
2892.37692	17701.65
2894.8718	17643.25
2897.36515	17635.65
2899.85698	17590.75
2902.34727	17577.15
2904.83604	17505.95
2907.32328	17478.35
2909.809	17427.75
2912.29319	17392.65
2914.77587	17354.95
2917.25702	17326.75
2919.73665	17309.65
2922.21476	17250.65
2924.69136	17190.55
2927.16644	17172.65
2929.64	17127.95
2932.11205	17049.85
2934.58258	16972.35
2937.05161	16937.55
2939.51912	16909.25
2941.98513	16876.45
2944.44962	16788.55
2946.91261	16714.35
2949.37409	16768.25
2951.83407	16676.55
2954.29254	16656.65
2956.74951	16599.55
2959.20498	16575.45
2961.65895	16531.25
2964.11142	16494.55
2966.56239	16467.15
2969.01186	16461.65
2971.45984	16389.05
2973.90632	16361.35
2976.35131	16299.55
2978.7948	16261.65
2981.23681	16186.85
2983.67732	16121.85
2986.11635	16084.45
2988.55388	16005.15
2990.98993	15964.25
2993.4245	15915.45
2995.85758	15852.25
2998.28917	15800.75
3000.71928	15759.25
3003.14791	15657.65
3005.57506	15645.45
3008.00073	15545.65
3010.42493	15461.85
3012.84764	15419.15
3015.26888	15394.35
3017.68865	15329.25
3020.10694	15278.15
3022.52376	15185.45
3024.9391	15180.15
3027.35298	15112.65
3029.76539	15089.25
3032.17632	15046.85
3034.5858	14963.95
3036.9938	14930.85
3039.40034	14839.65
3041.80542	14803.25
3044.20903	14729.05
3046.61118	14679.55
3049.01187	14639.25
3051.4111	14559.95
3053.80888	14552.25
3056.20519	14441.25
3058.60005	14389.45
3060.99345	14349.95
3063.3854	14255.75
3065.7759	14169.55
3068.16494	14117.15
3070.55254	14054.35
3072.93868	14011.25
3075.32338	13965.75
3077.70662	13902.85
3080.08842	13825.55
3082.46878	13766.15
3084.84769	13702.95
3087.22515	13653.25
3089.60118	13629.15
3091.97576	13614.95
3094.3489	13585.35
3096.72061	13559.15
3099.09087	13506.15
3101.4597	13477.25
3103.82709	13441.15
3106.19305	13396.95
3108.55757	13365.65
3110.92066	13318.75
3113.28232	13262.55
3115.64255	13160.35
3118.00134	13150.55
3120.35871	13063.15
3122.71466	13017.65
3125.06917	12969.15
3127.42226	12888.85
3129.77393	12844.45
3132.12417	12805.35
3134.47299	12801.95
3136.82039	12708.55
3139.16636	12660.15
3141.51092	12626.45
3143.85406	12614.15
3146.19579	12551.15
3148.53609	12530.45
3150.87499	12513.85
3153.21246	12461.05
3155.54853	12447.95
3157.88318	12410.85
3160.21642	12396.45
3162.54826	12364.15
3164.87868	12330.05
3167.2077	12296.35
3169.5353	12280.15
3171.86151	12215.35
3174.18631	12181.75
3176.5097	12143.05
3178.83169	12089.75
3181.15228	12070.85
3183.47147	11976.25
3185.78926	11921.15
3188.10565	11914.95
3190.42065	11858.85
3192.73424	11792.05
3195.04645	11746.45
3197.35725	11717.45
3199.66667	11662.55
3201.97469	11622.75
3204.28132	11571.65
3206.58656	11559.35
3208.8904	11534.15
3211.19287	11524.25
3213.49394	11482.65
3215.79363	11418.25
3218.09193	11429.05
3220.38884	11378.05
3222.68438	11360.05
3224.97853	11308.45
3227.2713	11296.75
3229.56269	11244.45
3231.8527	11220.45
3234.14133	11142.95
3236.42858	11112.75
3238.71446	11078.45
3240.99896	11002.75
3243.28209	10923.95
3245.56384	10893.15
3247.84423	10885.15
3250.12324	10836.55
3252.40088	10828.05
3254.67715	10796.35
3256.95205	10756.05
3259.22558	10725.85
3261.49775	10712.25
3263.76855	10677.45
3266.03799	10640.85
3268.30606	10607.75
3270.57277	10568.45
3272.83812	10502.55
3275.10211	10488.95
3277.36474	10434.65
3279.62601	10389.95
3281.88593	10327.75
3284.14448	10273.15
3286.40168	10269.05
3288.65753	10207.15
3290.91202	10178.45
3293.16516	10122.65
3295.41695	10112.15
3297.66738	10019.55
3299.91647	9943.15
3302.16421	9830.45
3304.4106	9777.25
3306.65564	9673.55
3308.89933	9581.85
3311.14169	9503.05
3313.38269	9391.75
3315.62236	9306.85
3317.86068	9189.85
3320.09766	9125.35
3322.3333	9003.75
3324.5676	8955.95
3326.80056	8797.05
3329.03219	8694.55
3331.26248	3.65
3333.49143	1.15
3335.71905	0.25
