Data from AgNPs_FTO_APTES_UA_1uM_CRN_1000uM_R6G_10uM_NaF_0.1M_Addition_RamanShift__15__18-51-09-934.txt Node

Date: Thu Jan 27 18:51:09 GMT 2022
User: TCL
Spectrometer: QEP01345
Trigger mode: 4
Integration Time (sec): 7.000000E0
Scans to average: 10
Electric dark correction enabled: true
Nonlinearity correction enabled: false
Boxcar width: 0
XAxis mode: Raman Shifts
Number of Pixels in Spectrum: 1044
>>>>>Begin Spectral Data<<<<<
46.04893	-0.75
50.45542	-0.25
54.85868	-0.25
59.25871	-0.75
63.6555	44.65
68.04907	45.85
72.43941	47.85
76.82654	49.85
81.21044	52.15
85.59113	52.15
89.96862	56.45
94.34289	60.25
98.71396	65.55
103.08183	61.85
107.4465	65.65
111.80798	69.25
116.16626	69.45
120.52136	74.65
124.87327	72.65
129.222	74.85
133.56755	75.75
137.90993	81.15
142.24913	88.75
146.58517	96.35
150.91804	110.85
155.24774	129.45
159.57429	155.65
163.89768	198.25
168.21792	260.75
172.53501	349.95
176.84895	477.65
181.15975	670.05
185.46741	941.05
189.77193	1301.15
194.07331	1754.55
198.37157	2270.85
202.6667	2824.95
206.9587	3360.95
211.24758	3921.05
215.53334	4448.55
219.81599	5028.95
224.09553	5653.15
228.37195	6316.85
232.64527	7057.65
236.91549	7818.05
241.18261	8563.75
245.44663	9272.85
249.70755	9872.25
253.96539	10405.35
258.22014	10815.75
262.4718	11163.85
266.72039	11402.35
270.96589	11531.65
275.20832	11532.35
279.44768	11413.05
283.68397	11228.15
287.91719	11104.45
292.14735	10992.05
296.37445	11003.85
300.59849	11051.75
304.81948	11159.75
309.03742	11174.05
313.25231	11078.15
317.46415	10814.35
321.67296	10436.15
325.87872	10146.05
330.08145	10005.75
334.28114	9980.55
338.47781	10060.15
342.67145	10186.95
346.86207	10387.55
351.04966	10647.05
355.23424	10915.15
359.4158	11142.45
363.59435	11320.85
367.76989	11450.05
371.94243	11461.35
376.11196	11519.35
380.27849	11615.15
384.44203	11626.25
388.60257	11670.25
392.76012	11697.35
396.91468	11777.55
401.06626	11930.15
405.21485	12080.75
409.36047	12028.15
413.50311	11734.55
417.64277	11545.25
421.77947	11436.95
425.9132	11427.35
430.04396	11422.95
434.17176	11502.05
438.2966	11551.05
442.41849	11662.35
446.53742	11891.45
450.6534	12122.05
454.76644	12286.35
458.87653	12313.35
462.98368	12329.65
467.08789	12248.85
471.18916	12146.35
475.2875	12030.75
479.38291	11928.15
483.4754	11864.55
487.56496	11740.15
491.6516	11630.85
495.73531	11608.75
499.81612	11583.75
503.89401	11650.45
507.96899	11734.95
512.04106	11773.65
516.11023	11820.35
520.1765	11801.75
524.23987	11734.35
528.30034	11623.85
532.35792	11506.65
536.41261	11380.95
540.46441	11301.75
544.51333	11228.65
548.55936	11296.15
552.60252	11441.75
556.64279	11659.95
560.6802	11822.75
564.71473	11804.45
568.7464	11957.25
572.7752	12182.25
576.80114	12300.15
580.82422	12354.05
584.84444	12457.95
588.86181	12582.35
592.87633	12685.05
596.888	12639.85
600.89682	12617.15
604.9028	13008.55
608.90594	14342.35
612.90624	16035.65
616.90371	15616.65
620.89834	12978.55
624.89015	11655.55
628.87913	11416.65
632.86528	11503.85
636.84862	11611.35
640.82913	11596.95
644.80683	11403.35
648.78172	11220.95
652.75379	11199.85
656.72306	11287.05
660.68952	11509.25
664.65319	11481.45
668.61405	11349.15
672.57211	11374.95
676.52738	11549.45
680.47986	11693.75
684.42955	11676.45
688.37646	11511.65
692.32058	11352.35
696.26192	11312.35
700.20048	11303.45
704.13626	11358.15
708.06928	11305.75
711.99952	11251.05
715.927	11207.15
719.85171	11195.85
723.77365	11224.55
727.69284	11129.25
731.60928	11103.75
735.52295	11032.95
739.43388	11020.95
743.34206	11027.55
747.24749	11076.05
751.15017	11129.85
755.05012	11211.75
758.94733	11428.05
762.8418	11914.65
766.73354	12779.05
770.62254	13868.45
774.50882	14361.75
778.39237	13998.25
782.27321	12925.95
786.15132	11942.85
790.02671	11322.85
793.89938	11026.85
797.76935	10905.15
801.6366	10866.75
805.50115	10821.25
809.36299	10769.25
813.22213	10723.55
817.07857	10638.25
820.93231	10614.95
824.78336	10595.45
828.63172	10584.45
832.47738	10580.45
836.32036	10575.95
840.16066	10559.75
843.99827	10539.45
847.8332	10543.85
851.66546	10517.05
855.49504	10523.95
859.32195	10574.65
863.1462	10576.35
866.96777	10585.25
870.78668	10550.95
874.60293	10560.85
878.41652	10558.15
882.22745	10562.85
886.03573	10596.35
889.84136	10618.45
893.64433	10594.25
897.44466	10526.95
901.24235	10507.85
905.0374	10439.45
908.8298	10372.15
912.61957	10364.95
916.40671	10383.85
920.19121	10457.55
923.97308	10546.25
927.75233	10620.15
931.52895	10649.15
935.30295	10561.95
939.07433	10410.95
942.84309	10226.15
946.60924	10141.25
950.37278	10059.25
954.13371	9996.05
957.89203	9960.55
961.64774	9958.25
965.40086	9923.05
969.15137	9908.75
972.89929	9866.15
976.64461	9820.25
980.38733	9793.05
984.12747	9807.55
987.86502	9842.95
991.59999	9872.65
995.33237	9972.95
999.06217	10067.95
1002.78939	10235.95
1006.51404	10318.55
1010.23611	10414.75
1013.95561	10491.85
1017.67255	10555.35
1021.38692	10527.05
1025.09872	10409.55
1028.80796	10352.25
1032.51465	10385.95
1036.21877	10447.55
1039.92035	10499.05
1043.61937	10510.05
1047.31584	10491.85
1051.00976	10468.55
1054.70114	10472.95
1058.38998	10484.55
1062.07627	10541.15
1065.76003	10577.95
1069.44126	10640.15
1073.11995	10794.75
1076.79611	10921.05
1080.46974	10969.15
1084.14085	10955.55
1087.80943	10969.35
1091.47549	11017.25
1095.13903	11008.15
1098.80005	10884.75
1102.45857	10680.05
1106.11456	10535.45
1109.76805	10477.95
1113.41903	10558.95
1117.06751	10631.15
1120.71348	10809.85
1124.35696	11017.25
1127.99793	11232.25
1131.63641	11363.55
1135.2724	11205.05
1138.90589	10962.65
1142.5369	10823.55
1146.16542	10740.05
1149.79145	10674.05
1153.415	10661.85
1157.03607	10737.25
1160.65467	10916.05
1164.27079	11234.45
1167.88443	11686.85
1171.49561	12268.05
1175.10432	13069.05
1178.71056	14093.15
1182.31434	15078.15
1185.91565	15533.25
1189.51451	15503.85
1193.11091	15048.05
1196.70485	14363.05
1200.29634	13744.35
1203.88538	13230.55
1207.47197	12766.15
1211.05612	12363.65
1214.63782	12078.75
1218.21708	11920.15
1221.79391	11839.45
1225.36829	11800.65
1228.94024	11753.55
1232.50976	11647.95
1236.07685	11548.85
1239.6415	11460.15
1243.20374	11433.35
1246.76355	11497.65
1250.32093	11568.15
1253.8759	11697.25
1257.42845	11916.45
1260.97859	12167.85
1264.52631	12445.95
1268.07163	12717.65
1271.61453	13002.95
1275.15503	13261.35
1278.69312	13494.15
1282.22882	13710.25
1285.76211	13917.55
1289.29301	14247.95
1292.82151	14683.95
1296.34761	15174.85
1299.87133	15840.95
1303.39266	16717.95
1306.9116	17739.25
1310.42815	18776.35
1313.94233	19464.45
1317.45412	19356.55
1320.96354	18758.65
1324.47058	18024.15
1327.97525	17441.95
1331.47754	17011.35
1334.97747	16812.95
1338.47502	16755.75
1341.97022	16754.65
1345.46305	16894.25
1348.95352	17200.75
1352.44163	17646.85
1355.92738	18366.55
1359.41078	19399.75
1362.89183	20558.85
1366.37053	20555.95
1369.84688	18741.95
1373.32088	16460.35
1376.79254	14862.75
1380.26186	14068.25
1383.72883	13699.55
1387.19347	13495.45
1390.65578	13276.85
1394.11575	13142.25
1397.57339	13109.65
1401.0287	13181.85
1404.48168	13322.15
1407.93234	13313.05
1411.38068	13214.45
1414.82669	13046.25
1418.27039	12773.05
1421.71177	12476.45
1425.15083	12229.85
1428.58758	12034.55
1432.02203	12018.45
1435.45416	12149.95
1438.88399	12351.55
1442.31151	12496.45
1445.73673	12568.75
1449.15965	12701.05
1452.58027	12763.35
1455.9986	12830.35
1459.41463	12897.85
1462.82837	13038.75
1466.23982	13191.45
1469.64898	13368.15
1473.05586	13487.25
1476.46045	13544.75
1479.86276	13497.55
1483.26279	13525.15
1486.66054	13575.15
1490.05602	13665.75
1493.44922	13899.25
1496.84016	14291.75
1500.22882	14911.05
1503.61521	15877.55
1506.99934	17023.55
1510.38121	18002.55
1513.76081	18374.15
1517.13816	17751.15
1520.51324	16468.25
1523.88607	15199.45
1527.25665	14370.55
1530.62498	13949.55
1533.99105	13677.05
1537.35488	13507.35
1540.71647	13317.75
1544.07581	13167.85
1547.4329	13017.75
1550.78776	12872.95
1554.14038	12782.15
1557.49077	12785.95
1560.83892	12814.95
1564.18484	12908.25
1567.52853	13078.05
1570.86999	13293.85
1574.20922	13549.65
1577.54624	13697.25
1580.88103	13559.85
1584.2136	13221.35
1587.54395	13031.25
1590.87208	13156.15
1594.19801	13562.85
1597.52172	14213.35
1600.84321	14555.65
1604.16251	14290.95
1607.47959	13604.85
1610.79447	12822.25
1614.10715	12022.35
1617.41763	11292.35
1620.7259	10744.05
1624.03199	10435.05
1627.33587	10344.75
1630.63757	10448.25
1633.93707	10810.75
1637.23439	11434.05
1640.52951	12443.25
1643.82246	13701.85
1647.11321	15005.35
1650.40179	15757.85
1653.68819	15337.15
1656.97241	13826.45
1660.25446	12121.15
1663.53433	10799.45
1666.81203	10023.25
1670.08756	9531.15
1673.36092	9220.75
1676.63211	9049.05
1679.90115	8928.35
1683.16801	8796.55
1686.43272	8709.95
1689.69527	8642.45
1692.95567	8549.95
1696.2139	8496.35
1699.46999	8439.15
1702.72392	8392.55
1705.97571	8391.85
1709.22535	8402.45
1712.47284	8423.65
1715.71819	8415.65
1718.96139	8397.95
1722.20246	8382.45
1725.44139	8357.55
1728.67818	8332.25
1731.91284	8275.25
1735.14537	8235.35
1738.37576	8226.35
1741.60403	8231.55
1744.83017	8236.15
1748.05418	8234.75
1751.27607	8234.05
1754.49584	8249.25
1757.71349	8268.05
1760.92903	8201.75
1764.14244	8181.95
1767.35375	8109.95
1770.56294	8031.85
1773.77002	7997.85
1776.97499	7936.35
1780.17785	7940.65
1783.37861	7921.45
1786.57727	7896.55
1789.77382	7861.25
1792.96828	7840.45
1796.16064	7817.75
1799.3509	7765.05
1802.53907	7744.25
1805.72514	7722.45
1808.90913	7686.45
1812.09102	7676.95
1815.27083	7666.95
1818.44856	7646.25
1821.6242	7630.45
1824.79776	7610.85
1827.96924	7589.55
1831.13864	7591.45
1834.30597	7583.55
1837.47122	7561.65
1840.6344	7570.45
1843.7955	7560.35
1846.95454	7558.05
1850.11151	7542.25
1853.26642	7530.65
1856.41926	7533.75
1859.57004	7538.05
1862.71876	7530.35
1865.86542	7533.65
1869.01003	7503.45
1872.15258	7499.45
1875.29308	7498.35
1878.43152	7494.35
1881.56792	7457.85
1884.70227	7476.05
1887.83457	7455.85
1890.96482	7446.75
1894.09304	7406.75
1897.21921	7404.35
1900.34335	7399.85
1903.46544	7394.45
1906.58551	7372.35
1909.70353	7351.05
1912.81953	7350.45
1915.93349	7354.25
1919.04543	7321.95
1922.15534	7338.85
1925.26322	7309.15
1928.36908	7280.85
1931.47292	7259.75
1934.57473	7237.35
1937.67453	7227.45
1940.77232	7204.45
1943.86808	7195.45
1946.96184	7178.65
1950.05358	7147.35
1953.14331	7111.45
1956.23103	7086.15
1959.31675	7087.95
1962.40046	7047.25
1965.48217	7030.55
1968.56188	7003.85
1971.63959	7005.55
1974.7153	6976.45
1977.78901	6955.05
1980.86073	6928.75
1983.93046	6925.95
1986.99819	6895.75
1990.06394	6872.25
1993.1277	6855.25
1996.18947	6821.35
1999.24925	6804.45
2002.30706	6795.75
2005.36288	6763.05
2008.41672	6762.25
2011.46859	6724.35
2014.51848	6720.55
2017.56639	6693.25
2020.61233	6663.35
2023.6563	6652.55
2026.6983	6641.55
2029.73833	6638.15
2032.7764	6612.45
2035.8125	6593.45
2038.84664	6565.85
2041.87881	6558.55
2044.90903	6542.35
2047.93729	6535.25
2050.96359	6520.85
2053.98794	6508.25
2057.01034	6487.25
2060.03078	6500.65
2063.04927	6503.95
2066.06582	6478.55
2069.08042	6467.45
2072.09307	6478.65
2075.10378	6474.25
2078.11255	6470.75
2081.11938	6469.95
2084.12426	6465.95
2087.12722	6449.35
2090.12824	6450.85
2093.12732	6447.15
2096.12447	6432.25
2099.11969	6453.85
2102.11299	6448.35
2105.10435	6458.55
2108.09379	6459.55
2111.08131	6445.85
2114.0669	6445.25
2117.05057	6462.65
2120.03233	6483.75
2123.01216	6468.95
2125.99008	6477.45
2128.96609	6485.15
2131.94018	6471.75
2134.91236	6482.45
2137.88263	6501.75
2140.851	6475.05
2143.81746	6480.85
2146.78201	6512.85
2149.74466	6473.35
2152.7054	6472.25
2155.66425	6472.25
2158.6212	6473.65
2161.57625	6475.65
2164.52941	6466.55
2167.48067	6469.35
2170.43004	6476.35
2173.37752	6454.35
2176.32311	6455.85
2179.26681	6456.65
2182.20863	6441.05
2185.14856	6452.75
2188.08661	6463.95
2191.02278	6445.55
2193.95707	6440.75
2196.88948	6442.15
2199.82001	6419.85
2202.74867	6408.65
2205.67545	6417.05
2208.60037	6400.85
2211.52341	6386.35
2214.44458	6375.35
2217.36388	6363.15
2220.28132	6364.85
2223.1969	6357.45
2226.11061	6319.05
2229.02246	6324.75
2231.93245	6301.05
2234.84058	6300.05
2237.74686	6271.15
2240.65128	6289.65
2243.55385	6264.35
2246.45456	6256.25
2249.35343	6239.05
2252.25044	6244.45
2255.14561	6218.95
2258.03893	6209.35
2260.93041	6198.85
2263.82004	6175.25
2266.70783	6173.15
2269.59378	6161.15
2272.4779	6145.35
2275.36017	6144.85
2278.24061	6136.35
2281.11922	6104.15
2283.996	6109.35
2286.87094	6088.15
2289.74405	6084.55
2292.61534	6075.65
2295.4848	6042.25
2298.35243	6048.35
2301.21824	6059.55
2304.08223	6055.35
2306.94439	6040.45
2309.80474	6046.65
2312.66327	6044.65
2315.51999	6029.95
2318.37489	6007.45
2321.22797	6010.35
2324.07925	6021.25
2326.92871	6002.35
2329.77637	6001.05
2332.62222	5977.15
2335.46626	5972.05
2338.3085	5975.95
2341.14893	5957.35
2343.98756	5962.15
2346.8244	5939.45
2349.65943	5952.35
2352.49267	5920.75
2355.32411	5950.95
2358.15376	5950.25
2360.98161	5943.85
2363.80768	5930.35
2366.63195	5938.85
2369.45444	5937.75
2372.27514	5923.95
2375.09405	5917.65
2377.91118	5901.85
2380.72652	5880.15
2383.54009	5864.15
2386.35187	5861.85
2389.16188	5833.55
2391.97011	5827.15
2394.77657	5812.35
2397.58125	5797.45
2400.38416	5800.35
2403.18529	5778.85
2405.98466	5783.65
2408.78226	5756.55
2411.57809	5751.95
2414.37216	5737.95
2417.16446	5747.85
2419.955	5710.25
2422.74378	5724.05
2425.5308	5718.45
2428.31606	5725.45
2431.09956	5704.75
2433.88131	5689.75
2436.6613	5702.35
2439.43954	5703.25
2442.21603	5691.65
2444.99077	5676.45
2447.76377	5696.35
2450.53501	5669.95
2453.30451	5685.35
2456.07226	5670.35
2458.83827	5661.95
2461.60254	5638.25
2464.36507	5663.55
2467.12586	5649.85
2469.88492	5648.05
2472.64224	5634.15
2475.39782	5631.25
2478.15167	5632.05
2480.90379	5626.95
2483.65417	5629.05
2486.40283	5617.55
2489.14976	5620.95
2491.89497	5640.25
2494.63845	5617.25
2497.3802	5607.35
2500.12024	5634.45
2502.85855	5601.45
2505.59514	5610.85
2508.33002	5605.95
2511.06318	5583.35
2513.79462	5581.35
2516.52435	5563.95
2519.25237	5566.75
2521.97867	5551.35
2524.70327	5531.65
2527.42616	5536.85
2530.14734	5524.05
2532.86681	5519.75
2535.58458	5529.95
2538.30065	5497.35
2541.01501	5503.55
2543.72768	5486.45
2546.43864	5492.55
2549.14791	5479.45
2551.85548	5469.65
2554.56136	5434.25
2557.26554	5433.25
2559.96803	5432.15
2562.66883	5434.45
2565.36794	5424.65
2568.06536	5417.15
2570.7611	5417.85
2573.45514	5404.95
2576.14751	5386.95
2578.83819	5377.25
2581.52719	5383.85
2584.21451	5367.25
2586.90015	5354.55
2589.58411	5341.75
2592.2664	5355.25
2594.94701	5332.85
2597.62594	5316.05
2600.30321	5321.15
2602.9788	5298.95
2605.65273	5308.35
2608.32498	5298.05
2610.99557	5288.35
2613.66449	5285.65
2616.33175	5290.95
2618.99734	5277.95
2621.66128	5283.95
2624.32355	5252.75
2626.98416	5253.05
2629.64311	5272.65
2632.30041	5252.15
2634.95605	5220.25
2637.61004	5222.05
2640.26238	5220.05
2642.91306	5223.45
2645.56209	5203.05
2648.20948	5205.65
2650.85521	5212.65
2653.4993	5219.15
2656.14175	5206.65
2658.78255	5225.85
2661.42171	5222.65
2664.05923	5228.35
2666.6951	5221.35
2669.32934	5221.05
2671.96194	5210.35
2674.59291	5199.15
2677.22224	5220.05
2679.84993	5196.65
2682.476	5212.45
2685.10043	5200.45
2687.72324	5191.05
2690.34441	5197.75
2692.96396	5201.95
2695.58188	5198.25
2698.19818	5204.05
2700.81285	5183.75
2703.4259	5188.05
2706.03733	5169.95
2708.64714	5152.75
2711.25533	5171.45
2713.86191	5170.05
2716.46687	5193.05
2719.07021	5192.45
2721.67194	5200.95
2724.27206	5201.85
2726.87057	5209.75
2729.46747	5208.35
2732.06276	5208.45
2734.65644	5193.55
2737.24852	5197.15
2739.83899	5179.25
2742.42786	5181.95
2745.01513	5162.15
2747.60079	5159.35
2750.18486	5170.95
2752.76733	5154.55
2755.3482	5139.35
2757.92747	5156.75
2760.50515	5138.15
2763.08123	5136.45
2765.65573	5129.55
2768.22863	5128.95
2770.79994	5127.15
2773.36967	5123.65
2775.9378	5121.75
2778.50435	5115.55
2781.06932	5102.05
2783.6327	5114.65
2786.1945	5076.85
2788.75471	5090.15
2791.31335	5066.25
2793.87041	5062.45
2796.42589	5070.65
2798.97979	5065.85
2801.53212	5064.75
2804.08288	5051.45
2806.63206	5033.75
2809.17967	5038.35
2811.72571	5016.05
2814.27018	5016.75
2816.81308	5003.75
2819.35442	5005.75
2821.89419	5012.65
2824.43239	5012.85
2826.96904	4998.65
2829.50412	4993.95
2832.03763	4991.75
2834.56959	4998.45
2837.1	4999.25
2839.62884	5017.55
2842.15613	5025.75
2844.68186	5057.85
2847.20604	5077.55
2849.72867	5103.35
2852.24974	5102.45
2854.76927	5102.45
2857.28724	5071.65
2859.80367	5071.35
2862.31855	5085.65
2864.83189	5068.65
2867.34368	5049.65
2869.85393	5058.95
2872.36264	5065.05
2874.8698	5059.15
2877.37543	5069.65
2879.87952	5067.65
2882.38207	5059.55
2884.88308	5069.25
2887.38256	5069.95
2889.88051	5046.45
2892.37692	5067.05
2894.8718	5079.65
2897.36515	5097.95
2899.85698	5116.55
2902.34727	5105.95
2904.83604	5130.65
2907.32328	5162.25
2909.809	5135.45
2912.29319	5162.15
2914.77587	5149.15
2917.25702	5148.35
2919.73665	5152.35
2922.21476	5167.15
2924.69136	5175.05
2927.16644	5174.65
2929.64	5178.65
2932.11205	5176.95
2934.58258	5161.75
2937.05161	5164.05
2939.51912	5155.95
2941.98513	5176.45
2944.44962	5133.25
2946.91261	5130.65
2949.37409	5113.75
2951.83407	5111.95
2954.29254	5100.05
2956.74951	5067.65
2959.20498	5075.45
2961.65895	5050.15
2964.11142	5038.85
2966.56239	5005.95
2969.01186	5007.05
2971.45984	4979.95
2973.90632	4966.55
2976.35131	4935.95
2978.7948	4930.15
2981.23681	4910.25
2983.67732	4915.95
2986.11635	4891.05
2988.55388	4873.25
2990.98993	4855.85
2993.4245	4841.75
2995.85758	4829.05
2998.28917	4823.85
3000.71928	4819.25
3003.14791	4810.65
3005.57506	4793.15
3008.00073	4796.05
3010.42493	4765.75
3012.84764	4767.55
3015.26888	4787.35
3017.68865	4771.65
3020.10694	4756.25
3022.52376	4750.75
3024.9391	4739.15
3027.35298	4742.35
3029.76539	4715.45
3032.17632	4719.95
3034.5858	4706.85
3036.9938	4688.85
3039.40034	4689.65
3041.80542	4678.45
3044.20903	4678.35
3046.61118	4680.35
3049.01187	4670.15
3051.4111	4681.15
3053.80888	4663.15
3056.20519	4659.75
3058.60005	4630.75
3060.99345	4620.95
3063.3854	4636.45
3065.7759	4612.25
3068.16494	4616.85
3070.55254	4596.95
3072.93868	4597.05
3075.32338	4591.55
3077.70662	4585.15
3080.08842	4576.15
3082.46878	4586.35
3084.84769	4569.25
3087.22515	4573.05
3089.60118	4579.05
3091.97576	4582.15
3094.3489	4584.55
3096.72061	4583.95
3099.09087	4600.65
3101.4597	4599.65
3103.82709	4595.55
3106.19305	4584.05
3108.55757	4604.05
3110.92066	4592.95
3113.28232	4573.95
3115.64255	4574.05
3118.00134	4563.35
3120.35871	4579.95
3122.71466	4558.25
3125.06917	4559.55
3127.42226	4558.05
3129.77393	4575.15
3132.12417	4564.55
3134.47299	4554.35
3136.82039	4573.95
3139.16636	4577.95
3141.51092	4589.65
3143.85406	4573.35
3146.19579	4596.85
3148.53609	4591.05
3150.87499	4599.05
3153.21246	4606.55
3155.54853	4636.35
3157.88318	4632.75
3160.21642	4640.75
3162.54826	4639.65
3164.87868	4645.95
3167.2077	4644.35
3169.5353	4657.85
3171.86151	4656.15
3174.18631	4638.35
3176.5097	4656.45
3178.83169	4642.15
3181.15228	4652.95
3183.47147	4647.25
3185.78926	4650.25
3188.10565	4646.05
3190.42065	4656.65
3192.73424	4651.15
3195.04645	4648.15
3197.35725	4647.75
3199.66667	4653.55
3201.97469	4651.35
3204.28132	4671.25
3206.58656	4671.65
3208.8904	4673.25
3211.19287	4689.75
3213.49394	4693.85
3215.79363	4703.45
3218.09193	4698.55
3220.38884	4700.15
3222.68438	4693.35
3224.97853	4699.35
3227.2713	4707.45
3229.56269	4698.05
3231.8527	4708.05
3234.14133	4692.85
3236.42858	4687.55
3238.71446	4683.25
3240.99896	4688.45
3243.28209	4664.45
3245.56384	4676.15
3247.84423	4664.15
3250.12324	4654.75
3252.40088	4666.45
3254.67715	4651.85
3256.95205	4681.05
3259.22558	4664.05
3261.49775	4646.95
3263.76855	4647.25
3266.03799	4631.75
3268.30606	4637.05
3270.57277	4638.05
3272.83812	4625.25
3275.10211	4623.45
3277.36474	4611.95
3279.62601	4613.85
3281.88593	4612.35
3284.14448	4605.05
3286.40168	4621.05
3288.65753	4623.95
3290.91202	4594.55
3293.16516	4601.85
3295.41695	4601.25
3297.66738	4569.25
3299.91647	4555.05
3302.16421	4525.45
3304.4106	4502.15
3306.65564	4490.95
3308.89933	4455.45
3311.14169	4446.45
3313.38269	4407.25
3315.62236	4381.25
3317.86068	4354.65
3320.09766	4309.45
3322.3333	4279.45
3324.5676	4268.45
3326.80056	4198.05
3329.03219	4178.25
3331.26248	1.65
3333.49143	0.65
3335.71905	-0.65
