Data from AgNPs_FTO_APTES_UA_1uM_CRN_200uM_R6G_10uM_NaF_0.1M_Addition_RamanShift__4__17-09-39-818.txt Node

Date: Thu Jan 27 17:09:39 GMT 2022
User: TCL
Spectrometer: QEP01345
Trigger mode: 4
Integration Time (sec): 7.000000E0
Scans to average: 10
Electric dark correction enabled: true
Nonlinearity correction enabled: false
Boxcar width: 0
XAxis mode: Raman Shifts
Number of Pixels in Spectrum: 1044
>>>>>Begin Spectral Data<<<<<
46.04893	1.05
50.45542	0.85
54.85868	-1.45
59.25871	-0.95
63.6555	40.65
68.04907	44.55
72.43941	44.85
76.82654	51.35
81.21044	51.65
85.59113	51.15
89.96862	56.25
94.34289	54.65
98.71396	57.35
103.08183	58.25
107.4465	62.85
111.80798	64.95
116.16626	61.15
120.52136	67.95
124.87327	68.65
129.222	66.55
133.56755	72.15
137.90993	69.05
142.24913	78.35
146.58517	85.35
150.91804	98.05
155.24774	108.15
159.57429	124.05
163.89768	162.45
168.21792	211.35
172.53501	285.95
176.84895	383.25
181.15975	535.65
185.46741	746.85
189.77193	1022.85
194.07331	1381.75
198.37157	1777.75
202.6667	2189.85
206.9587	2615.65
211.24758	3023.85
215.53334	3432.45
219.81599	3868.65
224.09553	4347.85
228.37195	4875.85
232.64527	5435.25
236.91549	6061.05
241.18261	6667.95
245.44663	7242.15
249.70755	7768.65
253.96539	8217.25
258.22014	8577.25
262.4718	8864.35
266.72039	9040.95
270.96589	9142.95
275.20832	9089.65
279.44768	8983.85
283.68397	8869.45
287.91719	8726.85
292.14735	8632.75
296.37445	8591.25
300.59849	8598.95
304.81948	8662.35
309.03742	8708.25
313.25231	8666.25
317.46415	8524.65
321.67296	8343.15
325.87872	8154.15
330.08145	8096.05
334.28114	8058.15
338.47781	8139.35
342.67145	8222.05
346.86207	8385.25
351.04966	8542.95
355.23424	8704.95
359.4158	8809.55
363.59435	8893.55
367.76989	8974.45
371.94243	9032.55
376.11196	9071.95
380.27849	9135.75
384.44203	9180.75
388.60257	9224.55
392.76012	9303.85
396.91468	9405.25
401.06626	9545.15
405.21485	9656.05
409.36047	9655.25
413.50311	9528.85
417.64277	9413.55
421.77947	9328.05
425.9132	9336.65
430.04396	9368.65
434.17176	9396.35
438.2966	9428.05
442.41849	9539.25
446.53742	9741.55
450.6534	9922.25
454.76644	10072.95
458.87653	10050.35
462.98368	9966.35
467.08789	9861.05
471.18916	9723.75
475.2875	9588.75
479.38291	9517.65
483.4754	9446.75
487.56496	9344.15
491.6516	9306.15
495.73531	9279.45
499.81612	9307.95
503.89401	9355.55
507.96899	9385.55
512.04106	9364.75
516.11023	9352.45
520.1765	9353.65
524.23987	9343.65
528.30034	9317.05
532.35792	9259.75
536.41261	9145.55
540.46441	9032.55
544.51333	8990.75
548.55936	9046.15
552.60252	9184.45
556.64279	9362.95
560.6802	9449.35
564.71473	9447.35
568.7464	9497.65
572.7752	9601.45
576.80114	9743.95
580.82422	9915.35
584.84444	10231.15
588.86181	10658.95
592.87633	11019.15
596.888	11029.15
600.89682	10716.45
604.9028	10630.85
608.90594	11411.35
612.90624	12437.75
616.90371	12056.15
620.89834	10272.35
624.89015	9415.65
628.87913	9285.95
632.86528	9328.95
636.84862	9360.35
640.82913	9260.75
644.80683	9083.85
648.78172	8995.55
652.75379	8966.15
656.72306	9060.05
660.68952	9166.65
664.65319	9149.35
668.61405	8997.15
672.57211	8979.85
676.52738	9017.95
680.47986	9033.35
684.42955	8982.75
688.37646	8944.45
692.32058	8922.95
696.26192	9008.55
700.20048	9065.65
704.13626	9127.65
708.06928	9097.75
711.99952	9093.35
715.927	9076.55
719.85171	9100.05
723.77365	9082.35
727.69284	9031.85
731.60928	8965.25
735.52295	8927.95
739.43388	8932.75
743.34206	8965.05
747.24749	8995.05
751.15017	9040.05
755.05012	9120.75
758.94733	9297.75
762.8418	9638.35
766.73354	10247.95
770.62254	10964.35
774.50882	11317.75
778.39237	11040.25
782.27321	10307.55
786.15132	9650.25
790.02671	9227.05
793.89938	9058.45
797.76935	9001.95
801.6366	8974.25
805.50115	8900.65
809.36299	8858.65
813.22213	8831.55
817.07857	8793.55
820.93231	8755.95
824.78336	8735.65
828.63172	8750.65
832.47738	8767.15
836.32036	8808.95
840.16066	8817.85
843.99827	8839.55
847.8332	8814.95
851.66546	8771.45
855.49504	8768.45
859.32195	8746.05
863.1462	8740.25
866.96777	8744.85
870.78668	8730.45
874.60293	8733.35
878.41652	8702.15
882.22745	8751.15
886.03573	8801.75
889.84136	8790.85
893.64433	8793.75
897.44466	8746.35
901.24235	8722.45
905.0374	8683.85
908.8298	8638.15
912.61957	8666.45
916.40671	8702.55
920.19121	8777.65
923.97308	8873.85
927.75233	8942.55
931.52895	8935.35
935.30295	8897.95
939.07433	8731.75
942.84309	8597.45
946.60924	8539.75
950.37278	8492.55
954.13371	8449.85
957.89203	8406.65
961.64774	8403.45
965.40086	8363.65
969.15137	8337.25
972.89929	8326.85
976.64461	8315.05
980.38733	8311.35
984.12747	8341.35
987.86502	8396.85
991.59999	8476.25
995.33237	8558.05
999.06217	8709.15
1002.78939	8897.35
1006.51404	9001.45
1010.23611	9036.85
1013.95561	9113.05
1017.67255	9111.45
1021.38692	9079.65
1025.09872	9001.05
1028.80796	9008.35
1032.51465	9167.95
1036.21877	9379.55
1039.92035	9457.25
1043.61937	9395.55
1047.31584	9276.95
1051.00976	9115.95
1054.70114	9031.75
1058.38998	8989.15
1062.07627	8994.45
1065.76003	9049.95
1069.44126	9122.75
1073.11995	9235.55
1076.79611	9371.35
1080.46974	9365.25
1084.14085	9364.05
1087.80943	9365.35
1091.47549	9408.85
1095.13903	9418.15
1098.80005	9305.35
1102.45857	9166.95
1106.11456	9024.95
1109.76805	8970.95
1113.41903	9012.45
1117.06751	9080.85
1120.71348	9170.05
1124.35696	9302.05
1127.99793	9443.15
1131.63641	9561.75
1135.2724	9430.25
1138.90589	9263.25
1142.5369	9174.95
1146.16542	9153.35
1149.79145	9099.85
1153.415	9106.45
1157.03607	9185.05
1160.65467	9324.15
1164.27079	9612.95
1167.88443	9989.25
1171.49561	10501.45
1175.10432	11147.15
1178.71056	11991.25
1182.31434	12782.05
1185.91565	13175.85
1189.51451	12999.75
1193.11091	12527.85
1196.70485	11954.95
1200.29634	11451.25
1203.88538	11057.35
1207.47197	10747.85
1211.05612	10490.75
1214.63782	10289.35
1218.21708	10140.25
1221.79391	10085.15
1225.36829	10085.45
1228.94024	10077.65
1232.50976	9939.15
1236.07685	9799.95
1239.6415	9738.25
1243.20374	9697.75
1246.76355	9746.25
1250.32093	9842.15
1253.8759	9997.05
1257.42845	10181.65
1260.97859	10380.65
1264.52631	10617.15
1268.07163	10862.05
1271.61453	11136.95
1275.15503	11435.75
1278.69312	11704.95
1282.22882	11909.45
1285.76211	12143.95
1289.29301	12481.15
1292.82151	12892.65
1296.34761	13464.65
1299.87133	14108.35
1303.39266	14958.55
1306.9116	15881.45
1310.42815	16717.85
1313.94233	17089.95
1317.45412	16819.55
1320.96354	16119.75
1324.47058	15389.45
1327.97525	14773.15
1331.47754	14292.05
1334.97747	13980.95
1338.47502	13759.55
1341.97022	13585.85
1345.46305	13534.05
1348.95352	13730.05
1352.44163	14291.75
1355.92738	15200.15
1359.41078	16402.55
1362.89183	17370.75
1366.37053	17335.95
1369.84688	15967.95
1373.32088	14037.85
1376.79254	12641.45
1380.26186	11947.25
1383.72883	11734.55
1387.19347	11494.95
1390.65578	11218.45
1394.11575	11071.45
1397.57339	11055.85
1401.0287	11185.15
1404.48168	11312.85
1407.93234	11317.95
1411.38068	11227.55
1414.82669	11057.45
1418.27039	10848.65
1421.71177	10630.65
1425.15083	10408.95
1428.58758	10256.65
1432.02203	10307.35
1435.45416	10462.65
1438.88399	10632.35
1442.31151	10712.75
1445.73673	10759.45
1449.15965	10778.35
1452.58027	10747.25
1455.9986	10671.05
1459.41463	10629.45
1462.82837	10761.05
1466.23982	10950.65
1469.64898	11133.75
1473.05586	11342.15
1476.46045	11467.65
1479.86276	11558.55
1483.26279	11596.45
1486.66054	11691.85
1490.05602	11849.85
1493.44922	12113.55
1496.84016	12413.25
1500.22882	12875.25
1503.61521	13497.95
1506.99934	14228.25
1510.38121	14827.55
1513.76081	14934.65
1517.13816	14372.25
1520.51324	13492.25
1523.88607	12706.25
1527.25665	12197.85
1530.62498	11948.45
1533.99105	11765.35
1537.35488	11617.05
1540.71647	11452.55
1544.07581	11251.75
1547.4329	11056.25
1550.78776	10901.85
1554.14038	10776.65
1557.49077	10720.05
1560.83892	10709.25
1564.18484	10720.05
1567.52853	10818.35
1570.86999	10997.55
1574.20922	11174.95
1577.54624	11301.65
1580.88103	11196.05
1584.2136	11029.45
1587.54395	11040.75
1590.87208	11330.35
1594.19801	11900.05
1597.52172	12501.55
1600.84321	12869.05
1604.16251	12607.75
1607.47959	11873.55
1610.79447	11002.45
1614.10715	10219.95
1617.41763	9597.05
1620.7259	9196.35
1624.03199	9028.45
1627.33587	9000.25
1630.63757	9169.35
1633.93707	9486.75
1637.23439	10062.75
1640.52951	11003.45
1643.82246	12272.55
1647.11321	13558.35
1650.40179	14075.15
1653.68819	13454.85
1656.97241	11962.65
1660.25446	10451.95
1663.53433	9363.15
1666.81203	8728.65
1670.08756	8344.35
1673.36092	8103.35
1676.63211	7959.65
1679.90115	7857.45
1683.16801	7789.05
1686.43272	7706.25
1689.69527	7637.45
1692.95567	7595.95
1696.2139	7567.35
1699.46999	7502.35
1702.72392	7461.15
1705.97571	7476.45
1709.22535	7516.95
1712.47284	7522.05
1715.71819	7537.25
1718.96139	7502.15
1722.20246	7534.65
1725.44139	7501.75
1728.67818	7475.05
1731.91284	7429.95
1735.14537	7409.65
1738.37576	7401.25
1741.60403	7381.65
1744.83017	7346.35
1748.05418	7345.95
1751.27607	7349.85
1754.49584	7316.05
1757.71349	7308.55
1760.92903	7286.15
1764.14244	7253.55
1767.35375	7261.55
1770.56294	7230.85
1773.77002	7209.05
1776.97499	7226.35
1780.17785	7226.65
1783.37861	7217.75
1786.57727	7206.35
1789.77382	7224.55
1792.96828	7196.75
1796.16064	7183.65
1799.3509	7167.35
1802.53907	7175.45
1805.72514	7133.75
1808.90913	7123.65
1812.09102	7115.75
1815.27083	7089.95
1818.44856	7096.75
1821.6242	7068.55
1824.79776	7079.15
1827.96924	7062.45
1831.13864	7058.15
1834.30597	7061.65
1837.47122	7069.75
1840.6344	7069.85
1843.7955	7033.35
1846.95454	7041.05
1850.11151	7046.45
1853.26642	7047.05
1856.41926	7022.85
1859.57004	7046.85
1862.71876	7028.75
1865.86542	7032.25
1869.01003	7004.55
1872.15258	7031.35
1875.29308	7026.45
1878.43152	6991.35
1881.56792	6998.15
1884.70227	6985.65
1887.83457	6986.65
1890.96482	6961.95
1894.09304	6981.55
1897.21921	6934.65
1900.34335	6942.55
1903.46544	6933.75
1906.58551	6944.05
1909.70353	6938.75
1912.81953	6901.55
1915.93349	6909.45
1919.04543	6905.35
1922.15534	6887.65
1925.26322	6881.75
1928.36908	6866.65
1931.47292	6843.85
1934.57473	6843.45
1937.67453	6811.85
1940.77232	6802.35
1943.86808	6780.75
1946.96184	6753.05
1950.05358	6742.05
1953.14331	6736.55
1956.23103	6717.65
1959.31675	6671.25
1962.40046	6676.05
1965.48217	6676.75
1968.56188	6623.75
1971.63959	6637.95
1974.7153	6615.95
1977.78901	6608.55
1980.86073	6578.95
1983.93046	6560.35
1986.99819	6525.95
1990.06394	6503.75
1993.1277	6507.55
1996.18947	6488.75
1999.24925	6482.85
2002.30706	6457.55
2005.36288	6437.95
2008.41672	6413.65
2011.46859	6385.05
2014.51848	6375.05
2017.56639	6374.95
2020.61233	6365.95
2023.6563	6341.55
2026.6983	6321.15
2029.73833	6341.15
2032.7764	6324.65
2035.8125	6294.85
2038.84664	6269.55
2041.87881	6265.35
2044.90903	6258.25
2047.93729	6255.25
2050.96359	6260.35
2053.98794	6233.55
2057.01034	6233.05
2060.03078	6248.45
2063.04927	6237.15
2066.06582	6215.95
2069.08042	6214.45
2072.09307	6223.95
2075.10378	6213.65
2078.11255	6201.25
2081.11938	6212.25
2084.12426	6189.35
2087.12722	6213.95
2090.12824	6211.15
2093.12732	6220.45
2096.12447	6208.45
2099.11969	6204.25
2102.11299	6201.75
2105.10435	6212.15
2108.09379	6212.15
2111.08131	6225.25
2114.0669	6238.65
2117.05057	6219.35
2120.03233	6241.35
2123.01216	6259.45
2125.99008	6268.65
2128.96609	6263.75
2131.94018	6254.45
2134.91236	6286.55
2137.88263	6261.85
2140.851	6285.65
2143.81746	6292.05
2146.78201	6296.75
2149.74466	6291.45
2152.7054	6277.55
2155.66425	6274.95
2158.6212	6297.25
2161.57625	6270.85
2164.52941	6276.55
2167.48067	6277.65
2170.43004	6269.85
2173.37752	6282.65
2176.32311	6285.95
2179.26681	6273.75
2182.20863	6278.35
2185.14856	6289.15
2188.08661	6305.85
2191.02278	6302.85
2193.95707	6283.35
2196.88948	6279.65
2199.82001	6289.45
2202.74867	6265.45
2205.67545	6274.55
2208.60037	6248.35
2211.52341	6241.95
2214.44458	6235.65
2217.36388	6260.35
2220.28132	6243.45
2223.1969	6235.15
2226.11061	6202.35
2229.02246	6188.05
2231.93245	6193.05
2234.84058	6188.45
2237.74686	6179.25
2240.65128	6170.15
2243.55385	6160.65
2246.45456	6159.35
2249.35343	6138.85
2252.25044	6130.95
2255.14561	6116.05
2258.03893	6129.75
2260.93041	6107.25
2263.82004	6088.85
2266.70783	6097.75
2269.59378	6076.85
2272.4779	6061.95
2275.36017	6060.35
2278.24061	6059.15
2281.11922	6038.35
2283.996	6034.95
2286.87094	6034.75
2289.74405	6025.75
2292.61534	6004.35
2295.4848	6007.25
2298.35243	6023.15
2301.21824	6004.55
2304.08223	6029.55
2306.94439	6017.45
2309.80474	6021.25
2312.66327	6032.65
2315.51999	6014.45
2318.37489	6011.85
2321.22797	5989.35
2324.07925	6010.35
2326.92871	5999.55
2329.77637	5981.75
2332.62222	5973.15
2335.46626	5974.45
2338.3085	5948.35
2341.14893	5983.75
2343.98756	5966.15
2346.8244	5964.85
2349.65943	5947.95
2352.49267	5937.35
2355.32411	5966.95
2358.15376	5963.65
2360.98161	5954.35
2363.80768	5959.85
2366.63195	5945.45
2369.45444	5933.75
2372.27514	5928.05
2375.09405	5934.65
2377.91118	5904.95
2380.72652	5898.65
2383.54009	5877.85
2386.35187	5877.75
2389.16188	5867.55
2391.97011	5862.05
2394.77657	5830.25
2397.58125	5841.25
2400.38416	5830.25
2403.18529	5821.35
2405.98466	5810.15
2408.78226	5804.45
2411.57809	5790.55
2414.37216	5778.85
2417.16446	5790.05
2419.955	5780.35
2422.74378	5790.35
2425.5308	5778.15
2428.31606	5781.05
2431.09956	5787.65
2433.88131	5761.05
2436.6613	5769.15
2439.43954	5751.45
2442.21603	5760.45
2444.99077	5765.45
2447.76377	5766.65
2450.53501	5752.45
2453.30451	5758.15
2456.07226	5744.25
2458.83827	5743.55
2461.60254	5748.55
2464.36507	5745.45
2467.12586	5725.05
2469.88492	5745.05
2472.64224	5753.95
2475.39782	5748.85
2478.15167	5721.95
2480.90379	5724.85
2483.65417	5736.95
2486.40283	5741.95
2489.14976	5760.95
2491.89497	5729.75
2494.63845	5721.15
2497.3802	5736.55
2500.12024	5736.05
2502.85855	5722.95
2505.59514	5712.35
2508.33002	5709.75
2511.06318	5731.95
2513.79462	5711.65
2516.52435	5687.25
2519.25237	5689.95
2521.97867	5688.35
2524.70327	5681.55
2527.42616	5673.25
2530.14734	5666.45
2532.86681	5661.45
2535.58458	5653.65
2538.30065	5647.05
2541.01501	5648.15
2543.72768	5637.75
2546.43864	5640.85
2549.14791	5639.05
2551.85548	5647.65
2554.56136	5626.65
2557.26554	5620.95
2559.96803	5613.85
2562.66883	5599.15
2565.36794	5600.95
2568.06536	5598.25
2570.7611	5601.75
2573.45514	5592.65
2576.14751	5566.45
2578.83819	5561.85
2581.52719	5584.65
2584.21451	5563.45
2586.90015	5562.15
2589.58411	5551.45
2592.2664	5561.65
2594.94701	5534.65
2597.62594	5540.35
2600.30321	5529.45
2602.9788	5516.05
2605.65273	5511.65
2608.32498	5524.75
2610.99557	5514.45
2613.66449	5512.75
2616.33175	5488.45
2618.99734	5515.15
2621.66128	5494.25
2624.32355	5493.75
2626.98416	5493.25
2629.64311	5479.95
2632.30041	5474.35
2634.95605	5472.15
2637.61004	5449.05
2640.26238	5462.65
2642.91306	5452.55
2645.56209	5434.05
2648.20948	5446.55
2650.85521	5435.15
2653.4993	5445.55
2656.14175	5446.55
2658.78255	5459.05
2661.42171	5443.85
2664.05923	5464.05
2666.6951	5464.05
2669.32934	5466.45
2671.96194	5461.65
2674.59291	5454.25
2677.22224	5449.05
2679.84993	5460.85
2682.476	5446.95
2685.10043	5446.65
2687.72324	5457.05
2690.34441	5438.65
2692.96396	5440.55
2695.58188	5459.95
2698.19818	5450.75
2700.81285	5455.05
2703.4259	5450.75
2706.03733	5446.55
2708.64714	5448.25
2711.25533	5456.05
2713.86191	5453.95
2716.46687	5484.95
2719.07021	5460.15
2721.67194	5468.05
2724.27206	5477.75
2726.87057	5475.05
2729.46747	5490.65
2732.06276	5493.15
2734.65644	5466.85
2737.24852	5499.35
2739.83899	5475.55
2742.42786	5467.35
2745.01513	5455.35
2747.60079	5465.75
2750.18486	5462.95
2752.76733	5458.15
2755.3482	5460.75
2757.92747	5454.85
2760.50515	5450.55
2763.08123	5446.55
2765.65573	5450.95
2768.22863	5442.45
2770.79994	5445.95
2773.36967	5422.05
2775.9378	5425.25
2778.50435	5429.35
2781.06932	5423.45
2783.6327	5422.65
2786.1945	5402.55
2788.75471	5407.15
2791.31335	5393.15
2793.87041	5380.55
2796.42589	5400.05
2798.97979	5398.05
2801.53212	5379.75
2804.08288	5370.05
2806.63206	5362.55
2809.17967	5361.75
2811.72571	5355.75
2814.27018	5339.25
2816.81308	5334.45
2819.35442	5332.85
2821.89419	5319.05
2824.43239	5329.45
2826.96904	5325.45
2829.50412	5320.75
2832.03763	5326.45
2834.56959	5321.85
2837.1	5338.95
2839.62884	5344.15
2842.15613	5355.05
2844.68186	5386.15
2847.20604	5414.95
2849.72867	5425.45
2852.24974	5425.35
2854.76927	5427.25
2857.28724	5396.95
2859.80367	5400.95
2862.31855	5405.55
2864.83189	5401.05
2867.34368	5381.15
2869.85393	5393.95
2872.36264	5399.05
2874.8698	5409.35
2877.37543	5398.55
2879.87952	5402.85
2882.38207	5391.35
2884.88308	5387.15
2887.38256	5390.25
2889.88051	5398.15
2892.37692	5387.05
2894.8718	5400.85
2897.36515	5407.65
2899.85698	5417.75
2902.34727	5434.55
2904.83604	5436.15
2907.32328	5454.05
2909.809	5459.85
2912.29319	5461.55
2914.77587	5452.45
2917.25702	5452.05
2919.73665	5468.55
2922.21476	5451.35
2924.69136	5438.25
2927.16644	5458.45
2929.64	5465.15
2932.11205	5453.45
2934.58258	5438.25
2937.05161	5436.45
2939.51912	5450.15
2941.98513	5432.55
2944.44962	5405.15
2946.91261	5380.35
2949.37409	5381.35
2951.83407	5390.55
2954.29254	5384.35
2956.74951	5359.35
2959.20498	5377.15
2961.65895	5353.65
2964.11142	5355.45
2966.56239	5333.75
2969.01186	5331.55
2971.45984	5323.65
2973.90632	5317.95
2976.35131	5300.45
2978.7948	5290.45
2981.23681	5292.45
2983.67732	5273.95
2986.11635	5268.05
2988.55388	5255.25
2990.98993	5241.45
2993.4245	5250.85
2995.85758	5243.05
2998.28917	5215.45
3000.71928	5217.35
3003.14791	5215.55
3005.57506	5215.95
3008.00073	5181.05
3010.42493	5180.05
3012.84764	5200.35
3015.26888	5178.95
3017.68865	5187.85
3020.10694	5183.35
3022.52376	5161.75
3024.9391	5147.75
3027.35298	5172.15
3029.76539	5157.75
3032.17632	5138.45
3034.5858	5127.45
3036.9938	5138.65
3039.40034	5132.65
3041.80542	5150.15
3044.20903	5129.35
3046.61118	5115.35
3049.01187	5124.05
3051.4111	5141.65
3053.80888	5144.05
3056.20519	5221.05
3058.60005	5100.65
3060.99345	5101.35
3063.3854	5069.45
3065.7759	5090.35
3068.16494	5091.55
3070.55254	5064.85
3072.93868	5057.85
3075.32338	5057.65
3077.70662	5069.55
3080.08842	5045.85
3082.46878	5057.55
3084.84769	5057.75
3087.22515	5047.35
3089.60118	5058.05
3091.97576	5049.65
3094.3489	5071.15
3096.72061	5078.85
3099.09087	5066.95
3101.4597	5061.75
3103.82709	5074.05
3106.19305	5081.85
3108.55757	5095.95
3110.92066	5092.15
3113.28232	5068.75
3115.64255	5065.45
3118.00134	5062.35
3120.35871	5054.45
3122.71466	5063.05
3125.06917	5043.35
3127.42226	5037.25
3129.77393	5060.75
3132.12417	5047.35
3134.47299	5042.95
3136.82039	5068.55
3139.16636	5070.55
3141.51092	5074.05
3143.85406	5085.45
3146.19579	5091.55
3148.53609	5098.15
3150.87499	5104.15
3153.21246	5122.95
3155.54853	5128.75
3157.88318	5131.85
3160.21642	5139.35
3162.54826	5148.95
3164.87868	5135.65
3167.2077	5142.05
3169.5353	5157.45
3171.86151	5176.75
3174.18631	5154.95
3176.5097	5137.65
3178.83169	5151.15
3181.15228	5177.35
3183.47147	5161.75
3185.78926	5149.65
3188.10565	5152.65
3190.42065	5164.45
3192.73424	5163.35
3195.04645	5186.95
3197.35725	5172.85
3199.66667	5168.05
3201.97469	5189.85
3204.28132	5182.65
3206.58656	5194.95
3208.8904	5206.85
3211.19287	5207.95
3213.49394	5209.45
3215.79363	5221.05
3218.09193	5227.25
3220.38884	5224.55
3222.68438	5212.75
3224.97853	5217.25
3227.2713	5232.35
3229.56269	5222.85
3231.8527	5215.55
3234.14133	5217.55
3236.42858	5230.05
3238.71446	5201.75
3240.99896	5202.35
3243.28209	5194.75
3245.56384	5189.25
3247.84423	5208.35
3250.12324	5182.35
3252.40088	5185.25
3254.67715	5186.85
3256.95205	5181.35
3259.22558	5183.85
3261.49775	5189.15
3263.76855	5171.15
3266.03799	5168.65
3268.30606	5157.05
3270.57277	5164.85
3272.83812	5163.65
3275.10211	5130.45
3277.36474	5121.55
3279.62601	5136.45
3281.88593	5122.75
3284.14448	5125.45
3286.40168	5137.85
3288.65753	5140.25
3290.91202	5152.45
3293.16516	5122.35
3295.41695	5122.75
3297.66738	5085.25
3299.91647	5077.65
3302.16421	5040.75
3304.4106	4999.05
3306.65564	4995.75
3308.89933	4984.35
3311.14169	4952.15
3313.38269	4914.85
3315.62236	4882.75
3317.86068	4835.55
3320.09766	4826.35
3322.3333	4776.65
3324.5676	4763.55
3326.80056	4705.15
3329.03219	4660.25
3331.26248	2.25
3333.49143	-0.15
3335.71905	-0.75
