Data from AgNPs_FTO_APTES_UA_1uM_CRN_200uM_R6G_10uM_NaF_0.1M_Addition_RamanShift__11__17-17-49-827.txt Node

Date: Thu Jan 27 17:17:49 GMT 2022
User: TCL
Spectrometer: QEP01345
Trigger mode: 4
Integration Time (sec): 7.000000E0
Scans to average: 10
Electric dark correction enabled: true
Nonlinearity correction enabled: false
Boxcar width: 0
XAxis mode: Raman Shifts
Number of Pixels in Spectrum: 1044
>>>>>Begin Spectral Data<<<<<
46.04893	1.45
50.45542	0.65
54.85868	-1.25
59.25871	-1.25
63.6555	42.05
68.04907	44.05
72.43941	45.85
76.82654	50.55
81.21044	49.65
85.59113	51.95
89.96862	53.35
94.34289	54.25
98.71396	56.85
103.08183	56.45
107.4465	64.05
111.80798	61.25
116.16626	61.35
120.52136	68.75
124.87327	67.05
129.222	65.65
133.56755	68.95
137.90993	74.35
142.24913	75.95
146.58517	87.05
150.91804	99.75
155.24774	110.45
159.57429	129.15
163.89768	162.35
168.21792	215.25
172.53501	290.75
176.84895	395.85
181.15975	547.25
185.46741	766.85
189.77193	1068.05
194.07331	1425.95
198.37157	1843.25
202.6667	2296.95
206.9587	2742.65
211.24758	3172.85
215.53334	3609.55
219.81599	4069.35
224.09553	4535.75
228.37195	5081.25
232.64527	5659.85
236.91549	6299.45
241.18261	6936.05
245.44663	7548.15
249.70755	8138.95
253.96539	8652.15
258.22014	9065.85
262.4718	9397.25
266.72039	9633.35
270.96589	9708.25
275.20832	9719.85
279.44768	9617.15
283.68397	9503.15
287.91719	9380.75
292.14735	9280.85
296.37445	9206.65
300.59849	9196.65
304.81948	9179.35
309.03742	9170.35
313.25231	9075.85
317.46415	8983.65
321.67296	8830.95
325.87872	8678.65
330.08145	8633.75
334.28114	8655.95
338.47781	8710.85
342.67145	8803.55
346.86207	8924.45
351.04966	9097.25
355.23424	9213.25
359.4158	9366.05
363.59435	9424.75
367.76989	9519.05
371.94243	9595.45
376.11196	9642.65
380.27849	9690.25
384.44203	9738.35
388.60257	9776.65
392.76012	9864.45
396.91468	9968.25
401.06626	10066.25
405.21485	10174.85
409.36047	10157.05
413.50311	10073.85
417.64277	10008.15
421.77947	9989.85
425.9132	10004.15
430.04396	10052.25
434.17176	10083.25
438.2966	10121.75
442.41849	10230.45
446.53742	10329.45
450.6534	10449.25
454.76644	10508.75
458.87653	10565.65
462.98368	10578.45
467.08789	10546.55
471.18916	10494.65
475.2875	10428.75
479.38291	10327.95
483.4754	10294.25
487.56496	10230.25
491.6516	10196.15
495.73531	10157.75
499.81612	10197.75
503.89401	10242.95
507.96899	10279.45
512.04106	10324.25
516.11023	10316.55
520.1765	10277.75
524.23987	10243.95
528.30034	10189.85
532.35792	10154.55
536.41261	10078.25
540.46441	10013.65
544.51333	9982.85
548.55936	10048.45
552.60252	10158.85
556.64279	10273.65
560.6802	10337.45
564.71473	10344.15
568.7464	10383.35
572.7752	10487.75
576.80114	10599.65
580.82422	10781.05
584.84444	11034.25
588.86181	11320.55
592.87633	11499.95
596.888	11491.95
600.89682	11268.45
604.9028	11259.55
608.90594	11761.05
612.90624	12521.15
616.90371	12238.55
620.89834	10931.65
624.89015	10283.95
628.87913	10190.55
632.86528	10271.05
636.84862	10346.85
640.82913	10293.75
644.80683	10179.75
648.78172	10064.25
652.75379	10074.85
656.72306	10139.05
660.68952	10243.25
664.65319	10246.55
668.61405	10167.05
672.57211	10126.45
676.52738	10181.35
680.47986	10188.45
684.42955	10183.45
688.37646	10134.45
692.32058	10135.15
696.26192	10170.05
700.20048	10208.85
704.13626	10237.35
708.06928	10253.75
711.99952	10242.05
715.927	10233.65
719.85171	10206.85
723.77365	10212.55
727.69284	10143.65
731.60928	10097.45
735.52295	10061.35
739.43388	10053.75
743.34206	10059.25
747.24749	10090.15
751.15017	10137.55
755.05012	10218.15
758.94733	10346.55
762.8418	10631.15
766.73354	11086.55
770.62254	11619.95
774.50882	11862.35
778.39237	11606.45
782.27321	11125.15
786.15132	10602.85
790.02671	10284.05
793.89938	10139.65
797.76935	10079.15
801.6366	10014.85
805.50115	9968.05
809.36299	9982.05
813.22213	9921.05
817.07857	9907.85
820.93231	9885.25
824.78336	9897.75
828.63172	9874.45
832.47738	9872.25
836.32036	9889.05
840.16066	9879.05
843.99827	9868.85
847.8332	9840.65
851.66546	9859.45
855.49504	9849.85
859.32195	9860.45
863.1462	9848.65
866.96777	9859.65
870.78668	9861.95
874.60293	9844.25
878.41652	9872.55
882.22745	9890.95
886.03573	9919.85
889.84136	9942.05
893.64433	9905.45
897.44466	9910.35
901.24235	9856.05
905.0374	9873.85
908.8298	9827.55
912.61957	9791.45
916.40671	9839.55
920.19121	9880.65
923.97308	9930.45
927.75233	9980.65
931.52895	9976.25
935.30295	9889.55
939.07433	9767.55
942.84309	9671.15
946.60924	9603.25
950.37278	9565.45
954.13371	9560.65
957.89203	9525.25
961.64774	9511.25
965.40086	9501.35
969.15137	9473.05
972.89929	9446.95
976.64461	9420.85
980.38733	9390.05
984.12747	9401.85
987.86502	9396.65
991.59999	9398.95
995.33237	9437.35
999.06217	9499.15
1002.78939	9565.05
1006.51404	9645.55
1010.23611	9721.05
1013.95561	9795.65
1017.67255	9769.25
1021.38692	9767.65
1025.09872	9740.15
1028.80796	9651.85
1032.51465	9599.45
1036.21877	9602.25
1039.92035	9634.05
1043.61937	9652.05
1047.31584	9695.35
1051.00976	9737.85
1054.70114	9780.05
1058.38998	9799.55
1062.07627	9840.05
1065.76003	9890.05
1069.44126	9961.65
1073.11995	10063.85
1076.79611	10184.05
1080.46974	10217.45
1084.14085	10206.75
1087.80943	10187.85
1091.47549	10194.35
1095.13903	10243.85
1098.80005	10190.05
1102.45857	10082.85
1106.11456	9942.25
1109.76805	9852.35
1113.41903	9859.45
1117.06751	9866.45
1120.71348	9953.05
1124.35696	10062.05
1127.99793	10191.15
1131.63641	10267.15
1135.2724	10165.55
1138.90589	10057.85
1142.5369	9966.65
1146.16542	9973.85
1149.79145	9953.55
1153.415	9933.95
1157.03607	9976.45
1160.65467	10070.55
1164.27079	10237.85
1167.88443	10511.55
1171.49561	10813.15
1175.10432	11226.55
1178.71056	11719.35
1182.31434	12279.55
1185.91565	12554.25
1189.51451	12572.05
1193.11091	12376.05
1196.70485	12077.55
1200.29634	11729.15
1203.88538	11433.55
1207.47197	11199.35
1211.05612	10978.35
1214.63782	10836.35
1218.21708	10680.75
1221.79391	10534.25
1225.36829	10429.15
1228.94024	10412.65
1232.50976	10374.05
1236.07685	10359.75
1239.6415	10326.05
1243.20374	10337.25
1246.76355	10349.55
1250.32093	10413.55
1253.8759	10470.45
1257.42845	10617.05
1260.97859	10751.15
1264.52631	10912.25
1268.07163	11080.35
1271.61453	11217.25
1275.15503	11342.25
1278.69312	11482.05
1282.22882	11611.25
1285.76211	11783.55
1289.29301	12006.35
1292.82151	12278.65
1296.34761	12591.95
1299.87133	12997.45
1303.39266	13405.05
1306.9116	13907.95
1310.42815	14308.55
1313.94233	14550.85
1317.45412	14464.85
1320.96354	14161.25
1324.47058	13919.55
1327.97525	13635.35
1331.47754	13487.45
1334.97747	13383.15
1338.47502	13349.05
1341.97022	13363.15
1345.46305	13472.15
1348.95352	13652.85
1352.44163	13921.45
1355.92738	14269.95
1359.41078	14847.05
1362.89183	15330.35
1366.37053	15272.95
1369.84688	14376.35
1373.32088	13144.85
1376.79254	12222.75
1380.26186	11701.55
1383.72883	11449.15
1387.19347	11286.95
1390.65578	11089.95
1394.11575	10946.05
1397.57339	10915.25
1401.0287	10940.05
1404.48168	10984.25
1407.93234	10990.65
1411.38068	10911.35
1414.82669	10780.85
1418.27039	10632.35
1421.71177	10453.85
1425.15083	10296.65
1428.58758	10209.35
1432.02203	10202.65
1435.45416	10258.55
1438.88399	10326.05
1442.31151	10387.95
1445.73673	10432.25
1449.15965	10441.15
1452.58027	10457.45
1455.9986	10484.55
1459.41463	10521.55
1462.82837	10605.05
1466.23982	10784.05
1469.64898	10891.45
1473.05586	10998.45
1476.46045	11079.05
1479.86276	11144.15
1483.26279	11198.15
1486.66054	11286.55
1490.05602	11407.55
1493.44922	11648.25
1496.84016	11981.35
1500.22882	12453.85
1503.61521	13024.75
1506.99934	13617.95
1510.38121	14023.25
1513.76081	14013.75
1517.13816	13598.05
1520.51324	12978.25
1523.88607	12430.85
1527.25665	12071.15
1530.62498	11831.75
1533.99105	11676.05
1537.35488	11514.25
1540.71647	11339.95
1544.07581	11204.25
1547.4329	11075.75
1550.78776	10922.95
1554.14038	10827.25
1557.49077	10786.05
1560.83892	10770.05
1564.18484	10802.05
1567.52853	10890.75
1570.86999	11021.85
1574.20922	11151.85
1577.54624	11194.45
1580.88103	11073.25
1584.2136	10909.85
1587.54395	10826.05
1590.87208	10910.15
1594.19801	11208.25
1597.52172	11583.55
1600.84321	11786.95
1604.16251	11666.05
1607.47959	11258.15
1610.79447	10785.95
1614.10715	10319.05
1617.41763	9910.45
1620.7259	9607.35
1624.03199	9384.45
1627.33587	9316.95
1630.63757	9368.25
1633.93707	9570.75
1637.23439	9897.85
1640.52951	10516.15
1643.82246	11364.55
1647.11321	12238.25
1650.40179	12752.45
1653.68819	12467.25
1656.97241	11577.45
1660.25446	10503.35
1663.53433	9655.95
1666.81203	9146.35
1670.08756	8813.85
1673.36092	8623.45
1676.63211	8511.35
1679.90115	8420.95
1683.16801	8316.35
1686.43272	8254.95
1689.69527	8201.55
1692.95567	8158.55
1696.2139	8100.35
1699.46999	8043.45
1702.72392	8035.95
1705.97571	8051.65
1709.22535	8052.85
1712.47284	8086.85
1715.71819	8091.65
1718.96139	8089.35
1722.20246	8043.55
1725.44139	8039.75
1728.67818	8018.45
1731.91284	7991.15
1735.14537	7950.95
1738.37576	7920.15
1741.60403	7900.45
1744.83017	7882.75
1748.05418	7850.35
1751.27607	7871.95
1754.49584	7849.65
1757.71349	7828.05
1760.92903	7846.15
1764.14244	7790.25
1767.35375	7796.25
1770.56294	7772.45
1773.77002	7753.65
1776.97499	7747.85
1780.17785	7754.35
1783.37861	7752.75
1786.57727	7737.75
1789.77382	7732.85
1792.96828	7703.65
1796.16064	7691.65
1799.3509	7661.45
1802.53907	7657.35
1805.72514	7638.85
1808.90913	7619.75
1812.09102	7612.25
1815.27083	7589.45
1818.44856	7569.85
1821.6242	7553.05
1824.79776	7556.95
1827.96924	7543.95
1831.13864	7515.25
1834.30597	7544.55
1837.47122	7509.25
1840.6344	7502.05
1843.7955	7504.35
1846.95454	7490.95
1850.11151	7503.65
1853.26642	7468.85
1856.41926	7471.15
1859.57004	7472.55
1862.71876	7471.25
1865.86542	7459.85
1869.01003	7457.85
1872.15258	7443.85
1875.29308	7436.05
1878.43152	7407.25
1881.56792	7405.95
1884.70227	7386.95
1887.83457	7380.75
1890.96482	7361.15
1894.09304	7360.95
1897.21921	7327.35
1900.34335	7321.05
1903.46544	7347.25
1906.58551	7302.95
1909.70353	7294.85
1912.81953	7293.35
1915.93349	7288.35
1919.04543	7250.35
1922.15534	7249.75
1925.26322	7253.15
1928.36908	7234.55
1931.47292	7217.45
1934.57473	7179.45
1937.67453	7174.95
1940.77232	7155.35
1943.86808	7128.25
1946.96184	7116.15
1950.05358	7080.55
1953.14331	7069.95
1956.23103	7061.15
1959.31675	7030.15
1962.40046	7029.35
1965.48217	6979.05
1968.56188	6966.85
1971.63959	6947.75
1974.7153	6933.55
1977.78901	6913.05
1980.86073	6889.25
1983.93046	6867.85
1986.99819	6847.45
1990.06394	6819.95
1993.1277	6790.15
1996.18947	6779.25
1999.24925	6765.85
2002.30706	6753.25
2005.36288	6715.35
2008.41672	6686.55
2011.46859	6689.45
2014.51848	6665.75
2017.56639	6645.05
2020.61233	6626.75
2023.6563	6634.65
2026.6983	6578.15
2029.73833	6599.35
2032.7764	6560.35
2035.8125	6527.55
2038.84664	6519.25
2041.87881	6508.05
2044.90903	6495.25
2047.93729	6472.05
2050.96359	6471.95
2053.98794	6448.05
2057.01034	6459.25
2060.03078	6440.75
2063.04927	6457.35
2066.06582	6430.25
2069.08042	6444.95
2072.09307	6425.75
2075.10378	6423.35
2078.11255	6418.95
2081.11938	6411.15
2084.12426	6412.45
2087.12722	6398.65
2090.12824	6417.85
2093.12732	6400.95
2096.12447	6379.15
2099.11969	6391.05
2102.11299	6402.75
2105.10435	6411.55
2108.09379	6398.65
2111.08131	6408.65
2114.0669	6398.45
2117.05057	6424.45
2120.03233	6404.75
2123.01216	6425.85
2125.99008	6432.15
2128.96609	6438.25
2131.94018	6429.05
2134.91236	6464.45
2137.88263	6469.35
2140.851	6441.05
2143.81746	6455.05
2146.78201	6439.05
2149.74466	6427.05
2152.7054	6420.25
2155.66425	6425.35
2158.6212	6426.25
2161.57625	6408.25
2164.52941	6390.85
2167.48067	6396.45
2170.43004	6410.05
2173.37752	6417.75
2176.32311	6410.85
2179.26681	6416.85
2182.20863	6398.55
2185.14856	6391.75
2188.08661	6401.25
2191.02278	6431.75
2193.95707	6416.25
2196.88948	6394.25
2199.82001	6378.05
2202.74867	6349.55
2205.67545	6362.75
2208.60037	6340.95
2211.52341	6337.55
2214.44458	6327.55
2217.36388	6312.25
2220.28132	6303.65
2223.1969	6284.95
2226.11061	6262.95
2229.02246	6254.15
2231.93245	6242.55
2234.84058	6234.05
2237.74686	6227.95
2240.65128	6229.65
2243.55385	6198.25
2246.45456	6198.45
2249.35343	6185.35
2252.25044	6177.85
2255.14561	6178.25
2258.03893	6167.55
2260.93041	6149.15
2263.82004	6112.65
2266.70783	6117.15
2269.59378	6097.35
2272.4779	6083.15
2275.36017	6091.95
2278.24061	6074.75
2281.11922	6045.35
2283.996	6046.45
2286.87094	6040.25
2289.74405	6018.65
2292.61534	6009.55
2295.4848	6002.75
2298.35243	5990.05
2301.21824	5987.05
2304.08223	5984.15
2306.94439	5986.25
2309.80474	5972.45
2312.66327	5982.95
2315.51999	5947.45
2318.37489	5926.35
2321.22797	5934.65
2324.07925	5922.45
2326.92871	5932.65
2329.77637	5913.55
2332.62222	5903.65
2335.46626	5900.45
2338.3085	5880.25
2341.14893	5868.55
2343.98756	5859.15
2346.8244	5864.95
2349.65943	5845.75
2352.49267	5837.85
2355.32411	5848.15
2358.15376	5839.35
2360.98161	5848.45
2363.80768	5834.75
2366.63195	5846.15
2369.45444	5828.25
2372.27514	5818.55
2375.09405	5817.55
2377.91118	5789.95
2380.72652	5773.85
2383.54009	5758.45
2386.35187	5773.35
2389.16188	5738.85
2391.97011	5722.95
2394.77657	5709.35
2397.58125	5703.15
2400.38416	5698.55
2403.18529	5690.15
2405.98466	5674.25
2408.78226	5669.55
2411.57809	5653.75
2414.37216	5657.65
2417.16446	5641.95
2419.955	5631.45
2422.74378	5644.65
2425.5308	5629.75
2428.31606	5628.75
2431.09956	5623.75
2433.88131	5630.15
2436.6613	5602.15
2439.43954	5603.35
2442.21603	5585.75
2444.99077	5586.55
2447.76377	5582.85
2450.53501	5580.35
2453.30451	5554.65
2456.07226	5553.65
2458.83827	5564.55
2461.60254	5548.15
2464.36507	5548.05
2467.12586	5537.05
2469.88492	5511.15
2472.64224	5533.45
2475.39782	5513.35
2478.15167	5509.85
2480.90379	5501.15
2483.65417	5506.45
2486.40283	5501.55
2489.14976	5495.35
2491.89497	5488.35
2494.63845	5481.45
2497.3802	5472.45
2500.12024	5473.05
2502.85855	5464.05
2505.59514	5460.65
2508.33002	5453.65
2511.06318	5442.15
2513.79462	5435.95
2516.52435	5416.25
2519.25237	5420.05
2521.97867	5418.75
2524.70327	5404.55
2527.42616	5409.55
2530.14734	5400.15
2532.86681	5374.15
2535.58458	5366.85
2538.30065	5365.55
2541.01501	5353.05
2543.72768	5342.05
2546.43864	5337.25
2549.14791	5322.75
2551.85548	5325.35
2554.56136	5302.55
2557.26554	5286.55
2559.96803	5293.15
2562.66883	5297.05
2565.36794	5263.15
2568.06536	5264.15
2570.7611	5247.25
2573.45514	5229.55
2576.14751	5239.75
2578.83819	5218.15
2581.52719	5211.25
2584.21451	5200.15
2586.90015	5193.75
2589.58411	5168.75
2592.2664	5193.25
2594.94701	5176.25
2597.62594	5140.15
2600.30321	5128.05
2602.9788	5131.65
2605.65273	5118.05
2608.32498	5110.65
2610.99557	5120.15
2613.66449	5090.25
2616.33175	5099.35
2618.99734	5076.25
2621.66128	5090.95
2624.32355	5073.95
2626.98416	5069.35
2629.64311	5053.95
2632.30041	5060.75
2634.95605	5030.05
2637.61004	5027.75
2640.26238	5031.25
2642.91306	5013.85
2645.56209	5004.65
2648.20948	5022.15
2650.85521	5013.55
2653.4993	4996.15
2656.14175	5002.95
2658.78255	5016.55
2661.42171	5010.65
2664.05923	5011.45
2666.6951	5024.75
2669.32934	5013.75
2671.96194	4987.65
2674.59291	5003.55
2677.22224	4987.25
2679.84993	4989.45
2682.476	4979.15
2685.10043	4982.25
2687.72324	4983.35
2690.34441	4975.25
2692.96396	4973.75
2695.58188	4972.35
2698.19818	4980.55
2700.81285	4983.95
2703.4259	4972.25
2706.03733	4959.55
2708.64714	4956.85
2711.25533	4970.05
2713.86191	4969.35
2716.46687	4972.85
2719.07021	4966.05
2721.67194	4970.05
2724.27206	4968.05
2726.87057	4977.35
2729.46747	4982.65
2732.06276	4973.85
2734.65644	4957.25
2737.24852	4964.85
2739.83899	4959.55
2742.42786	4942.95
2745.01513	4929.95
2747.60079	4927.25
2750.18486	4938.15
2752.76733	4928.35
2755.3482	4913.75
2757.92747	4910.55
2760.50515	4903.25
2763.08123	4894.65
2765.65573	4882.05
2768.22863	4879.45
2770.79994	4878.85
2773.36967	4858.95
2775.9378	4865.25
2778.50435	4836.45
2781.06932	4838.15
2783.6327	4830.75
2786.1945	4819.25
2788.75471	4809.35
2791.31335	4808.85
2793.87041	4802.35
2796.42589	4781.45
2798.97979	4791.15
2801.53212	4777.35
2804.08288	4778.05
2806.63206	4763.55
2809.17967	4743.15
2811.72571	4726.75
2814.27018	4734.15
2816.81308	4711.95
2819.35442	4721.25
2821.89419	4696.55
2824.43239	4712.75
2826.96904	4709.75
2829.50412	4705.55
2832.03763	4698.45
2834.56959	4694.95
2837.1	4709.75
2839.62884	4700.55
2842.15613	4722.15
2844.68186	4742.85
2847.20604	4743.15
2849.72867	4750.95
2852.24974	4755.65
2854.76927	4755.35
2857.28724	4735.25
2859.80367	4731.65
2862.31855	4713.35
2864.83189	4721.75
2867.34368	4714.85
2869.85393	4687.15
2872.36264	4690.95
2874.8698	4706.85
2877.37543	4695.25
2879.87952	4680.25
2882.38207	4680.15
2884.88308	4671.45
2887.38256	4663.45
2889.88051	4663.25
2892.37692	4665.35
2894.8718	4669.95
2897.36515	4674.65
2899.85698	4669.75
2902.34727	4679.85
2904.83604	4685.85
2907.32328	4698.95
2909.809	4680.45
2912.29319	4692.45
2914.77587	4679.95
2917.25702	4687.55
2919.73665	4682.35
2922.21476	4691.15
2924.69136	4665.55
2927.16644	4675.05
2929.64	4677.05
2932.11205	4687.55
2934.58258	4670.95
2937.05161	4656.15
2939.51912	4668.95
2941.98513	4652.65
2944.44962	4647.75
2946.91261	4630.25
2949.37409	4637.55
2951.83407	4615.25
2954.29254	4603.95
2956.74951	4600.95
2959.20498	4604.15
2961.65895	4598.15
2964.11142	4595.35
2966.56239	4573.55
2969.01186	4542.85
2971.45984	4543.05
2973.90632	4542.35
2976.35131	4530.25
2978.7948	4526.15
2981.23681	4509.55
2983.67732	4500.15
2986.11635	4503.65
2988.55388	4480.75
2990.98993	4466.85
2993.4245	4467.45
2995.85758	4461.45
2998.28917	4454.95
3000.71928	4429.75
3003.14791	4429.75
3005.57506	4428.85
3008.00073	4400.95
3010.42493	4410.25
3012.84764	4416.35
3015.26888	4418.55
3017.68865	4396.95
3020.10694	4406.65
3022.52376	4395.65
3024.9391	4376.35
3027.35298	4364.25
3029.76539	4364.35
3032.17632	4364.55
3034.5858	4363.35
3036.9938	4351.15
3039.40034	4330.15
3041.80542	4344.25
3044.20903	4329.95
3046.61118	4320.05
3049.01187	4325.45
3051.4111	4326.75
3053.80888	4317.55
3056.20519	4287.85
3058.60005	4298.25
3060.99345	4275.15
3063.3854	4271.65
3065.7759	4280.85
3068.16494	4268.45
3070.55254	4259.95
3072.93868	4264.85
3075.32338	4265.05
3077.70662	4266.55
3080.08842	4227.55
3082.46878	4254.15
3084.84769	4253.05
3087.22515	4263.55
3089.60118	4248.65
3091.97576	4245.95
3094.3489	4232.55
3096.72061	4251.15
3099.09087	4262.35
3101.4597	4253.65
3103.82709	4261.65
3106.19305	4249.65
3108.55757	4258.85
3110.92066	4247.55
3113.28232	4238.65
3115.64255	4220.35
3118.00134	4223.75
3120.35871	4229.35
3122.71466	4234.35
3125.06917	4212.65
3127.42226	4216.15
3129.77393	4216.25
3132.12417	4224.35
3134.47299	4224.25
3136.82039	4226.15
3139.16636	4221.55
3141.51092	4236.25
3143.85406	4246.65
3146.19579	4241.75
3148.53609	4253.05
3150.87499	4282.85
3153.21246	4285.35
3155.54853	4280.05
3157.88318	4288.75
3160.21642	4268.95
3162.54826	4288.15
3164.87868	4298.65
3167.2077	4302.05
3169.5353	4303.05
3171.86151	4295.45
3174.18631	4287.75
3176.5097	4284.65
3178.83169	4293.95
3181.15228	4305.75
3183.47147	4291.95
3185.78926	4292.75
3188.10565	4287.95
3190.42065	4297.85
3192.73424	4294.35
3195.04645	4290.85
3197.35725	4304.25
3199.66667	4269.45
3201.97469	4299.75
3204.28132	4291.55
3206.58656	4314.95
3208.8904	4304.25
3211.19287	4305.05
3213.49394	4321.75
3215.79363	4321.55
3218.09193	4338.15
3220.38884	4320.85
3222.68438	4312.75
3224.97853	4307.85
3227.2713	4306.25
3229.56269	4320.05
3231.8527	4325.25
3234.14133	4307.05
3236.42858	4312.25
3238.71446	4280.85
3240.99896	4276.45
3243.28209	4283.85
3245.56384	4271.85
3247.84423	4294.95
3250.12324	4273.35
3252.40088	4275.15
3254.67715	4279.35
3256.95205	4275.35
3259.22558	4276.55
3261.49775	4259.05
3263.76855	4257.45
3266.03799	4242.05
3268.30606	4240.25
3270.57277	4245.55
3272.83812	4227.55
3275.10211	4218.45
3277.36474	4198.95
3279.62601	4211.75
3281.88593	4199.85
3284.14448	4202.15
3286.40168	4199.15
3288.65753	4198.95
3290.91202	4209.05
3293.16516	4182.65
3295.41695	4187.55
3297.66738	4159.45
3299.91647	4136.75
3302.16421	4104.25
3304.4106	4102.55
3306.65564	4078.15
3308.89933	4055.45
3311.14169	4032.65
3313.38269	3986.05
3315.62236	3965.95
3317.86068	3936.75
3320.09766	3905.35
3322.3333	3877.95
3324.5676	3879.15
3326.80056	3811.95
3329.03219	3787.65
3331.26248	1.65
3333.49143	0.15
3335.71905	-0.75
