Data from AgNPs_FTO_APTES_UA_1uM_CRN_0uM_R6G_10uM_NaF_0.1M_Addition_RamanShift__49__12-02-49-467.txt Node

Date: Thu Jan 27 12:02:49 GMT 2022
User: TCL
Spectrometer: QEP01345
Trigger mode: 4
Integration Time (sec): 7.000000E0
Scans to average: 10
Electric dark correction enabled: true
Nonlinearity correction enabled: false
Boxcar width: 0
XAxis mode: Raman Shifts
Number of Pixels in Spectrum: 1044
>>>>>Begin Spectral Data<<<<<
46.04893	1.15
50.45542	1.25
54.85868	-1.45
59.25871	-1.55
63.6555	44.25
68.04907	42.85
72.43941	50.85
76.82654	51.85
81.21044	52.65
85.59113	51.75
89.96862	56.15
94.34289	59.55
98.71396	61.05
103.08183	60.15
107.4465	65.95
111.80798	62.75
116.16626	63.15
120.52136	66.35
124.87327	68.95
129.222	68.35
133.56755	71.05
137.90993	71.65
142.24913	79.95
146.58517	90.75
150.91804	103.85
155.24774	113.95
159.57429	135.55
163.89768	172.35
168.21792	217.65
172.53501	292.85
176.84895	394.75
181.15975	544.55
185.46741	761.25
189.77193	1044.15
194.07331	1400.35
198.37157	1788.65
202.6667	2211.15
206.9587	2635.35
211.24758	3069.15
215.53334	3484.75
219.81599	3965.15
224.09553	4509.95
228.37195	5108.45
232.64527	5745.55
236.91549	6407.95
241.18261	7018.65
245.44663	7519.55
249.70755	7953.65
253.96539	8302.85
258.22014	8625.35
262.4718	8937.65
266.72039	9161.25
270.96589	9278.15
275.20832	9312.85
279.44768	9222.35
283.68397	9101.95
287.91719	9032.05
292.14735	9008.55
296.37445	9119.85
300.59849	9370.75
304.81948	9685.85
309.03742	9923.25
313.25231	9896.65
317.46415	9526.95
321.67296	8913.45
325.87872	8398.95
330.08145	8150.75
334.28114	8134.65
338.47781	8249.65
342.67145	8448.35
346.86207	8778.95
351.04966	9216.85
355.23424	9774.95
359.4158	10238.55
363.59435	10468.45
367.76989	10523.05
371.94243	10534.35
376.11196	10477.15
380.27849	10439.15
384.44203	10352.05
388.60257	10259.25
392.76012	10227.25
396.91468	10328.55
401.06626	10609.65
405.21485	10822.75
409.36047	10699.45
413.50311	10282.25
417.64277	9872.55
421.77947	9678.75
425.9132	9594.55
430.04396	9588.55
434.17176	9666.55
438.2966	9824.65
442.41849	10105.45
446.53742	10464.95
450.6534	10858.65
454.76644	11115.65
458.87653	11146.75
462.98368	11004.45
467.08789	10812.05
471.18916	10549.85
475.2875	10273.65
479.38291	10091.25
483.4754	9934.15
487.56496	9782.55
491.6516	9656.15
495.73531	9563.25
499.81612	9552.35
503.89401	9619.45
507.96899	9739.55
512.04106	9810.95
516.11023	9908.25
520.1765	9990.55
524.23987	9970.05
528.30034	9820.45
532.35792	9635.95
536.41261	9440.65
540.46441	9252.75
544.51333	9153.85
548.55936	9220.25
552.60252	9410.65
556.64279	9659.35
560.6802	9783.05
564.71473	9946.85
568.7464	10337.65
572.7752	10625.25
576.80114	10507.45
580.82422	10259.35
584.84444	10241.45
588.86181	10330.65
592.87633	10466.75
596.888	10640.55
600.89682	10940.95
604.9028	11833.75
608.90594	14253.05
612.90624	17487.85
616.90371	17001.45
620.89834	12506.35
624.89015	10341.55
628.87913	9851.05
632.86528	9849.05
636.84862	9853.25
640.82913	9715.55
644.80683	9338.05
648.78172	9096.15
652.75379	9106.95
656.72306	9412.55
660.68952	9862.35
664.65319	9837.75
668.61405	9451.25
672.57211	9211.85
676.52738	9198.95
680.47986	9185.05
684.42955	9141.75
688.37646	9107.45
692.32058	9126.45
696.26192	9204.15
700.20048	9307.85
704.13626	9392.55
708.06928	9367.35
711.99952	9284.05
715.927	9232.85
719.85171	9232.75
723.77365	9234.55
727.69284	9142.55
731.60928	9036.05
735.52295	9058.65
739.43388	9113.15
743.34206	9179.15
747.24749	9244.15
751.15017	9324.65
755.05012	9493.55
758.94733	9891.35
762.8418	10683.35
766.73354	12104.35
770.62254	13658.75
774.50882	14446.65
778.39237	13932.45
782.27321	12387.85
786.15132	10820.85
790.02671	9882.95
793.89938	9466.55
797.76935	9310.35
801.6366	9217.15
805.50115	9152.95
809.36299	9099.75
813.22213	9048.25
817.07857	9040.05
820.93231	9033.05
824.78336	9062.55
828.63172	9116.65
832.47738	9181.05
836.32036	9179.65
840.16066	9161.85
843.99827	9133.65
847.8332	9086.95
851.66546	9066.15
855.49504	9061.65
859.32195	9038.05
863.1462	8978.05
866.96777	8936.55
870.78668	8941.55
874.60293	8936.65
878.41652	8970.35
882.22745	9036.75
886.03573	9079.05
889.84136	9050.55
893.64433	8969.45
897.44466	8982.85
901.24235	8956.75
905.0374	8946.25
908.8298	8917.95
912.61957	8920.85
916.40671	8963.15
920.19121	9075.35
923.97308	9190.65
927.75233	9319.45
931.52895	9381.65
935.30295	9318.45
939.07433	9089.55
942.84309	8864.25
946.60924	8776.55
950.37278	8701.95
954.13371	8667.35
957.89203	8594.15
961.64774	8565.85
965.40086	8529.95
969.15137	8502.95
972.89929	8492.85
976.64461	8467.35
980.38733	8486.75
984.12747	8515.95
987.86502	8617.15
991.59999	8745.65
995.33237	8886.85
999.06217	9156.85
1002.78939	9523.55
1006.51404	9790.35
1010.23611	9987.85
1013.95561	10136.45
1017.67255	10101.95
1021.38692	9971.25
1025.09872	9793.45
1028.80796	9760.85
1032.51465	9898.15
1036.21877	10144.25
1039.92035	10159.95
1043.61937	10055.05
1047.31584	9827.95
1051.00976	9621.65
1054.70114	9488.15
1058.38998	9418.25
1062.07627	9438.85
1065.76003	9456.55
1069.44126	9515.05
1073.11995	9636.85
1076.79611	9760.15
1080.46974	9881.05
1084.14085	10047.95
1087.80943	10287.35
1091.47549	10360.95
1095.13903	10215.25
1098.80005	9910.05
1102.45857	9627.65
1106.11456	9486.05
1109.76805	9525.15
1113.41903	9664.35
1117.06751	9860.75
1120.71348	10175.05
1124.35696	10474.15
1127.99793	10788.95
1131.63641	10865.15
1135.2724	10520.45
1138.90589	10172.25
1142.5369	9913.15
1146.16542	9751.75
1149.79145	9664.05
1153.415	9662.55
1157.03607	9771.55
1160.65467	9940.95
1164.27079	10251.85
1167.88443	10776.05
1171.49561	11600.55
1175.10432	12905.55
1178.71056	14655.65
1182.31434	16101.95
1185.91565	16780.55
1189.51451	16694.05
1193.11091	15855.95
1196.70485	14690.25
1200.29634	13641.15
1203.88538	12836.35
1207.47197	12073.45
1211.05612	11509.15
1214.63782	11198.25
1218.21708	11174.05
1221.79391	11282.65
1225.36829	11452.15
1228.94024	11526.55
1232.50976	11522.05
1236.07685	11451.75
1239.6415	11346.25
1243.20374	11263.15
1246.76355	11261.25
1250.32093	11329.95
1253.8759	11581.75
1257.42845	11955.45
1260.97859	12339.05
1264.52631	12717.65
1268.07163	13088.25
1271.61453	13459.05
1275.15503	13816.55
1278.69312	14071.45
1282.22882	14323.15
1285.76211	14651.25
1289.29301	15154.45
1292.82151	15623.05
1296.34761	16119.95
1299.87133	16795.75
1303.39266	17850.05
1306.9116	19473.65
1310.42815	21462.15
1313.94233	22905.35
1317.45412	23086.85
1320.96354	22162.15
1324.47058	20893.95
1327.97525	19695.25
1331.47754	18914.95
1334.97747	18524.15
1338.47502	18411.35
1341.97022	18497.25
1345.46305	18584.55
1348.95352	18883.15
1352.44163	19599.75
1355.92738	20808.55
1359.41078	22956.45
1362.89183	25337.55
1366.37053	25340.55
1369.84688	22352.35
1373.32088	18926.85
1376.79254	16575.05
1380.26186	15512.05
1383.72883	15023.45
1387.19347	14681.05
1390.65578	14239.95
1394.11575	13947.15
1397.57339	13884.25
1401.0287	14145.65
1404.48168	14470.75
1407.93234	14795.15
1411.38068	14990.45
1414.82669	14909.75
1418.27039	14516.55
1421.71177	14006.65
1425.15083	13628.05
1428.58758	13403.15
1432.02203	13389.05
1435.45416	13506.25
1438.88399	13677.35
1442.31151	13690.35
1445.73673	13765.45
1449.15965	13837.55
1452.58027	13829.75
1455.9986	13717.05
1459.41463	13628.15
1462.82837	13750.25
1466.23982	14022.05
1469.64898	14274.75
1473.05586	14454.25
1476.46045	14568.85
1479.86276	14694.95
1483.26279	14881.35
1486.66054	15067.95
1490.05602	15366.85
1493.44922	15724.65
1496.84016	16232.25
1500.22882	17016.05
1503.61521	18108.25
1506.99934	19582.75
1510.38121	21197.35
1513.76081	22174.45
1517.13816	21738.15
1520.51324	19887.05
1523.88607	17775.15
1527.25665	16250.25
1530.62498	15344.55
1533.99105	14850.55
1537.35488	14526.05
1540.71647	14347.75
1544.07581	14196.15
1547.4329	14102.55
1550.78776	13883.95
1554.14038	13803.55
1557.49077	13785.35
1560.83892	13876.55
1564.18484	14049.35
1567.52853	14222.05
1570.86999	14426.85
1574.20922	14572.55
1577.54624	14600.15
1580.88103	14232.55
1584.2136	13736.25
1587.54395	13621.65
1590.87208	14125.95
1594.19801	15130.45
1597.52172	16374.65
1600.84321	17118.65
1604.16251	16734.15
1607.47959	15500.35
1610.79447	14031.85
1614.10715	12673.15
1617.41763	11644.15
1620.7259	11004.35
1624.03199	10731.15
1627.33587	10763.45
1630.63757	11070.25
1633.93707	11672.55
1637.23439	12657.75
1640.52951	13953.65
1643.82246	15462.25
1647.11321	16909.25
1650.40179	17731.05
1653.68819	17101.25
1656.97241	15032.05
1660.25446	12671.65
1663.53433	10919.65
1666.81203	9894.95
1670.08756	9281.65
1673.36092	8938.75
1676.63211	8713.15
1679.90115	8534.85
1683.16801	8436.95
1686.43272	8337.75
1689.69527	8292.65
1692.95567	8213.35
1696.2139	8147.75
1699.46999	8078.35
1702.72392	8061.75
1705.97571	8070.55
1709.22535	8110.55
1712.47284	8162.05
1715.71819	8194.75
1718.96139	8169.25
1722.20246	8165.75
1725.44139	8153.95
1728.67818	8097.95
1731.91284	8029.55
1735.14537	7974.25
1738.37576	7927.85
1741.60403	7921.65
1744.83017	7883.65
1748.05418	7852.75
1751.27607	7815.15
1754.49584	7786.55
1757.71349	7766.75
1760.92903	7745.75
1764.14244	7744.15
1767.35375	7748.95
1770.56294	7725.15
1773.77002	7722.75
1776.97499	7711.05
1780.17785	7723.45
1783.37861	7740.35
1786.57727	7730.65
1789.77382	7723.25
1792.96828	7717.75
1796.16064	7710.95
1799.3509	7698.95
1802.53907	7684.45
1805.72514	7670.65
1808.90913	7667.25
1812.09102	7656.55
1815.27083	7655.35
1818.44856	7618.15
1821.6242	7611.55
1824.79776	7607.85
1827.96924	7587.65
1831.13864	7584.85
1834.30597	7589.45
1837.47122	7567.75
1840.6344	7566.05
1843.7955	7575.05
1846.95454	7582.45
1850.11151	7590.45
1853.26642	7587.45
1856.41926	7565.45
1859.57004	7597.75
1862.71876	7591.75
1865.86542	7604.15
1869.01003	7622.75
1872.15258	7608.05
1875.29308	7626.15
1878.43152	7632.35
1881.56792	7651.35
1884.70227	7644.45
1887.83457	7651.55
1890.96482	7668.95
1894.09304	7649.85
1897.21921	7661.45
1900.34335	7668.95
1903.46544	7661.35
1906.58551	7689.35
1909.70353	7669.55
1912.81953	7671.05
1915.93349	7662.05
1919.04543	7665.75
1922.15534	7651.15
1925.26322	7628.05
1928.36908	7600.85
1931.47292	7603.85
1934.57473	7533.25
1937.67453	7509.95
1940.77232	7460.05
1943.86808	7447.05
1946.96184	7386.75
1950.05358	7368.95
1953.14331	7333.95
1956.23103	7291.15
1959.31675	7281.05
1962.40046	7244.65
1965.48217	7233.05
1968.56188	7195.95
1971.63959	7185.95
1974.7153	7155.55
1977.78901	7129.25
1980.86073	7107.85
1983.93046	7087.15
1986.99819	7062.55
1990.06394	7039.85
1993.1277	7020.95
1996.18947	6999.45
1999.24925	6997.35
2002.30706	6941.05
2005.36288	6933.65
2008.41672	6919.65
2011.46859	6882.75
2014.51848	6864.85
2017.56639	6844.15
2020.61233	6846.65
2023.6563	6846.75
2026.6983	6805.65
2029.73833	6808.15
2032.7764	6777.25
2035.8125	6784.95
2038.84664	6758.55
2041.87881	6755.15
2044.90903	6726.95
2047.93729	6732.85
2050.96359	6699.55
2053.98794	6700.55
2057.01034	6695.75
2060.03078	6696.95
2063.04927	6696.35
2066.06582	6683.05
2069.08042	6658.75
2072.09307	6664.25
2075.10378	6654.15
2078.11255	6679.45
2081.11938	6654.65
2084.12426	6664.25
2087.12722	6658.05
2090.12824	6652.45
2093.12732	6649.55
2096.12447	6646.35
2099.11969	6648.05
2102.11299	6647.45
2105.10435	6643.55
2108.09379	6643.85
2111.08131	6631.15
2114.0669	6650.75
2117.05057	6649.45
2120.03233	6645.55
2123.01216	6662.15
2125.99008	6655.65
2128.96609	6673.25
2131.94018	6665.05
2134.91236	6664.55
2137.88263	6674.55
2140.851	6673.45
2143.81746	6663.65
2146.78201	6673.15
2149.74466	6676.35
2152.7054	6672.45
2155.66425	6694.95
2158.6212	6683.95
2161.57625	6679.65
2164.52941	6657.05
2167.48067	6651.15
2170.43004	6653.95
2173.37752	6641.65
2176.32311	6650.75
2179.26681	6651.75
2182.20863	6649.95
2185.14856	6647.25
2188.08661	6670.65
2191.02278	6660.85
2193.95707	6661.55
2196.88948	6631.55
2199.82001	6661.15
2202.74867	6634.95
2205.67545	6650.25
2208.60037	6629.75
2211.52341	6625.85
2214.44458	6621.95
2217.36388	6617.45
2220.28132	6595.65
2223.1969	6573.35
2226.11061	6575.55
2229.02246	6539.45
2231.93245	6548.65
2234.84058	6523.25
2237.74686	6524.75
2240.65128	6520.35
2243.55385	6508.55
2246.45456	6513.35
2249.35343	6462.65
2252.25044	6483.85
2255.14561	6476.45
2258.03893	6470.35
2260.93041	6457.35
2263.82004	6426.55
2266.70783	6436.45
2269.59378	6423.35
2272.4779	6395.45
2275.36017	6394.05
2278.24061	6389.55
2281.11922	6358.85
2283.996	6345.15
2286.87094	6320.55
2289.74405	6321.65
2292.61534	6332.55
2295.4848	6308.65
2298.35243	6326.35
2301.21824	6292.65
2304.08223	6326.15
2306.94439	6296.05
2309.80474	6319.25
2312.66327	6326.15
2315.51999	6294.95
2318.37489	6308.45
2321.22797	6305.35
2324.07925	6311.45
2326.92871	6280.15
2329.77637	6290.15
2332.62222	6285.55
2335.46626	6278.25
2338.3085	6268.75
2341.14893	6265.95
2343.98756	6285.75
2346.8244	6284.85
2349.65943	6280.95
2352.49267	6267.85
2355.32411	6289.95
2358.15376	6274.85
2360.98161	6279.65
2363.80768	6271.15
2366.63195	6269.65
2369.45444	6258.55
2372.27514	6272.05
2375.09405	6248.05
2377.91118	6231.55
2380.72652	6220.05
2383.54009	6186.45
2386.35187	6188.75
2389.16188	6158.15
2391.97011	6143.25
2394.77657	6133.65
2397.58125	6104.85
2400.38416	6112.25
2403.18529	6101.05
2405.98466	6064.85
2408.78226	6059.55
2411.57809	6039.35
2414.37216	6057.35
2417.16446	6039.55
2419.955	6031.35
2422.74378	6026.35
2425.5308	6019.65
2428.31606	6024.05
2431.09956	6017.15
2433.88131	6006.65
2436.6613	6006.15
2439.43954	6006.35
2442.21603	6008.45
2444.99077	6008.75
2447.76377	6013.55
2450.53501	6004.65
2453.30451	6009.35
2456.07226	5985.85
2458.83827	6004.55
2461.60254	5986.95
2464.36507	5983.75
2467.12586	5991.45
2469.88492	5973.15
2472.64224	6001.15
2475.39782	5987.15
2478.15167	6002.35
2480.90379	5995.65
2483.65417	6010.55
2486.40283	5997.55
2489.14976	6019.05
2491.89497	6015.85
2494.63845	6019.15
2497.3802	6003.15
2500.12024	6005.35
2502.85855	5994.05
2505.59514	6009.65
2508.33002	5996.65
2511.06318	5985.25
2513.79462	5963.55
2516.52435	5942.45
2519.25237	5942.05
2521.97867	5936.35
2524.70327	5916.35
2527.42616	5905.25
2530.14734	5912.85
2532.86681	5880.85
2535.58458	5897.15
2538.30065	5894.55
2541.01501	5897.75
2543.72768	5898.75
2546.43864	5903.65
2549.14791	5886.05
2551.85548	5890.35
2554.56136	5853.65
2557.26554	5853.15
2559.96803	5862.55
2562.66883	5850.15
2565.36794	5838.95
2568.06536	5827.35
2570.7611	5823.05
2573.45514	5812.85
2576.14751	5818.75
2578.83819	5807.35
2581.52719	5823.55
2584.21451	5813.85
2586.90015	5825.85
2589.58411	5804.25
2592.2664	5806.15
2594.94701	5787.95
2597.62594	5797.65
2600.30321	5798.65
2602.9788	5776.65
2605.65273	5772.45
2608.32498	5771.65
2610.99557	5779.75
2613.66449	5779.75
2616.33175	5791.95
2618.99734	5771.55
2621.66128	5775.95
2624.32355	5761.55
2626.98416	5769.05
2629.64311	5779.35
2632.30041	5765.35
2634.95605	5748.35
2637.61004	5737.95
2640.26238	5740.15
2642.91306	5726.65
2645.56209	5725.15
2648.20948	5709.75
2650.85521	5715.55
2653.4993	5704.15
2656.14175	5711.65
2658.78255	5713.65
2661.42171	5712.45
2664.05923	5728.15
2666.6951	5742.15
2669.32934	5732.95
2671.96194	5739.85
2674.59291	5738.05
2677.22224	5728.75
2679.84993	5755.65
2682.476	5738.45
2685.10043	5741.45
2687.72324	5734.85
2690.34441	5729.55
2692.96396	5724.75
2695.58188	5726.35
2698.19818	5739.65
2700.81285	5742.15
2703.4259	5716.95
2706.03733	5699.85
2708.64714	5685.35
2711.25533	5711.75
2713.86191	5726.35
2716.46687	5750.95
2719.07021	5739.85
2721.67194	5742.45
2724.27206	5750.55
2726.87057	5772.65
2729.46747	5747.05
2732.06276	5727.55
2734.65644	5750.45
2737.24852	5744.45
2739.83899	5728.75
2742.42786	5745.25
2745.01513	5713.65
2747.60079	5719.25
2750.18486	5706.35
2752.76733	5701.05
2755.3482	5718.25
2757.92747	5712.75
2760.50515	5716.05
2763.08123	5710.95
2765.65573	5709.25
2768.22863	5717.85
2770.79994	5692.05
2773.36967	5700.85
2775.9378	5719.35
2778.50435	5691.75
2781.06932	5682.55
2783.6327	5677.65
2786.1945	5687.05
2788.75471	5689.35
2791.31335	5686.35
2793.87041	5671.25
2796.42589	5675.85
2798.97979	5666.65
2801.53212	5658.95
2804.08288	5663.45
2806.63206	5646.55
2809.17967	5634.25
2811.72571	5635.35
2814.27018	5623.85
2816.81308	5617.65
2819.35442	5603.45
2821.89419	5625.35
2824.43239	5618.45
2826.96904	5621.95
2829.50412	5645.65
2832.03763	5635.35
2834.56959	5628.55
2837.1	5643.15
2839.62884	5644.95
2842.15613	5666.15
2844.68186	5695.95
2847.20604	5725.35
2849.72867	5736.25
2852.24974	5764.85
2854.76927	5738.55
2857.28724	5743.55
2859.80367	5724.95
2862.31855	5722.35
2864.83189	5698.05
2867.34368	5700.25
2869.85393	5682.45
2872.36264	5701.35
2874.8698	5684.25
2877.37543	5682.25
2879.87952	5692.45
2882.38207	5684.45
2884.88308	5677.15
2887.38256	5676.45
2889.88051	5658.35
2892.37692	5691.95
2894.8718	5685.15
2897.36515	5696.95
2899.85698	5689.95
2902.34727	5704.35
2904.83604	5682.35
2907.32328	5707.55
2909.809	5683.15
2912.29319	5688.75
2914.77587	5692.75
2917.25702	5692.75
2919.73665	5676.35
2922.21476	5694.35
2924.69136	5663.55
2927.16644	5676.55
2929.64	5640.05
2932.11205	5657.95
2934.58258	5635.05
2937.05161	5615.35
2939.51912	5625.55
2941.98513	5608.95
2944.44962	5568.75
2946.91261	5529.75
2949.37409	5544.15
2951.83407	5511.15
2954.29254	5491.15
2956.74951	5483.95
2959.20498	5472.65
2961.65895	5457.85
2964.11142	5450.45
2966.56239	5420.05
2969.01186	5435.05
2971.45984	5412.75
2973.90632	5378.65
2976.35131	5389.05
2978.7948	5365.75
2981.23681	5341.45
2983.67732	5333.95
2986.11635	5319.85
2988.55388	5297.25
2990.98993	5280.75
2993.4245	5273.95
2995.85758	5253.35
2998.28917	5245.25
3000.71928	5243.45
3003.14791	5222.85
3005.57506	5220.35
3008.00073	5212.55
3010.42493	5189.75
3012.84764	5203.35
3015.26888	5193.05
3017.68865	5182.65
3020.10694	5159.15
3022.52376	5168.65
3024.9391	5157.35
3027.35298	5156.05
3029.76539	5144.45
3032.17632	5138.15
3034.5858	5126.15
3036.9938	5122.15
3039.40034	5109.45
3041.80542	5117.05
3044.20903	5101.25
3046.61118	5107.95
3049.01187	5095.45
3051.4111	5078.55
3053.80888	5076.05
3056.20519	5072.95
3058.60005	5052.85
3060.99345	5054.95
3063.3854	5014.85
3065.7759	5010.35
3068.16494	5012.75
3070.55254	4994.45
3072.93868	4997.55
3075.32338	4965.35
3077.70662	4966.75
3080.08842	4957.75
3082.46878	4948.25
3084.84769	4940.45
3087.22515	4925.55
3089.60118	4920.65
3091.97576	4929.55
3094.3489	4937.95
3096.72061	4937.95
3099.09087	4930.85
3101.4597	4926.35
3103.82709	4905.05
3106.19305	4908.35
3108.55757	4908.85
3110.92066	4904.25
3113.28232	4886.75
3115.64255	4882.65
3118.00134	4867.65
3120.35871	4868.85
3122.71466	4865.85
3125.06917	4869.55
3127.42226	4852.15
3129.77393	4858.25
3132.12417	4846.65
3134.47299	4849.25
3136.82039	4847.75
3139.16636	4837.75
3141.51092	4860.45
3143.85406	4862.65
3146.19579	4862.45
3148.53609	4870.15
3150.87499	4874.65
3153.21246	4875.55
3155.54853	4870.45
3157.88318	4890.65
3160.21642	4886.15
3162.54826	4891.05
3164.87868	4885.75
3167.2077	4889.25
3169.5353	4889.25
3171.86151	4873.35
3174.18631	4876.55
3176.5097	4873.35
3178.83169	4879.25
3181.15228	4886.55
3183.47147	4861.45
3185.78926	4874.45
3188.10565	4866.55
3190.42065	4874.15
3192.73424	4872.45
3195.04645	4866.25
3197.35725	4879.75
3199.66667	4857.25
3201.97469	4877.45
3204.28132	4877.85
3206.58656	4892.65
3208.8904	4896.95
3211.19287	4897.95
3213.49394	4899.45
3215.79363	4913.45
3218.09193	4906.05
3220.38884	4900.15
3222.68438	4901.55
3224.97853	4874.35
3227.2713	4879.85
3229.56269	4889.65
3231.8527	4903.25
3234.14133	4878.25
3236.42858	4872.15
3238.71446	4869.95
3240.99896	4863.85
3243.28209	4862.35
3245.56384	4856.65
3247.84423	4857.95
3250.12324	4836.05
3252.40088	4840.75
3254.67715	4839.25
3256.95205	4839.55
3259.22558	4844.15
3261.49775	4834.15
3263.76855	4827.65
3266.03799	4806.15
3268.30606	4806.65
3270.57277	4816.75
3272.83812	4773.65
3275.10211	4770.35
3277.36474	4759.55
3279.62601	4753.65
3281.88593	4756.95
3284.14448	4755.65
3286.40168	4768.15
3288.65753	4753.15
3290.91202	4763.65
3293.16516	4753.35
3295.41695	4744.75
3297.66738	4714.45
3299.91647	4684.85
3302.16421	4657.55
3304.4106	4637.85
3306.65564	4627.25
3308.89933	4596.75
3311.14169	4572.35
3313.38269	4501.05
3315.62236	4476.25
3317.86068	4452.15
3320.09766	4428.25
3322.3333	4399.65
3324.5676	4388.75
3326.80056	4310.55
3329.03219	4276.85
3331.26248	2.95
3333.49143	0.15
3335.71905	-2.05
