Data from AgNPs_FTO_APTES_UA_1uM_CRN_500uM_R6G_10uM_NaF_0.1M_Addition_RamanShift__18__18-05-39-882.txt Node

Date: Thu Jan 27 18:05:39 GMT 2022
User: TCL
Spectrometer: QEP01345
Trigger mode: 4
Integration Time (sec): 7.000000E0
Scans to average: 10
Electric dark correction enabled: true
Nonlinearity correction enabled: false
Boxcar width: 0
XAxis mode: Raman Shifts
Number of Pixels in Spectrum: 1044
>>>>>Begin Spectral Data<<<<<
46.04893	-0.45
50.45542	1.65
54.85868	-1.25
59.25871	-1.05
63.6555	42.05
68.04907	45.95
72.43941	45.75
76.82654	52.15
81.21044	52.85
85.59113	53.75
89.96862	54.05
94.34289	57.05
98.71396	61.65
103.08183	58.95
107.4465	63.95
111.80798	64.85
116.16626	66.05
120.52136	69.85
124.87327	72.35
129.222	67.55
133.56755	73.05
137.90993	74.85
142.24913	77.35
146.58517	87.15
150.91804	102.45
155.24774	116.05
159.57429	134.85
163.89768	174.55
168.21792	221.55
172.53501	291.45
176.84895	402.65
181.15975	561.75
185.46741	784.25
189.77193	1072.05
194.07331	1438.25
198.37157	1853.45
202.6667	2301.95
206.9587	2748.45
211.24758	3176.65
215.53334	3611.25
219.81599	4057.25
224.09553	4551.55
228.37195	5101.45
232.64527	5692.85
236.91549	6337.35
241.18261	6942.95
245.44663	7539.95
249.70755	8076.65
253.96539	8533.45
258.22014	8886.35
262.4718	9228.75
266.72039	9457.15
270.96589	9571.55
275.20832	9569.85
279.44768	9470.65
283.68397	9355.75
287.91719	9246.75
292.14735	9213.45
296.37445	9184.75
300.59849	9204.05
304.81948	9264.55
309.03742	9219.45
313.25231	9146.55
317.46415	8919.95
321.67296	8677.65
325.87872	8461.25
330.08145	8343.85
334.28114	8337.25
338.47781	8383.55
342.67145	8489.35
346.86207	8605.05
351.04966	8772.55
355.23424	8936.85
359.4158	9077.35
363.59435	9198.65
367.76989	9274.15
371.94243	9330.15
376.11196	9409.25
380.27849	9452.05
384.44203	9514.55
388.60257	9561.45
392.76012	9632.95
396.91468	9710.45
401.06626	9862.15
405.21485	9956.45
409.36047	9960.95
413.50311	9811.85
417.64277	9719.65
421.77947	9720.95
425.9132	9761.65
430.04396	9812.85
434.17176	9846.35
438.2966	9901.45
442.41849	9998.05
446.53742	10210.15
450.6534	10427.05
454.76644	10598.45
458.87653	10692.55
462.98368	10635.65
467.08789	10560.85
471.18916	10423.15
475.2875	10303.75
479.38291	10229.75
483.4754	10183.05
487.56496	10096.35
491.6516	9964.85
495.73531	9913.95
499.81612	9864.25
503.89401	9941.45
507.96899	9956.65
512.04106	9965.45
516.11023	9917.85
520.1765	9839.65
524.23987	9753.55
528.30034	9652.15
532.35792	9548.85
536.41261	9508.45
540.46441	9358.05
544.51333	9377.25
548.55936	9474.25
552.60252	9604.05
556.64279	9798.05
560.6802	9937.05
564.71473	10020.05
568.7464	10153.85
572.7752	10390.45
576.80114	10563.45
580.82422	10729.35
584.84444	10942.25
588.86181	11195.55
592.87633	11323.65
596.888	11297.55
600.89682	11167.05
604.9028	11299.45
608.90594	12060.25
612.90624	12972.75
616.90371	12406.65
620.89834	10575.05
624.89015	9748.75
628.87913	9653.45
632.86528	9684.75
636.84862	9717.65
640.82913	9632.55
644.80683	9423.15
648.78172	9272.05
652.75379	9252.35
656.72306	9328.85
660.68952	9415.25
664.65319	9404.75
668.61405	9302.35
672.57211	9280.85
676.52738	9351.05
680.47986	9428.45
684.42955	9399.75
688.37646	9320.45
692.32058	9268.65
696.26192	9314.75
700.20048	9335.05
704.13626	9370.35
708.06928	9376.45
711.99952	9305.75
715.927	9276.55
719.85171	9300.65
723.77365	9288.55
727.69284	9248.75
731.60928	9179.75
735.52295	9139.45
739.43388	9142.95
743.34206	9139.85
747.24749	9186.95
751.15017	9267.15
755.05012	9361.45
758.94733	9583.65
762.8418	9965.65
766.73354	10617.05
770.62254	11317.15
774.50882	11586.15
778.39237	11180.65
782.27321	10402.65
786.15132	9747.95
790.02671	9350.45
793.89938	9144.25
797.76935	9082.95
801.6366	9057.35
805.50115	9048.45
809.36299	8998.05
813.22213	8919.05
817.07857	8869.05
820.93231	8843.55
824.78336	8804.05
828.63172	8772.05
832.47738	8769.35
836.32036	8782.35
840.16066	8790.25
843.99827	8812.85
847.8332	8788.65
851.66546	8767.35
855.49504	8739.25
859.32195	8750.75
863.1462	8765.35
866.96777	8768.65
870.78668	8718.35
874.60293	8736.85
878.41652	8725.25
882.22745	8728.85
886.03573	8776.35
889.84136	8780.65
893.64433	8757.05
897.44466	8729.85
901.24235	8711.35
905.0374	8637.65
908.8298	8607.55
912.61957	8607.35
916.40671	8670.45
920.19121	8756.05
923.97308	8826.15
927.75233	8898.05
931.52895	8871.15
935.30295	8784.35
939.07433	8622.05
942.84309	8483.65
946.60924	8422.95
950.37278	8336.85
954.13371	8342.15
957.89203	8291.15
961.64774	8272.35
965.40086	8274.15
969.15137	8225.55
972.89929	8182.35
976.64461	8142.15
980.38733	8112.45
984.12747	8133.05
987.86502	8174.15
991.59999	8230.35
995.33237	8340.75
999.06217	8498.95
1002.78939	8708.95
1006.51404	8813.25
1010.23611	8859.95
1013.95561	8945.75
1017.67255	8963.65
1021.38692	8931.05
1025.09872	8839.85
1028.80796	8819.45
1032.51465	8934.05
1036.21877	9071.65
1039.92035	9126.15
1043.61937	9079.45
1047.31584	8963.25
1051.00976	8842.85
1054.70114	8809.05
1058.38998	8809.25
1062.07627	8853.15
1065.76003	8911.45
1069.44126	8987.75
1073.11995	9086.55
1076.79611	9185.85
1080.46974	9200.85
1084.14085	9199.75
1087.80943	9222.25
1091.47549	9269.25
1095.13903	9276.35
1098.80005	9170.45
1102.45857	9009.75
1106.11456	8876.35
1109.76805	8794.55
1113.41903	8841.45
1117.06751	8913.45
1120.71348	9008.85
1124.35696	9151.45
1127.99793	9294.75
1131.63641	9403.65
1135.2724	9328.35
1138.90589	9185.35
1142.5369	9145.05
1146.16542	9126.35
1149.79145	9137.75
1153.415	9172.85
1157.03607	9276.95
1160.65467	9515.95
1164.27079	9867.95
1167.88443	10356.35
1171.49561	10941.05
1175.10432	11636.85
1178.71056	12555.15
1182.31434	13431.85
1185.91565	13883.65
1189.51451	13839.05
1193.11091	13459.25
1196.70485	12873.35
1200.29634	12310.15
1203.88538	11907.25
1207.47197	11555.55
1211.05612	11278.15
1214.63782	11035.05
1218.21708	10873.75
1221.79391	10734.05
1225.36829	10697.25
1228.94024	10624.05
1232.50976	10431.35
1236.07685	10285.35
1239.6415	10147.15
1243.20374	10149.85
1246.76355	10171.85
1250.32093	10258.55
1253.8759	10431.55
1257.42845	10669.25
1260.97859	10942.45
1264.52631	11169.95
1268.07163	11457.75
1271.61453	11741.15
1275.15503	12087.55
1278.69312	12428.35
1282.22882	12758.55
1285.76211	13050.25
1289.29301	13395.25
1292.82151	13847.95
1296.34761	14528.55
1299.87133	15349.05
1303.39266	16275.55
1306.9116	17264.05
1310.42815	18200.85
1313.94233	18808.65
1317.45412	18770.25
1320.96354	18303.15
1324.47058	17773.15
1327.97525	17294.85
1331.47754	17032.15
1334.97747	16852.45
1338.47502	16730.85
1341.97022	16611.35
1345.46305	16471.45
1348.95352	16368.95
1352.44163	16473.45
1355.92738	16925.35
1359.41078	17676.35
1362.89183	18386.35
1366.37053	18234.65
1369.84688	16855.65
1373.32088	15029.25
1376.79254	13633.35
1380.26186	13029.95
1383.72883	12858.55
1387.19347	12807.25
1390.65578	12659.05
1394.11575	12581.15
1397.57339	12717.15
1401.0287	13037.35
1404.48168	13311.45
1407.93234	13382.55
1411.38068	13245.15
1414.82669	12942.15
1418.27039	12480.05
1421.71177	11990.75
1425.15083	11575.25
1428.58758	11327.05
1432.02203	11320.55
1435.45416	11512.95
1438.88399	11829.85
1442.31151	12092.25
1445.73673	12250.75
1449.15965	12434.25
1452.58027	12536.75
1455.9986	12531.15
1459.41463	12556.35
1462.82837	12673.35
1466.23982	12928.15
1469.64898	13155.45
1473.05586	13296.95
1476.46045	13360.45
1479.86276	13325.45
1483.26279	13229.45
1486.66054	13136.95
1490.05602	13136.35
1493.44922	13210.75
1496.84016	13308.65
1500.22882	13540.75
1503.61521	13984.25
1506.99934	14615.85
1510.38121	15140.75
1513.76081	15328.75
1517.13816	14932.95
1520.51324	14238.65
1523.88607	13591.45
1527.25665	13209.75
1530.62498	13007.65
1533.99105	12922.15
1537.35488	12801.85
1540.71647	12667.85
1544.07581	12464.15
1547.4329	12271.55
1550.78776	12053.75
1554.14038	11905.95
1557.49077	11810.95
1560.83892	11752.15
1564.18484	11744.35
1567.52853	11778.15
1570.86999	11888.25
1574.20922	12086.45
1577.54624	12266.55
1580.88103	12297.15
1584.2136	12223.35
1587.54395	12405.15
1590.87208	12853.25
1594.19801	13620.85
1597.52172	14413.25
1600.84321	14876.35
1604.16251	14470.65
1607.47959	13529.65
1610.79447	12390.45
1614.10715	11324.15
1617.41763	10452.95
1620.7259	9827.05
1624.03199	9493.25
1627.33587	9450.15
1630.63757	9635.05
1633.93707	10121.05
1637.23439	10998.15
1640.52951	12196.85
1643.82246	13759.35
1647.11321	15052.15
1650.40179	15466.75
1653.68819	14576.35
1656.97241	12813.35
1660.25446	11029.95
1663.53433	9699.95
1666.81203	8920.45
1670.08756	8418.85
1673.36092	8100.15
1676.63211	7913.95
1679.90115	7776.15
1683.16801	7660.85
1686.43272	7526.65
1689.69527	7479.65
1692.95567	7422.35
1696.2139	7329.85
1699.46999	7277.25
1702.72392	7232.75
1705.97571	7237.25
1709.22535	7247.55
1712.47284	7276.15
1715.71819	7253.35
1718.96139	7262.85
1722.20246	7250.15
1725.44139	7208.55
1728.67818	7179.25
1731.91284	7146.05
1735.14537	7120.55
1738.37576	7093.95
1741.60403	7069.75
1744.83017	7048.55
1748.05418	7044.35
1751.27607	7052.05
1754.49584	7041.65
1757.71349	7025.45
1760.92903	7008.85
1764.14244	6964.25
1767.35375	6961.45
1770.56294	6905.65
1773.77002	6898.35
1776.97499	6880.75
1780.17785	6867.55
1783.37861	6867.35
1786.57727	6837.95
1789.77382	6839.65
1792.96828	6835.55
1796.16064	6802.25
1799.3509	6768.65
1802.53907	6759.85
1805.72514	6741.15
1808.90913	6740.05
1812.09102	6722.85
1815.27083	6694.45
1818.44856	6684.45
1821.6242	6665.35
1824.79776	6654.45
1827.96924	6660.45
1831.13864	6653.45
1834.30597	6654.65
1837.47122	6645.65
1840.6344	6652.05
1843.7955	6632.55
1846.95454	6644.45
1850.11151	6619.15
1853.26642	6642.65
1856.41926	6631.55
1859.57004	6638.15
1862.71876	6626.45
1865.86542	6633.75
1869.01003	6611.45
1872.15258	6605.25
1875.29308	6616.05
1878.43152	6586.25
1881.56792	6596.45
1884.70227	6567.85
1887.83457	6567.85
1890.96482	6555.15
1894.09304	6561.15
1897.21921	6565.35
1900.34335	6531.15
1903.46544	6531.65
1906.58551	6542.55
1909.70353	6533.05
1912.81953	6512.45
1915.93349	6496.95
1919.04543	6486.55
1922.15534	6491.65
1925.26322	6454.75
1928.36908	6452.45
1931.47292	6435.75
1934.57473	6407.95
1937.67453	6391.75
1940.77232	6374.95
1943.86808	6370.75
1946.96184	6342.75
1950.05358	6308.05
1953.14331	6300.85
1956.23103	6283.25
1959.31675	6276.55
1962.40046	6253.65
1965.48217	6245.55
1968.56188	6214.05
1971.63959	6192.95
1974.7153	6193.05
1977.78901	6166.65
1980.86073	6139.35
1983.93046	6134.65
1986.99819	6112.35
1990.06394	6108.85
1993.1277	6073.55
1996.18947	6048.15
1999.24925	6033.05
2002.30706	6034.15
2005.36288	5994.85
2008.41672	5994.25
2011.46859	5985.55
2014.51848	5981.15
2017.56639	5958.55
2020.61233	5921.45
2023.6563	5922.45
2026.6983	5914.15
2029.73833	5899.95
2032.7764	5883.85
2035.8125	5875.05
2038.84664	5861.85
2041.87881	5860.85
2044.90903	5834.05
2047.93729	5837.15
2050.96359	5815.25
2053.98794	5807.55
2057.01034	5816.45
2060.03078	5809.05
2063.04927	5792.05
2066.06582	5798.65
2069.08042	5797.95
2072.09307	5794.95
2075.10378	5781.55
2078.11255	5785.25
2081.11938	5787.85
2084.12426	5780.35
2087.12722	5789.55
2090.12824	5771.55
2093.12732	5774.65
2096.12447	5770.15
2099.11969	5747.45
2102.11299	5773.85
2105.10435	5753.95
2108.09379	5769.55
2111.08131	5790.75
2114.0669	5794.05
2117.05057	5804.95
2120.03233	5795.25
2123.01216	5804.35
2125.99008	5810.25
2128.96609	5805.85
2131.94018	5823.75
2134.91236	5827.95
2137.88263	5811.75
2140.851	5823.85
2143.81746	5816.45
2146.78201	5816.95
2149.74466	5820.75
2152.7054	5820.25
2155.66425	5812.95
2158.6212	5812.75
2161.57625	5796.45
2164.52941	5806.65
2167.48067	5812.05
2170.43004	5801.85
2173.37752	5818.55
2176.32311	5803.35
2179.26681	5799.95
2182.20863	5783.75
2185.14856	5809.25
2188.08661	5811.25
2191.02278	5807.65
2193.95707	5789.75
2196.88948	5804.75
2199.82001	5796.95
2202.74867	5784.25
2205.67545	5799.55
2208.60037	5773.15
2211.52341	5777.05
2214.44458	5766.95
2217.36388	5733.75
2220.28132	5745.95
2223.1969	5742.35
2226.11061	5736.85
2229.02246	5728.25
2231.93245	5714.55
2234.84058	5702.05
2237.74686	5682.45
2240.65128	5684.65
2243.55385	5672.85
2246.45456	5661.55
2249.35343	5663.25
2252.25044	5635.75
2255.14561	5646.25
2258.03893	5628.45
2260.93041	5619.35
2263.82004	5599.85
2266.70783	5587.25
2269.59378	5583.65
2272.4779	5558.95
2275.36017	5550.75
2278.24061	5550.05
2281.11922	5541.95
2283.996	5526.05
2286.87094	5506.45
2289.74405	5510.35
2292.61534	5518.55
2295.4848	5483.95
2298.35243	5494.25
2301.21824	5493.85
2304.08223	5497.95
2306.94439	5490.35
2309.80474	5504.95
2312.66327	5497.55
2315.51999	5497.55
2318.37489	5501.25
2321.22797	5477.65
2324.07925	5485.05
2326.92871	5466.65
2329.77637	5461.45
2332.62222	5447.75
2335.46626	5441.95
2338.3085	5433.05
2341.14893	5445.75
2343.98756	5451.05
2346.8244	5432.75
2349.65943	5448.85
2352.49267	5427.25
2355.32411	5451.35
2358.15376	5428.75
2360.98161	5433.85
2363.80768	5427.85
2366.63195	5440.25
2369.45444	5431.25
2372.27514	5408.95
2375.09405	5410.05
2377.91118	5397.85
2380.72652	5386.35
2383.54009	5372.35
2386.35187	5345.35
2389.16188	5350.05
2391.97011	5331.65
2394.77657	5342.55
2397.58125	5321.65
2400.38416	5307.35
2403.18529	5304.15
2405.98466	5290.25
2408.78226	5290.35
2411.57809	5284.45
2414.37216	5264.15
2417.16446	5264.75
2419.955	5248.35
2422.74378	5255.05
2425.5308	5258.65
2428.31606	5249.85
2431.09956	5255.35
2433.88131	5233.95
2436.6613	5242.75
2439.43954	5238.85
2442.21603	5229.35
2444.99077	5229.45
2447.76377	5240.35
2450.53501	5243.85
2453.30451	5224.15
2456.07226	5203.75
2458.83827	5227.85
2461.60254	5219.85
2464.36507	5235.55
2467.12586	5216.45
2469.88492	5208.55
2472.64224	5215.85
2475.39782	5199.15
2478.15167	5208.55
2480.90379	5211.65
2483.65417	5210.85
2486.40283	5214.85
2489.14976	5213.75
2491.89497	5213.65
2494.63845	5216.45
2497.3802	5213.75
2500.12024	5207.95
2502.85855	5210.25
2505.59514	5215.55
2508.33002	5190.05
2511.06318	5201.25
2513.79462	5170.35
2516.52435	5152.15
2519.25237	5166.35
2521.97867	5168.85
2524.70327	5162.95
2527.42616	5163.35
2530.14734	5146.35
2532.86681	5148.75
2535.58458	5143.85
2538.30065	5143.95
2541.01501	5136.45
2543.72768	5130.85
2546.43864	5136.05
2549.14791	5110.35
2551.85548	5126.55
2554.56136	5111.25
2557.26554	5096.65
2559.96803	5099.45
2562.66883	5087.15
2565.36794	5096.55
2568.06536	5103.95
2570.7611	5078.35
2573.45514	5067.25
2576.14751	5067.15
2578.83819	5053.65
2581.52719	5043.95
2584.21451	5062.35
2586.90015	5058.15
2589.58411	5039.65
2592.2664	5040.75
2594.94701	5037.85
2597.62594	5030.95
2600.30321	5021.75
2602.9788	5025.55
2605.65273	5009.45
2608.32498	5000.65
2610.99557	5010.25
2613.66449	5015.05
2616.33175	4992.25
2618.99734	4996.05
2621.66128	5010.95
2624.32355	5000.45
2626.98416	5008.95
2629.64311	4997.85
2632.30041	5008.35
2634.95605	4979.25
2637.61004	4986.05
2640.26238	4990.15
2642.91306	4969.15
2645.56209	4953.15
2648.20948	4973.85
2650.85521	4965.25
2653.4993	4976.85
2656.14175	4995.65
2658.78255	4983.75
2661.42171	4980.55
2664.05923	4972.65
2666.6951	4999.85
2669.32934	4992.75
2671.96194	4972.05
2674.59291	4968.25
2677.22224	4973.05
2679.84993	4965.45
2682.476	4972.35
2685.10043	4964.15
2687.72324	4962.65
2690.34441	4965.65
2692.96396	4957.55
2695.58188	4976.45
2698.19818	4968.85
2700.81285	4966.95
2703.4259	4962.75
2706.03733	4938.85
2708.64714	4936.75
2711.25533	4967.05
2713.86191	4970.55
2716.46687	4970.95
2719.07021	4979.05
2721.67194	4985.65
2724.27206	4980.95
2726.87057	4985.45
2729.46747	4994.55
2732.06276	4988.75
2734.65644	4997.45
2737.24852	4991.05
2739.83899	4998.65
2742.42786	4992.95
2745.01513	4958.65
2747.60079	4960.55
2750.18486	4975.35
2752.76733	4966.95
2755.3482	4970.35
2757.92747	4971.35
2760.50515	4953.25
2763.08123	4973.65
2765.65573	4966.95
2768.22863	4978.75
2770.79994	4948.75
2773.36967	4954.95
2775.9378	4957.75
2778.50435	4963.95
2781.06932	4956.25
2783.6327	4940.35
2786.1945	4940.55
2788.75471	4937.25
2791.31335	4919.45
2793.87041	4921.95
2796.42589	4919.45
2798.97979	4930.85
2801.53212	4905.95
2804.08288	4903.15
2806.63206	4910.85
2809.17967	4894.65
2811.72571	4887.75
2814.27018	4874.65
2816.81308	4879.95
2819.35442	4867.25
2821.89419	4860.85
2824.43239	4860.85
2826.96904	4857.25
2829.50412	4858.65
2832.03763	4862.15
2834.56959	4852.85
2837.1	4859.75
2839.62884	4868.95
2842.15613	4876.15
2844.68186	4915.05
2847.20604	4924.75
2849.72867	4961.15
2852.24974	4934.25
2854.76927	4934.55
2857.28724	4922.65
2859.80367	4935.05
2862.31855	4926.85
2864.83189	4922.05
2867.34368	4898.35
2869.85393	4918.65
2872.36264	4914.45
2874.8698	4907.95
2877.37543	4919.85
2879.87952	4918.25
2882.38207	4909.15
2884.88308	4924.25
2887.38256	4917.25
2889.88051	4918.05
2892.37692	4918.65
2894.8718	4930.85
2897.36515	4936.85
2899.85698	4949.55
2902.34727	4955.35
2904.83604	4969.45
2907.32328	4996.35
2909.809	4978.45
2912.29319	4997.95
2914.77587	4992.85
2917.25702	4994.45
2919.73665	4970.55
2922.21476	4986.65
2924.69136	5001.65
2927.16644	4996.35
2929.64	5005.55
2932.11205	5009.45
2934.58258	5003.05
2937.05161	5008.35
2939.51912	5001.35
2941.98513	4983.45
2944.44962	4970.65
2946.91261	4943.05
2949.37409	4948.45
2951.83407	4940.95
2954.29254	4930.35
2956.74951	4911.85
2959.20498	4926.15
2961.65895	4910.95
2964.11142	4905.65
2966.56239	4888.25
2969.01186	4860.35
2971.45984	4852.55
2973.90632	4850.15
2976.35131	4837.85
2978.7948	4816.15
2981.23681	4817.15
2983.67732	4808.85
2986.11635	4778.05
2988.55388	4787.15
2990.98993	4771.75
2993.4245	4751.55
2995.85758	4764.85
2998.28917	4743.55
3000.71928	4738.65
3003.14791	4744.45
3005.57506	4729.95
3008.00073	4725.85
3010.42493	4707.65
3012.84764	4711.05
3015.26888	4712.45
3017.68865	4702.75
3020.10694	4686.95
3022.52376	4665.35
3024.9391	4670.15
3027.35298	4697.65
3029.76539	4669.25
3032.17632	4673.45
3034.5858	4642.45
3036.9938	4659.95
3039.40034	4642.55
3041.80542	4674.55
3044.20903	4642.55
3046.61118	4653.95
3049.01187	4647.55
3051.4111	4646.95
3053.80888	4643.35
3056.20519	4627.65
3058.60005	4627.15
3060.99345	4612.05
3063.3854	4609.55
3065.7759	4597.05
3068.16494	4590.05
3070.55254	4603.25
3072.93868	4584.15
3075.32338	4580.95
3077.70662	4575.05
3080.08842	4557.75
3082.46878	4567.95
3084.84769	4546.85
3087.22515	4563.15
3089.60118	4556.45
3091.97576	4573.05
3094.3489	4573.75
3096.72061	4569.65
3099.09087	4606.05
3101.4597	4592.35
3103.82709	4596.75
3106.19305	4588.55
3108.55757	4599.05
3110.92066	4596.85
3113.28232	4582.25
3115.64255	4572.75
3118.00134	4558.55
3120.35871	4571.35
3122.71466	4575.25
3125.06917	4563.65
3127.42226	4559.65
3129.77393	4563.65
3132.12417	4567.25
3134.47299	4557.25
3136.82039	4590.35
3139.16636	4576.45
3141.51092	4578.95
3143.85406	4590.55
3146.19579	4594.55
3148.53609	4605.55
3150.87499	4617.45
3153.21246	4621.55
3155.54853	4640.45
3157.88318	4641.65
3160.21642	4632.25
3162.54826	4652.95
3164.87868	4645.85
3167.2077	4650.25
3169.5353	4669.75
3171.86151	4656.85
3174.18631	4659.15
3176.5097	4669.85
3178.83169	4669.45
3181.15228	4672.45
3183.47147	4688.25
3185.78926	4677.05
3188.10565	4672.95
3190.42065	4674.85
3192.73424	4668.85
3195.04645	4698.65
3197.35725	4675.85
3199.66667	4678.85
3201.97469	4688.05
3204.28132	4693.65
3206.58656	4697.75
3208.8904	4701.55
3211.19287	4712.15
3213.49394	4726.55
3215.79363	4717.95
3218.09193	4726.95
3220.38884	4723.75
3222.68438	4728.65
3224.97853	4730.05
3227.2713	4733.95
3229.56269	4734.35
3231.8527	4754.15
3234.14133	4739.95
3236.42858	4730.35
3238.71446	4710.75
3240.99896	4724.85
3243.28209	4706.95
3245.56384	4701.25
3247.84423	4720.55
3250.12324	4703.55
3252.40088	4713.15
3254.67715	4703.95
3256.95205	4715.05
3259.22558	4707.35
3261.49775	4710.95
3263.76855	4700.15
3266.03799	4690.25
3268.30606	4691.45
3270.57277	4676.25
3272.83812	4643.75
3275.10211	4665.75
3277.36474	4649.75
3279.62601	4655.95
3281.88593	4638.85
3284.14448	4646.75
3286.40168	4655.75
3288.65753	4658.35
3290.91202	4665.95
3293.16516	4638.35
3295.41695	4635.35
3297.66738	4609.95
3299.91647	4607.25
3302.16421	4570.45
3304.4106	4554.55
3306.65564	4527.25
3308.89933	4500.45
3311.14169	4471.45
3313.38269	4450.35
3315.62236	4438.35
3317.86068	4389.35
3320.09766	4355.75
3322.3333	4332.95
3324.5676	4309.55
3326.80056	4245.85
3329.03219	4211.75
3331.26248	1.85
3333.49143	0.25
3335.71905	-0.35
