Data from AgNPs_FTO_APTES_UA_1uM_CRN_1000uM_R6G_10uM_NaF_0.1M_Addition_RamanShift__2__18-35-59-916.txt Node

Date: Thu Jan 27 18:35:59 GMT 2022
User: TCL
Spectrometer: QEP01345
Trigger mode: 4
Integration Time (sec): 7.000000E0
Scans to average: 10
Electric dark correction enabled: true
Nonlinearity correction enabled: false
Boxcar width: 0
XAxis mode: Raman Shifts
Number of Pixels in Spectrum: 1044
>>>>>Begin Spectral Data<<<<<
46.04893	0.35
50.45542	1.55
54.85868	-1.15
59.25871	-0.45
63.6555	41.85
68.04907	41.85
72.43941	44.85
76.82654	48.45
81.21044	49.05
85.59113	51.65
89.96862	53.65
94.34289	54.85
98.71396	56.05
103.08183	54.65
107.4465	59.95
111.80798	61.25
116.16626	62.25
120.52136	65.15
124.87327	66.75
129.222	64.25
133.56755	70.15
137.90993	72.75
142.24913	80.25
146.58517	89.25
150.91804	99.15
155.24774	114.45
159.57429	137.25
163.89768	177.45
168.21792	225.95
172.53501	307.95
176.84895	421.65
181.15975	586.45
185.46741	821.25
189.77193	1131.15
194.07331	1530.35
198.37157	1979.65
202.6667	2449.95
206.9587	2924.45
211.24758	3400.35
215.53334	3870.45
219.81599	4370.35
224.09553	4909.05
228.37195	5505.35
232.64527	6167.35
236.91549	6834.75
241.18261	7532.55
245.44663	8130.35
249.70755	8688.15
253.96539	9124.25
258.22014	9511.05
262.4718	9824.75
266.72039	10027.95
270.96589	10112.85
275.20832	10074.15
279.44768	9946.25
283.68397	9783.65
287.91719	9629.95
292.14735	9522.35
296.37445	9509.45
300.59849	9567.05
304.81948	9640.75
309.03742	9715.35
313.25231	9645.25
317.46415	9442.55
321.67296	9161.65
325.87872	8924.75
330.08145	8816.75
334.28114	8828.05
338.47781	8875.45
342.67145	9009.75
346.86207	9156.15
351.04966	9389.85
355.23424	9634.45
359.4158	9803.05
363.59435	9918.85
367.76989	10006.85
371.94243	10059.05
376.11196	10061.25
380.27849	10105.85
384.44203	10158.55
388.60257	10182.25
392.76012	10245.85
396.91468	10339.65
401.06626	10492.45
405.21485	10632.55
409.36047	10621.45
413.50311	10385.35
417.64277	10186.25
421.77947	10060.85
425.9132	10040.05
430.04396	10008.15
434.17176	10030.35
438.2966	10101.25
442.41849	10210.55
446.53742	10415.65
450.6534	10634.25
454.76644	10761.35
458.87653	10765.05
462.98368	10685.15
467.08789	10565.75
471.18916	10433.35
475.2875	10286.05
479.38291	10172.35
483.4754	10074.35
487.56496	9965.45
491.6516	9910.45
495.73531	9916.15
499.81612	9912.05
503.89401	9950.15
507.96899	10016.05
512.04106	10028.05
516.11023	10073.05
520.1765	10112.55
524.23987	10065.95
528.30034	10014.95
532.35792	9928.05
536.41261	9805.35
540.46441	9690.05
544.51333	9613.05
548.55936	9658.95
552.60252	9811.75
556.64279	10015.45
560.6802	10113.65
564.71473	10135.25
568.7464	10186.05
572.7752	10328.25
576.80114	10404.95
580.82422	10541.15
584.84444	10840.65
588.86181	11181.15
592.87633	11517.25
596.888	11540.45
600.89682	11279.15
604.9028	11363.45
608.90594	12473.75
612.90624	14068.95
616.90371	13665.45
620.89834	11220.35
624.89015	9993.35
628.87913	9765.55
632.86528	9851.75
636.84862	9935.35
640.82913	9865.75
644.80683	9666.25
648.78172	9536.75
652.75379	9522.75
656.72306	9636.05
660.68952	9802.15
664.65319	9735.95
668.61405	9563.45
672.57211	9516.75
676.52738	9582.65
680.47986	9676.75
684.42955	9619.85
688.37646	9509.25
692.32058	9444.75
696.26192	9478.65
700.20048	9515.85
704.13626	9571.75
708.06928	9560.25
711.99952	9514.95
715.927	9506.65
719.85171	9544.25
723.77365	9530.45
727.69284	9487.35
731.60928	9404.25
735.52295	9377.15
739.43388	9382.45
743.34206	9394.45
747.24749	9411.55
751.15017	9453.55
755.05012	9553.05
758.94733	9772.75
762.8418	10199.55
766.73354	11018.25
770.62254	11998.85
774.50882	12518.65
778.39237	12190.35
782.27321	11230.65
786.15132	10258.25
790.02671	9713.75
793.89938	9449.15
797.76935	9326.75
801.6366	9255.15
805.50115	9218.85
809.36299	9190.65
813.22213	9106.15
817.07857	9101.55
820.93231	9070.55
824.78336	9045.25
828.63172	9041.35
832.47738	9042.45
836.32036	9060.45
840.16066	9070.65
843.99827	9056.65
847.8332	9037.05
851.66546	9009.55
855.49504	9004.65
859.32195	8996.05
863.1462	8984.75
866.96777	9001.65
870.78668	9005.45
874.60293	8995.85
878.41652	8990.15
882.22745	9018.25
886.03573	9110.55
889.84136	9072.05
893.64433	9055.15
897.44466	9004.15
901.24235	8966.95
905.0374	8925.85
908.8298	8867.95
912.61957	8886.75
916.40671	8887.15
920.19121	8969.75
923.97308	9061.45
927.75233	9148.15
931.52895	9178.65
935.30295	9093.15
939.07433	8943.05
942.84309	8761.35
946.60924	8667.85
950.37278	8615.05
954.13371	8562.65
957.89203	8521.55
961.64774	8505.35
965.40086	8497.05
969.15137	8476.55
972.89929	8440.45
976.64461	8406.75
980.38733	8395.35
984.12747	8408.45
987.86502	8422.45
991.59999	8465.85
995.33237	8531.45
999.06217	8642.15
1002.78939	8780.45
1006.51404	8891.85
1010.23611	8959.85
1013.95561	9067.25
1017.67255	9122.85
1021.38692	9079.25
1025.09872	8973.05
1028.80796	8882.95
1032.51465	8916.65
1036.21877	8992.95
1039.92035	9072.75
1043.61937	9073.45
1047.31584	9047.95
1051.00976	9022.05
1054.70114	8988.05
1058.38998	8996.95
1062.07627	9030.95
1065.76003	9138.55
1069.44126	9200.75
1073.11995	9357.35
1076.79611	9474.25
1080.46974	9487.95
1084.14085	9460.85
1087.80943	9455.05
1091.47549	9475.05
1095.13903	9486.05
1098.80005	9384.95
1102.45857	9175.05
1106.11456	9023.75
1109.76805	8978.65
1113.41903	9039.65
1117.06751	9135.45
1120.71348	9278.85
1124.35696	9493.35
1127.99793	9718.65
1131.63641	9842.05
1135.2724	9672.05
1138.90589	9418.85
1142.5369	9280.75
1146.16542	9211.85
1149.79145	9155.75
1153.415	9138.45
1157.03607	9194.45
1160.65467	9327.95
1164.27079	9639.95
1167.88443	10036.85
1171.49561	10610.15
1175.10432	11357.25
1178.71056	12358.15
1182.31434	13307.85
1185.91565	13721.95
1189.51451	13561.25
1193.11091	12998.05
1196.70485	12263.65
1200.29634	11669.55
1203.88538	11188.75
1207.47197	10792.95
1211.05612	10437.45
1214.63782	10175.85
1218.21708	10015.45
1221.79391	9968.35
1225.36829	9963.65
1228.94024	9969.05
1232.50976	9896.65
1236.07685	9811.95
1239.6415	9726.25
1243.20374	9702.55
1246.76355	9706.95
1250.32093	9756.25
1253.8759	9924.95
1257.42845	10079.35
1260.97859	10330.45
1264.52631	10548.75
1268.07163	10754.45
1271.61453	11028.45
1275.15503	11286.95
1278.69312	11528.85
1282.22882	11698.65
1285.76211	11976.85
1289.29301	12333.55
1292.82151	12756.75
1296.34761	13276.65
1299.87133	13936.45
1303.39266	14744.85
1306.9116	15729.55
1310.42815	16755.35
1313.94233	17362.05
1317.45412	17240.25
1320.96354	16490.15
1324.47058	15654.45
1327.97525	14883.85
1331.47754	14305.05
1334.97747	13957.15
1338.47502	13769.65
1341.97022	13723.45
1345.46305	13832.55
1348.95352	14168.15
1352.44163	14914.25
1355.92738	15992.85
1359.41078	17411.95
1362.89183	18728.45
1366.37053	18744.65
1369.84688	16930.85
1373.32088	14596.05
1376.79254	12916.05
1380.26186	12094.85
1383.72883	11752.45
1387.19347	11484.55
1390.65578	11163.45
1394.11575	10950.05
1397.57339	10930.85
1401.0287	11038.75
1404.48168	11141.15
1407.93234	11126.65
1411.38068	11038.75
1414.82669	10933.35
1418.27039	10787.75
1421.71177	10593.05
1425.15083	10354.05
1428.58758	10232.25
1432.02203	10230.95
1435.45416	10380.85
1438.88399	10548.85
1442.31151	10642.75
1445.73673	10631.05
1449.15965	10686.75
1452.58027	10684.65
1455.9986	10617.35
1459.41463	10611.95
1462.82837	10716.95
1466.23982	10912.35
1469.64898	11121.55
1473.05586	11253.45
1476.46045	11369.35
1479.86276	11469.15
1483.26279	11541.65
1486.66054	11643.55
1490.05602	11867.05
1493.44922	12174.15
1496.84016	12627.15
1500.22882	13313.05
1503.61521	14303.25
1506.99934	15357.25
1510.38121	16328.65
1513.76081	16544.65
1517.13816	15721.25
1520.51324	14457.85
1523.88607	13181.65
1527.25665	12405.35
1530.62498	11925.85
1533.99105	11711.15
1537.35488	11512.55
1540.71647	11355.95
1544.07581	11107.45
1547.4329	10976.65
1550.78776	10855.45
1554.14038	10709.55
1557.49077	10665.55
1560.83892	10702.65
1564.18484	10806.75
1567.52853	10952.75
1570.86999	11189.65
1574.20922	11472.45
1577.54624	11582.05
1580.88103	11427.75
1584.2136	11025.35
1587.54395	10831.85
1590.87208	10951.15
1594.19801	11395.35
1597.52172	12043.95
1600.84321	12474.75
1604.16251	12300.95
1607.47959	11654.95
1610.79447	10880.85
1614.10715	10073.25
1617.41763	9427.55
1620.7259	8956.35
1624.03199	8720.15
1627.33587	8674.55
1630.63757	8770.55
1633.93707	9118.25
1637.23439	9676.75
1640.52951	10643.55
1643.82246	12041.15
1647.11321	13460.05
1650.40179	14273.45
1653.68819	13783.45
1656.97241	12224.75
1660.25446	10513.25
1663.53433	9251.25
1666.81203	8510.45
1670.08756	8104.15
1673.36092	7823.55
1676.63211	7660.95
1679.90115	7531.65
1683.16801	7462.85
1686.43272	7368.35
1689.69527	7311.55
1692.95567	7238.35
1696.2139	7174.85
1699.46999	7132.35
1702.72392	7091.85
1705.97571	7091.85
1709.22535	7101.95
1712.47284	7133.65
1715.71819	7132.05
1718.96139	7142.75
1722.20246	7132.05
1725.44139	7111.05
1728.67818	7057.25
1731.91284	7034.65
1735.14537	7003.85
1738.37576	6993.55
1741.60403	6964.75
1744.83017	6963.55
1748.05418	6956.55
1751.27607	6955.55
1754.49584	6949.35
1757.71349	6927.55
1760.92903	6909.25
1764.14244	6875.15
1767.35375	6852.85
1770.56294	6772.95
1773.77002	6756.95
1776.97499	6749.65
1780.17785	6763.85
1783.37861	6746.25
1786.57727	6765.05
1789.77382	6743.05
1792.96828	6722.35
1796.16064	6687.25
1799.3509	6668.75
1802.53907	6661.15
1805.72514	6643.65
1808.90913	6598.35
1812.09102	6588.95
1815.27083	6574.85
1818.44856	6578.75
1821.6242	6549.85
1824.79776	6555.35
1827.96924	6524.65
1831.13864	6527.95
1834.30597	6531.95
1837.47122	6526.45
1840.6344	6503.55
1843.7955	6530.45
1846.95454	6491.75
1850.11151	6485.05
1853.26642	6486.75
1856.41926	6490.35
1859.57004	6466.45
1862.71876	6460.85
1865.86542	6472.25
1869.01003	6456.95
1872.15258	6451.95
1875.29308	6446.85
1878.43152	6441.55
1881.56792	6400.05
1884.70227	6406.85
1887.83457	6399.65
1890.96482	6373.05
1894.09304	6378.45
1897.21921	6373.65
1900.34335	6338.95
1903.46544	6371.75
1906.58551	6352.55
1909.70353	6337.75
1912.81953	6312.95
1915.93349	6323.75
1919.04543	6302.85
1922.15534	6302.25
1925.26322	6296.55
1928.36908	6275.75
1931.47292	6244.55
1934.57473	6223.25
1937.67453	6229.95
1940.77232	6196.95
1943.86808	6164.15
1946.96184	6158.95
1950.05358	6153.05
1953.14331	6117.15
1956.23103	6102.25
1959.31675	6093.05
1962.40046	6058.35
1965.48217	6046.75
1968.56188	6037.35
1971.63959	6015.85
1974.7153	6001.75
1977.78901	5988.85
1980.86073	5970.45
1983.93046	5949.35
1986.99819	5916.25
1990.06394	5907.65
1993.1277	5879.05
1996.18947	5858.85
1999.24925	5856.45
2002.30706	5838.45
2005.36288	5834.95
2008.41672	5815.85
2011.46859	5787.55
2014.51848	5774.65
2017.56639	5761.05
2020.61233	5749.15
2023.6563	5712.35
2026.6983	5691.25
2029.73833	5709.85
2032.7764	5673.65
2035.8125	5671.15
2038.84664	5646.55
2041.87881	5627.05
2044.90903	5634.65
2047.93729	5617.65
2050.96359	5618.85
2053.98794	5598.25
2057.01034	5575.85
2060.03078	5587.25
2063.04927	5579.45
2066.06582	5585.35
2069.08042	5571.75
2072.09307	5584.25
2075.10378	5568.45
2078.11255	5566.45
2081.11938	5564.55
2084.12426	5549.25
2087.12722	5552.05
2090.12824	5545.55
2093.12732	5562.45
2096.12447	5540.65
2099.11969	5526.25
2102.11299	5535.65
2105.10435	5549.65
2108.09379	5544.85
2111.08131	5548.05
2114.0669	5556.75
2117.05057	5568.45
2120.03233	5568.75
2123.01216	5575.95
2125.99008	5576.65
2128.96609	5590.55
2131.94018	5577.45
2134.91236	5582.45
2137.88263	5605.35
2140.851	5594.15
2143.81746	5566.05
2146.78201	5574.45
2149.74466	5566.95
2152.7054	5565.85
2155.66425	5564.95
2158.6212	5566.75
2161.57625	5552.65
2164.52941	5543.15
2167.48067	5551.55
2170.43004	5556.25
2173.37752	5554.95
2176.32311	5554.55
2179.26681	5568.95
2182.20863	5549.05
2185.14856	5543.45
2188.08661	5540.95
2191.02278	5555.65
2193.95707	5537.15
2196.88948	5541.15
2199.82001	5535.35
2202.74867	5527.05
2205.67545	5517.35
2208.60037	5511.05
2211.52341	5480.75
2214.44458	5500.55
2217.36388	5464.15
2220.28132	5470.05
2223.1969	5448.35
2226.11061	5441.55
2229.02246	5443.75
2231.93245	5422.95
2234.84058	5420.35
2237.74686	5416.05
2240.65128	5412.95
2243.55385	5384.75
2246.45456	5378.75
2249.35343	5361.75
2252.25044	5359.45
2255.14561	5355.35
2258.03893	5343.45
2260.93041	5315.25
2263.82004	5338.05
2266.70783	5323.25
2269.59378	5291.35
2272.4779	5273.55
2275.36017	5265.85
2278.24061	5278.55
2281.11922	5266.55
2283.996	5255.15
2286.87094	5235.25
2289.74405	5240.55
2292.61534	5215.15
2295.4848	5206.35
2298.35243	5215.45
2301.21824	5219.15
2304.08223	5227.75
2306.94439	5209.45
2309.80474	5193.65
2312.66327	5200.65
2315.51999	5175.85
2318.37489	5186.95
2321.22797	5188.35
2324.07925	5167.75
2326.92871	5151.85
2329.77637	5148.35
2332.62222	5143.75
2335.46626	5131.85
2338.3085	5142.25
2341.14893	5119.55
2343.98756	5126.85
2346.8244	5107.25
2349.65943	5127.85
2352.49267	5115.35
2355.32411	5125.65
2358.15376	5118.45
2360.98161	5095.25
2363.80768	5106.55
2366.63195	5106.55
2369.45444	5119.95
2372.27514	5091.05
2375.09405	5106.25
2377.91118	5096.65
2380.72652	5068.65
2383.54009	5051.45
2386.35187	5034.55
2389.16188	5031.65
2391.97011	5013.85
2394.77657	4997.05
2397.58125	5001.85
2400.38416	4990.55
2403.18529	4983.85
2405.98466	4994.25
2408.78226	4956.05
2411.57809	4952.75
2414.37216	4952.35
2417.16446	4940.45
2419.955	4933.25
2422.74378	4934.55
2425.5308	4937.05
2428.31606	4936.75
2431.09956	4918.05
2433.88131	4908.95
2436.6613	4907.25
2439.43954	4909.85
2442.21603	4909.45
2444.99077	4898.85
2447.76377	4901.55
2450.53501	4911.05
2453.30451	4889.85
2456.07226	4896.95
2458.83827	4878.35
2461.60254	4896.75
2464.36507	4883.95
2467.12586	4880.05
2469.88492	4866.45
2472.64224	4876.35
2475.39782	4866.25
2478.15167	4877.85
2480.90379	4862.85
2483.65417	4865.55
2486.40283	4860.65
2489.14976	4878.75
2491.89497	4853.75
2494.63845	4850.55
2497.3802	4842.65
2500.12024	4846.65
2502.85855	4860.55
2505.59514	4844.95
2508.33002	4824.05
2511.06318	4819.35
2513.79462	4818.95
2516.52435	4791.15
2519.25237	4808.05
2521.97867	4780.45
2524.70327	4784.05
2527.42616	4764.05
2530.14734	4766.25
2532.86681	4762.15
2535.58458	4732.05
2538.30065	4751.05
2541.01501	4746.65
2543.72768	4734.35
2546.43864	4725.15
2549.14791	4725.45
2551.85548	4716.25
2554.56136	4711.25
2557.26554	4717.75
2559.96803	4691.15
2562.66883	4694.85
2565.36794	4682.75
2568.06536	4674.55
2570.7611	4693.05
2573.45514	4657.15
2576.14751	4663.85
2578.83819	4653.15
2581.52719	4657.05
2584.21451	4634.75
2586.90015	4638.25
2589.58411	4623.75
2592.2664	4624.95
2594.94701	4599.15
2597.62594	4601.25
2600.30321	4592.45
2602.9788	4597.75
2605.65273	4581.85
2608.32498	4584.65
2610.99557	4572.85
2613.66449	4570.65
2616.33175	4569.05
2618.99734	4568.75
2621.66128	4554.45
2624.32355	4542.65
2626.98416	4557.35
2629.64311	4553.75
2632.30041	4521.45
2634.95605	4527.15
2637.61004	4512.35
2640.26238	4522.85
2642.91306	4502.55
2645.56209	4500.75
2648.20948	4495.85
2650.85521	4496.55
2653.4993	4505.25
2656.14175	4487.55
2658.78255	4503.95
2661.42171	4502.65
2664.05923	4507.55
2666.6951	4512.05
2669.32934	4514.65
2671.96194	4493.05
2674.59291	4509.45
2677.22224	4504.65
2679.84993	4506.65
2682.476	4500.25
2685.10043	4485.85
2687.72324	4478.65
2690.34441	4493.35
2692.96396	4478.65
2695.58188	4492.15
2698.19818	4486.95
2700.81285	4490.45
2703.4259	4492.55
2706.03733	4463.85
2708.64714	4460.05
2711.25533	4493.45
2713.86191	4471.05
2716.46687	4483.05
2719.07021	4489.15
2721.67194	4498.35
2724.27206	4511.25
2726.87057	4502.85
2729.46747	4511.25
2732.06276	4504.75
2734.65644	4499.15
2737.24852	4495.65
2739.83899	4488.55
2742.42786	4474.55
2745.01513	4455.75
2747.60079	4468.25
2750.18486	4452.35
2752.76733	4457.45
2755.3482	4442.85
2757.92747	4447.95
2760.50515	4442.95
2763.08123	4445.35
2765.65573	4440.55
2768.22863	4447.95
2770.79994	4418.45
2773.36967	4429.85
2775.9378	4426.35
2778.50435	4425.15
2781.06932	4415.35
2783.6327	4419.05
2786.1945	4404.95
2788.75471	4404.05
2791.31335	4393.45
2793.87041	4382.85
2796.42589	4379.35
2798.97979	4371.15
2801.53212	4361.55
2804.08288	4370.75
2806.63206	4360.65
2809.17967	4348.85
2811.72571	4343.65
2814.27018	4319.75
2816.81308	4337.55
2819.35442	4331.55
2821.89419	4332.05
2824.43239	4327.85
2826.96904	4332.75
2829.50412	4316.05
2832.03763	4324.95
2834.56959	4331.45
2837.1	4349.55
2839.62884	4367.15
2842.15613	4381.95
2844.68186	4424.85
2847.20604	4443.55
2849.72867	4483.05
2852.24974	4451.35
2854.76927	4478.85
2857.28724	4443.35
2859.80367	4444.45
2862.31855	4432.95
2864.83189	4435.45
2867.34368	4423.55
2869.85393	4440.65
2872.36264	4438.45
2874.8698	4455.95
2877.37543	4445.25
2879.87952	4419.75
2882.38207	4436.95
2884.88308	4414.55
2887.38256	4430.75
2889.88051	4434.85
2892.37692	4456.95
2894.8718	4453.65
2897.36515	4447.45
2899.85698	4452.55
2902.34727	4477.35
2904.83604	4488.95
2907.32328	4501.25
2909.809	4486.65
2912.29319	4505.85
2914.77587	4492.65
2917.25702	4494.85
2919.73665	4503.35
2922.21476	4506.35
2924.69136	4502.15
2927.16644	4516.35
2929.64	4520.35
2932.11205	4505.85
2934.58258	4513.75
2937.05161	4504.55
2939.51912	4499.85
2941.98513	4477.65
2944.44962	4459.85
2946.91261	4412.05
2949.37409	4412.15
2951.83407	4415.35
2954.29254	4406.15
2956.74951	4377.15
2959.20498	4376.25
2961.65895	4358.35
2964.11142	4361.35
2966.56239	4344.45
2969.01186	4324.45
2971.45984	4308.05
2973.90632	4294.95
2976.35131	4280.05
2978.7948	4260.35
2981.23681	4246.35
2983.67732	4247.65
2986.11635	4223.95
2988.55388	4211.15
2990.98993	4199.95
2993.4245	4201.35
2995.85758	4186.85
2998.28917	4180.85
3000.71928	4187.15
3003.14791	4167.05
3005.57506	4168.55
3008.00073	4149.85
3010.42493	4145.45
3012.84764	4138.75
3015.26888	4138.05
3017.68865	4143.55
3020.10694	4127.45
3022.52376	4117.25
3024.9391	4105.35
3027.35298	4110.85
3029.76539	4105.75
3032.17632	4087.75
3034.5858	4082.65
3036.9938	4083.05
3039.40034	4058.95
3041.80542	4078.55
3044.20903	4055.15
3046.61118	4069.35
3049.01187	4062.05
3051.4111	4061.05
3053.80888	4061.25
3056.20519	4043.45
3058.60005	4020.15
3060.99345	4037.75
3063.3854	4024.05
3065.7759	4026.95
3068.16494	4026.95
3070.55254	4019.85
3072.93868	3999.25
3075.32338	4016.65
3077.70662	4006.55
3080.08842	3988.15
3082.46878	4004.85
3084.84769	3996.75
3087.22515	4003.65
3089.60118	4003.85
3091.97576	4003.65
3094.3489	3998.65
3096.72061	4012.85
3099.09087	4012.85
3101.4597	3992.35
3103.82709	4015.25
3106.19305	4007.05
3108.55757	4015.05
3110.92066	4021.85
3113.28232	4014.85
3115.64255	4001.45
3118.00134	3996.55
3120.35871	4006.75
3122.71466	3996.55
3125.06917	3987.95
3127.42226	3982.65
3129.77393	3991.55
3132.12417	3996.65
3134.47299	4002.15
3136.82039	4002.25
3139.16636	4015.35
3141.51092	4012.05
3143.85406	4023.95
3146.19579	4034.05
3148.53609	4034.95
3150.87499	4022.95
3153.21246	4052.55
3155.54853	4049.35
3157.88318	4047.75
3160.21642	4069.65
3162.54826	4070.45
3164.87868	4074.15
3167.2077	4078.25
3169.5353	4086.75
3171.86151	4085.25
3174.18631	4077.05
3176.5097	4086.45
3178.83169	4103.25
3181.15228	4106.75
3183.47147	4094.95
3185.78926	4084.65
3188.10565	4088.85
3190.42065	4092.45
3192.73424	4087.75
3195.04645	4080.35
3197.35725	4091.05
3199.66667	4116.85
3201.97469	4097.55
3204.28132	4105.95
3206.58656	4116.05
3208.8904	4122.65
3211.19287	4125.25
3213.49394	4123.75
3215.79363	4143.05
3218.09193	4132.95
3220.38884	4145.35
3222.68438	4146.65
3224.97853	4147.25
3227.2713	4152.35
3229.56269	4136.75
3231.8527	4145.65
3234.14133	4146.15
3236.42858	4140.95
3238.71446	4133.75
3240.99896	4110.65
3243.28209	4123.55
3245.56384	4112.85
3247.84423	4117.15
3250.12324	4116.05
3252.40088	4109.25
3254.67715	4129.35
3256.95205	4118.45
3259.22558	4105.15
3261.49775	4107.65
3263.76855	4098.25
3266.03799	4097.65
3268.30606	4082.15
3270.57277	4089.45
3272.83812	4068.65
3275.10211	4068.35
3277.36474	4058.95
3279.62601	4067.95
3281.88593	4062.55
3284.14448	4074.15
3286.40168	4062.85
3288.65753	4053.55
3290.91202	4074.35
3293.16516	4053.55
3295.41695	4043.05
3297.66738	4030.25
3299.91647	4024.35
3302.16421	3989.35
3304.4106	3965.65
3306.65564	3951.55
3308.89933	3919.65
3311.14169	3906.85
3313.38269	3885.25
3315.62236	3858.75
3317.86068	3826.45
3320.09766	3788.75
3322.3333	3767.35
3324.5676	3754.25
3326.80056	3702.45
3329.03219	3670.45
3331.26248	2.15
3333.49143	-0.35
3335.71905	-0.95
