Data from AgNPs_FTO_APTES_UA_1uM_CRN_5uM_R6G_10uM_NaF_0.1M_Addition_RamanShift__5__13-41-59-580.txt Node

Date: Thu Jan 27 13:41:59 GMT 2022
User: TCL
Spectrometer: QEP01345
Trigger mode: 4
Integration Time (sec): 7.000000E0
Scans to average: 10
Electric dark correction enabled: true
Nonlinearity correction enabled: false
Boxcar width: 0
XAxis mode: Raman Shifts
Number of Pixels in Spectrum: 1044
>>>>>Begin Spectral Data<<<<<
46.04893	1.05
50.45542	0.45
54.85868	-1.95
59.25871	-2.55
63.6555	55.25
68.04907	58.15
72.43941	60.85
76.82654	63.65
81.21044	65.55
85.59113	67.05
89.96862	70.75
94.34289	73.25
98.71396	77.15
103.08183	77.05
107.4465	80.55
111.80798	81.15
116.16626	84.75
120.52136	88.55
124.87327	89.05
129.222	91.45
133.56755	100.25
137.90993	101.65
142.24913	108.85
146.58517	125.05
150.91804	141.75
155.24774	166.55
159.57429	198.55
163.89768	246.65
168.21792	331.25
172.53501	442.95
176.84895	603.95
181.15975	851.75
185.46741	1192.05
189.77193	1651.35
194.07331	2204.75
198.37157	2833.15
202.6667	3481.35
206.9587	4165.55
211.24758	4817.15
215.53334	5450.35
219.81599	6159.95
224.09553	6915.05
228.37195	7737.95
232.64527	8648.15
236.91549	9638.45
241.18261	10601.15
245.44663	11522.35
249.70755	12358.25
253.96539	13043.85
258.22014	13659.45
262.4718	14195.75
266.72039	14540.45
270.96589	14695.45
275.20832	14721.75
279.44768	14611.75
283.68397	14463.45
287.91719	14314.05
292.14735	14223.35
296.37445	14160.45
300.59849	14202.25
304.81948	14249.75
309.03742	14297.35
313.25231	14225.55
317.46415	14015.55
321.67296	13783.25
325.87872	13588.45
330.08145	13461.55
334.28114	13466.95
338.47781	13521.05
342.67145	13705.35
346.86207	13915.65
351.04966	14139.25
355.23424	14418.95
359.4158	14641.45
363.59435	14850.45
367.76989	14987.45
371.94243	15094.25
376.11196	15173.25
380.27849	15235.45
384.44203	15326.95
388.60257	15447.95
392.76012	15564.85
396.91468	15786.75
401.06626	15994.85
405.21485	16177.35
409.36047	16143.45
413.50311	16013.35
417.64277	15927.65
421.77947	15974.55
425.9132	16084.15
430.04396	16159.15
434.17176	16261.05
438.2966	16322.25
442.41849	16514.35
446.53742	16887.35
450.6534	17327.85
454.76644	17682.55
458.87653	17731.85
462.98368	17628.75
467.08789	17409.85
471.18916	17103.95
475.2875	16761.95
479.38291	16556.75
483.4754	16407.05
487.56496	16288.65
491.6516	16134.15
495.73531	16008.45
499.81612	15993.45
503.89401	16110.15
507.96899	16214.55
512.04106	16163.55
516.11023	16078.15
520.1765	15953.55
524.23987	15858.95
528.30034	15761.45
532.35792	15618.35
536.41261	15494.35
540.46441	15282.95
544.51333	15215.05
548.55936	15349.95
552.60252	15615.15
556.64279	15946.15
560.6802	16163.05
564.71473	16269.65
568.7464	16362.55
572.7752	16681.95
576.80114	17113.25
580.82422	17606.15
584.84444	18334.85
588.86181	19236.25
592.87633	19986.65
596.888	19949.65
600.89682	19146.15
604.9028	18849.15
608.90594	19825.85
612.90624	21072.25
616.90371	20075.35
620.89834	17398.45
624.89015	16159.15
628.87913	15985.05
632.86528	15974.55
636.84862	15898.55
640.82913	15626.55
644.80683	15301.95
648.78172	15119.45
652.75379	15109.45
656.72306	15290.35
660.68952	15519.45
664.65319	15383.55
668.61405	15166.45
672.57211	15116.95
676.52738	15205.85
680.47986	15194.15
684.42955	15121.05
688.37646	15026.55
692.32058	15135.65
696.26192	15360.75
700.20048	15602.05
704.13626	15683.85
708.06928	15650.45
711.99952	15550.05
715.927	15514.05
719.85171	15620.85
723.77365	15597.25
727.69284	15381.35
731.60928	15148.05
735.52295	15081.25
739.43388	15138.15
743.34206	15133.55
747.24749	15228.45
751.15017	15369.15
755.05012	15566.15
758.94733	15967.55
762.8418	16552.95
766.73354	17491.35
770.62254	18383.65
774.50882	18559.45
778.39237	17938.25
782.27321	16943.05
786.15132	16090.35
790.02671	15579.65
793.89938	15370.65
797.76935	15280.45
801.6366	15252.85
805.50115	15189.25
809.36299	15130.55
813.22213	15022.95
817.07857	14933.45
820.93231	14850.85
824.78336	14825.05
828.63172	14802.15
832.47738	14815.05
836.32036	14874.65
840.16066	14933.05
843.99827	14991.45
847.8332	14942.45
851.66546	14881.45
855.49504	14842.95
859.32195	14826.25
863.1462	14813.75
866.96777	14779.45
870.78668	14737.95
874.60293	14745.35
878.41652	14735.95
882.22745	14797.35
886.03573	14873.15
889.84136	14851.05
893.64433	14783.65
897.44466	14704.25
901.24235	14676.05
905.0374	14611.65
908.8298	14575.15
912.61957	14593.65
916.40671	14731.35
920.19121	14949.85
923.97308	15144.95
927.75233	15227.55
931.52895	15173.85
935.30295	14956.65
939.07433	14766.75
942.84309	14599.35
946.60924	14529.65
950.37278	14501.15
954.13371	14464.85
957.89203	14392.35
961.64774	14380.05
965.40086	14360.65
969.15137	14324.55
972.89929	14298.35
976.64461	14327.65
980.38733	14374.85
984.12747	14450.75
987.86502	14535.15
991.59999	14753.65
995.33237	14949.05
999.06217	15327.95
1002.78939	15840.35
1006.51404	16109.25
1010.23611	16350.05
1013.95561	16444.45
1017.67255	16425.25
1021.38692	16224.95
1025.09872	16032.15
1028.80796	16106.05
1032.51465	16593.35
1036.21877	17059.85
1039.92035	17205.25
1043.61937	17044.85
1047.31584	16648.65
1051.00976	16213.65
1054.70114	15909.75
1058.38998	15822.75
1062.07627	15835.85
1065.76003	15900.55
1069.44126	16018.95
1073.11995	16248.05
1076.79611	16495.45
1080.46974	16627.65
1084.14085	16709.45
1087.80943	16847.75
1091.47549	16924.25
1095.13903	16928.05
1098.80005	16678.35
1102.45857	16363.45
1106.11456	16086.65
1109.76805	16002.65
1113.41903	15967.35
1117.06751	16012.55
1120.71348	16138.25
1124.35696	16237.65
1127.99793	16404.65
1131.63641	16516.05
1135.2724	16439.25
1138.90589	16369.75
1142.5369	16410.95
1146.16542	16463.75
1149.79145	16541.25
1153.415	16601.95
1157.03607	16748.45
1160.65467	17153.75
1164.27079	17858.85
1167.88443	18721.05
1171.49561	19655.55
1175.10432	20696.45
1178.71056	22141.35
1182.31434	23575.15
1185.91565	24352.95
1189.51451	24280.75
1193.11091	23688.55
1196.70485	22899.85
1200.29634	22143.15
1203.88538	21625.05
1207.47197	21338.55
1211.05612	21037.15
1214.63782	20673.25
1218.21708	20231.35
1221.79391	19833.65
1225.36829	19496.05
1228.94024	19274.45
1232.50976	18996.25
1236.07685	18711.15
1239.6415	18552.45
1243.20374	18547.35
1246.76355	18675.25
1250.32093	19026.05
1253.8759	19441.65
1257.42845	19945.35
1260.97859	20511.05
1264.52631	21102.35
1268.07163	21705.15
1271.61453	22350.95
1275.15503	22937.55
1278.69312	23566.25
1282.22882	24143.95
1285.76211	24764.25
1289.29301	25449.15
1292.82151	26407.55
1296.34761	27654.75
1299.87133	29282.85
1303.39266	31061.95
1306.9116	32792.15
1310.42815	33945.25
1313.94233	34370.75
1317.45412	33880.55
1320.96354	32951.65
1324.47058	32095.35
1327.97525	31427.35
1331.47754	31036.45
1334.97747	30748.55
1338.47502	30397.05
1341.97022	29886.35
1345.46305	29352.85
1348.95352	28981.85
1352.44163	29179.95
1355.92738	30191.85
1359.41078	31795.65
1362.89183	33044.85
1366.37053	32678.35
1369.84688	30308.25
1373.32088	27102.55
1376.79254	24760.95
1380.26186	23870.95
1383.72883	23814.85
1387.19347	23800.55
1390.65578	23480.05
1394.11575	23259.15
1397.57339	23339.55
1401.0287	23698.35
1404.48168	24050.45
1407.93234	24106.55
1411.38068	23892.95
1414.82669	23392.35
1418.27039	22655.75
1421.71177	21911.65
1425.15083	21273.55
1428.58758	20938.75
1432.02203	21159.75
1435.45416	21688.85
1438.88399	22380.45
1442.31151	22785.15
1445.73673	22989.35
1449.15965	23022.55
1452.58027	22942.65
1455.9986	22778.25
1459.41463	22728.65
1462.82837	23019.35
1466.23982	23508.35
1469.64898	23961.35
1473.05586	24341.25
1476.46045	24534.45
1479.86276	24489.25
1483.26279	24232.95
1486.66054	24069.45
1490.05602	24095.25
1493.44922	24298.35
1496.84016	24434.95
1500.22882	24696.65
1503.61521	25021.55
1506.99934	25606.45
1510.38121	26090.15
1513.76081	26143.65
1517.13816	25732.25
1520.51324	25016.55
1523.88607	24485.05
1527.25665	24234.35
1530.62498	24204.55
1533.99105	24162.95
1537.35488	23934.55
1540.71647	23528.15
1544.07581	23062.25
1547.4329	22550.55
1550.78776	22151.55
1554.14038	21769.35
1557.49077	21598.95
1560.83892	21421.75
1564.18484	21265.25
1567.52853	21261.15
1570.86999	21409.05
1574.20922	21686.05
1577.54624	21982.15
1580.88103	22151.55
1584.2136	22365.45
1587.54395	23184.75
1590.87208	24561.75
1594.19801	26220.75
1597.52172	27764.35
1600.84321	28226.65
1604.16251	26978.35
1607.47959	24743.25
1610.79447	22448.45
1614.10715	20458.15
1617.41763	18970.35
1620.7259	18036.65
1624.03199	17643.25
1627.33587	17681.05
1630.63757	18189.65
1633.93707	19263.55
1637.23439	20919.45
1640.52951	23418.55
1643.82246	26302.25
1647.11321	28613.55
1650.40179	28865.35
1653.68819	26606.05
1656.97241	23084.05
1660.25446	19837.15
1663.53433	17580.55
1666.81203	16206.25
1670.08756	15356.55
1673.36092	14861.05
1676.63211	14483.55
1679.90115	14235.15
1683.16801	14068.35
1686.43272	13932.15
1689.69527	13811.85
1692.95567	13727.95
1696.2139	13641.45
1699.46999	13568.95
1702.72392	13514.05
1705.97571	13522.65
1709.22535	13529.35
1712.47284	13553.15
1715.71819	13551.35
1718.96139	13528.95
1722.20246	13485.15
1725.44139	13452.55
1728.67818	13395.75
1731.91284	13317.65
1735.14537	13243.05
1738.37576	13158.75
1741.60403	13168.15
1744.83017	13082.55
1748.05418	13057.35
1751.27607	13020.45
1754.49584	13018.55
1757.71349	12987.95
1760.92903	12968.15
1764.14244	12933.65
1767.35375	12940.05
1770.56294	12929.65
1773.77002	12912.95
1776.97499	12913.55
1780.17785	12910.05
1783.37861	12938.25
1786.57727	12922.75
1789.77382	12918.55
1792.96828	12858.55
1796.16064	12841.15
1799.3509	12828.75
1802.53907	12809.05
1805.72514	12759.15
1808.90913	12754.95
1812.09102	12731.05
1815.27083	12699.95
1818.44856	12716.15
1821.6242	12715.65
1824.79776	12669.75
1827.96924	12671.15
1831.13864	12641.75
1834.30597	12658.15
1837.47122	12673.35
1840.6344	12647.05
1843.7955	12655.45
1846.95454	12632.35
1850.11151	12644.15
1853.26642	12650.45
1856.41926	12657.65
1859.57004	12662.15
1862.71876	12674.85
1865.86542	12647.55
1869.01003	12602.65
1872.15258	12599.25
1875.29308	12600.15
1878.43152	12573.05
1881.56792	12559.85
1884.70227	12576.55
1887.83457	12534.05
1890.96482	12512.65
1894.09304	12526.55
1897.21921	12513.45
1900.34335	12478.05
1903.46544	12483.95
1906.58551	12489.85
1909.70353	12459.65
1912.81953	12446.55
1915.93349	12426.25
1919.04543	12359.25
1922.15534	12340.05
1925.26322	12336.95
1928.36908	12336.95
1931.47292	12300.55
1934.57473	12270.85
1937.67453	12245.45
1940.77232	12213.95
1943.86808	12167.45
1946.96184	12155.15
1950.05358	12112.85
1953.14331	12074.85
1956.23103	12062.45
1959.31675	12044.75
1962.40046	12040.25
1965.48217	11978.95
1968.56188	11949.85
1971.63959	11905.75
1974.7153	11905.25
1977.78901	11858.75
1980.86073	11809.85
1983.93046	11801.15
1986.99819	11759.05
1990.06394	11725.45
1993.1277	11690.45
1996.18947	11639.85
1999.24925	11643.95
2002.30706	11580.85
2005.36288	11571.55
2008.41672	11531.85
2011.46859	11502.55
2014.51848	11505.65
2017.56639	11454.45
2020.61233	11439.15
2023.6563	11431.05
2026.6983	11406.85
2029.73833	11375.05
2032.7764	11353.35
2035.8125	11361.35
2038.84664	11322.75
2041.87881	11317.15
2044.90903	11306.55
2047.93729	11280.05
2050.96359	11272.85
2053.98794	11251.85
2057.01034	11261.45
2060.03078	11264.95
2063.04927	11249.65
2066.06582	11259.65
2069.08042	11240.25
2072.09307	11212.15
2075.10378	11204.55
2078.11255	11216.65
2081.11938	11204.85
2084.12426	11210.45
2087.12722	11200.25
2090.12824	11184.75
2093.12732	11199.25
2096.12447	11216.15
2099.11969	11216.05
2102.11299	11200.75
2105.10435	11214.95
2108.09379	11246.65
2111.08131	11243.65
2114.0669	11226.75
2117.05057	11245.45
2120.03233	11261.05
2123.01216	11256.25
2125.99008	11276.85
2128.96609	11281.55
2131.94018	11331.25
2134.91236	11306.45
2137.88263	11319.05
2140.851	11311.05
2143.81746	11329.85
2146.78201	11333.95
2149.74466	11343.15
2152.7054	11351.75
2155.66425	11376.45
2158.6212	11353.55
2161.57625	11319.75
2164.52941	11330.85
2167.48067	11321.35
2170.43004	11327.05
2173.37752	11339.55
2176.32311	11336.55
2179.26681	11336.35
2182.20863	11346.65
2185.14856	11364.35
2188.08661	11350.65
2191.02278	11375.35
2193.95707	11397.65
2196.88948	11345.05
2199.82001	11387.05
2202.74867	11330.65
2205.67545	11338.35
2208.60037	11340.25
2211.52341	11297.95
2214.44458	11308.05
2217.36388	11312.75
2220.28132	11288.45
2223.1969	11266.35
2226.11061	11232.95
2229.02246	11241.75
2231.93245	11251.55
2234.84058	11216.95
2237.74686	11178.75
2240.65128	11197.45
2243.55385	11172.15
2246.45456	11159.55
2249.35343	11154.45
2252.25044	11148.15
2255.14561	11112.65
2258.03893	11101.65
2260.93041	11074.75
2263.82004	11048.95
2266.70783	11035.05
2269.59378	11003.45
2272.4779	10963.75
2275.36017	10972.75
2278.24061	10977.35
2281.11922	10962.45
2283.996	10940.15
2286.87094	10954.05
2289.74405	10933.25
2292.61534	10906.75
2295.4848	10901.25
2298.35243	10913.05
2301.21824	10910.95
2304.08223	10949.55
2306.94439	10953.45
2309.80474	10940.95
2312.66327	10943.75
2315.51999	10939.65
2318.37489	10962.55
2321.22797	10945.05
2324.07925	10926.05
2326.92871	10898.55
2329.77637	10898.45
2332.62222	10876.75
2335.46626	10883.95
2338.3085	10835.05
2341.14893	10860.25
2343.98756	10876.75
2346.8244	10859.15
2349.65943	10877.45
2352.49267	10877.95
2355.32411	10865.45
2358.15376	10850.85
2360.98161	10833.95
2363.80768	10821.25
2366.63195	10823.45
2369.45444	10823.55
2372.27514	10799.05
2375.09405	10788.75
2377.91118	10773.05
2380.72652	10744.65
2383.54009	10728.55
2386.35187	10719.35
2389.16188	10701.55
2391.97011	10658.75
2394.77657	10663.95
2397.58125	10647.45
2400.38416	10671.05
2403.18529	10621.85
2405.98466	10630.05
2408.78226	10602.45
2411.57809	10575.65
2414.37216	10591.15
2417.16446	10573.85
2419.955	10552.55
2422.74378	10554.35
2425.5308	10559.45
2428.31606	10550.85
2431.09956	10533.65
2433.88131	10537.65
2436.6613	10549.05
2439.43954	10532.05
2442.21603	10524.15
2444.99077	10499.55
2447.76377	10493.85
2450.53501	10531.05
2453.30451	10497.15
2456.07226	10516.55
2458.83827	10467.05
2461.60254	10519.55
2464.36507	10521.55
2467.12586	10503.15
2469.88492	10506.65
2472.64224	10523.85
2475.39782	10527.35
2478.15167	10503.15
2480.90379	10512.75
2483.65417	10527.15
2486.40283	10537.95
2489.14976	10543.55
2491.89497	10562.15
2494.63845	10548.15
2497.3802	10526.15
2500.12024	10542.75
2502.85855	10544.45
2505.59514	10516.25
2508.33002	10501.05
2511.06318	10515.25
2513.79462	10503.35
2516.52435	10508.15
2519.25237	10499.15
2521.97867	10489.45
2524.70327	10493.45
2527.42616	10473.25
2530.14734	10467.35
2532.86681	10459.55
2535.58458	10458.15
2538.30065	10439.65
2541.01501	10444.35
2543.72768	10433.25
2546.43864	10439.95
2549.14791	10429.35
2551.85548	10431.65
2554.56136	10413.45
2557.26554	10392.45
2559.96803	10399.15
2562.66883	10407.05
2565.36794	10393.55
2568.06536	10389.85
2570.7611	10381.95
2573.45514	10360.25
2576.14751	10378.05
2578.83819	10364.95
2581.52719	10365.35
2584.21451	10357.75
2586.90015	10343.95
2589.58411	10324.75
2592.2664	10325.55
2594.94701	10319.25
2597.62594	10328.35
2600.30321	10311.55
2602.9788	10301.05
2605.65273	10310.25
2608.32498	10321.75
2610.99557	10290.25
2613.66449	10318.45
2616.33175	10313.15
2618.99734	10307.15
2621.66128	10283.15
2624.32355	10302.25
2626.98416	10274.95
2629.64311	10267.25
2632.30041	10277.95
2634.95605	10242.15
2637.61004	10246.05
2640.26238	10217.15
2642.91306	10254.95
2645.56209	10197.25
2648.20948	10221.25
2650.85521	10210.45
2653.4993	10210.65
2656.14175	10224.75
2658.78255	10215.85
2661.42171	10226.05
2664.05923	10246.65
2666.6951	10247.95
2669.32934	10264.15
2671.96194	10258.65
2674.59291	10273.15
2677.22224	10277.45
2679.84993	10266.15
2682.476	10214.45
2685.10043	10242.45
2687.72324	10219.35
2690.34441	10245.65
2692.96396	10229.25
2695.58188	10257.45
2698.19818	10244.55
2700.81285	10216.95
2703.4259	10246.25
2706.03733	10215.75
2708.64714	10201.65
2711.25533	10262.55
2713.86191	10229.65
2716.46687	10284.65
2719.07021	10284.05
2721.67194	10285.15
2724.27206	10278.05
2726.87057	10314.65
2729.46747	10315.15
2732.06276	10306.05
2734.65644	10305.85
2737.24852	10295.45
2739.83899	10311.05
2742.42786	10312.15
2745.01513	10278.95
2747.60079	10283.65
2750.18486	10283.45
2752.76733	10259.05
2755.3482	10272.95
2757.92747	10277.15
2760.50515	10267.65
2763.08123	10283.15
2765.65573	10254.55
2768.22863	10262.05
2770.79994	10237.55
2773.36967	10261.75
2775.9378	10256.95
2778.50435	10262.35
2781.06932	10235.45
2783.6327	10239.75
2786.1945	10243.75
2788.75471	10237.45
2791.31335	10197.15
2793.87041	10223.45
2796.42589	10160.65
2798.97979	10200.25
2801.53212	10174.25
2804.08288	10164.25
2806.63206	10122.95
2809.17967	10100.55
2811.72571	10087.15
2814.27018	10070.75
2816.81308	10062.45
2819.35442	10052.05
2821.89419	10050.95
2824.43239	10051.95
2826.96904	10002.25
2829.50412	10045.15
2832.03763	10025.15
2834.56959	10024.85
2837.1	9981.15
2839.62884	9990.25
2842.15613	10006.35
2844.68186	10052.75
2847.20604	10045.45
2849.72867	10047.75
2852.24974	10046.15
2854.76927	10028.75
2857.28724	10007.35
2859.80367	10012.85
2862.31855	10005.35
2864.83189	9987.45
2867.34368	9978.95
2869.85393	9988.75
2872.36264	9974.15
2874.8698	9971.55
2877.37543	9972.75
2879.87952	9970.15
2882.38207	9977.55
2884.88308	9943.85
2887.38256	9988.55
2889.88051	9973.25
2892.37692	10001.85
2894.8718	9966.55
2897.36515	9987.15
2899.85698	10006.05
2902.34727	10016.35
2904.83604	10008.65
2907.32328	10042.75
2909.809	10022.45
2912.29319	10047.85
2914.77587	10051.05
2917.25702	10023.65
2919.73665	10020.15
2922.21476	10047.05
2924.69136	10035.55
2927.16644	10036.05
2929.64	10037.25
2932.11205	10019.95
2934.58258	9989.85
2937.05161	10012.85
2939.51912	9997.45
2941.98513	9966.05
2944.44962	9965.35
2946.91261	9916.75
2949.37409	9932.45
2951.83407	9933.75
2954.29254	9924.45
2956.74951	9913.95
2959.20498	9916.35
2961.65895	9905.35
2964.11142	9923.05
2966.56239	9910.95
2969.01186	9870.65
2971.45984	9846.85
2973.90632	9853.15
2976.35131	9847.95
2978.7948	9829.55
2981.23681	9829.05
2983.67732	9785.05
2986.11635	9766.25
2988.55388	9748.75
2990.98993	9727.25
2993.4245	9690.45
2995.85758	9715.35
2998.28917	9655.15
3000.71928	9672.25
3003.14791	9653.25
3005.57506	9648.45
3008.00073	9650.35
3010.42493	9635.15
3012.84764	9610.25
3015.26888	9609.35
3017.68865	9595.35
3020.10694	9570.85
3022.52376	9551.65
3024.9391	9523.05
3027.35298	9538.55
3029.76539	9526.15
3032.17632	9529.45
3034.5858	9487.45
3036.9938	9515.35
3039.40034	9529.95
3041.80542	9504.65
3044.20903	9486.55
3046.61118	9480.75
3049.01187	9492.65
3051.4111	9486.75
3053.80888	9462.75
3056.20519	9468.85
3058.60005	9429.95
3060.99345	9384.45
3063.3854	9362.95
3065.7759	9347.65
3068.16494	9338.55
3070.55254	9326.75
3072.93868	9304.85
3075.32338	9294.05
3077.70662	9299.95
3080.08842	9280.65
3082.46878	9269.95
3084.84769	9252.05
3087.22515	9257.15
3089.60118	9230.95
3091.97576	9246.35
3094.3489	9258.35
3096.72061	9238.25
3099.09087	9253.45
3101.4597	9243.05
3103.82709	9225.15
3106.19305	9231.85
3108.55757	9265.95
3110.92066	9234.85
3113.28232	9212.45
3115.64255	9156.85
3118.00134	9191.05
3120.35871	9162.25
3122.71466	9163.85
3125.06917	9126.05
3127.42226	9128.45
3129.77393	9108.05
3132.12417	9096.55
3134.47299	9094.15
3136.82039	9113.95
3139.16636	9100.25
3141.51092	9114.75
3143.85406	9107.85
3146.19579	9127.85
3148.53609	9117.15
3150.87499	9142.05
3153.21246	9147.25
3155.54853	9163.45
3157.88318	9141.75
3160.21642	9145.95
3162.54826	9137.15
3164.87868	9151.85
3167.2077	9147.85
3169.5353	9144.15
3171.86151	9137.25
3174.18631	9151.15
3176.5097	9135.65
3178.83169	9125.95
3181.15228	9121.45
3183.47147	9111.65
3185.78926	9128.75
3188.10565	9108.25
3190.42065	9089.95
3192.73424	9097.15
3195.04645	9084.95
3197.35725	9087.45
3199.66667	9103.05
3201.97469	9087.85
3204.28132	9081.75
3206.58656	9095.85
3208.8904	9094.15
3211.19287	9104.85
3213.49394	9109.65
3215.79363	9087.95
3218.09193	9102.55
3220.38884	9103.55
3222.68438	9127.85
3224.97853	9090.25
3227.2713	9087.35
3229.56269	9087.45
3231.8527	9075.15
3234.14133	9075.85
3236.42858	9036.05
3238.71446	9054.05
3240.99896	9046.85
3243.28209	9053.45
3245.56384	9025.75
3247.84423	9036.65
3250.12324	8998.85
3252.40088	8995.05
3254.67715	9004.55
3256.95205	9003.45
3259.22558	9000.65
3261.49775	8983.35
3263.76855	8976.45
3266.03799	8958.45
3268.30606	8966.65
3270.57277	8943.45
3272.83812	8920.85
3275.10211	8895.85
3277.36474	8895.45
3279.62601	8887.05
3281.88593	8867.35
3284.14448	8872.05
3286.40168	8905.35
3288.65753	8879.75
3290.91202	8901.65
3293.16516	8851.65
3295.41695	8834.25
3297.66738	8782.65
3299.91647	8743.25
3302.16421	8681.15
3304.4106	8671.35
3306.65564	8619.25
3308.89933	8565.35
3311.14169	8512.85
3313.38269	8418.55
3315.62236	8392.55
3317.86068	8314.45
3320.09766	8267.55
3322.3333	8210.25
3324.5676	8187.55
3326.80056	8090.75
3329.03219	8012.65
3331.26248	2.85
3333.49143	1.15
3335.71905	-0.85
