Data from AgNPs_FTO_APTES_UA_1uM_CRN_10uM_R6G_50uM_NaF_0.1M_Addition_RamanShift__15__15-58-29-737.txt Node

Date: Thu Jan 27 15:58:29 GMT 2022
User: TCL
Spectrometer: QEP01345
Trigger mode: 4
Integration Time (sec): 7.000000E0
Scans to average: 10
Electric dark correction enabled: true
Nonlinearity correction enabled: false
Boxcar width: 0
XAxis mode: Raman Shifts
Number of Pixels in Spectrum: 1044
>>>>>Begin Spectral Data<<<<<
46.04893	1.85
50.45542	-0.95
54.85868	-1.85
59.25871	-0.55
63.6555	44.75
68.04907	47.45
72.43941	51.85
76.82654	53.15
81.21044	57.65
85.59113	56.95
89.96862	56.75
94.34289	62.65
98.71396	65.75
103.08183	64.25
107.4465	66.35
111.80798	69.75
116.16626	68.75
120.52136	74.25
124.87327	72.55
129.222	72.85
133.56755	76.15
137.90993	83.65
142.24913	88.05
146.58517	98.45
150.91804	112.05
155.24774	131.35
159.57429	158.15
163.89768	200.25
168.21792	264.25
172.53501	357.75
176.84895	484.15
181.15975	682.65
185.46741	960.65
189.77193	1313.75
194.07331	1764.45
198.37157	2274.65
202.6667	2821.05
206.9587	3353.85
211.24758	3885.05
215.53334	4391.35
219.81599	4946.05
224.09553	5525.55
228.37195	6188.25
232.64527	6895.45
236.91549	7672.15
241.18261	8464.75
245.44663	9194.35
249.70755	9858.25
253.96539	10476.15
258.22014	10987.95
262.4718	11426.55
266.72039	11713.25
270.96589	11870.25
275.20832	11916.05
279.44768	11918.85
283.68397	11814.75
287.91719	11738.75
292.14735	11674.95
296.37445	11683.25
300.59849	11687.05
304.81948	11724.85
309.03742	11644.35
313.25231	11533.45
317.46415	11289.05
321.67296	11041.75
325.87872	10793.25
330.08145	10682.35
334.28114	10674.65
338.47781	10752.45
342.67145	10875.25
346.86207	11026.95
351.04966	11204.25
355.23424	11361.15
359.4158	11520.75
363.59435	11632.85
367.76989	11748.15
371.94243	11831.25
376.11196	11881.15
380.27849	11947.25
384.44203	12005.45
388.60257	12083.85
392.76012	12188.45
396.91468	12316.15
401.06626	12487.35
405.21485	12600.45
409.36047	12573.55
413.50311	12426.25
417.64277	12311.95
421.77947	12249.95
425.9132	12289.15
430.04396	12354.35
434.17176	12375.65
438.2966	12499.65
442.41849	12612.45
446.53742	12804.25
450.6534	13054.65
454.76644	13294.05
458.87653	13335.45
462.98368	13388.85
467.08789	13351.85
471.18916	13317.85
475.2875	13235.95
479.38291	13182.65
483.4754	13120.85
487.56496	12979.05
491.6516	12874.85
495.73531	12704.25
499.81612	12658.05
503.89401	12700.55
507.96899	12749.65
512.04106	12753.55
516.11023	12682.85
520.1765	12651.55
524.23987	12549.25
528.30034	12432.25
532.35792	12325.65
536.41261	12268.85
540.46441	12196.75
544.51333	12172.25
548.55936	12283.55
552.60252	12516.35
556.64279	12745.05
560.6802	12857.75
564.71473	12924.05
568.7464	13058.25
572.7752	13237.85
576.80114	13458.95
580.82422	13651.35
584.84444	13822.05
588.86181	13887.05
592.87633	13886.75
596.888	13838.75
600.89682	13826.25
604.9028	14124.05
608.90594	14897.55
612.90624	15820.85
616.90371	15120.75
620.89834	13339.45
624.89015	12538.15
628.87913	12457.45
632.86528	12534.55
636.84862	12590.25
640.82913	12474.25
644.80683	12297.75
648.78172	12094.75
652.75379	12046.55
656.72306	12103.95
660.68952	12244.65
664.65319	12222.55
668.61405	12083.55
672.57211	12044.55
676.52738	12071.15
680.47986	12070.95
684.42955	12073.75
688.37646	12010.15
692.32058	12016.85
696.26192	12107.95
700.20048	12181.75
704.13626	12251.15
708.06928	12261.45
711.99952	12247.65
715.927	12222.85
719.85171	12199.95
723.77365	12166.95
727.69284	12103.95
731.60928	11998.95
735.52295	11935.75
739.43388	11954.65
743.34206	11980.85
747.24749	11996.05
751.15017	12075.55
755.05012	12223.85
758.94733	12487.85
762.8418	12911.45
766.73354	13600.15
770.62254	14300.75
774.50882	14471.45
778.39237	14007.35
782.27321	13255.35
786.15132	12626.55
790.02671	12202.15
793.89938	12026.45
797.76935	11942.35
801.6366	11932.15
805.50115	11869.35
809.36299	11812.45
813.22213	11767.95
817.07857	11735.95
820.93231	11747.45
824.78336	11714.15
828.63172	11669.75
832.47738	11652.55
836.32036	11655.85
840.16066	11666.75
843.99827	11684.85
847.8332	11673.75
851.66546	11645.75
855.49504	11636.45
859.32195	11676.65
863.1462	11619.15
866.96777	11627.05
870.78668	11583.15
874.60293	11594.05
878.41652	11598.95
882.22745	11608.85
886.03573	11652.85
889.84136	11653.65
893.64433	11631.85
897.44466	11578.75
901.24235	11556.15
905.0374	11497.75
908.8298	11464.65
912.61957	11480.05
916.40671	11557.35
920.19121	11682.55
923.97308	11777.25
927.75233	11698.85
931.52895	11670.85
935.30295	11594.05
939.07433	11452.25
942.84309	11314.85
946.60924	11273.85
950.37278	11195.25
954.13371	11206.15
957.89203	11171.25
961.64774	11169.75
965.40086	11134.65
969.15137	11096.55
972.89929	11053.55
976.64461	11022.55
980.38733	11014.25
984.12747	11029.75
987.86502	11066.25
991.59999	11146.25
995.33237	11249.25
999.06217	11412.65
1002.78939	11592.75
1006.51404	11669.15
1010.23611	11724.05
1013.95561	11808.15
1017.67255	11807.65
1021.38692	11788.35
1025.09872	11704.95
1028.80796	11703.35
1032.51465	11803.55
1036.21877	11931.85
1039.92035	11984.35
1043.61937	11957.05
1047.31584	11865.55
1051.00976	11784.95
1054.70114	11726.85
1058.38998	11769.85
1062.07627	11875.85
1065.76003	11977.25
1069.44126	12056.15
1073.11995	12146.35
1076.79611	12247.55
1080.46974	12315.25
1084.14085	12326.05
1087.80943	12376.25
1091.47549	12441.95
1095.13903	12479.35
1098.80005	12419.35
1102.45857	12211.35
1106.11456	12076.45
1109.76805	11954.35
1113.41903	11972.55
1117.06751	11998.15
1120.71348	12088.25
1124.35696	12177.65
1127.99793	12263.65
1131.63641	12347.95
1135.2724	12277.25
1138.90589	12181.25
1142.5369	12181.65
1146.16542	12168.15
1149.79145	12206.35
1153.415	12255.05
1157.03607	12359.45
1160.65467	12570.35
1164.27079	12899.55
1167.88443	13371.65
1171.49561	13912.85
1175.10432	14630.75
1178.71056	15508.15
1182.31434	16364.65
1185.91565	16873.85
1189.51451	17029.75
1193.11091	16779.25
1196.70485	16366.65
1200.29634	15806.45
1203.88538	15367.55
1207.47197	15019.75
1211.05612	14719.55
1214.63782	14461.75
1218.21708	14240.65
1221.79391	14008.85
1225.36829	13815.35
1228.94024	13663.15
1232.50976	13530.95
1236.07685	13410.85
1239.6415	13388.15
1243.20374	13395.55
1246.76355	13429.25
1250.32093	13578.75
1253.8759	13743.25
1257.42845	13999.85
1260.97859	14265.85
1264.52631	14544.65
1268.07163	14813.85
1271.61453	15072.55
1275.15503	15388.45
1278.69312	15740.55
1282.22882	16015.55
1285.76211	16268.85
1289.29301	16624.75
1292.82151	17089.35
1296.34761	17680.35
1299.87133	18419.15
1303.39266	19266.55
1306.9116	20059.05
1310.42815	20832.15
1313.94233	21248.75
1317.45412	21202.75
1320.96354	20987.95
1324.47058	20751.35
1327.97525	20538.95
1331.47754	20401.15
1334.97747	20403.25
1338.47502	20439.45
1341.97022	20544.75
1345.46305	20618.25
1348.95352	20545.05
1352.44163	20423.85
1355.92738	20378.25
1359.41078	20667.15
1362.89183	20991.95
1366.37053	20652.55
1369.84688	19361.85
1373.32088	17822.05
1376.79254	16717.25
1380.26186	16224.35
1383.72883	16080.05
1387.19347	16115.75
1390.65578	16030.05
1394.11575	15954.75
1397.57339	15932.15
1401.0287	16082.05
1404.48168	16182.35
1407.93234	16152.95
1411.38068	15972.95
1414.82669	15575.55
1418.27039	15061.35
1421.71177	14643.05
1425.15083	14241.45
1428.58758	14008.45
1432.02203	13979.15
1435.45416	14158.25
1438.88399	14430.75
1442.31151	14687.95
1445.73673	14861.35
1449.15965	15049.25
1452.58027	15180.85
1455.9986	15282.75
1459.41463	15408.95
1462.82837	15572.95
1466.23982	15793.15
1469.64898	15926.05
1473.05586	16039.65
1476.46045	16065.95
1479.86276	15991.65
1483.26279	15907.25
1486.66054	15834.75
1490.05602	15859.95
1493.44922	16022.95
1496.84016	16284.35
1500.22882	16618.15
1503.61521	17216.05
1506.99934	17846.05
1510.38121	18382.05
1513.76081	18550.25
1517.13816	18232.05
1520.51324	17662.15
1523.88607	17077.55
1527.25665	16788.95
1530.62498	16627.25
1533.99105	16519.75
1537.35488	16382.45
1540.71647	16214.65
1544.07581	15901.45
1547.4329	15601.05
1550.78776	15359.75
1554.14038	15182.35
1557.49077	15124.25
1560.83892	15071.15
1564.18484	15130.45
1567.52853	15178.75
1570.86999	15268.25
1574.20922	15472.15
1577.54624	15633.75
1580.88103	15606.75
1584.2136	15583.75
1587.54395	15705.05
1590.87208	16033.35
1594.19801	16593.95
1597.52172	17191.65
1600.84321	17419.05
1604.16251	16970.95
1607.47959	16137.95
1610.79447	15274.35
1614.10715	14362.55
1617.41763	13607.05
1620.7259	12961.75
1624.03199	12579.55
1627.33587	12451.85
1630.63757	12621.45
1633.93707	13058.25
1637.23439	13833.45
1640.52951	14922.05
1643.82246	16224.05
1647.11321	17364.35
1650.40179	17815.85
1653.68819	17202.25
1656.97241	15753.25
1660.25446	14123.65
1663.53433	12777.55
1666.81203	11843.45
1670.08756	11254.95
1673.36092	10850.05
1676.63211	10603.05
1679.90115	10421.85
1683.16801	10278.45
1686.43272	10171.35
1689.69527	10061.95
1692.95567	10002.55
1696.2139	9931.35
1699.46999	9863.45
1702.72392	9831.75
1705.97571	9823.75
1709.22535	9852.65
1712.47284	9844.15
1715.71819	9843.75
1718.96139	9842.25
1722.20246	9806.85
1725.44139	9786.15
1728.67818	9743.85
1731.91284	9689.05
1735.14537	9658.15
1738.37576	9636.35
1741.60403	9583.35
1744.83017	9555.05
1748.05418	9524.35
1751.27607	9518.65
1754.49584	9486.65
1757.71349	9454.35
1760.92903	9445.85
1764.14244	9413.35
1767.35375	9420.05
1770.56294	9405.05
1773.77002	9400.35
1776.97499	9374.25
1780.17785	9381.15
1783.37861	9393.55
1786.57727	9365.45
1789.77382	9347.75
1792.96828	9338.65
1796.16064	9321.85
1799.3509	9279.55
1802.53907	9288.55
1805.72514	9274.85
1808.90913	9251.65
1812.09102	9228.35
1815.27083	9190.15
1818.44856	9193.45
1821.6242	9166.45
1824.79776	9136.35
1827.96924	9153.35
1831.13864	9156.35
1834.30597	9142.05
1837.47122	9136.15
1840.6344	9108.85
1843.7955	9120.65
1846.95454	9109.95
1850.11151	9121.95
1853.26642	9093.95
1856.41926	9079.25
1859.57004	9087.05
1862.71876	9070.25
1865.86542	9090.65
1869.01003	9064.35
1872.15258	9059.65
1875.29308	9056.25
1878.43152	9036.25
1881.56792	9022.15
1884.70227	9000.15
1887.83457	8983.55
1890.96482	8973.15
1894.09304	8956.85
1897.21921	8934.25
1900.34335	8936.25
1903.46544	8908.45
1906.58551	8902.75
1909.70353	8926.65
1912.81953	8873.65
1915.93349	8876.85
1919.04543	8861.55
1922.15534	8861.25
1925.26322	8828.85
1928.36908	8823.35
1931.47292	8792.75
1934.57473	8772.75
1937.67453	8763.05
1940.77232	8738.55
1943.86808	8705.85
1946.96184	8669.25
1950.05358	8657.05
1953.14331	8613.95
1956.23103	8601.25
1959.31675	8599.95
1962.40046	8569.55
1965.48217	8529.45
1968.56188	8502.35
1971.63959	8496.15
1974.7153	8463.05
1977.78901	8431.75
1980.86073	8401.55
1983.93046	8398.95
1986.99819	8350.25
1990.06394	8338.95
1993.1277	8322.35
1996.18947	8284.05
1999.24925	8240.85
2002.30706	8223.65
2005.36288	8190.95
2008.41672	8179.35
2011.46859	8175.55
2014.51848	8146.35
2017.56639	8149.35
2020.61233	8119.45
2023.6563	8094.35
2026.6983	8067.55
2029.73833	8048.85
2032.7764	8027.15
2035.8125	8012.95
2038.84664	8010.45
2041.87881	7977.65
2044.90903	7968.45
2047.93729	7961.45
2050.96359	7958.15
2053.98794	7927.65
2057.01034	7915.65
2060.03078	7928.75
2063.04927	7918.85
2066.06582	7915.55
2069.08042	7916.45
2072.09307	7902.95
2075.10378	7902.45
2078.11255	7877.05
2081.11938	7885.35
2084.12426	7881.75
2087.12722	7876.35
2090.12824	7878.75
2093.12732	7869.05
2096.12447	7868.55
2099.11969	7861.05
2102.11299	7861.15
2105.10435	7849.55
2108.09379	7871.05
2111.08131	7882.65
2114.0669	7882.05
2117.05057	7891.25
2120.03233	7872.45
2123.01216	7884.25
2125.99008	7908.15
2128.96609	7908.25
2131.94018	7915.15
2134.91236	7923.05
2137.88263	7919.25
2140.851	7925.45
2143.81746	7925.15
2146.78201	7920.45
2149.74466	7923.85
2152.7054	7927.65
2155.66425	7929.25
2158.6212	7923.15
2161.57625	7903.85
2164.52941	7918.55
2167.48067	7919.75
2170.43004	7914.15
2173.37752	7910.75
2176.32311	7910.35
2179.26681	7912.85
2182.20863	7900.95
2185.14856	7913.15
2188.08661	7910.75
2191.02278	7913.15
2193.95707	7899.95
2196.88948	7897.45
2199.82001	7896.45
2202.74867	7884.95
2205.67545	7878.45
2208.60037	7852.55
2211.52341	7848.85
2214.44458	7811.45
2217.36388	7816.15
2220.28132	7813.85
2223.1969	7781.25
2226.11061	7771.45
2229.02246	7761.95
2231.93245	7758.75
2234.84058	7742.05
2237.74686	7698.35
2240.65128	7701.55
2243.55385	7686.75
2246.45456	7660.95
2249.35343	7680.15
2252.25044	7646.05
2255.14561	7657.05
2258.03893	7643.75
2260.93041	7621.25
2263.82004	7609.75
2266.70783	7565.85
2269.59378	7561.95
2272.4779	7542.75
2275.36017	7548.05
2278.24061	7526.25
2281.11922	7507.65
2283.996	7498.15
2286.87094	7491.05
2289.74405	7478.85
2292.61534	7434.55
2295.4848	7441.05
2298.35243	7448.25
2301.21824	7452.75
2304.08223	7439.85
2306.94439	7446.45
2309.80474	7452.65
2312.66327	7424.75
2315.51999	7436.55
2318.37489	7429.25
2321.22797	7408.95
2324.07925	7399.15
2326.92871	7380.15
2329.77637	7376.95
2332.62222	7386.95
2335.46626	7357.25
2338.3085	7341.95
2341.14893	7328.15
2343.98756	7358.65
2346.8244	7337.05
2349.65943	7314.35
2352.49267	7328.25
2355.32411	7320.95
2358.15376	7323.45
2360.98161	7318.85
2363.80768	7297.65
2366.63195	7316.85
2369.45444	7264.25
2372.27514	7283.15
2375.09405	7264.45
2377.91118	7264.25
2380.72652	7235.65
2383.54009	7219.75
2386.35187	7240.55
2389.16188	7200.35
2391.97011	7182.65
2394.77657	7166.05
2397.58125	7147.45
2400.38416	7141.95
2403.18529	7142.25
2405.98466	7122.45
2408.78226	7103.65
2411.57809	7111.55
2414.37216	7091.65
2417.16446	7081.95
2419.955	7075.95
2422.74378	7081.15
2425.5308	7054.35
2428.31606	7068.25
2431.09956	7075.15
2433.88131	7053.75
2436.6613	7040.45
2439.43954	7029.85
2442.21603	7055.05
2444.99077	7029.95
2447.76377	7005.65
2450.53501	7023.85
2453.30451	7004.75
2456.07226	6992.05
2458.83827	6990.35
2461.60254	6989.15
2464.36507	6987.15
2467.12586	6981.45
2469.88492	6948.35
2472.64224	6968.55
2475.39782	6974.85
2478.15167	6965.45
2480.90379	6968.35
2483.65417	6955.55
2486.40283	6952.85
2489.14976	6972.55
2491.89497	6946.85
2494.63845	6944.95
2497.3802	6927.95
2500.12024	6935.55
2502.85855	6944.95
2505.59514	6943.55
2508.33002	6904.35
2511.06318	6916.65
2513.79462	6944.35
2516.52435	6892.65
2519.25237	6892.05
2521.97867	6890.25
2524.70327	6883.55
2527.42616	6878.85
2530.14734	6865.35
2532.86681	6870.35
2535.58458	6866.45
2538.30065	6831.35
2541.01501	6859.95
2543.72768	6826.55
2546.43864	6803.95
2549.14791	6798.55
2551.85548	6811.85
2554.56136	6791.35
2557.26554	6771.25
2559.96803	6765.15
2562.66883	6752.65
2565.36794	6743.15
2568.06536	6738.25
2570.7611	6731.75
2573.45514	6739.25
2576.14751	6720.75
2578.83819	6697.25
2581.52719	6699.35
2584.21451	6686.65
2586.90015	6675.65
2589.58411	6667.25
2592.2664	6674.15
2594.94701	6665.15
2597.62594	6650.05
2600.30321	6643.35
2602.9788	6646.05
2605.65273	6628.35
2608.32498	6618.15
2610.99557	6627.85
2613.66449	6626.65
2616.33175	6599.45
2618.99734	6616.35
2621.66128	6608.05
2624.32355	6601.25
2626.98416	6592.85
2629.64311	6579.05
2632.30041	6595.75
2634.95605	6573.65
2637.61004	6564.75
2640.26238	6544.25
2642.91306	6548.35
2645.56209	6545.25
2648.20948	6556.05
2650.85521	6528.85
2653.4993	6531.85
2656.14175	6528.05
2658.78255	6546.45
2661.42171	6542.75
2664.05923	6542.65
2666.6951	6542.95
2669.32934	6538.45
2671.96194	6526.55
2674.59291	6532.75
2677.22224	6528.75
2679.84993	6531.55
2682.476	6533.35
2685.10043	6530.35
2687.72324	6516.05
2690.34441	6520.55
2692.96396	6513.65
2695.58188	6499.75
2698.19818	6524.45
2700.81285	6520.15
2703.4259	6520.35
2706.03733	6517.15
2708.64714	6500.95
2711.25533	6514.95
2713.86191	6502.95
2716.46687	6522.85
2719.07021	6534.45
2721.67194	6529.55
2724.27206	6523.65
2726.87057	6530.45
2729.46747	6533.55
2732.06276	6526.35
2734.65644	6521.25
2737.24852	6520.65
2739.83899	6527.75
2742.42786	6520.45
2745.01513	6489.35
2747.60079	6495.65
2750.18486	6511.25
2752.76733	6502.45
2755.3482	6489.45
2757.92747	6486.15
2760.50515	6466.45
2763.08123	6473.55
2765.65573	6460.35
2768.22863	6461.75
2770.79994	6444.75
2773.36967	6437.15
2775.9378	6444.75
2778.50435	6440.85
2781.06932	6434.35
2783.6327	6440.35
2786.1945	6436.45
2788.75471	6412.55
2791.31335	6406.75
2793.87041	6416.55
2796.42589	6364.65
2798.97979	6381.05
2801.53212	6369.45
2804.08288	6367.05
2806.63206	6327.15
2809.17967	6339.25
2811.72571	6314.15
2814.27018	6305.65
2816.81308	6303.45
2819.35442	6308.25
2821.89419	6292.05
2824.43239	6289.85
2826.96904	6276.85
2829.50412	6268.85
2832.03763	6252.95
2834.56959	6255.45
2837.1	6248.75
2839.62884	6236.15
2842.15613	6270.15
2844.68186	6265.75
2847.20604	6246.35
2849.72867	6254.95
2852.24974	6241.85
2854.76927	6237.65
2857.28724	6242.95
2859.80367	6236.05
2862.31855	6219.25
2864.83189	6209.85
2867.34368	6199.45
2869.85393	6204.05
2872.36264	6192.85
2874.8698	6194.35
2877.37543	6210.95
2879.87952	6189.35
2882.38207	6192.05
2884.88308	6184.45
2887.38256	6185.15
2889.88051	6182.85
2892.37692	6176.05
2894.8718	6176.75
2897.36515	6197.05
2899.85698	6179.25
2902.34727	6207.15
2904.83604	6196.35
2907.32328	6223.05
2909.809	6199.95
2912.29319	6215.35
2914.77587	6220.85
2917.25702	6193.25
2919.73665	6192.95
2922.21476	6194.35
2924.69136	6204.45
2927.16644	6182.85
2929.64	6195.35
2932.11205	6192.85
2934.58258	6155.25
2937.05161	6166.35
2939.51912	6173.55
2941.98513	6165.55
2944.44962	6141.65
2946.91261	6126.75
2949.37409	6137.65
2951.83407	6130.05
2954.29254	6133.95
2956.74951	6114.45
2959.20498	6114.05
2961.65895	6100.05
2964.11142	6112.75
2966.56239	6091.65
2969.01186	6089.25
2971.45984	6089.95
2973.90632	6081.85
2976.35131	6070.55
2978.7948	6047.55
2981.23681	6053.75
2983.67732	6056.25
2986.11635	6035.95
2988.55388	6001.05
2990.98993	6010.05
2993.4245	5992.65
2995.85758	5979.55
2998.28917	5975.25
3000.71928	5980.35
3003.14791	5958.65
3005.57506	5949.65
3008.00073	5936.25
3010.42493	5941.05
3012.84764	5931.15
3015.26888	5912.85
3017.68865	5907.25
3020.10694	5897.05
3022.52376	5898.35
3024.9391	5866.75
3027.35298	5865.75
3029.76539	5871.35
3032.17632	5862.35
3034.5858	5870.85
3036.9938	5854.15
3039.40034	5862.15
3041.80542	5851.05
3044.20903	5835.15
3046.61118	5839.75
3049.01187	5831.75
3051.4111	5816.65
3053.80888	5814.65
3056.20519	5824.55
3058.60005	5806.65
3060.99345	5776.25
3063.3854	5773.85
3065.7759	5758.15
3068.16494	5742.25
3070.55254	5743.45
3072.93868	5727.25
3075.32338	5727.95
3077.70662	5711.35
3080.08842	5698.15
3082.46878	5698.35
3084.84769	5684.05
3087.22515	5702.35
3089.60118	5671.05
3091.97576	5704.85
3094.3489	5694.55
3096.72061	5692.85
3099.09087	5717.45
3101.4597	5690.65
3103.82709	5697.05
3106.19305	5701.75
3108.55757	5695.05
3110.92066	5677.95
3113.28232	5676.65
3115.64255	5649.35
3118.00134	5652.75
3120.35871	5651.45
3122.71466	5636.55
3125.06917	5622.05
3127.42226	5621.95
3129.77393	5631.75
3132.12417	5615.95
3134.47299	5624.05
3136.82039	5623.95
3139.16636	5621.65
3141.51092	5633.35
3143.85406	5639.05
3146.19579	5625.95
3148.53609	5640.35
3150.87499	5663.35
3153.21246	5663.85
3155.54853	5657.15
3157.88318	5651.75
3160.21642	5653.55
3162.54826	5658.15
3164.87868	5665.55
3167.2077	5658.55
3169.5353	5672.85
3171.86151	5681.85
3174.18631	5676.25
3176.5097	5663.55
3178.83169	5667.55
3181.15228	5656.25
3183.47147	5658.55
3185.78926	5656.45
3188.10565	5640.45
3190.42065	5664.95
3192.73424	5654.15
3195.04645	5653.35
3197.35725	5650.55
3199.66667	5654.75
3201.97469	5652.65
3204.28132	5643.15
3206.58656	5637.95
3208.8904	5669.05
3211.19287	5684.25
3213.49394	5682.25
3215.79363	5666.75
3218.09193	5670.55
3220.38884	5687.75
3222.68438	5665.85
3224.97853	5662.95
3227.2713	5654.85
3229.56269	5655.15
3231.8527	5674.55
3234.14133	5662.15
3236.42858	5625.25
3238.71446	5626.45
3240.99896	5623.95
3243.28209	5626.95
3245.56384	5610.35
3247.84423	5609.95
3250.12324	5606.05
3252.40088	5602.15
3254.67715	5605.35
3256.95205	5583.95
3259.22558	5612.65
3261.49775	5601.65
3263.76855	5564.95
3266.03799	5571.75
3268.30606	5576.45
3270.57277	5553.35
3272.83812	5550.25
3275.10211	5533.95
3277.36474	5534.05
3279.62601	5515.55
3281.88593	5507.95
3284.14448	5509.95
3286.40168	5521.55
3288.65753	5520.25
3290.91202	5520.25
3293.16516	5492.45
3295.41695	5504.45
3297.66738	5442.05
3299.91647	5432.75
3302.16421	5402.05
3304.4106	5374.65
3306.65564	5352.75
3308.89933	5325.55
3311.14169	5287.25
3313.38269	5251.35
3315.62236	5224.65
3317.86068	5166.05
3320.09766	5147.05
3322.3333	5093.95
3324.5676	5100.05
3326.80056	5007.25
3329.03219	4986.65
3331.26248	2.75
3333.49143	0.55
3335.71905	-1.35
