Data from AgNPs_FTO_APTES_UA_1uM_CRN_5uM_R6G_10uM_NaF_0.1M_Addition_RamanShift__26__14-06-29-609.txt Node

Date: Thu Jan 27 14:06:29 GMT 2022
User: TCL
Spectrometer: QEP01345
Trigger mode: 4
Integration Time (sec): 7.000000E0
Scans to average: 10
Electric dark correction enabled: true
Nonlinearity correction enabled: false
Boxcar width: 0
XAxis mode: Raman Shifts
Number of Pixels in Spectrum: 1044
>>>>>Begin Spectral Data<<<<<
46.04893	1.15
50.45542	1.45
54.85868	-1.95
59.25871	-1.65
63.6555	44.55
68.04907	49.15
72.43941	50.45
76.82654	54.15
81.21044	56.95
85.59113	54.95
89.96862	61.05
94.34289	62.25
98.71396	66.05
103.08183	64.65
107.4465	69.15
111.80798	69.75
116.16626	69.25
120.52136	75.55
124.87327	77.55
129.222	75.85
133.56755	74.35
137.90993	80.75
142.24913	87.25
146.58517	99.45
150.91804	111.65
155.24774	121.45
159.57429	149.15
163.89768	182.85
168.21792	243.75
172.53501	323.75
176.84895	441.35
181.15975	621.95
185.46741	863.25
189.77193	1182.25
194.07331	1577.15
198.37157	2035.25
202.6667	2511.65
206.9587	2994.45
211.24758	3478.75
215.53334	3957.95
219.81599	4488.45
224.09553	5093.55
228.37195	5764.05
232.64527	6469.55
236.91549	7247.95
241.18261	7963.25
245.44663	8549.35
249.70755	9066.95
253.96539	9518.15
258.22014	9932.75
262.4718	10274.25
266.72039	10584.75
270.96589	10774.85
275.20832	10802.75
279.44768	10783.35
283.68397	10679.15
287.91719	10616.65
292.14735	10605.85
296.37445	10698.65
300.59849	10981.15
304.81948	11275.05
309.03742	11440.55
313.25231	11362.55
317.46415	10914.15
321.67296	10280.75
325.87872	9724.85
330.08145	9460.15
334.28114	9415.55
338.47781	9548.65
342.67145	9785.75
346.86207	10105.05
351.04966	10572.15
355.23424	11115.15
359.4158	11534.65
363.59435	11769.25
367.76989	11874.25
371.94243	11856.95
376.11196	11860.95
380.27849	11805.35
384.44203	11770.55
388.60257	11681.75
392.76012	11692.55
396.91468	11822.35
401.06626	12098.75
405.21485	12308.95
409.36047	12205.85
413.50311	11765.25
417.64277	11341.75
421.77947	11140.05
425.9132	11083.65
430.04396	11074.15
434.17176	11174.15
438.2966	11280.75
442.41849	11493.15
446.53742	11827.05
450.6534	12163.85
454.76644	12443.65
458.87653	12532.95
462.98368	12470.05
467.08789	12334.05
471.18916	12086.75
475.2875	11816.15
479.38291	11620.15
483.4754	11493.45
487.56496	11358.15
491.6516	11231.75
495.73531	11129.45
499.81612	11121.95
503.89401	11214.15
507.96899	11328.95
512.04106	11394.85
516.11023	11479.75
520.1765	11528.05
524.23987	11480.35
528.30034	11323.45
532.35792	11112.15
536.41261	10938.55
540.46441	10747.45
544.51333	10717.45
548.55936	10805.65
552.60252	11048.25
556.64279	11318.95
560.6802	11452.55
564.71473	11569.95
568.7464	11885.45
572.7752	12170.95
576.80114	12096.75
580.82422	11924.85
584.84444	11861.15
588.86181	11855.05
592.87633	11904.05
596.888	12004.25
600.89682	12340.55
604.9028	13312.75
608.90594	15893.75
612.90624	19213.45
616.90371	18601.45
620.89834	14035.75
624.89015	11894.95
628.87913	11474.15
632.86528	11492.85
636.84862	11529.15
640.82913	11350.25
644.80683	10966.65
648.78172	10710.55
652.75379	10707.85
656.72306	11039.15
660.68952	11475.95
664.65319	11428.85
668.61405	11056.15
672.57211	10857.45
676.52738	10811.25
680.47986	10837.25
684.42955	10776.65
688.37646	10783.15
692.32058	10792.65
696.26192	10872.55
700.20048	11015.05
704.13626	11082.15
708.06928	11070.75
711.99952	10964.55
715.927	10935.35
719.85171	10936.85
723.77365	10935.75
727.69284	10830.95
731.60928	10732.65
735.52295	10719.55
739.43388	10769.15
743.34206	10820.45
747.24749	10858.95
751.15017	10987.25
755.05012	11186.65
758.94733	11617.95
762.8418	12491.95
766.73354	13985.55
770.62254	15586.65
774.50882	16293.75
778.39237	15612.55
782.27321	13923.45
786.15132	12394.55
790.02671	11490.05
793.89938	11096.35
797.76935	10937.65
801.6366	10855.95
805.50115	10782.35
809.36299	10751.85
813.22213	10698.15
817.07857	10698.15
820.93231	10699.45
824.78336	10736.85
828.63172	10764.25
832.47738	10799.65
836.32036	10820.35
840.16066	10825.75
843.99827	10788.75
847.8332	10743.25
851.66546	10702.65
855.49504	10713.65
859.32195	10692.85
863.1462	10633.85
866.96777	10602.55
870.78668	10596.55
874.60293	10601.95
878.41652	10631.75
882.22745	10675.65
886.03573	10732.95
889.84136	10709.75
893.64433	10645.55
897.44466	10616.55
901.24235	10591.45
905.0374	10577.35
908.8298	10560.65
912.61957	10565.25
916.40671	10644.35
920.19121	10753.75
923.97308	10876.45
927.75233	10948.05
931.52895	11041.85
935.30295	10957.85
939.07433	10687.85
942.84309	10485.85
946.60924	10376.75
950.37278	10358.15
954.13371	10289.85
957.89203	10214.75
961.64774	10177.35
965.40086	10156.85
969.15137	10134.65
972.89929	10089.25
976.64461	10083.75
980.38733	10083.15
984.12747	10140.55
987.86502	10207.85
991.59999	10324.05
995.33237	10501.05
999.06217	10776.35
1002.78939	11147.15
1006.51404	11425.05
1010.23611	11607.15
1013.95561	11810.85
1017.67255	11832.95
1021.38692	11708.55
1025.09872	11599.65
1028.80796	11639.05
1032.51465	11853.15
1036.21877	12073.95
1039.92035	12083.95
1043.61937	11956.85
1047.31584	11691.05
1051.00976	11389.45
1054.70114	11255.55
1058.38998	11236.25
1062.07627	11290.15
1065.76003	11349.95
1069.44126	11404.05
1073.11995	11490.65
1076.79611	11562.95
1080.46974	11675.95
1084.14085	11835.05
1087.80943	12045.95
1091.47549	12146.85
1095.13903	12028.25
1098.80005	11724.25
1102.45857	11460.95
1106.11456	11340.05
1109.76805	11294.45
1113.41903	11450.25
1117.06751	11696.25
1120.71348	11965.45
1124.35696	12261.45
1127.99793	12561.95
1131.63641	12624.95
1135.2724	12282.45
1138.90589	11939.15
1142.5369	11723.25
1146.16542	11561.65
1149.79145	11483.35
1153.415	11489.45
1157.03607	11602.05
1160.65467	11795.95
1164.27079	12161.65
1167.88443	12696.35
1171.49561	13508.45
1175.10432	14782.05
1178.71056	16474.05
1182.31434	17886.05
1185.91565	18512.15
1189.51451	18374.75
1193.11091	17564.05
1196.70485	16418.55
1200.29634	15472.15
1203.88538	14772.55
1207.47197	14120.95
1211.05612	13556.25
1214.63782	13202.15
1218.21708	13145.95
1221.79391	13192.75
1225.36829	13303.55
1228.94024	13355.25
1232.50976	13361.95
1236.07685	13385.05
1239.6415	13317.95
1243.20374	13308.45
1246.76355	13294.35
1250.32093	13428.35
1253.8759	13687.15
1257.42845	14084.65
1260.97859	14465.65
1264.52631	14813.55
1268.07163	15159.95
1271.61453	15502.15
1275.15503	15867.25
1278.69312	16218.25
1282.22882	16483.85
1285.76211	16781.75
1289.29301	17187.45
1292.82151	17620.35
1296.34761	18094.15
1299.87133	18797.75
1303.39266	19897.55
1306.9116	21587.25
1310.42815	23574.75
1313.94233	24973.95
1317.45412	25012.85
1320.96354	24087.05
1324.47058	22852.75
1327.97525	21800.05
1331.47754	21060.75
1334.97747	20777.35
1338.47502	20823.95
1341.97022	20985.25
1345.46305	21245.25
1348.95352	21496.95
1352.44163	21942.75
1355.92738	22967.55
1359.41078	24980.05
1362.89183	27355.45
1366.37053	27118.95
1369.84688	24012.55
1373.32088	20642.35
1376.79254	18383.35
1380.26186	17355.25
1383.72883	16893.25
1387.19347	16559.95
1390.65578	16188.65
1394.11575	15938.75
1397.57339	15931.55
1401.0287	16127.15
1404.48168	16447.05
1407.93234	16806.95
1411.38068	17003.55
1414.82669	16952.05
1418.27039	16612.25
1421.71177	16103.85
1425.15083	15723.35
1428.58758	15400.45
1432.02203	15323.25
1435.45416	15413.95
1438.88399	15504.75
1442.31151	15590.65
1445.73673	15709.85
1449.15965	15805.35
1452.58027	15861.15
1455.9986	15788.95
1459.41463	15750.05
1462.82837	15835.85
1466.23982	16094.55
1469.64898	16362.25
1473.05586	16586.55
1476.46045	16723.05
1479.86276	16889.25
1483.26279	17100.55
1486.66054	17327.55
1490.05602	17646.45
1493.44922	18100.55
1496.84016	18673.05
1500.22882	19499.75
1503.61521	20718.95
1506.99934	22232.75
1510.38121	23925.85
1513.76081	24946.05
1517.13816	24409.65
1520.51324	22536.45
1523.88607	20429.35
1527.25665	18793.25
1530.62498	17846.75
1533.99105	17253.95
1537.35488	16862.05
1540.71647	16607.25
1544.07581	16499.15
1547.4329	16385.55
1550.78776	16267.25
1554.14038	16237.35
1557.49077	16298.95
1560.83892	16530.45
1564.18484	16745.15
1567.52853	16890.35
1570.86999	16973.25
1574.20922	17095.55
1577.54624	17044.55
1580.88103	16719.85
1584.2136	16228.75
1587.54395	16191.45
1590.87208	16661.75
1594.19801	17584.75
1597.52172	18744.15
1600.84321	19256.45
1604.16251	18725.85
1607.47959	17518.15
1610.79447	16185.85
1614.10715	14942.45
1617.41763	13990.15
1620.7259	13340.55
1624.03199	13030.15
1627.33587	13056.05
1630.63757	13385.55
1633.93707	14026.85
1637.23439	15025.35
1640.52951	16224.55
1643.82246	17546.75
1647.11321	18797.85
1650.40179	19605.05
1653.68819	19043.65
1656.97241	17089.15
1660.25446	14750.15
1663.53433	13023.05
1666.81203	11960.05
1670.08756	11333.15
1673.36092	10956.95
1676.63211	10728.85
1679.90115	10537.15
1683.16801	10411.85
1686.43272	10327.65
1689.69527	10241.85
1692.95567	10172.35
1696.2139	10132.95
1699.46999	10057.05
1702.72392	10043.05
1705.97571	10057.45
1709.22535	10072.95
1712.47284	10111.05
1715.71819	10106.25
1718.96139	10115.05
1722.20246	10100.65
1725.44139	10076.55
1728.67818	10026.35
1731.91284	9960.55
1735.14537	9907.25
1738.37576	9864.65
1741.60403	9825.65
1744.83017	9803.65
1748.05418	9784.85
1751.27607	9752.85
1754.49584	9740.45
1757.71349	9707.85
1760.92903	9683.85
1764.14244	9679.05
1767.35375	9699.25
1770.56294	9675.55
1773.77002	9658.95
1776.97499	9661.65
1780.17785	9669.35
1783.37861	9658.55
1786.57727	9667.85
1789.77382	9660.55
1792.96828	9648.75
1796.16064	9629.55
1799.3509	9641.45
1802.53907	9645.85
1805.72514	9598.05
1808.90913	9577.25
1812.09102	9566.45
1815.27083	9579.45
1818.44856	9539.55
1821.6242	9513.15
1824.79776	9524.75
1827.96924	9511.15
1831.13864	9505.65
1834.30597	9522.25
1837.47122	9513.95
1840.6344	9502.65
1843.7955	9488.25
1846.95454	9514.15
1850.11151	9519.95
1853.26642	9519.05
1856.41926	9535.95
1859.57004	9566.95
1862.71876	9566.65
1865.86542	9552.65
1869.01003	9548.45
1872.15258	9558.75
1875.29308	9560.55
1878.43152	9566.35
1881.56792	9581.15
1884.70227	9575.85
1887.83457	9587.35
1890.96482	9585.25
1894.09304	9594.75
1897.21921	9606.55
1900.34335	9600.05
1903.46544	9603.65
1906.58551	9605.95
1909.70353	9628.15
1912.81953	9595.55
1915.93349	9597.95
1919.04543	9573.85
1922.15534	9583.85
1925.26322	9565.85
1928.36908	9529.45
1931.47292	9489.05
1934.57473	9457.45
1937.67453	9415.35
1940.77232	9397.45
1943.86808	9348.05
1946.96184	9279.95
1950.05358	9266.75
1953.14331	9236.55
1956.23103	9193.35
1959.31675	9127.15
1962.40046	9134.95
1965.48217	9127.05
1968.56188	9066.25
1971.63959	9069.15
1974.7153	9025.75
1977.78901	8996.25
1980.86073	8973.15
1983.93046	8958.75
1986.99819	8931.75
1990.06394	8883.75
1993.1277	8866.05
1996.18947	8849.35
1999.24925	8828.45
2002.30706	8797.25
2005.36288	8777.25
2008.41672	8741.45
2011.46859	8731.35
2014.51848	8684.15
2017.56639	8678.25
2020.61233	8679.65
2023.6563	8669.55
2026.6983	8639.05
2029.73833	8591.15
2032.7764	8587.25
2035.8125	8582.95
2038.84664	8564.25
2041.87881	8563.85
2044.90903	8545.85
2047.93729	8531.15
2050.96359	8520.65
2053.98794	8492.05
2057.01034	8495.65
2060.03078	8483.35
2063.04927	8487.15
2066.06582	8491.15
2069.08042	8484.05
2072.09307	8477.15
2075.10378	8457.85
2078.11255	8451.45
2081.11938	8455.05
2084.12426	8405.75
2087.12722	8454.45
2090.12824	8414.85
2093.12732	8432.75
2096.12447	8431.75
2099.11969	8431.75
2102.11299	8442.75
2105.10435	8457.05
2108.09379	8460.85
2111.08131	8451.35
2114.0669	8435.05
2117.05057	8480.05
2120.03233	8469.15
2123.01216	8488.45
2125.99008	8497.55
2128.96609	8469.45
2131.94018	8500.05
2134.91236	8525.05
2137.88263	8514.35
2140.851	8489.85
2143.81746	8527.25
2146.78201	8528.55
2149.74466	8537.65
2152.7054	8534.25
2155.66425	8517.35
2158.6212	8524.25
2161.57625	8509.75
2164.52941	8529.35
2167.48067	8513.05
2170.43004	8505.85
2173.37752	8519.25
2176.32311	8512.75
2179.26681	8526.95
2182.20863	8511.85
2185.14856	8519.35
2188.08661	8518.55
2191.02278	8538.35
2193.95707	8526.75
2196.88948	8521.15
2199.82001	8521.05
2202.74867	8508.65
2205.67545	8513.15
2208.60037	8491.55
2211.52341	8484.35
2214.44458	8485.65
2217.36388	8472.45
2220.28132	8473.35
2223.1969	8432.15
2226.11061	8429.65
2229.02246	8422.65
2231.93245	8399.95
2234.84058	8377.45
2237.74686	8347.25
2240.65128	8373.25
2243.55385	8361.85
2246.45456	8335.55
2249.35343	8327.95
2252.25044	8334.85
2255.14561	8302.25
2258.03893	8339.75
2260.93041	8292.45
2263.82004	8277.65
2266.70783	8259.25
2269.59378	8255.05
2272.4779	8223.35
2275.36017	8235.35
2278.24061	8215.95
2281.11922	8195.75
2283.996	8184.55
2286.87094	8172.25
2289.74405	8149.55
2292.61534	8128.15
2295.4848	8124.55
2298.35243	8129.95
2301.21824	8127.45
2304.08223	8106.35
2306.94439	8139.55
2309.80474	8150.35
2312.66327	8143.95
2315.51999	8138.65
2318.37489	8143.25
2321.22797	8127.55
2324.07925	8134.65
2326.92871	8097.85
2329.77637	8117.95
2332.62222	8113.65
2335.46626	8115.95
2338.3085	8087.45
2341.14893	8092.65
2343.98756	8115.15
2346.8244	8103.15
2349.65943	8118.55
2352.49267	8086.05
2355.32411	8109.15
2358.15376	8096.35
2360.98161	8109.05
2363.80768	8096.95
2366.63195	8111.55
2369.45444	8089.95
2372.27514	8046.75
2375.09405	8079.65
2377.91118	8044.55
2380.72652	8011.55
2383.54009	7977.05
2386.35187	7994.35
2389.16188	7958.05
2391.97011	7923.15
2394.77657	7936.05
2397.58125	7901.85
2400.38416	7903.85
2403.18529	7877.55
2405.98466	7893.65
2408.78226	7849.65
2411.57809	7850.55
2414.37216	7838.55
2417.16446	7819.85
2419.955	7815.25
2422.74378	7827.35
2425.5308	7817.05
2428.31606	7813.45
2431.09956	7799.35
2433.88131	7777.05
2436.6613	7804.95
2439.43954	7810.85
2442.21603	7800.35
2444.99077	7779.95
2447.76377	7794.05
2450.53501	7760.45
2453.30451	7774.55
2456.07226	7758.55
2458.83827	7784.85
2461.60254	7771.65
2464.36507	7762.25
2467.12586	7769.75
2469.88492	7758.95
2472.64224	7775.25
2475.39782	7766.65
2478.15167	7763.15
2480.90379	7756.15
2483.65417	7785.15
2486.40283	7791.65
2489.14976	7801.55
2491.89497	7822.45
2494.63845	7817.55
2497.3802	7797.35
2500.12024	7790.85
2502.85855	7782.95
2505.59514	7795.75
2508.33002	7758.25
2511.06318	7748.25
2513.79462	7757.15
2516.52435	7743.55
2519.25237	7714.95
2521.97867	7707.65
2524.70327	7704.35
2527.42616	7682.95
2530.14734	7699.85
2532.86681	7699.35
2535.58458	7670.85
2538.30065	7683.25
2541.01501	7657.75
2543.72768	7669.95
2546.43864	7648.95
2549.14791	7662.05
2551.85548	7627.85
2554.56136	7635.45
2557.26554	7639.25
2559.96803	7605.15
2562.66883	7634.15
2565.36794	7601.85
2568.06536	7594.45
2570.7611	7608.25
2573.45514	7581.85
2576.14751	7569.15
2578.83819	7572.85
2581.52719	7565.25
2584.21451	7561.05
2586.90015	7562.95
2589.58411	7541.85
2592.2664	7558.05
2594.94701	7559.85
2597.62594	7542.25
2600.30321	7530.35
2602.9788	7540.95
2605.65273	7534.25
2608.32498	7532.65
2610.99557	7542.95
2613.66449	7545.65
2616.33175	7507.15
2618.99734	7529.05
2621.66128	7533.65
2624.32355	7519.15
2626.98416	7525.55
2629.64311	7527.65
2632.30041	7540.75
2634.95605	7536.85
2637.61004	7497.15
2640.26238	7477.15
2642.91306	7476.35
2645.56209	7461.85
2648.20948	7467.75
2650.85521	7448.65
2653.4993	7456.35
2656.14175	7451.05
2658.78255	7457.55
2661.42171	7469.45
2664.05923	7500.55
2666.6951	7486.85
2669.32934	7489.65
2671.96194	7487.75
2674.59291	7507.45
2677.22224	7504.45
2679.84993	7506.45
2682.476	7490.25
2685.10043	7478.95
2687.72324	7484.95
2690.34441	7474.15
2692.96396	7477.05
2695.58188	7493.35
2698.19818	7503.15
2700.81285	7467.95
2703.4259	7477.05
2706.03733	7462.85
2708.64714	7455.65
2711.25533	7469.05
2713.86191	7484.35
2716.46687	7498.95
2719.07021	7493.45
2721.67194	7522.05
2724.27206	7495.25
2726.87057	7515.95
2729.46747	7509.45
2732.06276	7520.15
2734.65644	7491.75
2737.24852	7490.25
2739.83899	7478.85
2742.42786	7500.55
2745.01513	7483.35
2747.60079	7470.55
2750.18486	7468.85
2752.76733	7482.45
2755.3482	7476.25
2757.92747	7470.45
2760.50515	7452.65
2763.08123	7467.75
2765.65573	7452.65
2768.22863	7452.75
2770.79994	7447.15
2773.36967	7434.45
2775.9378	7424.55
2778.50435	7403.85
2781.06932	7412.25
2783.6327	7411.45
2786.1945	7424.95
2788.75471	7416.85
2791.31335	7392.25
2793.87041	7399.25
2796.42589	7357.85
2798.97979	7373.05
2801.53212	7356.55
2804.08288	7352.25
2806.63206	7325.45
2809.17967	7315.55
2811.72571	7305.95
2814.27018	7306.45
2816.81308	7298.65
2819.35442	7312.95
2821.89419	7288.05
2824.43239	7305.05
2826.96904	7302.75
2829.50412	7307.35
2832.03763	7288.25
2834.56959	7300.95
2837.1	7280.55
2839.62884	7282.25
2842.15613	7293.65
2844.68186	7318.95
2847.20604	7326.15
2849.72867	7339.15
2852.24974	7352.55
2854.76927	7325.45
2857.28724	7317.15
2859.80367	7323.65
2862.31855	7315.85
2864.83189	7312.75
2867.34368	7292.15
2869.85393	7292.85
2872.36264	7278.25
2874.8698	7283.65
2877.37543	7273.25
2879.87952	7280.75
2882.38207	7276.85
2884.88308	7257.85
2887.38256	7277.05
2889.88051	7263.95
2892.37692	7254.45
2894.8718	7260.05
2897.36515	7268.45
2899.85698	7291.65
2902.34727	7281.05
2904.83604	7301.85
2907.32328	7299.85
2909.809	7308.15
2912.29319	7324.75
2914.77587	7308.75
2917.25702	7297.25
2919.73665	7273.25
2922.21476	7289.25
2924.69136	7291.25
2927.16644	7292.45
2929.64	7273.15
2932.11205	7284.35
2934.58258	7248.85
2937.05161	7224.15
2939.51912	7254.95
2941.98513	7233.65
2944.44962	7187.65
2946.91261	7162.05
2949.37409	7172.35
2951.83407	7186.25
2954.29254	7174.25
2956.74951	7162.45
2959.20498	7159.25
2961.65895	7124.05
2964.11142	7145.65
2966.56239	7141.05
2969.01186	7127.85
2971.45984	7103.45
2973.90632	7095.75
2976.35131	7082.15
2978.7948	7050.65
2981.23681	7052.65
2983.67732	7038.95
2986.11635	7013.05
2988.55388	6993.05
2990.98993	6989.95
2993.4245	6964.35
2995.85758	6947.75
2998.28917	6952.85
3000.71928	6935.75
3003.14791	6920.75
3005.57506	6910.55
3008.00073	6923.75
3010.42493	6916.65
3012.84764	6904.95
3015.26888	6886.15
3017.68865	6866.85
3020.10694	6868.35
3022.52376	6844.85
3024.9391	6834.35
3027.35298	6840.65
3029.76539	6834.35
3032.17632	6824.85
3034.5858	6802.35
3036.9938	6806.75
3039.40034	6802.75
3041.80542	6790.85
3044.20903	6785.35
3046.61118	6771.75
3049.01187	6766.05
3051.4111	6764.55
3053.80888	6749.65
3056.20519	6749.45
3058.60005	6716.95
3060.99345	6712.95
3063.3854	6675.35
3065.7759	6679.05
3068.16494	6665.65
3070.55254	6624.75
3072.93868	6645.35
3075.32338	6608.85
3077.70662	6603.35
3080.08842	6584.85
3082.46878	6568.15
3084.84769	6575.35
3087.22515	6566.05
3089.60118	6562.65
3091.97576	6557.85
3094.3489	6559.45
3096.72061	6555.75
3099.09087	6544.95
3101.4597	6571.55
3103.82709	6563.45
3106.19305	6552.85
3108.55757	6550.05
3110.92066	6516.65
3113.28232	6520.55
3115.64255	6498.25
3118.00134	6500.15
3120.35871	6495.45
3122.71466	6487.05
3125.06917	6481.15
3127.42226	6452.25
3129.77393	6461.35
3132.12417	6468.75
3134.47299	6452.05
3136.82039	6461.95
3139.16636	6464.85
3141.51092	6449.95
3143.85406	6473.15
3146.19579	6464.85
3148.53609	6470.35
3150.87499	6478.25
3153.21246	6497.65
3155.54853	6503.75
3157.88318	6483.05
3160.21642	6487.65
3162.54826	6501.55
3164.87868	6508.15
3167.2077	6481.45
3169.5353	6493.95
3171.86151	6485.65
3174.18631	6493.15
3176.5097	6496.35
3178.83169	6478.85
3181.15228	6468.95
3183.47147	6459.85
3185.78926	6459.35
3188.10565	6467.45
3190.42065	6456.55
3192.73424	6463.25
3195.04645	6454.15
3197.35725	6479.05
3199.66667	6457.05
3201.97469	6463.15
3204.28132	6443.75
3206.58656	6496.65
3208.8904	6474.15
3211.19287	6492.75
3213.49394	6491.35
3215.79363	6492.45
3218.09193	6479.45
3220.38884	6491.15
3222.68438	6508.05
3224.97853	6477.35
3227.2713	6483.75
3229.56269	6463.55
3231.8527	6482.65
3234.14133	6490.05
3236.42858	6465.55
3238.71446	6447.05
3240.99896	6431.85
3243.28209	6433.45
3245.56384	6421.35
3247.84423	6420.95
3250.12324	6415.75
3252.40088	6419.75
3254.67715	6411.75
3256.95205	6411.65
3259.22558	6393.85
3261.49775	6403.55
3263.76855	6395.65
3266.03799	6376.45
3268.30606	6371.35
3270.57277	6375.95
3272.83812	6352.65
3275.10211	6348.35
3277.36474	6338.05
3279.62601	6329.85
3281.88593	6326.75
3284.14448	6343.45
3286.40168	6346.15
3288.65753	6315.75
3290.91202	6334.85
3293.16516	6306.55
3295.41695	6280.85
3297.66738	6239.85
3299.91647	6225.85
3302.16421	6197.45
3304.4106	6152.65
3306.65564	6139.35
3308.89933	6102.35
3311.14169	6044.55
3313.38269	6007.05
3315.62236	5980.15
3317.86068	5929.25
3320.09766	5872.95
3322.3333	5844.65
3324.5676	5829.15
3326.80056	5750.35
3329.03219	5715.95
3331.26248	2.85
3333.49143	-0.95
3335.71905	-0.15
