Data from AgNPs_FTO_APTES_UA_1uM_CRN_200uM_R6G_10uM_NaF_0.1M_Addition_RamanShift__6__17-11-59-821.txt Node

Date: Thu Jan 27 17:11:59 GMT 2022
User: TCL
Spectrometer: QEP01345
Trigger mode: 4
Integration Time (sec): 7.000000E0
Scans to average: 10
Electric dark correction enabled: true
Nonlinearity correction enabled: false
Boxcar width: 0
XAxis mode: Raman Shifts
Number of Pixels in Spectrum: 1044
>>>>>Begin Spectral Data<<<<<
46.04893	1.25
50.45542	1.75
54.85868	-0.75
59.25871	-1.95
63.6555	44.05
68.04907	45.15
72.43941	46.45
76.82654	52.95
81.21044	51.75
85.59113	55.15
89.96862	53.55
94.34289	56.75
98.71396	62.85
103.08183	59.95
107.4465	64.55
111.80798	65.65
116.16626	64.25
120.52136	69.95
124.87327	68.85
129.222	69.45
133.56755	75.55
137.90993	77.35
142.24913	80.65
146.58517	91.05
150.91804	103.45
155.24774	118.15
159.57429	141.15
163.89768	170.95
168.21792	225.95
172.53501	297.05
176.84895	416.95
181.15975	574.25
185.46741	805.95
189.77193	1098.35
194.07331	1476.65
198.37157	1906.35
202.6667	2377.25
206.9587	2820.55
211.24758	3273.05
215.53334	3714.45
219.81599	4179.35
224.09553	4679.95
228.37195	5248.15
232.64527	5858.05
236.91549	6506.85
241.18261	7174.55
245.44663	7804.25
249.70755	8365.35
253.96539	8900.45
258.22014	9304.45
262.4718	9611.85
266.72039	9845.45
270.96589	9908.45
275.20832	9923.35
279.44768	9790.95
283.68397	9673.85
287.91719	9536.35
292.14735	9446.35
296.37445	9384.85
300.59849	9362.85
304.81948	9388.85
309.03742	9413.55
313.25231	9335.95
317.46415	9227.95
321.67296	9058.45
325.87872	8903.95
330.08145	8852.65
334.28114	8867.65
338.47781	8906.65
342.67145	9024.35
346.86207	9158.85
351.04966	9301.95
355.23424	9439.05
359.4158	9557.65
363.59435	9663.95
367.76989	9722.05
371.94243	9791.75
376.11196	9858.65
380.27849	9905.85
384.44203	9964.25
388.60257	10036.55
392.76012	10083.55
396.91468	10218.25
401.06626	10334.95
405.21485	10444.05
409.36047	10475.45
413.50311	10376.25
417.64277	10293.45
421.77947	10280.65
425.9132	10331.65
430.04396	10376.25
434.17176	10427.45
438.2966	10457.45
442.41849	10538.45
446.53742	10737.35
450.6534	10917.55
454.76644	11027.95
458.87653	11047.15
462.98368	10993.55
467.08789	10861.35
471.18916	10759.55
475.2875	10676.65
479.38291	10553.95
483.4754	10457.45
487.56496	10385.65
491.6516	10319.15
495.73531	10299.65
499.81612	10296.15
503.89401	10383.35
507.96899	10421.45
512.04106	10425.15
516.11023	10382.05
520.1765	10366.45
524.23987	10290.25
528.30034	10269.75
532.35792	10216.65
536.41261	10139.45
540.46441	10010.25
544.51333	9999.15
548.55936	10067.55
552.60252	10195.95
556.64279	10394.25
560.6802	10508.25
564.71473	10528.05
568.7464	10535.45
572.7752	10679.75
576.80114	10810.15
580.82422	11095.25
584.84444	11495.75
588.86181	12033.45
592.87633	12477.95
596.888	12460.15
600.89682	11958.55
604.9028	11733.95
608.90594	12227.55
612.90624	13032.45
616.90371	12607.55
620.89834	11098.75
624.89015	10336.55
628.87913	10232.85
632.86528	10278.95
636.84862	10355.95
640.82913	10263.35
644.80683	10124.95
648.78172	9994.55
652.75379	10022.85
656.72306	10080.75
660.68952	10194.95
664.65319	10155.45
668.61405	10061.55
672.57211	10021.95
676.52738	10085.65
680.47986	10132.95
684.42955	10091.15
688.37646	10026.25
692.32058	10016.35
696.26192	10076.65
700.20048	10147.85
704.13626	10192.85
708.06928	10221.95
711.99952	10201.25
715.927	10220.45
719.85171	10231.45
723.77365	10223.75
727.69284	10132.65
731.60928	10037.55
735.52295	10026.45
739.43388	10035.45
743.34206	10037.15
747.24749	10090.65
751.15017	10154.15
755.05012	10223.05
758.94733	10382.75
762.8418	10718.55
766.73354	11246.75
770.62254	11889.25
774.50882	12133.45
778.39237	11848.35
782.27321	11229.45
786.15132	10626.45
790.02671	10275.55
793.89938	10100.45
797.76935	10030.95
801.6366	9984.45
805.50115	9972.45
809.36299	9934.45
813.22213	9907.65
817.07857	9852.55
820.93231	9807.75
824.78336	9801.05
828.63172	9785.25
832.47738	9784.35
836.32036	9809.45
840.16066	9789.35
843.99827	9790.95
847.8332	9795.55
851.66546	9772.05
855.49504	9761.85
859.32195	9784.45
863.1462	9757.25
866.96777	9774.95
870.78668	9773.95
874.60293	9771.95
878.41652	9776.55
882.22745	9792.95
886.03573	9853.25
889.84136	9860.05
893.64433	9826.65
897.44466	9808.95
901.24235	9763.85
905.0374	9739.55
908.8298	9708.35
912.61957	9712.65
916.40671	9746.65
920.19121	9819.25
923.97308	9886.35
927.75233	9916.85
931.52895	9925.05
935.30295	9821.05
939.07433	9664.05
942.84309	9566.55
946.60924	9490.75
950.37278	9454.85
954.13371	9424.75
957.89203	9428.85
961.64774	9409.65
965.40086	9406.95
969.15137	9384.25
972.89929	9345.95
976.64461	9321.95
980.38733	9313.65
984.12747	9289.55
987.86502	9341.95
991.59999	9353.65
995.33237	9412.05
999.06217	9507.05
1002.78939	9615.25
1006.51404	9716.05
1010.23611	9849.85
1013.95561	9921.05
1017.67255	9964.15
1021.38692	9923.75
1025.09872	9810.05
1028.80796	9718.45
1032.51465	9660.05
1036.21877	9681.15
1039.92035	9723.85
1043.61937	9751.35
1047.31584	9755.45
1051.00976	9784.05
1054.70114	9800.65
1058.38998	9822.35
1062.07627	9887.35
1065.76003	9981.15
1069.44126	10062.95
1073.11995	10180.15
1076.79611	10307.55
1080.46974	10324.55
1084.14085	10313.05
1087.80943	10306.75
1091.47549	10333.25
1095.13903	10391.05
1098.80005	10321.05
1102.45857	10155.25
1106.11456	10001.65
1109.76805	9920.45
1113.41903	9916.65
1117.06751	9950.25
1120.71348	10056.95
1124.35696	10174.35
1127.99793	10356.65
1131.63641	10466.85
1135.2724	10342.85
1138.90589	10195.95
1142.5369	10168.05
1146.16542	10154.55
1149.79145	10175.95
1153.415	10198.55
1157.03607	10218.75
1160.65467	10366.45
1164.27079	10649.45
1167.88443	11046.35
1171.49561	11490.45
1175.10432	12021.45
1178.71056	12747.95
1182.31434	13447.35
1185.91565	13749.85
1189.51451	13634.05
1193.11091	13259.55
1196.70485	12835.05
1200.29634	12414.65
1203.88538	12057.05
1207.47197	11816.95
1211.05612	11591.45
1214.63782	11427.95
1218.21708	11248.65
1221.79391	11090.25
1225.36829	11029.75
1228.94024	10995.75
1232.50976	10936.15
1236.07685	10845.05
1239.6415	10767.65
1243.20374	10745.35
1246.76355	10763.95
1250.32093	10858.45
1253.8759	10952.95
1257.42845	11143.15
1260.97859	11352.45
1264.52631	11582.15
1268.07163	11780.45
1271.61453	11953.05
1275.15503	12170.25
1278.69312	12381.75
1282.22882	12646.95
1285.76211	12957.75
1289.29301	13340.85
1292.82151	13805.45
1296.34761	14335.75
1299.87133	14959.75
1303.39266	15654.05
1306.9116	16331.05
1310.42815	16962.85
1313.94233	17343.65
1317.45412	17187.15
1320.96354	16728.05
1324.47058	16191.05
1327.97525	15761.15
1331.47754	15448.75
1334.97747	15231.15
1338.47502	15037.45
1341.97022	14866.55
1345.46305	14819.95
1348.95352	14962.85
1352.44163	15397.65
1355.92738	16080.95
1359.41078	17028.55
1362.89183	17791.15
1366.37053	17773.75
1369.84688	16581.85
1373.32088	14852.55
1376.79254	13512.65
1380.26186	12942.15
1383.72883	12703.85
1387.19347	12526.95
1390.65578	12281.85
1394.11575	12155.55
1397.57339	12199.85
1401.0287	12367.95
1404.48168	12519.05
1407.93234	12520.15
1411.38068	12384.75
1414.82669	12200.35
1418.27039	11918.55
1421.71177	11670.65
1425.15083	11426.65
1428.58758	11276.45
1432.02203	11331.95
1435.45416	11480.65
1438.88399	11699.25
1442.31151	11757.65
1445.73673	11803.15
1449.15965	11817.25
1452.58027	11809.35
1455.9986	11753.95
1459.41463	11742.55
1462.82837	11877.55
1466.23982	12090.15
1469.64898	12295.85
1473.05586	12479.05
1476.46045	12558.95
1479.86276	12632.25
1483.26279	12643.85
1486.66054	12702.25
1490.05602	12823.35
1493.44922	13017.85
1496.84016	13316.95
1500.22882	13712.65
1503.61521	14223.75
1506.99934	14810.75
1510.38121	15276.65
1513.76081	15278.75
1517.13816	14796.35
1520.51324	14129.95
1523.88607	13571.05
1527.25665	13202.85
1530.62498	13004.15
1533.99105	12885.25
1537.35488	12694.15
1540.71647	12482.15
1544.07581	12289.35
1547.4329	12108.05
1550.78776	11888.05
1554.14038	11716.95
1557.49077	11638.75
1560.83892	11594.85
1564.18484	11636.85
1567.52853	11693.65
1570.86999	11848.85
1574.20922	12041.35
1577.54624	12138.15
1580.88103	12111.45
1584.2136	11963.45
1587.54395	12020.55
1590.87208	12334.35
1594.19801	12869.35
1597.52172	13510.55
1600.84321	13863.95
1604.16251	13617.25
1607.47959	12900.95
1610.79447	12068.65
1614.10715	11233.95
1617.41763	10615.95
1620.7259	10187.75
1624.03199	9961.45
1627.33587	9913.85
1630.63757	10050.05
1633.93707	10380.55
1637.23439	11036.15
1640.52951	12069.85
1643.82246	13455.95
1647.11321	14799.65
1650.40179	15292.55
1653.68819	14558.45
1656.97241	12967.35
1660.25446	11402.35
1663.53433	10296.05
1666.81203	9671.95
1670.08756	9241.75
1673.36092	8994.55
1676.63211	8858.95
1679.90115	8756.15
1683.16801	8653.15
1686.43272	8597.85
1689.69527	8524.45
1692.95567	8484.15
1696.2139	8444.75
1699.46999	8367.55
1702.72392	8339.05
1705.97571	8361.05
1709.22535	8362.05
1712.47284	8377.35
1715.71819	8373.65
1718.96139	8390.75
1722.20246	8352.05
1725.44139	8356.15
1728.67818	8316.95
1731.91284	8285.45
1735.14537	8234.65
1738.37576	8238.05
1741.60403	8209.55
1744.83017	8195.85
1748.05418	8173.75
1751.27607	8150.95
1754.49584	8168.25
1757.71349	8131.25
1760.92903	8139.55
1764.14244	8112.95
1767.35375	8111.55
1770.56294	8070.45
1773.77002	8051.25
1776.97499	8042.85
1780.17785	8062.25
1783.37861	8051.05
1786.57727	8060.75
1789.77382	8035.55
1792.96828	8000.35
1796.16064	7999.05
1799.3509	7982.85
1802.53907	7969.55
1805.72514	7933.05
1808.90913	7943.65
1812.09102	7927.55
1815.27083	7912.95
1818.44856	7869.85
1821.6242	7875.45
1824.79776	7867.45
1827.96924	7869.65
1831.13864	7844.75
1834.30597	7856.75
1837.47122	7843.95
1840.6344	7828.25
1843.7955	7843.05
1846.95454	7806.45
1850.11151	7813.05
1853.26642	7830.35
1856.41926	7816.15
1859.57004	7821.65
1862.71876	7829.75
1865.86542	7809.65
1869.01003	7799.65
1872.15258	7785.65
1875.29308	7771.75
1878.43152	7772.35
1881.56792	7772.65
1884.70227	7738.65
1887.83457	7750.05
1890.96482	7726.15
1894.09304	7703.25
1897.21921	7712.35
1900.34335	7690.25
1903.46544	7691.35
1906.58551	7702.95
1909.70353	7674.25
1912.81953	7652.05
1915.93349	7655.85
1919.04543	7647.55
1922.15534	7640.45
1925.26322	7612.25
1928.36908	7610.65
1931.47292	7593.85
1934.57473	7564.55
1937.67453	7554.25
1940.77232	7513.95
1943.86808	7507.15
1946.96184	7497.55
1950.05358	7465.15
1953.14331	7465.05
1956.23103	7442.95
1959.31675	7427.95
1962.40046	7387.65
1965.48217	7376.25
1968.56188	7360.75
1971.63959	7325.95
1974.7153	7324.45
1977.78901	7281.95
1980.86073	7268.15
1983.93046	7245.75
1986.99819	7235.15
1990.06394	7208.45
1993.1277	7193.15
1996.18947	7153.55
1999.24925	7142.05
2002.30706	7132.35
2005.36288	7108.35
2008.41672	7084.45
2011.46859	7069.55
2014.51848	7050.95
2017.56639	7034.55
2020.61233	7025.45
2023.6563	7007.35
2026.6983	6986.65
2029.73833	6972.35
2032.7764	6955.75
2035.8125	6943.75
2038.84664	6911.45
2041.87881	6910.05
2044.90903	6916.45
2047.93729	6888.55
2050.96359	6877.85
2053.98794	6876.95
2057.01034	6868.75
2060.03078	6871.85
2063.04927	6849.45
2066.06582	6847.25
2069.08042	6854.55
2072.09307	6844.95
2075.10378	6835.15
2078.11255	6839.35
2081.11938	6852.85
2084.12426	6837.05
2087.12722	6830.25
2090.12824	6831.65
2093.12732	6834.75
2096.12447	6808.95
2099.11969	6834.35
2102.11299	6830.35
2105.10435	6829.55
2108.09379	6833.35
2111.08131	6846.55
2114.0669	6863.05
2117.05057	6843.15
2120.03233	6877.45
2123.01216	6871.35
2125.99008	6883.25
2128.96609	6858.55
2131.94018	6882.05
2134.91236	6887.75
2137.88263	6900.55
2140.851	6894.65
2143.81746	6900.35
2146.78201	6896.25
2149.74466	6895.15
2152.7054	6892.15
2155.66425	6895.25
2158.6212	6886.85
2161.57625	6877.25
2164.52941	6864.65
2167.48067	6880.25
2170.43004	6895.85
2173.37752	6882.45
2176.32311	6895.55
2179.26681	6902.25
2182.20863	6885.45
2185.14856	6897.55
2188.08661	6860.75
2191.02278	6888.85
2193.95707	6892.45
2196.88948	6876.05
2199.82001	6853.45
2202.74867	6847.05
2205.67545	6854.05
2208.60037	6840.75
2211.52341	6823.85
2214.44458	6828.55
2217.36388	6803.75
2220.28132	6799.85
2223.1969	6783.45
2226.11061	6773.55
2229.02246	6759.55
2231.93245	6755.55
2234.84058	6736.55
2237.74686	6733.35
2240.65128	6730.25
2243.55385	6711.75
2246.45456	6695.25
2249.35343	6679.45
2252.25044	6677.55
2255.14561	6670.95
2258.03893	6678.75
2260.93041	6655.35
2263.82004	6631.05
2266.70783	6628.55
2269.59378	6615.15
2272.4779	6605.15
2275.36017	6569.45
2278.24061	6586.15
2281.11922	6567.65
2283.996	6560.75
2286.87094	6533.75
2289.74405	6528.55
2292.61534	6512.65
2295.4848	6500.85
2298.35243	6515.35
2301.21824	6511.95
2304.08223	6502.55
2306.94439	6483.45
2309.80474	6515.05
2312.66327	6484.05
2315.51999	6483.75
2318.37489	6474.95
2321.22797	6457.65
2324.07925	6464.55
2326.92871	6452.45
2329.77637	6453.85
2332.62222	6427.05
2335.46626	6425.35
2338.3085	6432.95
2341.14893	6407.35
2343.98756	6415.95
2346.8244	6394.45
2349.65943	6393.55
2352.49267	6375.55
2355.32411	6382.35
2358.15376	6381.45
2360.98161	6387.45
2363.80768	6392.65
2366.63195	6372.95
2369.45444	6380.55
2372.27514	6360.35
2375.09405	6354.65
2377.91118	6358.05
2380.72652	6331.05
2383.54009	6319.45
2386.35187	6305.55
2389.16188	6297.35
2391.97011	6280.25
2394.77657	6281.45
2397.58125	6241.95
2400.38416	6255.05
2403.18529	6243.45
2405.98466	6241.95
2408.78226	6231.65
2411.57809	6220.65
2414.37216	6214.75
2417.16446	6216.05
2419.955	6186.65
2422.74378	6194.05
2425.5308	6207.55
2428.31606	6194.95
2431.09956	6206.35
2433.88131	6165.45
2436.6613	6184.25
2439.43954	6175.75
2442.21603	6164.75
2444.99077	6152.45
2447.76377	6176.85
2450.53501	6151.75
2453.30451	6133.15
2456.07226	6150.45
2458.83827	6141.85
2461.60254	6129.85
2464.36507	6122.95
2467.12586	6113.65
2469.88492	6111.55
2472.64224	6108.15
2475.39782	6115.45
2478.15167	6092.15
2480.90379	6094.85
2483.65417	6081.75
2486.40283	6106.45
2489.14976	6102.35
2491.89497	6110.85
2494.63845	6108.25
2497.3802	6084.25
2500.12024	6085.35
2502.85855	6072.15
2505.59514	6085.05
2508.33002	6051.75
2511.06318	6051.25
2513.79462	6039.65
2516.52435	6038.25
2519.25237	6044.75
2521.97867	6025.85
2524.70327	6005.65
2527.42616	6020.85
2530.14734	5987.75
2532.86681	5990.35
2535.58458	5985.25
2538.30065	5984.45
2541.01501	5972.35
2543.72768	5961.15
2546.43864	5954.55
2549.14791	5943.25
2551.85548	5951.95
2554.56136	5934.15
2557.26554	5934.65
2559.96803	5915.45
2562.66883	5906.65
2565.36794	5906.45
2568.06536	5894.15
2570.7611	5900.55
2573.45514	5878.05
2576.14751	5874.05
2578.83819	5868.35
2581.52719	5864.15
2584.21451	5846.05
2586.90015	5829.95
2589.58411	5829.65
2592.2664	5822.65
2594.94701	5801.85
2597.62594	5789.55
2600.30321	5786.05
2602.9788	5784.25
2605.65273	5775.75
2608.32498	5769.15
2610.99557	5769.55
2613.66449	5757.75
2616.33175	5752.05
2618.99734	5750.35
2621.66128	5737.75
2624.32355	5718.95
2626.98416	5712.75
2629.64311	5719.55
2632.30041	5725.15
2634.95605	5685.05
2637.61004	5686.55
2640.26238	5691.55
2642.91306	5672.25
2645.56209	5681.55
2648.20948	5675.65
2650.85521	5671.45
2653.4993	5669.25
2656.14175	5683.55
2658.78255	5687.75
2661.42171	5682.45
2664.05923	5689.75
2666.6951	5670.85
2669.32934	5700.15
2671.96194	5665.65
2674.59291	5687.45
2677.22224	5679.15
2679.84993	5660.35
2682.476	5686.25
2685.10043	5669.85
2687.72324	5662.95
2690.34441	5689.55
2692.96396	5650.75
2695.58188	5684.95
2698.19818	5688.85
2700.81285	5685.25
2703.4259	5670.05
2706.03733	5660.45
2708.64714	5644.75
2711.25533	5673.15
2713.86191	5666.45
2716.46687	5680.75
2719.07021	5647.65
2721.67194	5684.55
2724.27206	5682.35
2726.87057	5685.65
2729.46747	5686.15
2732.06276	5688.05
2734.65644	5673.55
2737.24852	5684.45
2739.83899	5669.45
2742.42786	5676.15
2745.01513	5639.85
2747.60079	5647.55
2750.18486	5667.55
2752.76733	5639.85
2755.3482	5650.25
2757.92747	5644.45
2760.50515	5626.15
2763.08123	5632.45
2765.65573	5611.35
2768.22863	5639.35
2770.79994	5598.45
2773.36967	5596.05
2775.9378	5584.35
2778.50435	5609.95
2781.06932	5583.75
2783.6327	5578.05
2786.1945	5575.95
2788.75471	5567.85
2791.31335	5562.45
2793.87041	5540.25
2796.42589	5501.85
2798.97979	5523.45
2801.53212	5530.55
2804.08288	5508.65
2806.63206	5516.35
2809.17967	5497.65
2811.72571	5482.65
2814.27018	5467.85
2816.81308	5470.95
2819.35442	5459.55
2821.89419	5447.75
2824.43239	5451.25
2826.96904	5444.15
2829.50412	5452.65
2832.03763	5436.15
2834.56959	5439.55
2837.1	5448.15
2839.62884	5448.35
2842.15613	5466.05
2844.68186	5501.05
2847.20604	5498.85
2849.72867	5530.95
2852.24974	5524.35
2854.76927	5520.95
2857.28724	5507.05
2859.80367	5487.05
2862.31855	5477.75
2864.83189	5489.95
2867.34368	5469.35
2869.85393	5473.35
2872.36264	5486.75
2874.8698	5463.85
2877.37543	5473.45
2879.87952	5474.35
2882.38207	5461.45
2884.88308	5456.95
2887.38256	5448.35
2889.88051	5439.55
2892.37692	5443.45
2894.8718	5457.75
2897.36515	5453.15
2899.85698	5463.05
2902.34727	5471.95
2904.83604	5501.65
2907.32328	5505.25
2909.809	5480.75
2912.29319	5491.85
2914.77587	5503.75
2917.25702	5501.95
2919.73665	5477.05
2922.21476	5500.15
2924.69136	5508.35
2927.16644	5495.25
2929.64	5492.45
2932.11205	5498.45
2934.58258	5473.95
2937.05161	5475.95
2939.51912	5474.75
2941.98513	5468.05
2944.44962	5432.25
2946.91261	5416.35
2949.37409	5427.25
2951.83407	5406.65
2954.29254	5409.95
2956.74951	5397.55
2959.20498	5403.25
2961.65895	5379.35
2964.11142	5378.25
2966.56239	5350.85
2969.01186	5352.45
2971.45984	5352.85
2973.90632	5332.85
2976.35131	5299.25
2978.7948	5289.35
2981.23681	5291.35
2983.67732	5295.15
2986.11635	5299.35
2988.55388	5254.25
2990.98993	5266.25
2993.4245	5249.25
2995.85758	5247.25
2998.28917	5240.15
3000.71928	5222.05
3003.14791	5194.05
3005.57506	5206.95
3008.00073	5204.35
3010.42493	5170.85
3012.84764	5193.15
3015.26888	5176.15
3017.68865	5181.65
3020.10694	5163.85
3022.52376	5158.85
3024.9391	5146.15
3027.35298	5135.45
3029.76539	5148.25
3032.17632	5122.35
3034.5858	5105.15
3036.9938	5117.05
3039.40034	5102.65
3041.80542	5130.65
3044.20903	5101.05
3046.61118	5101.05
3049.01187	5106.25
3051.4111	5093.55
3053.80888	5092.25
3056.20519	5077.95
3058.60005	5058.65
3060.99345	5059.85
3063.3854	5051.55
3065.7759	5041.65
3068.16494	5031.05
3070.55254	5011.25
3072.93868	5022.85
3075.32338	5020.05
3077.70662	5008.65
3080.08842	5005.35
3082.46878	5008.75
3084.84769	4999.25
3087.22515	5005.95
3089.60118	4991.35
3091.97576	5002.05
3094.3489	5003.95
3096.72061	4999.65
3099.09087	5009.25
3101.4597	5011.65
3103.82709	5004.55
3106.19305	4987.25
3108.55757	5010.45
3110.92066	4999.95
3113.28232	5001.45
3115.64255	4991.75
3118.00134	4974.35
3120.35871	4967.75
3122.71466	4972.85
3125.06917	4967.05
3127.42226	4960.05
3129.77393	4959.95
3132.12417	4970.25
3134.47299	4968.95
3136.82039	4972.15
3139.16636	4984.35
3141.51092	4990.35
3143.85406	5001.15
3146.19579	4979.15
3148.53609	4989.95
3150.87499	5017.35
3153.21246	5029.05
3155.54853	5021.55
3157.88318	5036.25
3160.21642	5036.65
3162.54826	5036.65
3164.87868	5036.75
3167.2077	5059.45
3169.5353	5054.05
3171.86151	5056.25
3174.18631	5052.85
3176.5097	5042.15
3178.83169	5038.15
3181.15228	5036.75
3183.47147	5032.65
3185.78926	5034.25
3188.10565	5036.45
3190.42065	5042.95
3192.73424	5048.95
3195.04645	5030.75
3197.35725	5032.95
3199.66667	5023.25
3201.97469	5051.55
3204.28132	5042.25
3206.58656	5049.65
3208.8904	5056.95
3211.19287	5052.55
3213.49394	5071.55
3215.79363	5067.85
3218.09193	5062.35
3220.38884	5066.55
3222.68438	5063.85
3224.97853	5065.85
3227.2713	5067.25
3229.56269	5063.55
3231.8527	5080.05
3234.14133	5063.05
3236.42858	5045.65
3238.71446	5048.15
3240.99896	5035.95
3243.28209	5042.25
3245.56384	5029.65
3247.84423	5028.35
3250.12324	5027.55
3252.40088	5027.45
3254.67715	5021.95
3256.95205	5030.15
3259.22558	5011.25
3261.49775	5002.45
3263.76855	5000.45
3266.03799	4982.85
3268.30606	5002.75
3270.57277	4987.35
3272.83812	4963.65
3275.10211	4964.35
3277.36474	4947.45
3279.62601	4955.25
3281.88593	4957.05
3284.14448	4955.45
3286.40168	4953.45
3288.65753	4956.45
3290.91202	4955.95
3293.16516	4930.75
3295.41695	4927.65
3297.66738	4885.55
3299.91647	4876.65
3302.16421	4853.35
3304.4106	4810.55
3306.65564	4795.85
3308.89933	4771.35
3311.14169	4752.15
3313.38269	4698.45
3315.62236	4685.95
3317.86068	4636.75
3320.09766	4607.25
3322.3333	4584.75
3324.5676	4585.45
3326.80056	4508.85
3329.03219	4461.65
3331.26248	1.45
3333.49143	-0.95
3335.71905	-0.35
