Data from AgNPs_FTO_APTES_UA_1uM_CRN_1000uM_R6G_10uM_NaF_0.1M_Addition_RamanShift__31__19-09-49-955.txt Node

Date: Thu Jan 27 19:09:49 GMT 2022
User: TCL
Spectrometer: QEP01345
Trigger mode: 4
Integration Time (sec): 7.000000E0
Scans to average: 10
Electric dark correction enabled: true
Nonlinearity correction enabled: false
Boxcar width: 0
XAxis mode: Raman Shifts
Number of Pixels in Spectrum: 1044
>>>>>Begin Spectral Data<<<<<
46.04893	0.45
50.45542	1.95
54.85868	-1.05
59.25871	0.15
63.6555	33.65
68.04907	33.05
72.43941	37.75
76.82654	40.25
81.21044	41.05
85.59113	41.35
89.96862	43.85
94.34289	44.85
98.71396	47.75
103.08183	47.55
107.4465	51.85
111.80798	50.95
116.16626	49.45
120.52136	53.95
124.87327	53.95
129.222	49.75
133.56755	53.35
137.90993	55.35
142.24913	59.85
146.58517	62.05
150.91804	72.55
155.24774	76.15
159.57429	90.55
163.89768	109.15
168.21792	146.05
172.53501	188.75
176.84895	246.95
181.15975	342.95
185.46741	469.35
189.77193	642.95
194.07331	865.95
198.37157	1117.75
202.6667	1378.55
206.9587	1631.85
211.24758	1893.15
215.53334	2172.95
219.81599	2481.45
224.09553	2842.75
228.37195	3219.65
232.64527	3636.85
236.91549	4039.05
241.18261	4406.55
245.44663	4684.35
249.70755	4878.55
253.96539	5050.55
258.22014	5174.55
262.4718	5269.25
266.72039	5352.95
270.96589	5398.65
275.20832	5373.65
279.44768	5266.75
283.68397	5163.75
287.91719	5082.55
292.14735	5078.45
296.37445	5246.35
300.59849	5514.75
304.81948	5887.55
309.03742	6178.45
313.25231	6221.15
317.46415	5855.65
321.67296	5286.95
325.87872	4781.15
330.08145	4546.55
334.28114	4513.75
338.47781	4621.95
342.67145	4800.15
346.86207	5106.35
351.04966	5531.95
355.23424	5997.45
359.4158	6352.05
363.59435	6481.65
367.76989	6513.25
371.94243	6482.15
376.11196	6393.55
380.27849	6304.55
384.44203	6171.85
388.60257	5994.35
392.76012	5902.25
396.91468	5951.25
401.06626	6160.85
405.21485	6312.05
409.36047	6151.95
413.50311	5715.55
417.64277	5278.05
421.77947	4996.55
425.9132	4863.35
430.04396	4825.45
434.17176	4825.65
438.2966	4900.45
442.41849	5031.25
446.53742	5190.95
450.6534	5348.95
454.76644	5454.45
458.87653	5457.45
462.98368	5401.85
467.08789	5311.85
471.18916	5168.05
475.2875	5017.65
479.38291	4878.65
483.4754	4787.85
487.56496	4726.35
491.6516	4673.55
495.73531	4652.45
499.81612	4702.95
503.89401	4750.15
507.96899	4880.15
512.04106	5007.55
516.11023	5198.35
520.1765	5332.05
524.23987	5310.45
528.30034	5169.35
532.35792	4969.95
536.41261	4785.45
540.46441	4597.35
544.51333	4516.65
548.55936	4515.05
552.60252	4611.35
556.64279	4757.35
560.6802	4851.15
564.71473	5009.55
568.7464	5300.65
572.7752	5512.15
576.80114	5228.75
580.82422	4876.65
584.84444	4713.35
588.86181	4668.05
592.87633	4667.95
596.888	4728.45
600.89682	4987.65
604.9028	5768.35
608.90594	7968.75
612.90624	11174.25
616.90371	11132.65
620.89834	7219.45
624.89015	5190.05
628.87913	4752.75
632.86528	4730.15
636.84862	4834.15
640.82913	4814.15
644.80683	4580.25
648.78172	4412.25
652.75379	4465.25
656.72306	4735.75
660.68952	5096.75
664.65319	5052.75
668.61405	4685.35
672.57211	4483.25
676.52738	4505.65
680.47986	4565.95
684.42955	4526.95
688.37646	4489.65
692.32058	4481.15
696.26192	4537.55
700.20048	4621.45
704.13626	4656.85
708.06928	4613.75
711.99952	4515.05
715.927	4438.15
719.85171	4449.35
723.77365	4439.65
727.69284	4419.85
731.60928	4370.65
735.52295	4362.85
739.43388	4363.65
743.34206	4384.55
747.24749	4382.35
751.15017	4425.25
755.05012	4536.25
758.94733	4809.05
762.8418	5463.35
766.73354	6653.55
770.62254	7966.25
774.50882	8821.95
778.39237	8614.75
782.27321	7280.85
786.15132	5804.15
790.02671	4956.15
793.89938	4631.85
797.76935	4467.75
801.6366	4398.15
805.50115	4370.25
809.36299	4358.55
813.22213	4351.65
817.07857	4332.75
820.93231	4338.65
824.78336	4346.25
828.63172	4370.25
832.47738	4390.15
836.32036	4391.85
840.16066	4355.65
843.99827	4312.75
847.8332	4299.45
851.66546	4318.25
855.49504	4322.05
859.32195	4312.75
863.1462	4306.65
866.96777	4277.95
870.78668	4238.05
874.60293	4218.75
878.41652	4207.65
882.22745	4228.55
886.03573	4280.15
889.84136	4282.35
893.64433	4236.35
897.44466	4233.45
901.24235	4200.85
905.0374	4205.95
908.8298	4169.95
912.61957	4150.15
916.40671	4168.55
920.19121	4220.95
923.97308	4296.25
927.75233	4363.05
931.52895	4477.25
935.30295	4424.45
939.07433	4247.65
942.84309	4056.65
946.60924	3921.65
950.37278	3849.05
954.13371	3807.65
957.89203	3761.05
961.64774	3740.15
965.40086	3715.45
969.15137	3688.95
972.89929	3683.85
976.64461	3687.45
980.38733	3673.55
984.12747	3682.85
987.86502	3681.55
991.59999	3702.75
995.33237	3720.05
999.06217	3771.95
1002.78939	3848.05
1006.51404	3912.95
1010.23611	4027.35
1013.95561	4109.65
1017.67255	4089.55
1021.38692	4025.35
1025.09872	3968.55
1028.80796	3932.85
1032.51465	3938.65
1036.21877	3990.75
1039.92035	4099.85
1043.61937	4187.55
1047.31584	4174.45
1051.00976	4174.55
1054.70114	4148.45
1058.38998	4096.65
1062.07627	4096.85
1065.76003	4104.55
1069.44126	4134.15
1073.11995	4200.85
1076.79611	4321.45
1080.46974	4437.25
1084.14085	4597.55
1087.80943	4719.75
1091.47549	4748.95
1095.13903	4613.55
1098.80005	4382.85
1102.45857	4188.55
1106.11456	4131.95
1109.76805	4176.35
1113.41903	4317.55
1117.06751	4538.25
1120.71348	4866.25
1124.35696	5216.75
1127.99793	5524.45
1131.63641	5505.95
1135.2724	5066.15
1138.90589	4653.05
1142.5369	4434.55
1146.16542	4278.65
1149.79145	4169.75
1153.415	4148.25
1157.03607	4189.65
1160.65467	4306.55
1164.27079	4479.95
1167.88443	4766.85
1171.49561	5285.55
1175.10432	6197.45
1178.71056	7333.25
1182.31434	8016.75
1185.91565	7945.35
1189.51451	7529.65
1193.11091	6887.25
1196.70485	6245.45
1200.29634	5799.35
1203.88538	5480.25
1207.47197	5065.15
1211.05612	4671.05
1214.63782	4473.35
1218.21708	4429.35
1221.79391	4408.55
1225.36829	4433.15
1228.94024	4484.35
1232.50976	4519.45
1236.07685	4544.05
1239.6415	4566.35
1243.20374	4568.85
1246.76355	4614.75
1250.32093	4658.35
1253.8759	4749.05
1257.42845	4877.15
1260.97859	5068.45
1264.52631	5276.95
1268.07163	5477.15
1271.61453	5665.55
1275.15503	5752.35
1278.69312	5725.05
1282.22882	5687.05
1285.76211	5779.35
1289.29301	5981.85
1292.82151	6226.85
1296.34761	6454.15
1299.87133	6793.25
1303.39266	7446.55
1306.9116	8524.05
1310.42815	9844.45
1313.94233	10610.35
1317.45412	10312.25
1320.96354	9264.45
1324.47058	8092.45
1327.97525	7144.75
1331.47754	6636.05
1334.97747	6418.55
1338.47502	6446.15
1341.97022	6652.05
1345.46305	7141.45
1348.95352	7935.15
1352.44163	9028.15
1355.92738	10457.35
1359.41078	12487.15
1362.89183	14441.35
1366.37053	13991.35
1369.84688	11430.75
1373.32088	8960.65
1376.79254	7318.65
1380.26186	6470.55
1383.72883	5985.05
1387.19347	5648.55
1390.65578	5294.25
1394.11575	4984.65
1397.57339	4805.65
1401.0287	4759.55
1404.48168	4768.25
1407.93234	4790.75
1411.38068	4819.95
1414.82669	4880.15
1418.27039	4909.35
1421.71177	4903.85
1425.15083	4880.45
1428.58758	4863.65
1432.02203	4891.45
1435.45416	4971.75
1438.88399	4965.05
1442.31151	4934.75
1445.73673	4895.85
1449.15965	4873.15
1452.58027	4859.85
1455.9986	4782.55
1459.41463	4748.75
1462.82837	4763.25
1466.23982	4848.65
1469.64898	4948.15
1473.05586	5043.55
1476.46045	5102.65
1479.86276	5232.45
1483.26279	5373.95
1486.66054	5572.75
1490.05602	5834.95
1493.44922	6248.25
1496.84016	6891.95
1500.22882	7947.55
1503.61521	9365.35
1506.99934	10869.75
1510.38121	12357.05
1513.76081	13201.65
1517.13816	12532.55
1520.51324	10541.55
1523.88607	8486.85
1527.25665	7081.25
1530.62498	6323.95
1533.99105	5906.95
1537.35488	5632.75
1540.71647	5476.05
1544.07581	5441.35
1547.4329	5445.05
1550.78776	5467.65
1554.14038	5524.95
1557.49077	5611.35
1560.83892	5799.55
1564.18484	6037.75
1567.52853	6363.35
1570.86999	6652.45
1574.20922	6875.25
1577.54624	6851.95
1580.88103	6403.15
1584.2136	5691.95
1587.54395	5203.75
1590.87208	5080.85
1594.19801	5241.35
1597.52172	5642.45
1600.84321	5871.05
1604.16251	5676.05
1607.47959	5296.05
1610.79447	4929.35
1614.10715	4576.65
1617.41763	4281.75
1620.7259	4104.85
1624.03199	4023.55
1627.33587	4014.85
1630.63757	4082.15
1633.93707	4237.95
1637.23439	4497.25
1640.52951	4946.85
1643.82246	5696.45
1647.11321	6736.95
1650.40179	7670.95
1653.68819	7687.55
1656.97241	6626.55
1660.25446	5315.85
1663.53433	4389.75
1666.81203	3879.85
1670.08756	3613.35
1673.36092	3442.05
1676.63211	3353.85
1679.90115	3282.25
1683.16801	3234.25
1686.43272	3181.95
1689.69527	3134.15
1692.95567	3071.45
1696.2139	3032.75
1699.46999	2967.65
1702.72392	2945.55
1705.97571	2953.75
1709.22535	2987.45
1712.47284	3020.05
1715.71819	3064.05
1718.96139	3079.45
1722.20246	3089.55
1725.44139	3091.25
1728.67818	3051.45
1731.91284	3005.95
1735.14537	2969.35
1738.37576	2934.85
1741.60403	2898.45
1744.83017	2882.45
1748.05418	2846.25
1751.27607	2856.35
1754.49584	2812.65
1757.71349	2777.25
1760.92903	2745.15
1764.14244	2719.25
1767.35375	2717.65
1770.56294	2689.75
1773.77002	2679.45
1776.97499	2673.25
1780.17785	2678.95
1783.37861	2683.05
1786.57727	2683.05
1789.77382	2674.25
1792.96828	2671.55
1796.16064	2676.65
1799.3509	2659.75
1802.53907	2650.45
1805.72514	2638.45
1808.90913	2636.35
1812.09102	2607.45
1815.27083	2602.45
1818.44856	2593.35
1821.6242	2587.95
1824.79776	2575.45
1827.96924	2577.45
1831.13864	2563.95
1834.30597	2561.85
1837.47122	2560.55
1840.6344	2549.15
1843.7955	2563.25
1846.95454	2530.65
1850.11151	2544.05
1853.26642	2529.85
1856.41926	2528.65
1859.57004	2530.55
1862.71876	2534.85
1865.86542	2528.25
1869.01003	2512.25
1872.15258	2529.25
1875.29308	2521.85
1878.43152	2530.25
1881.56792	2507.95
1884.70227	2507.95
1887.83457	2509.15
1890.96482	2501.25
1894.09304	2503.65
1897.21921	2490.55
1900.34335	2487.35
1903.46544	2495.25
1906.58551	2484.15
1909.70353	2484.75
1912.81953	2498.85
1915.93349	2484.35
1919.04543	2474.85
1922.15534	2464.85
1925.26322	2471.25
1928.36908	2453.95
1931.47292	2445.85
1934.57473	2444.75
1937.67453	2435.65
1940.77232	2410.75
1943.86808	2413.75
1946.96184	2394.65
1950.05358	2383.85
1953.14331	2372.55
1956.23103	2369.45
1959.31675	2355.75
1962.40046	2352.35
1965.48217	2337.55
1968.56188	2340.15
1971.63959	2338.75
1974.7153	2332.35
1977.78901	2310.05
1980.86073	2311.85
1983.93046	2307.65
1986.99819	2276.25
1990.06394	2293.25
1993.1277	2271.25
1996.18947	2262.95
1999.24925	2249.45
2002.30706	2244.55
2005.36288	2225.95
2008.41672	2239.75
2011.46859	2228.25
2014.51848	2210.35
2017.56639	2211.85
2020.61233	2204.65
2023.6563	2186.05
2026.6983	2172.95
2029.73833	2180.85
2032.7764	2170.45
2035.8125	2158.85
2038.84664	2157.35
2041.87881	2141.55
2044.90903	2148.45
2047.93729	2149.45
2050.96359	2136.65
2053.98794	2130.55
2057.01034	2128.75
2060.03078	2124.75
2063.04927	2116.95
2066.06582	2128.65
2069.08042	2120.55
2072.09307	2117.75
2075.10378	2115.15
2078.11255	2108.55
2081.11938	2111.55
2084.12426	2104.35
2087.12722	2104.75
2090.12824	2095.45
2093.12732	2099.45
2096.12447	2092.95
2099.11969	2096.95
2102.11299	2096.85
2105.10435	2097.95
2108.09379	2105.35
2111.08131	2102.75
2114.0669	2110.55
2117.05057	2102.75
2120.03233	2100.65
2123.01216	2106.95
2125.99008	2103.65
2128.96609	2105.65
2131.94018	2125.65
2134.91236	2104.15
2137.88263	2106.45
2140.851	2104.35
2143.81746	2106.55
2146.78201	2099.25
2149.74466	2105.35
2152.7054	2107.65
2155.66425	2092.65
2158.6212	2074.45
2161.57625	2085.25
2164.52941	2072.15
2167.48067	2072.45
2170.43004	2073.65
2173.37752	2072.75
2176.32311	2069.45
2179.26681	2072.95
2182.20863	2063.45
2185.14856	2067.55
2188.08661	2067.05
2191.02278	2065.65
2193.95707	2062.55
2196.88948	2054.45
2199.82001	2060.15
2202.74867	2042.95
2205.67545	2039.65
2208.60037	2047.35
2211.52341	2041.55
2214.44458	2024.25
2217.36388	2010.25
2220.28132	2017.05
2223.1969	2013.45
2226.11061	2012.55
2229.02246	2000.75
2231.93245	2002.85
2234.84058	1989.05
2237.74686	1983.75
2240.65128	1982.05
2243.55385	1983.75
2246.45456	1978.55
2249.35343	1984.55
2252.25044	1974.05
2255.14561	1969.95
2258.03893	1966.75
2260.93041	1968.05
2263.82004	1968.15
2266.70783	1970.15
2269.59378	1960.25
2272.4779	1938.05
2275.36017	1945.45
2278.24061	1946.95
2281.11922	1935.05
2283.996	1932.35
2286.87094	1924.45
2289.74405	1933.75
2292.61534	1912.25
2295.4848	1902.05
2298.35243	1904.05
2301.21824	1902.35
2304.08223	1904.85
2306.94439	1902.35
2309.80474	1904.85
2312.66327	1889.45
2315.51999	1896.55
2318.37489	1884.85
2321.22797	1874.65
2324.07925	1885.05
2326.92871	1880.25
2329.77637	1881.35
2332.62222	1878.95
2335.46626	1875.05
2338.3085	1867.75
2341.14893	1857.95
2343.98756	1863.25
2346.8244	1862.05
2349.65943	1864.05
2352.49267	1866.55
2355.32411	1867.25
2358.15376	1878.05
2360.98161	1886.25
2363.80768	1881.05
2366.63195	1891.75
2369.45444	1898.65
2372.27514	1894.65
2375.09405	1894.55
2377.91118	1886.15
2380.72652	1872.85
2383.54009	1859.75
2386.35187	1850.65
2389.16188	1832.15
2391.97011	1826.45
2394.77657	1822.95
2397.58125	1805.55
2400.38416	1798.95
2403.18529	1801.95
2405.98466	1787.95
2408.78226	1787.95
2411.57809	1784.35
2414.37216	1793.55
2417.16446	1780.25
2419.955	1768.55
2422.74378	1780.25
2425.5308	1790.65
2428.31606	1776.95
2431.09956	1787.95
2433.88131	1779.15
2436.6613	1784.45
2439.43954	1781.45
2442.21603	1774.45
2444.99077	1768.65
2447.76377	1786.25
2450.53501	1782.85
2453.30451	1780.75
2456.07226	1784.15
2458.83827	1766.95
2461.60254	1778.35
2464.36507	1774.55
2467.12586	1775.15
2469.88492	1774.05
2472.64224	1770.15
2475.39782	1771.35
2478.15167	1764.45
2480.90379	1766.25
2483.65417	1775.45
2486.40283	1772.75
2489.14976	1784.15
2491.89497	1788.45
2494.63845	1792.95
2497.3802	1775.65
2500.12024	1779.45
2502.85855	1775.15
2505.59514	1763.75
2508.33002	1764.85
2511.06318	1741.95
2513.79462	1734.95
2516.52435	1728.25
2519.25237	1722.95
2521.97867	1709.25
2524.70327	1699.75
2527.42616	1694.35
2530.14734	1685.35
2532.86681	1702.85
2535.58458	1690.35
2538.30065	1689.85
2541.01501	1696.75
2543.72768	1696.05
2546.43864	1682.35
2549.14791	1699.55
2551.85548	1691.75
2554.56136	1682.75
2557.26554	1692.25
2559.96803	1692.05
2562.66883	1687.55
2565.36794	1682.45
2568.06536	1687.35
2570.7611	1673.65
2573.45514	1671.65
2576.14751	1665.15
2578.83819	1663.15
2581.52719	1655.85
2584.21451	1644.45
2586.90015	1646.45
2589.58411	1645.85
2592.2664	1640.85
2594.94701	1639.25
2597.62594	1628.05
2600.30321	1627.15
2602.9788	1632.15
2605.65273	1626.75
2608.32498	1625.15
2610.99557	1623.55
2613.66449	1624.85
2616.33175	1618.85
2618.99734	1614.65
2621.66128	1623.85
2624.32355	1610.45
2626.98416	1617.65
2629.64311	1601.45
2632.30041	1610.05
2634.95605	1601.05
2637.61004	1586.35
2640.26238	1594.65
2642.91306	1586.75
2645.56209	1592.25
2648.20948	1583.15
2650.85521	1583.85
2653.4993	1594.75
2656.14175	1589.05
2658.78255	1593.65
2661.42171	1599.65
2664.05923	1594.15
2666.6951	1599.95
2669.32934	1606.15
2671.96194	1601.25
2674.59291	1608.75
2677.22224	1601.75
2679.84993	1609.45
2682.476	1609.55
2685.10043	1605.35
2687.72324	1603.75
2690.34441	1614.75
2692.96396	1621.75
2695.58188	1614.85
2698.19818	1612.65
2700.81285	1622.25
2703.4259	1617.15
2706.03733	1598.55
2708.64714	1604.15
2711.25533	1629.75
2713.86191	1638.05
2716.46687	1649.95
2719.07021	1648.25
2721.67194	1648.75
2724.27206	1655.75
2726.87057	1661.15
2729.46747	1654.35
2732.06276	1649.85
2734.65644	1636.15
2737.24852	1631.95
2739.83899	1632.35
2742.42786	1625.15
2745.01513	1608.95
2747.60079	1618.35
2750.18486	1611.95
2752.76733	1611.45
2755.3482	1596.25
2757.92747	1599.05
2760.50515	1587.85
2763.08123	1591.65
2765.65573	1604.15
2768.22863	1599.25
2770.79994	1600.15
2773.36967	1588.55
2775.9378	1600.55
2778.50435	1601.75
2781.06932	1607.95
2783.6327	1602.45
2786.1945	1612.95
2788.75471	1612.65
2791.31335	1616.65
2793.87041	1624.55
2796.42589	1635.45
2798.97979	1637.65
2801.53212	1657.55
2804.08288	1651.85
2806.63206	1662.35
2809.17967	1668.25
2811.72571	1679.65
2814.27018	1690.35
2816.81308	1694.55
2819.35442	1710.25
2821.89419	1727.15
2824.43239	1726.25
2826.96904	1733.75
2829.50412	1742.75
2832.03763	1750.95
2834.56959	1770.15
2837.1	1801.35
2839.62884	1834.95
2842.15613	1905.35
2844.68186	2005.75
2847.20604	2123.25
2849.72867	2208.25
2852.24974	2250.05
2854.76927	2246.85
2857.28724	2217.45
2859.80367	2200.45
2862.31855	2194.25
2864.83189	2158.85
2867.34368	2138.45
2869.85393	2147.45
2872.36264	2128.25
2874.8698	2145.75
2877.37543	2132.85
2879.87952	2130.65
2882.38207	2119.95
2884.88308	2125.05
2887.38256	2128.35
2889.88051	2132.25
2892.37692	2136.55
2894.8718	2135.25
2897.36515	2150.55
2899.85698	2151.65
2902.34727	2163.35
2904.83604	2163.55
2907.32328	2163.15
2909.809	2153.95
2912.29319	2152.25
2914.77587	2146.75
2917.25702	2138.45
2919.73665	2135.55
2922.21476	2141.55
2924.69136	2118.45
2927.16644	2127.45
2929.64	2114.15
2932.11205	2104.25
2934.58258	2077.75
2937.05161	2054.35
2939.51912	2028.55
2941.98513	1979.35
2944.44962	1923.65
2946.91261	1873.25
2949.37409	1828.55
2951.83407	1785.85
2954.29254	1767.45
2956.74951	1726.35
2959.20498	1716.15
2961.65895	1705.75
2964.11142	1695.65
2966.56239	1659.15
2969.01186	1647.65
2971.45984	1632.25
2973.90632	1627.75
2976.35131	1601.15
2978.7948	1588.35
2981.23681	1573.35
2983.67732	1569.65
2986.11635	1554.85
2988.55388	1552.15
2990.98993	1542.45
2993.4245	1538.65
2995.85758	1529.25
2998.28917	1516.75
3000.71928	1518.65
3003.14791	1519.45
3005.57506	1516.85
3008.00073	1505.55
3010.42493	1489.95
3012.84764	1506.15
3015.26888	1500.05
3017.68865	1495.05
3020.10694	1503.35
3022.52376	1497.85
3024.9391	1495.45
3027.35298	1498.05
3029.76539	1495.45
3032.17632	1498.85
3034.5858	1491.15
3036.9938	1497.75
3039.40034	1490.65
3041.80542	1488.35
3044.20903	1485.85
3046.61118	1483.15
3049.01187	1484.75
3051.4111	1497.45
3053.80888	1498.05
3056.20519	1491.95
3058.60005	1491.45
3060.99345	1490.75
3063.3854	1495.05
3065.7759	1499.75
3068.16494	1499.35
3070.55254	1492.75
3072.93868	1496.05
3075.32338	1490.55
3077.70662	1499.45
3080.08842	1486.15
3082.46878	1486.15
3084.84769	1483.65
3087.22515	1476.05
3089.60118	1474.35
3091.97576	1480.85
3094.3489	1480.05
3096.72061	1480.15
3099.09087	1488.05
3101.4597	1480.15
3103.82709	1493.15
3106.19305	1484.95
3108.55757	1490.25
3110.92066	1484.55
3113.28232	1494.25
3115.64255	1481.65
3118.00134	1500.25
3120.35871	1497.15
3122.71466	1492.85
3125.06917	1513.25
3127.42226	1504.35
3129.77393	1514.25
3132.12417	1525.55
3134.47299	1513.35
3136.82039	1533.45
3139.16636	1537.05
3141.51092	1551.95
3143.85406	1551.75
3146.19579	1559.15
3148.53609	1557.35
3150.87499	1582.35
3153.21246	1581.15
3155.54853	1584.55
3157.88318	1599.55
3160.21642	1588.35
3162.54826	1604.85
3164.87868	1605.45
3167.2077	1615.65
3169.5353	1627.75
3171.86151	1625.65
3174.18631	1634.45
3176.5097	1635.35
3178.83169	1644.25
3181.15228	1649.15
3183.47147	1643.05
3185.78926	1653.95
3188.10565	1665.25
3190.42065	1656.35
3192.73424	1666.55
3195.04645	1671.05
3197.35725	1675.65
3199.66667	1690.05
3201.97469	1690.45
3204.28132	1698.95
3206.58656	1691.65
3208.8904	1702.75
3211.19287	1720.95
3213.49394	1712.15
3215.79363	1724.55
3218.09193	1737.05
3220.38884	1730.55
3222.68438	1724.45
3224.97853	1728.15
3227.2713	1729.05
3229.56269	1733.25
3231.8527	1743.75
3234.14133	1739.15
3236.42858	1730.65
3238.71446	1728.35
3240.99896	1738.95
3243.28209	1735.35
3245.56384	1732.95
3247.84423	1739.95
3250.12324	1739.55
3252.40088	1731.65
3254.67715	1739.15
3256.95205	1739.95
3259.22558	1733.75
3261.49775	1737.85
3263.76855	1742.65
3266.03799	1734.25
3268.30606	1734.55
3270.57277	1733.55
3272.83812	1727.65
3275.10211	1724.55
3277.36474	1720.15
3279.62601	1728.95
3281.88593	1722.45
3284.14448	1723.15
3286.40168	1735.75
3288.65753	1728.95
3290.91202	1728.15
3293.16516	1730.65
3295.41695	1728.55
3297.66738	1719.45
3299.91647	1716.75
3302.16421	1702.35
3304.4106	1692.65
3306.65564	1695.15
3308.89933	1675.55
3311.14169	1664.75
3313.38269	1653.95
3315.62236	1644.75
3317.86068	1633.15
3320.09766	1616.45
3322.3333	1617.55
3324.5676	1611.15
3326.80056	1577.15
3329.03219	1567.75
3331.26248	-0.75
3333.49143	0.85
3335.71905	-1.55
