Data from AgNPs_FTO_APTES_UA_1uM_CRN_200uM_R6G_10uM_NaF_0.1M_Addition_RamanShift__21__17-29-29-840.txt Node

Date: Thu Jan 27 17:29:29 GMT 2022
User: TCL
Spectrometer: QEP01345
Trigger mode: 4
Integration Time (sec): 7.000000E0
Scans to average: 10
Electric dark correction enabled: true
Nonlinearity correction enabled: false
Boxcar width: 0
XAxis mode: Raman Shifts
Number of Pixels in Spectrum: 1044
>>>>>Begin Spectral Data<<<<<
46.04893	-0.35
50.45542	0.85
54.85868	-1.25
59.25871	-0.65
63.6555	46.55
68.04907	50.15
72.43941	51.45
76.82654	53.65
81.21044	55.95
85.59113	54.15
89.96862	58.25
94.34289	62.15
98.71396	62.65
103.08183	64.55
107.4465	71.15
111.80798	69.65
116.16626	70.05
120.52136	74.65
124.87327	76.75
129.222	73.55
133.56755	81.15
137.90993	79.55
142.24913	89.15
146.58517	101.65
150.91804	111.15
155.24774	127.55
159.57429	152.85
163.89768	189.35
168.21792	248.25
172.53501	332.35
176.84895	456.15
181.15975	637.25
185.46741	885.35
189.77193	1228.85
194.07331	1632.05
198.37157	2105.55
202.6667	2619.95
206.9587	3117.85
211.24758	3611.35
215.53334	4097.95
219.81599	4622.05
224.09553	5201.85
228.37195	5814.25
232.64527	6507.45
236.91549	7234.65
241.18261	7981.45
245.44663	8690.75
249.70755	9302.15
253.96539	9841.05
258.22014	10282.05
262.4718	10680.85
266.72039	10911.75
270.96589	11046.15
275.20832	11060.75
279.44768	10973.25
283.68397	10830.05
287.91719	10698.85
292.14735	10632.35
296.37445	10611.85
300.59849	10623.35
304.81948	10692.25
309.03742	10669.85
313.25231	10557.95
317.46415	10307.75
321.67296	10026.75
325.87872	9814.85
330.08145	9717.35
334.28114	9710.65
338.47781	9808.85
342.67145	9898.15
346.86207	10045.55
351.04966	10272.45
355.23424	10500.45
359.4158	10691.95
363.59435	10849.65
367.76989	10968.05
371.94243	11071.85
376.11196	11150.95
380.27849	11241.05
384.44203	11299.45
388.60257	11371.25
392.76012	11402.15
396.91468	11536.45
401.06626	11674.95
405.21485	11797.45
409.36047	11785.25
413.50311	11625.15
417.64277	11487.75
421.77947	11427.35
425.9132	11415.95
430.04396	11501.85
434.17176	11595.35
438.2966	11683.75
442.41849	11874.45
446.53742	12116.65
450.6534	12452.35
454.76644	12726.55
458.87653	12775.15
462.98368	12710.25
467.08789	12539.75
471.18916	12393.65
475.2875	12223.15
479.38291	12153.95
483.4754	12065.05
487.56496	11919.55
491.6516	11791.95
495.73531	11720.25
499.81612	11694.55
503.89401	11724.95
507.96899	11778.95
512.04106	11752.05
516.11023	11768.45
520.1765	11758.25
524.23987	11710.15
528.30034	11647.75
532.35792	11551.45
536.41261	11429.05
540.46441	11315.15
544.51333	11280.25
548.55936	11357.45
552.60252	11514.85
556.64279	11732.35
560.6802	11845.15
564.71473	11922.25
568.7464	12077.55
572.7752	12230.75
576.80114	12334.85
580.82422	12409.95
584.84444	12560.15
588.86181	12812.65
592.87633	13085.65
596.888	13297.95
600.89682	13341.35
604.9028	13603.95
608.90594	14509.75
612.90624	15726.55
616.90371	15124.05
620.89834	12920.45
624.89015	11905.95
628.87913	11803.95
632.86528	11845.95
636.84862	11868.55
640.82913	11766.35
644.80683	11531.65
648.78172	11316.45
652.75379	11244.35
656.72306	11322.75
660.68952	11484.15
664.65319	11496.15
668.61405	11366.25
672.57211	11319.15
676.52738	11377.35
680.47986	11437.25
684.42955	11380.35
688.37646	11308.85
692.32058	11297.65
696.26192	11344.55
700.20048	11434.15
704.13626	11491.05
708.06928	11427.05
711.99952	11366.55
715.927	11288.45
719.85171	11317.85
723.77365	11300.15
727.69284	11271.25
731.60928	11237.25
735.52295	11220.25
739.43388	11234.45
743.34206	11273.25
747.24749	11297.95
751.15017	11328.55
755.05012	11456.65
758.94733	11694.35
762.8418	12141.15
766.73354	12893.95
770.62254	13774.55
774.50882	14157.35
778.39237	13726.55
782.27321	12774.55
786.15132	11945.55
790.02671	11475.05
793.89938	11227.55
797.76935	11157.05
801.6366	11127.15
805.50115	11136.45
809.36299	11105.25
813.22213	11025.15
817.07857	11013.95
820.93231	10980.55
824.78336	10949.45
828.63172	10951.85
832.47738	10984.65
836.32036	10999.05
840.16066	11026.95
843.99827	11042.05
847.8332	11032.35
851.66546	10987.15
855.49504	10955.65
859.32195	10996.85
863.1462	11017.45
866.96777	10993.15
870.78668	10967.15
874.60293	10940.25
878.41652	10915.05
882.22745	10939.55
886.03573	10982.85
889.84136	11006.65
893.64433	10930.15
897.44466	10896.35
901.24235	10856.65
905.0374	10838.45
908.8298	10777.85
912.61957	10781.55
916.40671	10847.45
920.19121	10941.85
923.97308	11056.45
927.75233	11148.85
931.52895	11161.15
935.30295	11070.85
939.07433	10916.55
942.84309	10762.75
946.60924	10656.65
950.37278	10609.25
954.13371	10560.95
957.89203	10521.35
961.64774	10452.95
965.40086	10418.75
969.15137	10401.95
972.89929	10356.85
976.64461	10317.65
980.38733	10329.75
984.12747	10334.05
987.86502	10438.25
991.59999	10562.45
995.33237	10709.45
999.06217	10963.15
1002.78939	11204.25
1006.51404	11340.25
1010.23611	11413.45
1013.95561	11487.45
1017.67255	11510.55
1021.38692	11429.35
1025.09872	11332.15
1028.80796	11356.45
1032.51465	11583.55
1036.21877	11834.05
1039.92035	11861.75
1043.61937	11765.65
1047.31584	11519.25
1051.00976	11355.35
1054.70114	11240.05
1058.38998	11215.95
1062.07627	11221.55
1065.76003	11295.65
1069.44126	11335.85
1073.11995	11429.05
1076.79611	11519.45
1080.46974	11551.95
1084.14085	11565.15
1087.80943	11611.85
1091.47549	11670.15
1095.13903	11688.65
1098.80005	11542.85
1102.45857	11354.75
1106.11456	11232.05
1109.76805	11235.25
1113.41903	11342.05
1117.06751	11443.65
1120.71348	11616.85
1124.35696	11759.95
1127.99793	11904.75
1131.63641	12033.45
1135.2724	11861.55
1138.90589	11669.05
1142.5369	11534.85
1146.16542	11459.65
1149.79145	11421.95
1153.415	11452.15
1157.03607	11580.85
1160.65467	11726.15
1164.27079	12101.55
1167.88443	12597.35
1171.49561	13225.85
1175.10432	14082.25
1178.71056	15204.05
1182.31434	16181.75
1185.91565	16683.15
1189.51451	16577.85
1193.11091	16005.75
1196.70485	15297.75
1200.29634	14685.55
1203.88538	14188.75
1207.47197	13794.85
1211.05612	13478.35
1214.63782	13291.35
1218.21708	13175.05
1221.79391	13180.15
1225.36829	13196.85
1228.94024	13088.75
1232.50976	12893.25
1236.07685	12713.25
1239.6415	12586.65
1243.20374	12558.55
1246.76355	12595.75
1250.32093	12730.85
1253.8759	12912.95
1257.42845	13200.25
1260.97859	13477.25
1264.52631	13724.75
1268.07163	14026.05
1271.61453	14345.85
1275.15503	14752.35
1278.69312	15105.35
1282.22882	15463.25
1285.76211	15786.85
1289.29301	16102.45
1292.82151	16598.35
1296.34761	17195.65
1299.87133	18028.75
1303.39266	19030.15
1306.9116	20271.65
1310.42815	21464.15
1313.94233	22235.55
1317.45412	22152.85
1320.96354	21516.35
1324.47058	20785.55
1327.97525	20088.65
1331.47754	19544.75
1334.97747	19325.05
1338.47502	19281.85
1341.97022	19284.25
1345.46305	19216.75
1348.95352	19192.95
1352.44163	19385.05
1355.92738	19967.55
1359.41078	21034.15
1362.89183	22115.35
1366.37053	22002.25
1369.84688	20314.15
1373.32088	18066.95
1376.79254	16397.85
1380.26186	15599.55
1383.72883	15378.75
1387.19347	15277.05
1390.65578	15095.25
1394.11575	15057.85
1397.57339	15193.15
1401.0287	15550.45
1404.48168	15881.55
1407.93234	16112.65
1411.38068	16053.85
1414.82669	15813.55
1418.27039	15354.05
1421.71177	14854.85
1425.15083	14389.25
1428.58758	14103.15
1432.02203	14072.65
1435.45416	14294.35
1438.88399	14574.55
1442.31151	14811.15
1445.73673	14999.25
1449.15965	15158.85
1452.58027	15274.45
1455.9986	15264.55
1459.41463	15237.75
1462.82837	15391.45
1466.23982	15691.75
1469.64898	15996.85
1473.05586	16212.65
1476.46045	16296.15
1479.86276	16299.65
1483.26279	16248.25
1486.66054	16173.85
1490.05602	16216.55
1493.44922	16248.65
1496.84016	16359.55
1500.22882	16544.25
1503.61521	16968.75
1506.99934	17625.85
1510.38121	18333.65
1513.76081	18583.95
1517.13816	18133.85
1520.51324	17223.35
1523.88607	16399.25
1527.25665	15831.75
1530.62498	15572.15
1533.99105	15417.35
1537.35488	15322.45
1540.71647	15234.85
1544.07581	15091.65
1547.4329	14986.35
1550.78776	14852.35
1554.14038	14703.25
1557.49077	14656.65
1560.83892	14625.45
1564.18484	14611.55
1567.52853	14615.85
1570.86999	14720.75
1574.20922	14927.45
1577.54624	15040.65
1580.88103	14985.95
1584.2136	14888.05
1587.54395	15057.65
1590.87208	15570.35
1594.19801	16434.15
1597.52172	17439.55
1600.84321	17987.65
1604.16251	17609.15
1607.47959	16570.75
1610.79447	15264.85
1614.10715	14070.05
1617.41763	13129.85
1620.7259	12468.15
1624.03199	12132.25
1627.33587	12046.85
1630.63757	12319.55
1633.93707	12829.35
1637.23439	13764.95
1640.52951	14993.25
1643.82246	16474.15
1647.11321	17769.95
1650.40179	18138.05
1653.68819	17272.95
1656.97241	15414.95
1660.25446	13518.65
1663.53433	12161.55
1666.81203	11319.75
1670.08756	10807.45
1673.36092	10485.65
1676.63211	10283.45
1679.90115	10132.65
1683.16801	10019.65
1686.43272	9901.05
1689.69527	9823.65
1692.95567	9765.95
1696.2139	9706.45
1699.46999	9634.75
1702.72392	9592.25
1705.97571	9605.15
1709.22535	9617.65
1712.47284	9659.25
1715.71819	9651.15
1718.96139	9649.05
1722.20246	9623.95
1725.44139	9593.75
1728.67818	9561.95
1731.91284	9524.95
1735.14537	9484.55
1738.37576	9470.65
1741.60403	9444.35
1744.83017	9437.15
1748.05418	9420.35
1751.27607	9399.35
1754.49584	9373.55
1757.71349	9348.05
1760.92903	9322.15
1764.14244	9275.45
1767.35375	9280.45
1770.56294	9249.25
1773.77002	9231.15
1776.97499	9233.85
1780.17785	9231.15
1783.37861	9246.35
1786.57727	9222.65
1789.77382	9215.65
1792.96828	9201.35
1796.16064	9210.85
1799.3509	9201.15
1802.53907	9153.25
1805.72514	9164.15
1808.90913	9110.65
1812.09102	9111.45
1815.27083	9094.45
1818.44856	9074.85
1821.6242	9060.55
1824.79776	9036.25
1827.96924	9047.15
1831.13864	9043.05
1834.30597	9052.15
1837.47122	9042.45
1840.6344	9041.35
1843.7955	9016.05
1846.95454	9037.25
1850.11151	9024.15
1853.26642	9025.55
1856.41926	9030.25
1859.57004	9024.75
1862.71876	9028.75
1865.86542	9041.15
1869.01003	9032.85
1872.15258	9021.15
1875.29308	9035.25
1878.43152	9031.45
1881.56792	9018.25
1884.70227	8999.65
1887.83457	8987.15
1890.96482	9011.65
1894.09304	8988.45
1897.21921	8971.75
1900.34335	8993.85
1903.46544	8985.85
1906.58551	8976.95
1909.70353	8957.15
1912.81953	8940.85
1915.93349	8948.75
1919.04543	8944.95
1922.15534	8921.55
1925.26322	8919.25
1928.36908	8908.15
1931.47292	8873.95
1934.57473	8841.55
1937.67453	8867.85
1940.77232	8811.35
1943.86808	8779.45
1946.96184	8752.45
1950.05358	8716.65
1953.14331	8704.35
1956.23103	8676.65
1959.31675	8676.95
1962.40046	8656.45
1965.48217	8616.75
1968.56188	8581.35
1971.63959	8575.55
1974.7153	8541.75
1977.78901	8525.25
1980.86073	8513.55
1983.93046	8493.55
1986.99819	8453.95
1990.06394	8425.35
1993.1277	8416.95
1996.18947	8380.15
1999.24925	8360.75
2002.30706	8351.35
2005.36288	8308.85
2008.41672	8316.45
2011.46859	8291.95
2014.51848	8274.45
2017.56639	8238.75
2020.61233	8231.95
2023.6563	8210.25
2026.6983	8199.65
2029.73833	8170.05
2032.7764	8175.95
2035.8125	8162.95
2038.84664	8127.25
2041.87881	8137.05
2044.90903	8118.05
2047.93729	8105.95
2050.96359	8099.85
2053.98794	8086.65
2057.01034	8076.65
2060.03078	8080.45
2063.04927	8122.95
2066.06582	8097.65
2069.08042	8080.55
2072.09307	8079.25
2075.10378	8068.45
2078.11255	8049.15
2081.11938	8071.25
2084.12426	8042.95
2087.12722	8035.65
2090.12824	8014.95
2093.12732	8049.45
2096.12447	8033.75
2099.11969	8037.85
2102.11299	8058.05
2105.10435	8056.35
2108.09379	8045.55
2111.08131	8062.35
2114.0669	8093.35
2117.05057	8089.15
2120.03233	8107.05
2123.01216	8083.65
2125.99008	8097.75
2128.96609	8114.85
2131.94018	8116.05
2134.91236	8119.25
2137.88263	8138.45
2140.851	8124.35
2143.81746	8151.15
2146.78201	8140.35
2149.74466	8160.65
2152.7054	8144.15
2155.66425	8135.75
2158.6212	8163.05
2161.57625	8132.05
2164.52941	8129.65
2167.48067	8144.35
2170.43004	8149.75
2173.37752	8161.15
2176.32311	8138.35
2179.26681	8155.55
2182.20863	8132.45
2185.14856	8133.85
2188.08661	8151.35
2191.02278	8176.15
2193.95707	8147.95
2196.88948	8141.55
2199.82001	8160.35
2202.74867	8138.85
2205.67545	8142.15
2208.60037	8132.25
2211.52341	8136.35
2214.44458	8119.75
2217.36388	8108.95
2220.28132	8098.45
2223.1969	8097.15
2226.11061	8088.25
2229.02246	8074.65
2231.93245	8046.75
2234.84058	8053.05
2237.74686	8035.25
2240.65128	8003.05
2243.55385	8010.95
2246.45456	7987.85
2249.35343	8001.35
2252.25044	7963.35
2255.14561	7969.55
2258.03893	7939.35
2260.93041	7947.85
2263.82004	7939.65
2266.70783	7936.95
2269.59378	7878.75
2272.4779	7862.55
2275.36017	7848.55
2278.24061	7850.65
2281.11922	7850.55
2283.996	7836.25
2286.87094	7817.05
2289.74405	7802.75
2292.61534	7824.15
2295.4848	7817.75
2298.35243	7799.45
2301.21824	7801.25
2304.08223	7814.35
2306.94439	7815.75
2309.80474	7820.05
2312.66327	7831.45
2315.51999	7792.35
2318.37489	7800.65
2321.22797	7789.75
2324.07925	7782.15
2326.92871	7781.65
2329.77637	7766.05
2332.62222	7752.95
2335.46626	7753.55
2338.3085	7742.55
2341.14893	7773.85
2343.98756	7765.95
2346.8244	7766.05
2349.65943	7772.75
2352.49267	7744.15
2355.32411	7764.85
2358.15376	7747.05
2360.98161	7746.55
2363.80768	7727.95
2366.63195	7760.05
2369.45444	7736.15
2372.27514	7725.25
2375.09405	7720.25
2377.91118	7688.05
2380.72652	7687.95
2383.54009	7643.25
2386.35187	7651.25
2389.16188	7613.75
2391.97011	7616.85
2394.77657	7589.45
2397.58125	7596.65
2400.38416	7589.55
2403.18529	7576.95
2405.98466	7569.05
2408.78226	7552.35
2411.57809	7566.85
2414.37216	7541.55
2417.16446	7530.65
2419.955	7498.85
2422.74378	7535.15
2425.5308	7510.35
2428.31606	7516.15
2431.09956	7516.55
2433.88131	7488.25
2436.6613	7495.05
2439.43954	7492.65
2442.21603	7482.15
2444.99077	7488.95
2447.76377	7491.95
2450.53501	7491.45
2453.30451	7481.05
2456.07226	7495.55
2458.83827	7472.65
2461.60254	7473.35
2464.36507	7454.95
2467.12586	7474.55
2469.88492	7449.65
2472.64224	7469.05
2475.39782	7458.35
2478.15167	7470.35
2480.90379	7451.55
2483.65417	7467.95
2486.40283	7473.55
2489.14976	7477.75
2491.89497	7468.35
2494.63845	7465.35
2497.3802	7469.25
2500.12024	7455.25
2502.85855	7454.55
2505.59514	7463.35
2508.33002	7450.45
2511.06318	7438.35
2513.79462	7458.25
2516.52435	7425.75
2519.25237	7407.95
2521.97867	7418.65
2524.70327	7421.15
2527.42616	7394.15
2530.14734	7393.25
2532.86681	7391.65
2535.58458	7371.65
2538.30065	7361.35
2541.01501	7367.85
2543.72768	7378.55
2546.43864	7384.45
2549.14791	7356.65
2551.85548	7328.55
2554.56136	7348.65
2557.26554	7325.05
2559.96803	7329.65
2562.66883	7316.85
2565.36794	7336.25
2568.06536	7308.35
2570.7611	7285.45
2573.45514	7295.35
2576.14751	7286.75
2578.83819	7280.45
2581.52719	7283.25
2584.21451	7279.35
2586.90015	7257.75
2589.58411	7271.35
2592.2664	7269.65
2594.94701	7273.55
2597.62594	7226.15
2600.30321	7243.15
2602.9788	7241.35
2605.65273	7216.25
2608.32498	7226.65
2610.99557	7225.15
2613.66449	7223.25
2616.33175	7195.45
2618.99734	7218.15
2621.66128	7214.15
2624.32355	7232.75
2626.98416	7225.95
2629.64311	7209.35
2632.30041	7216.95
2634.95605	7181.65
2637.61004	7182.05
2640.26238	7191.85
2642.91306	7198.95
2645.56209	7169.65
2648.20948	7159.05
2650.85521	7175.55
2653.4993	7157.85
2656.14175	7172.75
2658.78255	7194.45
2661.42171	7210.65
2664.05923	7193.15
2666.6951	7198.75
2669.32934	7192.35
2671.96194	7176.75
2674.59291	7173.45
2677.22224	7190.65
2679.84993	7179.85
2682.476	7188.25
2685.10043	7170.65
2687.72324	7196.85
2690.34441	7171.55
2692.96396	7167.95
2695.58188	7182.55
2698.19818	7171.45
2700.81285	7175.65
2703.4259	7173.85
2706.03733	7185.45
2708.64714	7161.45
2711.25533	7175.55
2713.86191	7193.85
2716.46687	7172.25
2719.07021	7183.75
2721.67194	7206.25
2724.27206	7200.15
2726.87057	7212.55
2729.46747	7210.05
2732.06276	7208.25
2734.65644	7207.85
2737.24852	7193.95
2739.83899	7187.65
2742.42786	7206.65
2745.01513	7179.05
2747.60079	7180.05
2750.18486	7181.15
2752.76733	7190.35
2755.3482	7188.45
2757.92747	7162.45
2760.50515	7182.05
2763.08123	7163.25
2765.65573	7182.85
2768.22863	7188.45
2770.79994	7166.75
2773.36967	7177.05
2775.9378	7156.95
2778.50435	7167.85
2781.06932	7147.85
2783.6327	7150.05
2786.1945	7129.45
2788.75471	7139.05
2791.31335	7129.85
2793.87041	7110.35
2796.42589	7117.35
2798.97979	7118.95
2801.53212	7114.65
2804.08288	7108.95
2806.63206	7081.75
2809.17967	7057.85
2811.72571	7076.15
2814.27018	7059.15
2816.81308	7049.45
2819.35442	7058.05
2821.89419	7037.35
2824.43239	7037.35
2826.96904	7047.65
2829.50412	7044.45
2832.03763	7012.65
2834.56959	7046.35
2837.1	7031.55
2839.62884	7027.15
2842.15613	7062.85
2844.68186	7078.35
2847.20604	7108.95
2849.72867	7117.45
2852.24974	7093.65
2854.76927	7120.25
2857.28724	7074.65
2859.80367	7068.95
2862.31855	7056.65
2864.83189	7071.65
2867.34368	7043.25
2869.85393	7069.15
2872.36264	7065.55
2874.8698	7050.35
2877.37543	7063.35
2879.87952	7062.95
2882.38207	7077.95
2884.88308	7072.65
2887.38256	7054.35
2889.88051	7083.75
2892.37692	7094.35
2894.8718	7090.95
2897.36515	7098.75
2899.85698	7100.85
2902.34727	7125.65
2904.83604	7145.45
2907.32328	7160.25
2909.809	7152.95
2912.29319	7179.65
2914.77587	7157.65
2917.25702	7166.15
2919.73665	7171.05
2922.21476	7178.35
2924.69136	7164.45
2927.16644	7189.45
2929.64	7168.65
2932.11205	7158.65
2934.58258	7154.65
2937.05161	7141.65
2939.51912	7149.15
2941.98513	7150.65
2944.44962	7111.35
2946.91261	7077.35
2949.37409	7105.45
2951.83407	7079.85
2954.29254	7063.25
2956.74951	7051.15
2959.20498	7059.65
2961.65895	7046.55
2964.11142	7060.85
2966.56239	7015.05
2969.01186	7010.35
2971.45984	6995.65
2973.90632	6988.15
2976.35131	6960.75
2978.7948	6942.35
2981.23681	6945.55
2983.67732	6922.95
2986.11635	6930.65
2988.55388	6901.95
2990.98993	6892.35
2993.4245	6899.45
2995.85758	6880.55
2998.28917	6885.25
3000.71928	6864.45
3003.14791	6846.75
3005.57506	6826.55
3008.00073	6810.65
3010.42493	6805.05
3012.84764	6817.25
3015.26888	6802.75
3017.68865	6786.55
3020.10694	6792.85
3022.52376	6756.05
3024.9391	6750.45
3027.35298	6746.05
3029.76539	6758.85
3032.17632	6741.65
3034.5858	6741.85
3036.9938	6758.55
3039.40034	6737.15
3041.80542	6724.15
3044.20903	6718.25
3046.61118	6706.35
3049.01187	6700.95
3051.4111	6710.65
3053.80888	6682.45
3056.20519	6690.95
3058.60005	6665.15
3060.99345	6674.05
3063.3854	6650.25
3065.7759	6638.25
3068.16494	6632.85
3070.55254	6614.35
3072.93868	6604.45
3075.32338	6616.85
3077.70662	6599.75
3080.08842	6597.75
3082.46878	6589.35
3084.84769	6581.85
3087.22515	6594.85
3089.60118	6593.25
3091.97576	6591.85
3094.3489	6605.85
3096.72061	6594.75
3099.09087	6613.05
3101.4597	6591.35
3103.82709	6612.95
3106.19305	6596.15
3108.55757	6614.05
3110.92066	6607.05
3113.28232	6580.05
3115.64255	6569.15
3118.00134	6567.25
3120.35871	6554.35
3122.71466	6556.45
3125.06917	6547.85
3127.42226	6549.65
3129.77393	6557.25
3132.12417	6544.45
3134.47299	6558.15
3136.82039	6551.95
3139.16636	6566.55
3141.51092	6572.85
3143.85406	6578.15
3146.19579	6563.75
3148.53609	6599.35
3150.87499	6598.05
3153.21246	6602.05
3155.54853	6606.55
3157.88318	6611.35
3160.21642	6642.05
3162.54826	6634.75
3164.87868	6627.85
3167.2077	6649.45
3169.5353	6639.05
3171.86151	6635.25
3174.18631	6645.55
3176.5097	6652.15
3178.83169	6640.45
3181.15228	6652.65
3183.47147	6651.05
3185.78926	6631.25
3188.10565	6631.75
3190.42065	6643.05
3192.73424	6635.95
3195.04645	6640.75
3197.35725	6628.95
3199.66667	6633.95
3201.97469	6650.15
3204.28132	6656.05
3206.58656	6683.65
3208.8904	6680.95
3211.19287	6685.05
3213.49394	6690.95
3215.79363	6699.65
3218.09193	6722.45
3220.38884	6698.15
3222.68438	6696.45
3224.97853	6699.95
3227.2713	6695.75
3229.56269	6703.25
3231.8527	6719.65
3234.14133	6706.25
3236.42858	6702.25
3238.71446	6683.05
3240.99896	6681.25
3243.28209	6677.75
3245.56384	6667.15
3247.84423	6681.25
3250.12324	6663.65
3252.40088	6655.65
3254.67715	6656.05
3256.95205	6662.35
3259.22558	6676.45
3261.49775	6661.35
3263.76855	6638.65
3266.03799	6641.45
3268.30606	6630.75
3270.57277	6625.55
3272.83812	6608.05
3275.10211	6576.45
3277.36474	6575.25
3279.62601	6593.85
3281.88593	6589.65
3284.14448	6572.55
3286.40168	6596.65
3288.65753	6613.55
3290.91202	6588.15
3293.16516	6563.85
3295.41695	6563.55
3297.66738	6525.95
3299.91647	6492.85
3302.16421	6468.75
3304.4106	6456.65
3306.65564	6406.85
3308.89933	6367.25
3311.14169	6355.35
3313.38269	6316.15
3315.62236	6260.85
3317.86068	6222.05
3320.09766	6175.25
3322.3333	6118.95
3324.5676	6129.35
3326.80056	6024.95
3329.03219	5980.25
3331.26248	1.45
3333.49143	0.55
3335.71905	-1.05
