Data from AgNPs_FTO_APTES_UA_1uM_CRN_5uM_R6G_10uM_NaF_0.1M_Addition_RamanShift__15__13-53-39-594.txt Node

Date: Thu Jan 27 13:53:39 GMT 2022
User: TCL
Spectrometer: QEP01345
Trigger mode: 4
Integration Time (sec): 7.000000E0
Scans to average: 10
Electric dark correction enabled: true
Nonlinearity correction enabled: false
Boxcar width: 0
XAxis mode: Raman Shifts
Number of Pixels in Spectrum: 1044
>>>>>Begin Spectral Data<<<<<
46.04893	1.75
50.45542	-0.35
54.85868	-1.55
59.25871	-1.75
63.6555	51.95
68.04907	53.95
72.43941	55.85
76.82654	58.35
81.21044	60.85
85.59113	61.35
89.96862	65.35
94.34289	66.85
98.71396	72.35
103.08183	74.55
107.4465	75.05
111.80798	75.75
116.16626	76.45
120.52136	81.45
124.87327	86.85
129.222	82.55
133.56755	89.05
137.90993	91.55
142.24913	102.35
146.58517	112.05
150.91804	131.55
155.24774	151.15
159.57429	185.15
163.89768	233.55
168.21792	308.25
172.53501	421.35
176.84895	568.55
181.15975	798.05
185.46741	1120.85
189.77193	1544.85
194.07331	2067.25
198.37157	2656.95
202.6667	3299.75
206.9587	3912.25
211.24758	4511.35
215.53334	5109.35
219.81599	5781.65
224.09553	6493.15
228.37195	7270.55
232.64527	8126.35
236.91549	9058.85
241.18261	10005.75
245.44663	10871.75
249.70755	11614.55
253.96539	12322.75
258.22014	12919.55
262.4718	13402.85
266.72039	13746.35
270.96589	13951.85
275.20832	13979.35
279.44768	13916.45
283.68397	13767.75
287.91719	13673.35
292.14735	13592.75
296.37445	13602.15
300.59849	13633.35
304.81948	13701.05
309.03742	13711.85
313.25231	13568.05
317.46415	13257.35
321.67296	12890.35
325.87872	12601.95
330.08145	12422.05
334.28114	12411.25
338.47781	12504.45
342.67145	12670.15
346.86207	12892.35
351.04966	13124.25
355.23424	13388.65
359.4158	13621.85
363.59435	13816.65
367.76989	13917.85
371.94243	14041.25
376.11196	14124.35
380.27849	14184.75
384.44203	14269.95
388.60257	14347.65
392.76012	14465.75
396.91468	14630.45
401.06626	14841.55
405.21485	14981.45
409.36047	14928.55
413.50311	14718.45
417.64277	14533.05
421.77947	14482.85
425.9132	14488.25
430.04396	14560.55
434.17176	14607.65
438.2966	14694.85
442.41849	14835.25
446.53742	15135.35
450.6534	15487.95
454.76644	15772.65
458.87653	15872.45
462.98368	15855.75
467.08789	15737.95
471.18916	15573.95
475.2875	15417.75
479.38291	15310.25
483.4754	15229.15
487.56496	15079.85
491.6516	14903.15
495.73531	14762.15
499.81612	14708.75
503.89401	14826.05
507.96899	14894.35
512.04106	14883.35
516.11023	14821.95
520.1765	14750.55
524.23987	14633.95
528.30034	14495.35
532.35792	14374.65
536.41261	14206.15
540.46441	14079.65
544.51333	14073.85
548.55936	14246.05
552.60252	14511.65
556.64279	14802.05
560.6802	14960.45
564.71473	15022.05
568.7464	15155.85
572.7752	15427.15
576.80114	15691.35
580.82422	15964.95
584.84444	16202.25
588.86181	16388.15
592.87633	16483.85
596.888	16423.95
600.89682	16354.55
604.9028	16810.35
608.90594	18213.15
612.90624	19787.45
616.90371	18884.65
620.89834	16092.45
624.89015	14817.45
628.87913	14678.25
632.86528	14722.25
636.84862	14682.25
640.82913	14512.45
644.80683	14205.45
648.78172	13960.05
652.75379	13902.75
656.72306	14045.45
660.68952	14261.95
664.65319	14225.15
668.61405	13996.25
672.57211	13897.65
676.52738	13938.95
680.47986	13913.25
684.42955	13874.65
688.37646	13797.65
692.32058	13855.65
696.26192	13967.55
700.20048	14170.05
704.13626	14249.05
708.06928	14245.75
711.99952	14148.85
715.927	14113.05
719.85171	14126.65
723.77365	14094.95
727.69284	13978.55
731.60928	13851.65
735.52295	13769.75
739.43388	13775.35
743.34206	13821.15
747.24749	13867.85
751.15017	13977.05
755.05012	14175.75
758.94733	14531.45
762.8418	15168.55
766.73354	16167.75
770.62254	17249.95
774.50882	17555.65
778.39237	16909.75
782.27321	15797.75
786.15132	14849.55
790.02671	14287.25
793.89938	14027.85
797.76935	13897.75
801.6366	13853.05
805.50115	13837.45
809.36299	13763.95
813.22213	13653.55
817.07857	13612.45
820.93231	13577.15
824.78336	13563.05
828.63172	13531.25
832.47738	13507.75
836.32036	13532.75
840.16066	13566.65
843.99827	13628.15
847.8332	13603.65
851.66546	13500.75
855.49504	13490.45
859.32195	13492.05
863.1462	13492.15
866.96777	13454.55
870.78668	13402.65
874.60293	13435.65
878.41652	13408.65
882.22745	13470.85
886.03573	13547.25
889.84136	13555.75
893.64433	13522.05
897.44466	13448.35
901.24235	13382.05
905.0374	13345.95
908.8298	13274.45
912.61957	13316.05
916.40671	13407.85
920.19121	13567.15
923.97308	13686.55
927.75233	13746.05
931.52895	13694.75
935.30295	13584.45
939.07433	13398.35
942.84309	13197.95
946.60924	13095.85
950.37278	13068.25
954.13371	13048.35
957.89203	13002.25
961.64774	12957.15
965.40086	12907.75
969.15137	12914.25
972.89929	12827.95
976.64461	12813.35
980.38733	12819.25
984.12747	12868.25
987.86502	12980.65
991.59999	13130.65
995.33237	13332.95
999.06217	13646.85
1002.78939	13979.55
1006.51404	14156.55
1010.23611	14264.85
1013.95561	14378.35
1017.67255	14373.65
1021.38692	14252.35
1025.09872	14125.85
1028.80796	14160.55
1032.51465	14454.85
1036.21877	14794.95
1039.92035	14859.95
1043.61937	14736.55
1047.31584	14445.75
1051.00976	14161.15
1054.70114	14059.65
1058.38998	14054.65
1062.07627	14132.85
1065.76003	14219.05
1069.44126	14315.35
1073.11995	14465.45
1076.79611	14671.85
1080.46974	14762.45
1084.14085	14871.55
1087.80943	14988.55
1091.47549	15080.05
1095.13903	15108.35
1098.80005	14931.75
1102.45857	14688.05
1106.11456	14463.75
1109.76805	14363.65
1113.41903	14380.95
1117.06751	14470.75
1120.71348	14557.65
1124.35696	14671.85
1127.99793	14835.75
1131.63641	14938.05
1135.2724	14849.15
1138.90589	14685.35
1142.5369	14607.15
1146.16542	14639.85
1149.79145	14617.25
1153.415	14664.85
1157.03607	14760.55
1160.65467	15067.95
1164.27079	15570.05
1167.88443	16270.45
1171.49561	17117.65
1175.10432	18229.55
1178.71056	19631.05
1182.31434	20959.55
1185.91565	21770.15
1189.51451	21780.35
1193.11091	21311.15
1196.70485	20454.15
1200.29634	19606.25
1203.88538	18974.25
1207.47197	18484.25
1211.05612	18061.35
1214.63782	17753.45
1218.21708	17471.75
1221.79391	17256.45
1225.36829	17129.95
1228.94024	16985.55
1232.50976	16746.75
1236.07685	16573.15
1239.6415	16456.65
1243.20374	16453.25
1246.76355	16523.55
1250.32093	16715.25
1253.8759	17030.55
1257.42845	17454.55
1260.97859	17901.55
1264.52631	18339.85
1268.07163	18773.55
1271.61453	19262.75
1275.15503	19737.95
1278.69312	20282.75
1282.22882	20702.85
1285.76211	21003.15
1289.29301	21400.75
1292.82151	22021.25
1296.34761	22810.25
1299.87133	23897.25
1303.39266	25196.25
1306.9116	26691.85
1310.42815	28108.35
1313.94233	28913.85
1317.45412	28824.25
1320.96354	28241.85
1324.47058	27599.35
1327.97525	27087.65
1331.47754	26720.55
1334.97747	26495.85
1338.47502	26429.45
1341.97022	26401.45
1345.46305	26308.25
1348.95352	26120.75
1352.44163	26064.55
1355.92738	26343.65
1359.41078	27269.45
1362.89183	28196.05
1366.37053	27838.35
1369.84688	25771.85
1373.32088	23270.65
1376.79254	21443.45
1380.26186	20646.45
1383.72883	20433.95
1387.19347	20316.15
1390.65578	20137.65
1394.11575	19979.15
1397.57339	20026.35
1401.0287	20240.05
1404.48168	20476.25
1407.93234	20503.55
1411.38068	20362.25
1414.82669	19917.05
1418.27039	19331.25
1421.71177	18716.55
1425.15083	18203.25
1428.58758	17899.85
1432.02203	17909.05
1435.45416	18214.05
1438.88399	18675.85
1442.31151	19028.35
1445.73673	19283.35
1449.15965	19436.65
1452.58027	19549.75
1455.9986	19579.55
1459.41463	19705.75
1462.82837	19954.45
1466.23982	20333.45
1469.64898	20641.95
1473.05586	20864.65
1476.46045	20886.75
1479.86276	20773.45
1483.26279	20618.35
1486.66054	20497.45
1490.05602	20517.75
1493.44922	20738.45
1496.84016	20995.05
1500.22882	21524.35
1503.61521	22310.35
1506.99934	23317.65
1510.38121	24133.65
1513.76081	24321.55
1517.13816	23808.75
1520.51324	22822.95
1523.88607	21826.35
1527.25665	21207.95
1530.62498	20866.25
1533.99105	20723.35
1537.35488	20534.75
1540.71647	20300.25
1544.07581	20050.45
1547.4329	19716.95
1550.78776	19401.25
1554.14038	19222.45
1557.49077	19127.55
1560.83892	19093.15
1564.18484	19104.45
1567.52853	19154.05
1570.86999	19313.15
1574.20922	19515.15
1577.54624	19710.05
1580.88103	19648.35
1584.2136	19605.55
1587.54395	19862.35
1590.87208	20523.85
1594.19801	21546.25
1597.52172	22707.65
1600.84321	23118.45
1604.16251	22381.75
1607.47959	20976.05
1610.79447	19460.75
1614.10715	18019.25
1617.41763	16827.55
1620.7259	15961.25
1624.03199	15475.25
1627.33587	15428.15
1630.63757	15711.15
1633.93707	16486.45
1637.23439	17723.55
1640.52951	19449.95
1643.82246	21405.75
1647.11321	22979.45
1650.40179	23365.75
1653.68819	22194.75
1656.97241	19794.25
1660.25446	17359.25
1663.53433	15486.15
1666.81203	14259.05
1670.08756	13535.25
1673.36092	13018.35
1676.63211	12705.75
1679.90115	12516.35
1683.16801	12319.65
1686.43272	12189.75
1689.69527	12097.95
1692.95567	12011.45
1696.2139	11920.45
1699.46999	11873.65
1702.72392	11817.95
1705.97571	11839.05
1709.22535	11823.95
1712.47284	11828.35
1715.71819	11824.15
1718.96139	11784.55
1722.20246	11769.25
1725.44139	11753.55
1728.67818	11693.45
1731.91284	11618.35
1735.14537	11541.45
1738.37576	11509.25
1741.60403	11464.65
1744.83017	11437.95
1748.05418	11367.05
1751.27607	11370.35
1754.49584	11362.15
1757.71349	11314.45
1760.92903	11286.85
1764.14244	11291.25
1767.35375	11272.75
1770.56294	11245.95
1773.77002	11246.85
1776.97499	11254.65
1780.17785	11224.25
1783.37861	11230.65
1786.57727	11227.25
1789.77382	11235.25
1792.96828	11202.65
1796.16064	11173.85
1799.3509	11148.35
1802.53907	11152.55
1805.72514	11102.55
1808.90913	11099.35
1812.09102	11058.75
1815.27083	11035.15
1818.44856	11049.05
1821.6242	11001.85
1824.79776	11001.15
1827.96924	10993.75
1831.13864	10993.55
1834.30597	10978.35
1837.47122	10987.85
1840.6344	10977.05
1843.7955	10988.05
1846.95454	10996.35
1850.11151	10987.85
1853.26642	10950.25
1856.41926	10989.05
1859.57004	11008.85
1862.71876	11000.65
1865.86542	10951.85
1869.01003	10939.05
1872.15258	10916.35
1875.29308	10934.85
1878.43152	10899.05
1881.56792	10914.85
1884.70227	10886.85
1887.83457	10879.35
1890.96482	10851.95
1894.09304	10860.75
1897.21921	10851.05
1900.34335	10836.85
1903.46544	10839.35
1906.58551	10808.55
1909.70353	10782.55
1912.81953	10786.75
1915.93349	10769.55
1919.04543	10723.35
1922.15534	10709.15
1925.26322	10687.65
1928.36908	10663.85
1931.47292	10638.45
1934.57473	10608.65
1937.67453	10582.95
1940.77232	10573.85
1943.86808	10522.65
1946.96184	10492.35
1950.05358	10441.25
1953.14331	10434.65
1956.23103	10378.45
1959.31675	10355.15
1962.40046	10338.85
1965.48217	10313.45
1968.56188	10250.05
1971.63959	10258.85
1974.7153	10233.05
1977.78901	10175.25
1980.86073	10140.45
1983.93046	10129.45
1986.99819	10078.05
1990.06394	10070.75
1993.1277	10048.55
1996.18947	10010.85
1999.24925	10006.25
2002.30706	9958.45
2005.36288	9932.95
2008.41672	9885.15
2011.46859	9859.25
2014.51848	9836.85
2017.56639	9842.45
2020.61233	9802.45
2023.6563	9790.75
2026.6983	9756.05
2029.73833	9723.85
2032.7764	9711.95
2035.8125	9704.05
2038.84664	9697.45
2041.87881	9683.15
2044.90903	9641.95
2047.93729	9617.85
2050.96359	9624.75
2053.98794	9621.75
2057.01034	9609.35
2060.03078	9587.45
2063.04927	9590.15
2066.06582	9598.75
2069.08042	9603.55
2072.09307	9580.25
2075.10378	9580.25
2078.11255	9558.15
2081.11938	9552.95
2084.12426	9534.15
2087.12722	9542.75
2090.12824	9539.05
2093.12732	9531.25
2096.12447	9538.45
2099.11969	9524.45
2102.11299	9562.05
2105.10435	9533.25
2108.09379	9549.25
2111.08131	9594.85
2114.0669	9563.75
2117.05057	9590.65
2120.03233	9562.25
2123.01216	9569.55
2125.99008	9612.25
2128.96609	9625.65
2131.94018	9601.55
2134.91236	9606.25
2137.88263	9624.55
2140.851	9609.95
2143.81746	9644.25
2146.78201	9625.65
2149.74466	9639.55
2152.7054	9645.85
2155.66425	9625.35
2158.6212	9634.65
2161.57625	9626.45
2164.52941	9624.25
2167.48067	9609.25
2170.43004	9626.65
2173.37752	9635.05
2176.32311	9623.25
2179.26681	9615.45
2182.20863	9607.95
2185.14856	9612.25
2188.08661	9650.75
2191.02278	9649.05
2193.95707	9624.55
2196.88948	9618.15
2199.82001	9623.15
2202.74867	9582.15
2205.67545	9587.55
2208.60037	9582.95
2211.52341	9592.75
2214.44458	9568.35
2217.36388	9537.85
2220.28132	9552.65
2223.1969	9515.85
2226.11061	9524.75
2229.02246	9488.95
2231.93245	9467.85
2234.84058	9443.65
2237.74686	9417.85
2240.65128	9423.75
2243.55385	9382.75
2246.45456	9396.45
2249.35343	9385.95
2252.25044	9355.05
2255.14561	9333.45
2258.03893	9333.75
2260.93041	9328.15
2263.82004	9300.75
2266.70783	9282.85
2269.59378	9260.55
2272.4779	9244.75
2275.36017	9217.45
2278.24061	9208.85
2281.11922	9208.65
2283.996	9210.35
2286.87094	9176.85
2289.74405	9168.35
2292.61534	9132.95
2295.4848	9145.35
2298.35243	9143.25
2301.21824	9156.55
2304.08223	9150.15
2306.94439	9140.55
2309.80474	9135.55
2312.66327	9115.55
2315.51999	9133.55
2318.37489	9144.95
2321.22797	9115.35
2324.07925	9101.45
2326.92871	9094.15
2329.77637	9099.55
2332.62222	9067.45
2335.46626	9075.85
2338.3085	9034.45
2341.14893	9045.15
2343.98756	9069.35
2346.8244	9057.85
2349.65943	9048.55
2352.49267	9049.05
2355.32411	9052.85
2358.15376	9028.15
2360.98161	9031.35
2363.80768	9033.45
2366.63195	9035.55
2369.45444	9018.25
2372.27514	8970.95
2375.09405	8988.55
2377.91118	8982.65
2380.72652	8945.25
2383.54009	8917.95
2386.35187	8903.35
2389.16188	8869.85
2391.97011	8871.65
2394.77657	8870.45
2397.58125	8855.35
2400.38416	8848.75
2403.18529	8816.55
2405.98466	8817.05
2408.78226	8807.15
2411.57809	8774.05
2414.37216	8759.05
2417.16446	8761.75
2419.955	8749.35
2422.74378	8751.85
2425.5308	8746.25
2428.31606	8730.05
2431.09956	8741.65
2433.88131	8722.45
2436.6613	8730.75
2439.43954	8723.85
2442.21603	8705.45
2444.99077	8704.65
2447.76377	8705.55
2450.53501	8684.85
2453.30451	8688.85
2456.07226	8689.35
2458.83827	8671.25
2461.60254	8688.95
2464.36507	8677.15
2467.12586	8663.45
2469.88492	8676.05
2472.64224	8686.45
2475.39782	8680.65
2478.15167	8665.25
2480.90379	8673.35
2483.65417	8670.25
2486.40283	8693.85
2489.14976	8673.45
2491.89497	8671.55
2494.63845	8688.25
2497.3802	8654.65
2500.12024	8656.75
2502.85855	8644.05
2505.59514	8641.95
2508.33002	8645.25
2511.06318	8632.05
2513.79462	8630.35
2516.52435	8620.95
2519.25237	8620.55
2521.97867	8602.85
2524.70327	8587.15
2527.42616	8567.65
2530.14734	8568.85
2532.86681	8559.55
2535.58458	8581.85
2538.30065	8550.25
2541.01501	8551.25
2543.72768	8551.55
2546.43864	8554.35
2549.14791	8543.85
2551.85548	8503.75
2554.56136	8502.75
2557.26554	8494.45
2559.96803	8485.95
2562.66883	8484.55
2565.36794	8490.05
2568.06536	8469.55
2570.7611	8451.25
2573.45514	8437.95
2576.14751	8428.65
2578.83819	8402.15
2581.52719	8415.85
2584.21451	8395.95
2586.90015	8401.95
2589.58411	8394.95
2592.2664	8402.25
2594.94701	8380.85
2597.62594	8376.35
2600.30321	8345.95
2602.9788	8334.35
2605.65273	8347.25
2608.32498	8366.95
2610.99557	8343.45
2613.66449	8356.05
2616.33175	8330.25
2618.99734	8345.75
2621.66128	8338.75
2624.32355	8330.45
2626.98416	8322.15
2629.64311	8324.75
2632.30041	8317.95
2634.95605	8299.35
2637.61004	8286.35
2640.26238	8291.15
2642.91306	8294.95
2645.56209	8275.15
2648.20948	8270.85
2650.85521	8240.85
2653.4993	8258.25
2656.14175	8274.25
2658.78255	8281.25
2661.42171	8263.25
2664.05923	8278.25
2666.6951	8269.95
2669.32934	8263.85
2671.96194	8288.45
2674.59291	8279.35
2677.22224	8271.35
2679.84993	8267.35
2682.476	8254.25
2685.10043	8254.75
2687.72324	8248.95
2690.34441	8252.05
2692.96396	8258.85
2695.58188	8248.65
2698.19818	8224.05
2700.81285	8243.85
2703.4259	8239.05
2706.03733	8226.55
2708.64714	8197.45
2711.25533	8230.05
2713.86191	8241.25
2716.46687	8261.25
2719.07021	8250.35
2721.67194	8254.25
2724.27206	8260.65
2726.87057	8251.35
2729.46747	8278.25
2732.06276	8279.55
2734.65644	8256.15
2737.24852	8263.15
2739.83899	8268.95
2742.42786	8252.95
2745.01513	8231.75
2747.60079	8259.05
2750.18486	8229.35
2752.76733	8222.65
2755.3482	8205.05
2757.92747	8215.05
2760.50515	8189.35
2763.08123	8201.75
2765.65573	8198.15
2768.22863	8198.05
2770.79994	8186.25
2773.36967	8199.65
2775.9378	8189.55
2778.50435	8171.55
2781.06932	8155.75
2783.6327	8161.25
2786.1945	8156.75
2788.75471	8135.25
2791.31335	8130.85
2793.87041	8131.95
2796.42589	8099.25
2798.97979	8113.35
2801.53212	8097.65
2804.08288	8087.25
2806.63206	8051.05
2809.17967	8037.85
2811.72571	7994.75
2814.27018	8000.65
2816.81308	8005.85
2819.35442	7996.45
2821.89419	7977.35
2824.43239	7971.35
2826.96904	7973.05
2829.50412	7968.25
2832.03763	7954.65
2834.56959	7961.45
2837.1	7974.05
2839.62884	7943.05
2842.15613	7947.25
2844.68186	7955.85
2847.20604	7950.85
2849.72867	7967.15
2852.24974	7948.65
2854.76927	7981.35
2857.28724	7949.35
2859.80367	7940.35
2862.31855	7925.95
2864.83189	7926.85
2867.34368	7913.75
2869.85393	7907.95
2872.36264	7897.55
2874.8698	7898.15
2877.37543	7890.05
2879.87952	7899.75
2882.38207	7930.85
2884.88308	7883.85
2887.38256	7886.35
2889.88051	7904.55
2892.37692	7890.85
2894.8718	7877.15
2897.36515	7918.45
2899.85698	7911.85
2902.34727	7929.55
2904.83604	7926.95
2907.32328	7936.35
2909.809	7938.05
2912.29319	7955.35
2914.77587	7945.95
2917.25702	7948.15
2919.73665	7920.95
2922.21476	7924.55
2924.69136	7924.25
2927.16644	7935.55
2929.64	7920.85
2932.11205	7901.15
2934.58258	7887.05
2937.05161	7893.55
2939.51912	7878.95
2941.98513	7865.35
2944.44962	7817.65
2946.91261	7809.35
2949.37409	7828.55
2951.83407	7826.65
2954.29254	7829.95
2956.74951	7809.85
2959.20498	7800.35
2961.65895	7803.15
2964.11142	7803.65
2966.56239	7801.05
2969.01186	7764.35
2971.45984	7758.45
2973.90632	7749.45
2976.35131	7748.55
2978.7948	7722.45
2981.23681	7716.75
2983.67732	7701.15
2986.11635	7662.05
2988.55388	7648.25
2990.98993	7633.95
2993.4245	7638.15
2995.85758	7632.05
2998.28917	7596.75
3000.71928	7588.95
3003.14791	7578.45
3005.57506	7556.65
3008.00073	7535.85
3010.42493	7547.05
3012.84764	7553.75
3015.26888	7548.45
3017.68865	7530.55
3020.10694	7515.55
3022.52376	7497.85
3024.9391	7482.65
3027.35298	7477.05
3029.76539	7473.75
3032.17632	7477.15
3034.5858	7450.85
3036.9938	7451.05
3039.40034	7458.75
3041.80542	7454.55
3044.20903	7436.55
3046.61118	7442.35
3049.01187	7433.95
3051.4111	7413.85
3053.80888	7418.95
3056.20519	7406.05
3058.60005	7387.95
3060.99345	7353.45
3063.3854	7339.75
3065.7759	7331.45
3068.16494	7333.85
3070.55254	7319.15
3072.93868	7293.75
3075.32338	7275.45
3077.70662	7272.55
3080.08842	7257.95
3082.46878	7251.85
3084.84769	7244.95
3087.22515	7235.35
3089.60118	7232.35
3091.97576	7252.55
3094.3489	7243.15
3096.72061	7235.95
3099.09087	7235.75
3101.4597	7227.25
3103.82709	7232.35
3106.19305	7235.15
3108.55757	7252.55
3110.92066	7214.55
3113.28232	7206.85
3115.64255	7193.25
3118.00134	7186.35
3120.35871	7176.75
3122.71466	7175.55
3125.06917	7151.55
3127.42226	7148.75
3129.77393	7154.45
3132.12417	7134.65
3134.47299	7135.95
3136.82039	7145.65
3139.16636	7139.85
3141.51092	7145.05
3143.85406	7154.75
3146.19579	7165.85
3148.53609	7166.35
3150.87499	7157.75
3153.21246	7178.35
3155.54853	7160.05
3157.88318	7184.05
3160.21642	7174.65
3162.54826	7187.65
3164.87868	7174.05
3167.2077	7156.35
3169.5353	7177.65
3171.86151	7180.75
3174.18631	7171.25
3176.5097	7163.35
3178.83169	7170.05
3181.15228	7169.85
3183.47147	7155.75
3185.78926	7151.75
3188.10565	7141.05
3190.42065	7143.35
3192.73424	7129.95
3195.04645	7139.05
3197.35725	7149.05
3199.66667	7143.05
3201.97469	7140.15
3204.28132	7156.35
3206.58656	7157.05
3208.8904	7162.85
3211.19287	7164.55
3213.49394	7163.15
3215.79363	7185.65
3218.09193	7172.05
3220.38884	7168.15
3222.68438	7181.05
3224.97853	7159.95
3227.2713	7161.85
3229.56269	7145.05
3231.8527	7134.45
3234.14133	7141.45
3236.42858	7118.45
3238.71446	7100.75
3240.99896	7106.55
3243.28209	7102.55
3245.56384	7065.35
3247.84423	7090.25
3250.12324	7080.25
3252.40088	7088.75
3254.67715	7088.15
3256.95205	7074.05
3259.22558	7075.35
3261.49775	7068.95
3263.76855	7069.95
3266.03799	7049.35
3268.30606	7027.45
3270.57277	7032.75
3272.83812	7032.05
3275.10211	6996.15
3277.36474	6999.85
3279.62601	6976.95
3281.88593	6964.05
3284.14448	6990.55
3286.40168	6999.05
3288.65753	6965.95
3290.91202	6981.15
3293.16516	6966.35
3295.41695	6955.65
3297.66738	6901.75
3299.91647	6858.85
3302.16421	6822.25
3304.4106	6798.35
3306.65564	6769.85
3308.89933	6738.55
3311.14169	6684.15
3313.38269	6630.15
3315.62236	6598.75
3317.86068	6552.65
3320.09766	6488.45
3322.3333	6461.55
3324.5676	6445.65
3326.80056	6345.15
3329.03219	6310.45
3331.26248	2.55
3333.49143	0.65
3335.71905	-1.05
