Data from AgNPs_FTO_APTES_UA_1uM_CRN_100uM_R6G_10uM_NaF_0.1M_Addition_RamanShift__23__16-47-29-793.txt Node

Date: Thu Jan 27 16:47:29 GMT 2022
User: TCL
Spectrometer: QEP01345
Trigger mode: 4
Integration Time (sec): 7.000000E0
Scans to average: 10
Electric dark correction enabled: true
Nonlinearity correction enabled: false
Boxcar width: 0
XAxis mode: Raman Shifts
Number of Pixels in Spectrum: 1044
>>>>>Begin Spectral Data<<<<<
46.04893	-0.15
50.45542	0.65
54.85868	-1.85
59.25871	-1.85
63.6555	45.95
68.04907	46.55
72.43941	51.55
76.82654	53.15
81.21044	52.25
85.59113	52.95
89.96862	57.25
94.34289	57.75
98.71396	61.95
103.08183	62.15
107.4465	64.75
111.80798	68.65
116.16626	68.15
120.52136	74.45
124.87327	70.25
129.222	73.45
133.56755	77.75
137.90993	81.85
142.24913	86.45
146.58517	96.25
150.91804	112.05
155.24774	130.95
159.57429	153.45
163.89768	194.55
168.21792	258.15
172.53501	349.35
176.84895	472.45
181.15975	662.95
185.46741	926.85
189.77193	1274.35
194.07331	1713.95
198.37157	2206.55
202.6667	2732.95
206.9587	3260.55
211.24758	3763.45
215.53334	4250.25
219.81599	4793.85
224.09553	5377.05
228.37195	6025.75
232.64527	6740.45
236.91549	7477.45
241.18261	8232.85
245.44663	8954.35
249.70755	9635.55
253.96539	10212.45
258.22014	10711.05
262.4718	11120.85
266.72039	11420.95
270.96589	11580.25
275.20832	11630.15
279.44768	11606.15
283.68397	11557.65
287.91719	11508.65
292.14735	11476.75
296.37445	11505.55
300.59849	11545.45
304.81948	11536.65
309.03742	11470.15
313.25231	11319.45
317.46415	11015.95
321.67296	10709.25
325.87872	10465.45
330.08145	10350.35
334.28114	10336.15
338.47781	10425.95
342.67145	10530.75
346.86207	10710.75
351.04966	10918.85
355.23424	11135.25
359.4158	11281.55
363.59435	11468.65
367.76989	11536.45
371.94243	11640.35
376.11196	11707.95
380.27849	11803.45
384.44203	11871.65
388.60257	11937.15
392.76012	12055.65
396.91468	12205.95
401.06626	12371.65
405.21485	12524.05
409.36047	12488.35
413.50311	12345.25
417.64277	12206.75
421.77947	12163.75
425.9132	12237.55
430.04396	12301.65
434.17176	12412.75
438.2966	12569.85
442.41849	12780.95
446.53742	13071.45
450.6534	13439.25
454.76644	13738.35
458.87653	13857.25
462.98368	13810.95
467.08789	13709.95
471.18916	13563.55
475.2875	13466.65
479.38291	13435.75
483.4754	13386.75
487.56496	13212.95
491.6516	12969.55
495.73531	12796.75
499.81612	12654.25
503.89401	12676.25
507.96899	12730.25
512.04106	12715.45
516.11023	12635.05
520.1765	12526.45
524.23987	12437.75
528.30034	12328.85
532.35792	12227.15
536.41261	12132.85
540.46441	12026.35
544.51333	12058.35
548.55936	12209.85
552.60252	12435.75
556.64279	12658.55
560.6802	12837.75
564.71473	12960.85
568.7464	13157.35
572.7752	13383.55
576.80114	13550.55
580.82422	13681.35
584.84444	13816.95
588.86181	14009.05
592.87633	14215.35
596.888	14345.45
600.89682	14412.95
604.9028	14682.35
608.90594	15588.95
612.90624	16516.65
616.90371	15729.45
620.89834	13633.75
624.89015	12704.25
628.87913	12631.55
632.86528	12727.55
636.84862	12753.85
640.82913	12594.25
644.80683	12301.65
648.78172	12051.95
652.75379	11971.15
656.72306	12019.35
660.68952	12184.55
664.65319	12136.75
668.61405	11998.75
672.57211	11935.15
676.52738	11966.55
680.47986	11956.25
684.42955	11955.35
688.37646	11938.45
692.32058	11929.35
696.26192	12018.45
700.20048	12119.25
704.13626	12185.95
708.06928	12197.15
711.99952	12105.65
715.927	12068.05
719.85171	12101.25
723.77365	12054.15
727.69284	12007.45
731.60928	11935.95
735.52295	11903.25
739.43388	11909.35
743.34206	11911.95
747.24749	11982.15
751.15017	12074.15
755.05012	12261.95
758.94733	12554.55
762.8418	13084.15
766.73354	13871.65
770.62254	14658.35
774.50882	14852.35
778.39237	14295.85
782.27321	13335.95
786.15132	12560.35
790.02671	12136.75
793.89938	11935.75
797.76935	11883.75
801.6366	11851.35
805.50115	11829.25
809.36299	11822.25
813.22213	11742.45
817.07857	11742.05
820.93231	11720.35
824.78336	11702.45
828.63172	11670.25
832.47738	11680.45
836.32036	11691.85
840.16066	11717.85
843.99827	11747.25
847.8332	11692.85
851.66546	11663.25
855.49504	11629.25
859.32195	11663.15
863.1462	11620.55
866.96777	11579.75
870.78668	11578.15
874.60293	11543.05
878.41652	11524.85
882.22745	11566.25
886.03573	11617.75
889.84136	11615.65
893.64433	11547.05
897.44466	11492.75
901.24235	11505.05
905.0374	11448.25
908.8298	11442.85
912.61957	11465.65
916.40671	11545.25
920.19121	11700.65
923.97308	11792.45
927.75233	11804.25
931.52895	11771.75
935.30295	11675.35
939.07433	11508.35
942.84309	11348.95
946.60924	11282.95
950.37278	11203.45
954.13371	11199.15
957.89203	11160.85
961.64774	11148.45
965.40086	11144.15
969.15137	11061.15
972.89929	11000.45
976.64461	10951.65
980.38733	10952.75
984.12747	10968.05
987.86502	11051.85
991.59999	11184.25
995.33237	11370.15
999.06217	11636.45
1002.78939	11991.15
1006.51404	12138.55
1010.23611	12222.55
1013.95561	12321.35
1017.67255	12331.25
1021.38692	12255.35
1025.09872	12175.75
1028.80796	12254.85
1032.51465	12493.15
1036.21877	12735.65
1039.92035	12780.15
1043.61937	12638.75
1047.31584	12380.05
1051.00976	12153.75
1054.70114	11999.05
1058.38998	11996.35
1062.07627	12080.85
1065.76003	12158.45
1069.44126	12239.85
1073.11995	12336.35
1076.79611	12381.85
1080.46974	12438.15
1084.14085	12466.05
1087.80943	12532.05
1091.47549	12614.35
1095.13903	12632.55
1098.80005	12475.95
1102.45857	12323.65
1106.11456	12165.85
1109.76805	12114.15
1113.41903	12170.65
1117.06751	12300.15
1120.71348	12419.35
1124.35696	12541.45
1127.99793	12650.65
1131.63641	12741.45
1135.2724	12626.25
1138.90589	12515.65
1142.5369	12435.15
1146.16542	12460.35
1149.79145	12521.05
1153.415	12613.15
1157.03607	12760.25
1160.65467	13023.85
1164.27079	13472.45
1167.88443	14042.75
1171.49561	14757.05
1175.10432	15715.75
1178.71056	16879.85
1182.31434	17969.85
1185.91565	18570.75
1189.51451	18617.15
1193.11091	18200.75
1196.70485	17628.15
1200.29634	16964.45
1203.88538	16466.65
1207.47197	16048.65
1211.05612	15752.25
1214.63782	15474.15
1218.21708	15251.05
1221.79391	15070.95
1225.36829	14980.05
1228.94024	14828.95
1232.50976	14608.65
1236.07685	14430.65
1239.6415	14362.85
1243.20374	14332.45
1246.76355	14402.05
1250.32093	14567.75
1253.8759	14815.65
1257.42845	15159.75
1260.97859	15489.95
1264.52631	15761.95
1268.07163	16068.75
1271.61453	16431.65
1275.15503	16901.75
1278.69312	17385.95
1282.22882	17799.65
1285.76211	18216.05
1289.29301	18719.45
1292.82151	19374.35
1296.34761	20218.55
1299.87133	21283.45
1303.39266	22432.05
1306.9116	23726.65
1310.42815	24869.35
1313.94233	25658.45
1317.45412	25744.95
1320.96354	25395.05
1324.47058	24943.05
1327.97525	24506.15
1331.47754	24185.05
1334.97747	24133.15
1338.47502	24153.85
1341.97022	24233.25
1345.46305	24079.15
1348.95352	23615.65
1352.44163	23179.55
1355.92738	23066.95
1359.41078	23592.85
1362.89183	24252.35
1366.37053	23921.75
1369.84688	22306.65
1373.32088	20255.45
1376.79254	18852.05
1380.26186	18276.95
1383.72883	18232.55
1387.19347	18343.05
1390.65578	18383.95
1394.11575	18481.25
1397.57339	18771.85
1401.0287	19261.35
1404.48168	19743.85
1407.93234	19948.75
1411.38068	19779.75
1414.82669	19297.45
1418.27039	18499.15
1421.71177	17649.25
1425.15083	16916.45
1428.58758	16473.45
1432.02203	16391.75
1435.45416	16552.75
1438.88399	16943.55
1442.31151	17308.75
1445.73673	17645.75
1449.15965	17971.15
1452.58027	18262.45
1455.9986	18414.25
1459.41463	18524.75
1462.82837	18741.45
1466.23982	19032.25
1469.64898	19264.35
1473.05586	19437.25
1476.46045	19420.55
1479.86276	19287.05
1483.26279	19068.05
1486.66054	18850.25
1490.05602	18775.55
1493.44922	18753.15
1496.84016	18768.45
1500.22882	18835.25
1503.61521	19169.95
1506.99934	19633.15
1510.38121	20228.55
1513.76081	20500.45
1517.13816	20192.55
1520.51324	19595.25
1523.88607	18958.75
1527.25665	18612.75
1530.62498	18455.55
1533.99105	18386.35
1537.35488	18380.85
1540.71647	18249.85
1544.07581	18043.15
1547.4329	17767.65
1550.78776	17489.85
1554.14038	17328.65
1557.49077	17225.35
1560.83892	17238.25
1564.18484	17229.85
1567.52853	17187.35
1570.86999	17228.85
1574.20922	17413.95
1577.54624	17637.75
1580.88103	17706.95
1584.2136	17864.35
1587.54395	18294.15
1590.87208	19047.15
1594.19801	20073.05
1597.52172	21078.55
1600.84321	21461.85
1604.16251	20781.85
1607.47959	19387.75
1610.79447	17926.35
1614.10715	16513.05
1617.41763	15337.65
1620.7259	14518.45
1624.03199	14056.95
1627.33587	13981.65
1630.63757	14319.05
1633.93707	15015.85
1637.23439	16120.95
1640.52951	17667.25
1643.82246	19360.25
1647.11321	20660.25
1650.40179	20943.45
1653.68819	19921.05
1656.97241	17840.75
1660.25446	15659.75
1663.53433	13982.55
1666.81203	12852.05
1670.08756	12134.45
1673.36092	11690.85
1676.63211	11395.35
1679.90115	11184.35
1683.16801	11008.05
1686.43272	10885.95
1689.69527	10790.25
1692.95567	10688.25
1696.2139	10642.35
1699.46999	10573.05
1702.72392	10517.15
1705.97571	10510.25
1709.22535	10487.95
1712.47284	10526.85
1715.71819	10544.25
1718.96139	10544.25
1722.20246	10503.85
1725.44139	10465.05
1728.67818	10415.35
1731.91284	10393.65
1735.14537	10351.25
1738.37576	10287.25
1741.60403	10264.65
1744.83017	10269.35
1748.05418	10215.15
1751.27607	10180.25
1754.49584	10178.25
1757.71349	10148.75
1760.92903	10125.45
1764.14244	10121.95
1767.35375	10125.05
1770.56294	10069.25
1773.77002	10083.05
1776.97499	10087.95
1780.17785	10075.35
1783.37861	10094.35
1786.57727	10110.25
1789.77382	10081.25
1792.96828	10064.45
1796.16064	10019.05
1799.3509	10031.05
1802.53907	10017.25
1805.72514	10003.35
1808.90913	9985.55
1812.09102	9955.15
1815.27083	9935.05
1818.44856	9937.05
1821.6242	9923.45
1824.79776	9895.15
1827.96924	9889.75
1831.13864	9892.25
1834.30597	9892.55
1837.47122	9883.75
1840.6344	9863.35
1843.7955	9878.35
1846.95454	9889.85
1850.11151	9896.05
1853.26642	9860.75
1856.41926	9882.05
1859.57004	9901.05
1862.71876	9854.05
1865.86542	9878.35
1869.01003	9890.15
1872.15258	9875.85
1875.29308	9891.95
1878.43152	9862.25
1881.56792	9884.95
1884.70227	9869.55
1887.83457	9865.25
1890.96482	9839.95
1894.09304	9835.15
1897.21921	9847.95
1900.34335	9808.65
1903.46544	9827.95
1906.58551	9826.15
1909.70353	9812.95
1912.81953	9792.15
1915.93349	9803.85
1919.04543	9789.85
1922.15534	9787.25
1925.26322	9778.55
1928.36908	9734.65
1931.47292	9723.15
1934.57473	9701.05
1937.67453	9686.75
1940.77232	9657.15
1943.86808	9587.25
1946.96184	9574.85
1950.05358	9549.85
1953.14331	9526.35
1956.23103	9501.75
1959.31675	9491.05
1962.40046	9473.45
1965.48217	9429.25
1968.56188	9403.85
1971.63959	9372.75
1974.7153	9347.05
1977.78901	9337.75
1980.86073	9289.25
1983.93046	9272.15
1986.99819	9237.75
1990.06394	9222.55
1993.1277	9161.95
1996.18947	9160.85
1999.24925	9142.45
2002.30706	9130.85
2005.36288	9095.45
2008.41672	9078.45
2011.46859	9037.75
2014.51848	9036.95
2017.56639	8992.65
2020.61233	8992.25
2023.6563	8988.55
2026.6983	8948.85
2029.73833	8937.65
2032.7764	8922.25
2035.8125	8925.35
2038.84664	8898.75
2041.87881	8889.55
2044.90903	8880.15
2047.93729	8870.85
2050.96359	8886.25
2053.98794	8831.65
2057.01034	8821.35
2060.03078	8848.65
2063.04927	8813.05
2066.06582	8826.65
2069.08042	8806.75
2072.09307	8798.15
2075.10378	8793.85
2078.11255	8810.55
2081.11938	8804.65
2084.12426	8798.95
2087.12722	8788.65
2090.12824	8802.55
2093.12732	8755.15
2096.12447	8770.05
2099.11969	8779.85
2102.11299	8765.75
2105.10435	8764.35
2108.09379	8790.75
2111.08131	8803.55
2114.0669	8805.35
2117.05057	8816.35
2120.03233	8819.45
2123.01216	8811.55
2125.99008	8832.55
2128.96609	8842.85
2131.94018	8869.25
2134.91236	8846.45
2137.88263	8865.25
2140.851	8863.85
2143.81746	8876.85
2146.78201	8868.45
2149.74466	8879.45
2152.7054	8883.05
2155.66425	8872.05
2158.6212	8872.85
2161.57625	8850.05
2164.52941	8863.05
2167.48067	8868.95
2170.43004	8874.75
2173.37752	8866.15
2176.32311	8881.55
2179.26681	8877.35
2182.20863	8874.65
2185.14856	8871.55
2188.08661	8878.15
2191.02278	8902.25
2193.95707	8886.45
2196.88948	8865.95
2199.82001	8857.05
2202.74867	8879.05
2205.67545	8862.75
2208.60037	8875.35
2211.52341	8841.45
2214.44458	8837.05
2217.36388	8828.25
2220.28132	8828.15
2223.1969	8818.15
2226.11061	8778.75
2229.02246	8783.85
2231.93245	8748.55
2234.84058	8756.55
2237.74686	8745.65
2240.65128	8733.35
2243.55385	8728.35
2246.45456	8691.75
2249.35343	8690.85
2252.25044	8677.75
2255.14561	8676.45
2258.03893	8663.95
2260.93041	8636.25
2263.82004	8611.05
2266.70783	8595.25
2269.59378	8571.05
2272.4779	8544.25
2275.36017	8545.75
2278.24061	8533.95
2281.11922	8525.95
2283.996	8513.15
2286.87094	8504.85
2289.74405	8481.95
2292.61534	8469.15
2295.4848	8464.25
2298.35243	8467.15
2301.21824	8486.55
2304.08223	8492.85
2306.94439	8498.15
2309.80474	8484.85
2312.66327	8500.25
2315.51999	8484.25
2318.37489	8505.65
2321.22797	8480.35
2324.07925	8477.45
2326.92871	8451.75
2329.77637	8457.65
2332.62222	8445.35
2335.46626	8436.85
2338.3085	8420.95
2341.14893	8451.75
2343.98756	8459.05
2346.8244	8419.85
2349.65943	8436.95
2352.49267	8435.95
2355.32411	8426.45
2358.15376	8436.85
2360.98161	8420.55
2363.80768	8405.25
2366.63195	8425.65
2369.45444	8403.45
2372.27514	8387.75
2375.09405	8369.95
2377.91118	8360.65
2380.72652	8329.15
2383.54009	8326.75
2386.35187	8324.05
2389.16188	8272.65
2391.97011	8278.15
2394.77657	8251.05
2397.58125	8261.75
2400.38416	8237.45
2403.18529	8239.25
2405.98466	8234.75
2408.78226	8215.15
2411.57809	8206.75
2414.37216	8170.35
2417.16446	8174.25
2419.955	8164.15
2422.74378	8170.45
2425.5308	8164.45
2428.31606	8180.65
2431.09956	8157.45
2433.88131	8135.55
2436.6613	8128.45
2439.43954	8135.65
2442.21603	8133.65
2444.99077	8153.55
2447.76377	8131.55
2450.53501	8143.05
2453.30451	8116.45
2456.07226	8129.45
2458.83827	8105.65
2461.60254	8111.15
2464.36507	8103.25
2467.12586	8108.15
2469.88492	8097.55
2472.64224	8096.95
2475.39782	8099.05
2478.15167	8103.05
2480.90379	8106.25
2483.65417	8115.65
2486.40283	8112.85
2489.14976	8119.65
2491.89497	8120.85
2494.63845	8115.55
2497.3802	8111.95
2500.12024	8123.85
2502.85855	8109.75
2505.59514	8120.25
2508.33002	8104.75
2511.06318	8105.75
2513.79462	8109.75
2516.52435	8096.95
2519.25237	8098.65
2521.97867	8076.85
2524.70327	8099.75
2527.42616	8072.35
2530.14734	8078.65
2532.86681	8051.75
2535.58458	8049.45
2538.30065	8033.95
2541.01501	8035.15
2543.72768	8024.65
2546.43864	8011.15
2549.14791	8010.65
2551.85548	8005.75
2554.56136	7995.25
2557.26554	7990.65
2559.96803	8021.65
2562.66883	7976.95
2565.36794	7995.85
2568.06536	7992.85
2570.7611	7966.25
2573.45514	7956.65
2576.14751	7949.95
2578.83819	7955.75
2581.52719	7966.15
2584.21451	7941.45
2586.90015	7938.25
2589.58411	7922.85
2592.2664	7936.55
2594.94701	7919.15
2597.62594	7921.75
2600.30321	7893.05
2602.9788	7906.75
2605.65273	7914.35
2608.32498	7910.75
2610.99557	7894.95
2613.66449	7928.95
2616.33175	7904.75
2618.99734	7900.55
2621.66128	7910.15
2624.32355	7907.85
2626.98416	7921.95
2629.64311	7912.85
2632.30041	7903.65
2634.95605	7904.15
2637.61004	7886.55
2640.26238	7889.15
2642.91306	7890.45
2645.56209	7851.85
2648.20948	7876.55
2650.85521	7878.95
2653.4993	7856.75
2656.14175	7877.35
2658.78255	7873.65
2661.42171	7886.15
2664.05923	7888.05
2666.6951	7887.25
2669.32934	7892.95
2671.96194	7889.75
2674.59291	7889.55
2677.22224	7855.55
2679.84993	7895.05
2682.476	7887.35
2685.10043	7884.75
2687.72324	7865.55
2690.34441	7876.25
2692.96396	7867.65
2695.58188	7879.45
2698.19818	7862.85
2700.81285	7874.15
2703.4259	7854.85
2706.03733	7852.85
2708.64714	7849.35
2711.25533	7880.65
2713.86191	7869.75
2716.46687	7887.75
2719.07021	7898.95
2721.67194	7884.45
2724.27206	7891.45
2726.87057	7908.25
2729.46747	7915.45
2732.06276	7932.25
2734.65644	7903.85
2737.24852	7911.45
2739.83899	7923.45
2742.42786	7913.35
2745.01513	7894.05
2747.60079	7893.65
2750.18486	7900.75
2752.76733	7894.55
2755.3482	7916.45
2757.92747	7900.65
2760.50515	7897.15
2763.08123	7897.05
2765.65573	7868.65
2768.22863	7887.75
2770.79994	7862.85
2773.36967	7884.75
2775.9378	7886.25
2778.50435	7870.35
2781.06932	7877.45
2783.6327	7879.55
2786.1945	7864.85
2788.75471	7860.85
2791.31335	7846.75
2793.87041	7859.35
2796.42589	7812.45
2798.97979	7817.05
2801.53212	7800.95
2804.08288	7788.95
2806.63206	7790.05
2809.17967	7784.65
2811.72571	7757.05
2814.27018	7753.55
2816.81308	7735.25
2819.35442	7722.15
2821.89419	7714.75
2824.43239	7731.75
2826.96904	7707.65
2829.50412	7718.15
2832.03763	7706.05
2834.56959	7710.15
2837.1	7695.25
2839.62884	7690.85
2842.15613	7685.45
2844.68186	7722.55
2847.20604	7723.35
2849.72867	7717.65
2852.24974	7733.45
2854.76927	7702.55
2857.28724	7683.15
2859.80367	7695.45
2862.31855	7676.25
2864.83189	7665.65
2867.34368	7653.75
2869.85393	7659.95
2872.36264	7646.75
2874.8698	7675.35
2877.37543	7671.15
2879.87952	7666.85
2882.38207	7667.75
2884.88308	7675.45
2887.38256	7662.05
2889.88051	7663.05
2892.37692	7671.75
2894.8718	7662.25
2897.36515	7694.65
2899.85698	7689.25
2902.34727	7710.05
2904.83604	7713.25
2907.32328	7738.05
2909.809	7737.15
2912.29319	7742.95
2914.77587	7737.15
2917.25702	7723.25
2919.73665	7748.35
2922.21476	7737.75
2924.69136	7727.85
2927.16644	7740.65
2929.64	7729.95
2932.11205	7718.35
2934.58258	7678.25
2937.05161	7711.25
2939.51912	7716.25
2941.98513	7686.35
2944.44962	7668.75
2946.91261	7650.95
2949.37409	7679.85
2951.83407	7670.95
2954.29254	7662.45
2956.74951	7625.75
2959.20498	7647.45
2961.65895	7645.45
2964.11142	7624.85
2966.56239	7595.75
2969.01186	7592.55
2971.45984	7590.25
2973.90632	7586.05
2976.35131	7575.45
2978.7948	7558.65
2981.23681	7552.85
2983.67732	7545.05
2986.11635	7497.15
2988.55388	7518.15
2990.98993	7475.75
2993.4245	7493.15
2995.85758	7478.05
2998.28917	7445.45
3000.71928	7455.35
3003.14791	7419.95
3005.57506	7422.55
3008.00073	7382.55
3010.42493	7376.65
3012.84764	7422.05
3015.26888	7401.85
3017.68865	7378.55
3020.10694	7362.85
3022.52376	7343.35
3024.9391	7353.65
3027.35298	7353.95
3029.76539	7325.75
3032.17632	7328.85
3034.5858	7332.85
3036.9938	7325.15
3039.40034	7326.25
3041.80542	7329.15
3044.20903	7307.45
3046.61118	7311.75
3049.01187	7289.85
3051.4111	7291.35
3053.80888	7292.35
3056.20519	7265.35
3058.60005	7243.75
3060.99345	7220.95
3063.3854	7195.95
3065.7759	7198.15
3068.16494	7182.45
3070.55254	7166.75
3072.93868	7137.65
3075.32338	7145.15
3077.70662	7134.75
3080.08842	7107.05
3082.46878	7126.75
3084.84769	7116.85
3087.22515	7097.75
3089.60118	7094.05
3091.97576	7089.65
3094.3489	7116.15
3096.72061	7113.85
3099.09087	7124.85
3101.4597	7100.75
3103.82709	7126.95
3106.19305	7094.05
3108.55757	7119.95
3110.92066	7089.45
3113.28232	7066.25
3115.64255	7053.15
3118.00134	7069.95
3120.35871	7066.35
3122.71466	7043.75
3125.06917	7018.65
3127.42226	7008.15
3129.77393	7029.95
3132.12417	7023.95
3134.47299	7003.35
3136.82039	7023.55
3139.16636	7027.15
3141.51092	7029.35
3143.85406	7023.55
3146.19579	7042.55
3148.53609	7051.15
3150.87499	7051.55
3153.21246	7063.45
3155.54853	7063.65
3157.88318	7074.85
3160.21642	7067.95
3162.54826	7070.65
3164.87868	7086.05
3167.2077	7066.95
3169.5353	7078.05
3171.86151	7067.45
3174.18631	7066.95
3176.5097	7067.15
3178.83169	7079.95
3181.15228	7080.25
3183.47147	7066.65
3185.78926	7059.75
3188.10565	7035.15
3190.42065	7043.05
3192.73424	7047.85
3195.04645	7055.15
3197.35725	7057.05
3199.66667	7068.25
3201.97469	7049.25
3204.28132	7065.25
3206.58656	7076.55
3208.8904	7071.55
3211.19287	7090.45
3213.49394	7087.25
3215.79363	7104.05
3218.09193	7106.65
3220.38884	7071.45
3222.68438	7098.95
3224.97853	7083.15
3227.2713	7080.75
3229.56269	7098.05
3231.8527	7099.35
3234.14133	7075.35
3236.42858	7053.85
3238.71446	7048.15
3240.99896	7027.65
3243.28209	7046.85
3245.56384	7022.55
3247.84423	7020.65
3250.12324	7023.85
3252.40088	7029.55
3254.67715	7038.15
3256.95205	7014.05
3259.22558	7027.75
3261.49775	7017.25
3263.76855	7007.55
3266.03799	6975.55
3268.30606	6979.85
3270.57277	6986.55
3272.83812	6946.25
3275.10211	6936.25
3277.36474	6946.25
3279.62601	6942.85
3281.88593	6918.85
3284.14448	6932.75
3286.40168	6930.85
3288.65753	6945.85
3290.91202	6925.85
3293.16516	6915.35
3295.41695	6882.85
3297.66738	6856.45
3299.91647	6822.75
3302.16421	6778.95
3304.4106	6774.45
3306.65564	6729.75
3308.89933	6713.35
3311.14169	6669.35
3313.38269	6613.25
3315.62236	6545.35
3317.86068	6507.15
3320.09766	6469.15
3322.3333	6423.35
3324.5676	6403.65
3326.80056	6305.95
3329.03219	6261.75
3331.26248	2.55
3333.49143	-0.05
3335.71905	-0.35
