Data from AgNPs_FTO_APTES_UA_1uM_CRN_2uM_R6G_10uM_NaF_0.1M_Addition_RamanShift__16__13-13-59-549.txt Node

Date: Thu Jan 27 13:13:59 GMT 2022
User: TCL
Spectrometer: QEP01345
Trigger mode: 4
Integration Time (sec): 7.000000E0
Scans to average: 10
Electric dark correction enabled: true
Nonlinearity correction enabled: false
Boxcar width: 0
XAxis mode: Raman Shifts
Number of Pixels in Spectrum: 1044
>>>>>Begin Spectral Data<<<<<
46.04893	0.55
50.45542	0.45
54.85868	-1.75
59.25871	-1.75
63.6555	55.85
68.04907	55.75
72.43941	58.15
76.82654	65.25
81.21044	66.75
85.59113	66.05
89.96862	68.75
94.34289	71.15
98.71396	74.55
103.08183	73.25
107.4465	80.15
111.80798	79.55
116.16626	79.55
120.52136	88.05
124.87327	88.45
129.222	89.65
133.56755	90.95
137.90993	99.85
142.24913	111.75
146.58517	122.45
150.91804	139.35
155.24774	162.15
159.57429	199.65
163.89768	250.95
168.21792	330.65
172.53501	444.25
176.84895	616.55
181.15975	861.25
185.46741	1209.15
189.77193	1661.75
194.07331	2221.45
198.37157	2867.15
202.6667	3533.45
206.9587	4206.35
211.24758	4865.15
215.53334	5532.75
219.81599	6233.85
224.09553	6984.05
228.37195	7856.15
232.64527	8791.75
236.91549	9825.25
241.18261	10835.85
245.44663	11745.45
249.70755	12596.75
253.96539	13343.75
258.22014	13949.95
262.4718	14460.75
266.72039	14866.15
270.96589	15039.95
275.20832	15052.15
279.44768	15015.65
283.68397	14851.55
287.91719	14710.75
292.14735	14650.65
296.37445	14629.25
300.59849	14683.15
304.81948	14756.45
309.03742	14749.35
313.25231	14620.75
317.46415	14277.05
321.67296	13843.75
325.87872	13506.15
330.08145	13326.35
334.28114	13304.95
338.47781	13393.65
342.67145	13576.75
346.86207	13812.25
351.04966	14107.05
355.23424	14448.45
359.4158	14704.75
363.59435	14916.65
367.76989	15076.35
371.94243	15176.45
376.11196	15256.25
380.27849	15364.85
384.44203	15448.05
388.60257	15537.25
392.76012	15661.95
396.91468	15845.35
401.06626	16054.45
405.21485	16213.05
409.36047	16190.95
413.50311	15902.95
417.64277	15700.65
421.77947	15624.05
425.9132	15663.95
430.04396	15746.25
434.17176	15830.45
438.2966	15921.55
442.41849	16093.55
446.53742	16425.15
450.6534	16831.15
454.76644	17162.95
458.87653	17279.95
462.98368	17266.45
467.08789	17097.05
471.18916	16894.25
475.2875	16638.85
479.38291	16529.05
483.4754	16406.05
487.56496	16269.55
491.6516	16085.55
495.73531	15954.65
499.81612	15897.25
503.89401	16017.85
507.96899	16083.75
512.04106	16048.95
516.11023	15982.15
520.1765	15889.75
524.23987	15771.75
528.30034	15611.95
532.35792	15466.55
536.41261	15279.85
540.46441	15090.95
544.51333	15086.95
548.55936	15262.35
552.60252	15567.15
556.64279	15882.35
560.6802	16054.25
564.71473	16140.95
568.7464	16269.45
572.7752	16588.25
576.80114	16892.95
580.82422	17167.35
584.84444	17451.75
588.86181	17662.75
592.87633	17811.85
596.888	17811.95
600.89682	17775.25
604.9028	18364.75
608.90594	20068.05
612.90624	21980.15
616.90371	20961.05
620.89834	17649.75
624.89015	16131.15
628.87913	16024.15
632.86528	16037.35
636.84862	15928.55
640.82913	15659.85
644.80683	15274.15
648.78172	14974.85
652.75379	14893.55
656.72306	15098.95
660.68952	15343.55
664.65319	15306.45
668.61405	15027.15
672.57211	14940.95
676.52738	14922.15
680.47986	14916.75
684.42955	14869.05
688.37646	14767.75
692.32058	14833.05
696.26192	14990.55
700.20048	15190.95
704.13626	15292.05
708.06928	15213.05
711.99952	15117.35
715.927	15087.85
719.85171	15131.05
723.77365	15107.35
727.69284	14952.45
731.60928	14795.05
735.52295	14755.25
739.43388	14749.25
743.34206	14820.65
747.24749	14884.85
751.15017	14992.65
755.05012	15229.85
758.94733	15637.65
762.8418	16353.15
766.73354	17557.95
770.62254	18756.75
774.50882	19218.75
778.39237	18421.05
782.27321	17131.75
786.15132	16031.55
790.02671	15383.85
793.89938	15064.65
797.76935	14964.85
801.6366	14959.25
805.50115	14877.45
809.36299	14791.05
813.22213	14663.15
817.07857	14588.15
820.93231	14535.15
824.78336	14496.25
828.63172	14490.35
832.47738	14462.15
836.32036	14551.65
840.16066	14609.05
843.99827	14683.45
847.8332	14667.75
851.66546	14558.05
855.49504	14510.65
859.32195	14518.05
863.1462	14490.15
866.96777	14416.65
870.78668	14404.25
874.60293	14387.95
878.41652	14396.65
882.22745	14449.35
886.03573	14525.75
889.84136	14486.65
893.64433	14467.15
897.44466	14391.05
901.24235	14332.15
905.0374	14252.95
908.8298	14224.35
912.61957	14240.35
916.40671	14373.75
920.19121	14544.75
923.97308	14720.25
927.75233	14825.35
931.52895	14820.95
935.30295	14660.05
939.07433	14417.65
942.84309	14176.75
946.60924	14074.75
950.37278	14055.55
954.13371	14029.05
957.89203	13930.25
961.64774	13879.45
965.40086	13812.55
969.15137	13806.55
972.89929	13752.15
976.64461	13741.45
980.38733	13748.75
984.12747	13821.35
987.86502	13978.65
991.59999	14201.15
995.33237	14491.75
999.06217	14965.45
1002.78939	15466.95
1006.51404	15700.95
1010.23611	15837.65
1013.95561	15906.45
1017.67255	15890.95
1021.38692	15738.95
1025.09872	15557.45
1028.80796	15722.35
1032.51465	16261.75
1036.21877	16800.85
1039.92035	16950.35
1043.61937	16681.55
1047.31584	16191.65
1051.00976	15642.25
1054.70114	15391.65
1058.38998	15343.65
1062.07627	15445.45
1065.76003	15464.15
1069.44126	15571.35
1073.11995	15732.75
1076.79611	15951.95
1080.46974	16081.15
1084.14085	16210.45
1087.80943	16389.25
1091.47549	16522.95
1095.13903	16461.55
1098.80005	16278.45
1102.45857	15969.65
1106.11456	15717.45
1109.76805	15592.45
1113.41903	15601.65
1117.06751	15694.05
1120.71348	15839.65
1124.35696	15965.95
1127.99793	16146.85
1131.63641	16278.45
1135.2724	16140.05
1138.90589	16009.95
1142.5369	15918.35
1146.16542	15886.95
1149.79145	15883.55
1153.415	15923.75
1157.03607	16025.05
1160.65467	16362.25
1164.27079	16931.95
1167.88443	17737.85
1171.49561	18801.15
1175.10432	20162.85
1178.71056	21851.65
1182.31434	23524.15
1185.91565	24543.35
1189.51451	24588.35
1193.11091	23826.85
1196.70485	22749.35
1200.29634	21705.85
1203.88538	20927.45
1207.47197	20351.55
1211.05612	19878.65
1214.63782	19529.85
1218.21708	19265.95
1221.79391	19093.25
1225.36829	19019.05
1228.94024	18884.55
1232.50976	18561.25
1236.07685	18295.05
1239.6415	18106.25
1243.20374	18070.15
1246.76355	18169.85
1250.32093	18423.95
1253.8759	18840.45
1257.42845	19383.25
1260.97859	19933.55
1264.52631	20439.95
1268.07163	21042.95
1271.61453	21678.85
1275.15503	22381.55
1278.69312	23052.65
1282.22882	23577.15
1285.76211	23987.15
1289.29301	24365.55
1292.82151	24896.65
1296.34761	25782.75
1299.87133	27081.25
1303.39266	28767.45
1306.9116	30718.15
1310.42815	32614.75
1313.94233	33682.85
1317.45412	33602.45
1320.96354	32794.85
1324.47058	31871.15
1327.97525	31038.45
1331.47754	30467.75
1334.97747	30087.05
1338.47502	29901.75
1341.97022	29787.65
1345.46305	29559.75
1348.95352	29253.95
1352.44163	29161.35
1355.92738	29643.55
1359.41078	30913.55
1362.89183	32277.75
1366.37053	31819.15
1369.84688	29355.25
1373.32088	26308.55
1376.79254	24120.85
1380.26186	23097.05
1383.72883	22846.55
1387.19347	22751.75
1390.65578	22468.55
1394.11575	22327.95
1397.57339	22384.95
1401.0287	22704.65
1404.48168	23016.95
1407.93234	23151.55
1411.38068	22943.05
1414.82669	22491.05
1418.27039	21757.45
1421.71177	21043.65
1425.15083	20443.25
1428.58758	20100.25
1432.02203	20133.45
1435.45416	20473.95
1438.88399	21010.05
1442.31151	21389.15
1445.73673	21711.75
1449.15965	21937.45
1452.58027	22057.45
1455.9986	22090.15
1459.41463	22209.25
1462.82837	22522.35
1466.23982	22995.25
1469.64898	23477.75
1473.05586	23766.25
1476.46045	23803.85
1479.86276	23657.75
1483.26279	23428.35
1486.66054	23218.75
1490.05602	23201.65
1493.44922	23371.85
1496.84016	23649.85
1500.22882	24125.65
1503.61521	25000.75
1506.99934	26084.85
1510.38121	27024.15
1513.76081	27300.25
1517.13816	26676.85
1520.51324	25476.35
1523.88607	24319.25
1527.25665	23530.05
1530.62498	23130.15
1533.99105	22927.55
1537.35488	22771.15
1540.71647	22591.85
1544.07581	22289.05
1547.4329	21969.75
1550.78776	21661.95
1554.14038	21488.25
1557.49077	21357.15
1560.83892	21270.25
1564.18484	21277.35
1567.52853	21355.55
1570.86999	21496.05
1574.20922	21782.15
1577.54624	21933.45
1580.88103	21872.75
1584.2136	21855.85
1587.54395	22289.35
1590.87208	23191.45
1594.19801	24567.85
1597.52172	26121.75
1600.84321	26753.15
1604.16251	25774.85
1607.47959	23880.15
1610.79447	21908.85
1614.10715	20087.75
1617.41763	18608.45
1620.7259	17606.45
1624.03199	17079.55
1627.33587	17055.45
1630.63757	17499.25
1633.93707	18438.25
1637.23439	19983.85
1640.52951	22046.35
1643.82246	24275.05
1647.11321	26043.25
1650.40179	26356.75
1653.68819	24801.95
1656.97241	21952.95
1660.25446	19102.35
1663.53433	16937.05
1666.81203	15571.45
1670.08756	14720.65
1673.36092	14198.35
1676.63211	13849.85
1679.90115	13598.95
1683.16801	13384.35
1686.43272	13216.25
1689.69527	13120.85
1692.95567	13022.75
1696.2139	12947.85
1699.46999	12889.55
1702.72392	12831.15
1705.97571	12860.35
1709.22535	12835.85
1712.47284	12883.05
1715.71819	12835.15
1718.96139	12826.35
1722.20246	12798.75
1725.44139	12757.15
1728.67818	12698.65
1731.91284	12607.05
1735.14537	12541.55
1738.37576	12494.05
1741.60403	12466.05
1744.83017	12429.75
1748.05418	12346.65
1751.27607	12347.85
1754.49584	12304.35
1757.71349	12300.95
1760.92903	12255.05
1764.14244	12237.65
1767.35375	12246.95
1770.56294	12212.55
1773.77002	12221.35
1776.97499	12197.95
1780.17785	12218.35
1783.37861	12200.85
1786.57727	12201.55
1789.77382	12188.25
1792.96828	12157.85
1796.16064	12140.55
1799.3509	12129.65
1802.53907	12128.75
1805.72514	12091.35
1808.90913	12039.75
1812.09102	12010.75
1815.27083	12001.05
1818.44856	11993.65
1821.6242	11975.95
1824.79776	11947.85
1827.96924	11959.95
1831.13864	11934.25
1834.30597	11965.35
1837.47122	11954.35
1840.6344	11979.65
1843.7955	11987.05
1846.95454	11974.05
1850.11151	11981.45
1853.26642	11960.05
1856.41926	11979.95
1859.57004	11998.75
1862.71876	11969.65
1865.86542	11954.75
1869.01003	11955.55
1872.15258	11949.25
1875.29308	11932.55
1878.43152	11943.25
1881.56792	11927.45
1884.70227	11918.35
1887.83457	11896.05
1890.96482	11903.05
1894.09304	11865.55
1897.21921	11891.55
1900.34335	11858.75
1903.46544	11866.45
1906.58551	11856.55
1909.70353	11832.65
1912.81953	11820.85
1915.93349	11790.55
1919.04543	11756.25
1922.15534	11757.05
1925.26322	11708.05
1928.36908	11680.95
1931.47292	11661.65
1934.57473	11616.45
1937.67453	11578.25
1940.77232	11550.95
1943.86808	11488.25
1946.96184	11464.65
1950.05358	11441.05
1953.14331	11385.85
1956.23103	11338.45
1959.31675	11329.85
1962.40046	11309.85
1965.48217	11276.65
1968.56188	11232.65
1971.63959	11209.15
1974.7153	11170.85
1977.78901	11142.75
1980.86073	11103.15
1983.93046	11072.35
1986.99819	11037.75
1990.06394	10982.75
1993.1277	10971.25
1996.18947	10939.35
1999.24925	10919.65
2002.30706	10859.85
2005.36288	10847.15
2008.41672	10812.65
2011.46859	10809.65
2014.51848	10753.85
2017.56639	10740.15
2020.61233	10712.25
2023.6563	10711.85
2026.6983	10681.05
2029.73833	10675.15
2032.7764	10619.65
2035.8125	10636.15
2038.84664	10612.95
2041.87881	10595.15
2044.90903	10568.95
2047.93729	10560.55
2050.96359	10555.05
2053.98794	10540.25
2057.01034	10511.85
2060.03078	10535.15
2063.04927	10527.55
2066.06582	10515.95
2069.08042	10502.75
2072.09307	10502.85
2075.10378	10472.65
2078.11255	10465.95
2081.11938	10508.35
2084.12426	10480.85
2087.12722	10475.45
2090.12824	10460.75
2093.12732	10451.75
2096.12447	10437.55
2099.11969	10443.45
2102.11299	10481.35
2105.10435	10483.35
2108.09379	10485.15
2111.08131	10480.95
2114.0669	10500.65
2117.05057	10510.35
2120.03233	10507.35
2123.01216	10499.85
2125.99008	10521.45
2128.96609	10533.05
2131.94018	10548.05
2134.91236	10549.35
2137.88263	10553.75
2140.851	10563.75
2143.81746	10565.45
2146.78201	10555.15
2149.74466	10572.35
2152.7054	10577.85
2155.66425	10597.65
2158.6212	10595.95
2161.57625	10581.35
2164.52941	10577.95
2167.48067	10592.95
2170.43004	10559.25
2173.37752	10583.15
2176.32311	10556.95
2179.26681	10562.65
2182.20863	10562.25
2185.14856	10563.05
2188.08661	10584.15
2191.02278	10565.45
2193.95707	10568.85
2196.88948	10569.25
2199.82001	10576.65
2202.74867	10582.35
2205.67545	10609.25
2208.60037	10549.15
2211.52341	10537.05
2214.44458	10514.95
2217.36388	10525.05
2220.28132	10520.85
2223.1969	10492.05
2226.11061	10506.15
2229.02246	10478.95
2231.93245	10463.55
2234.84058	10426.15
2237.74686	10407.35
2240.65128	10369.65
2243.55385	10345.55
2246.45456	10352.55
2249.35343	10331.15
2252.25044	10322.75
2255.14561	10306.25
2258.03893	10308.85
2260.93041	10285.35
2263.82004	10274.95
2266.70783	10262.75
2269.59378	10231.15
2272.4779	10207.65
2275.36017	10182.25
2278.24061	10168.05
2281.11922	10166.75
2283.996	10160.15
2286.87094	10119.65
2289.74405	10127.15
2292.61534	10123.75
2295.4848	10087.45
2298.35243	10130.75
2301.21824	10099.45
2304.08223	10132.35
2306.94439	10123.75
2309.80474	10124.35
2312.66327	10143.15
2315.51999	10128.15
2318.37489	10129.45
2321.22797	10117.25
2324.07925	10129.35
2326.92871	10103.05
2329.77637	10097.95
2332.62222	10091.85
2335.46626	10082.65
2338.3085	10067.25
2341.14893	10061.05
2343.98756	10109.55
2346.8244	10087.35
2349.65943	10104.35
2352.49267	10067.25
2355.32411	10057.55
2358.15376	10060.95
2360.98161	10056.65
2363.80768	10052.55
2366.63195	10029.35
2369.45444	10020.25
2372.27514	10012.55
2375.09405	10005.05
2377.91118	9987.25
2380.72652	9955.45
2383.54009	9929.05
2386.35187	9935.95
2389.16188	9891.95
2391.97011	9879.35
2394.77657	9884.45
2397.58125	9865.15
2400.38416	9848.05
2403.18529	9815.15
2405.98466	9799.85
2408.78226	9783.85
2411.57809	9747.15
2414.37216	9745.95
2417.16446	9745.35
2419.955	9738.05
2422.74378	9728.25
2425.5308	9724.25
2428.31606	9701.95
2431.09956	9714.85
2433.88131	9697.85
2436.6613	9731.75
2439.43954	9699.75
2442.21603	9693.15
2444.99077	9670.35
2447.76377	9713.95
2450.53501	9682.05
2453.30451	9694.55
2456.07226	9691.05
2458.83827	9656.75
2461.60254	9668.15
2464.36507	9691.05
2467.12586	9678.65
2469.88492	9659.15
2472.64224	9711.35
2475.39782	9674.65
2478.15167	9709.25
2480.90379	9683.95
2483.65417	9695.65
2486.40283	9705.15
2489.14976	9705.85
2491.89497	9716.55
2494.63845	9713.45
2497.3802	9685.05
2500.12024	9676.65
2502.85855	9694.45
2505.59514	9677.95
2508.33002	9675.25
2511.06318	9652.45
2513.79462	9664.75
2516.52435	9641.65
2519.25237	9652.05
2521.97867	9623.75
2524.70327	9650.25
2527.42616	9608.85
2530.14734	9601.15
2532.86681	9608.35
2535.58458	9615.65
2538.30065	9590.65
2541.01501	9615.75
2543.72768	9586.95
2546.43864	9567.25
2549.14791	9578.25
2551.85548	9574.05
2554.56136	9543.65
2557.26554	9572.75
2559.96803	9517.45
2562.66883	9568.75
2565.36794	9545.05
2568.06536	9530.25
2570.7611	9484.65
2573.45514	9496.05
2576.14751	9478.65
2578.83819	9482.15
2581.52719	9497.35
2584.21451	9497.45
2586.90015	9466.15
2589.58411	9446.15
2592.2664	9476.35
2594.94701	9448.35
2597.62594	9428.95
2600.30321	9425.55
2602.9788	9452.55
2605.65273	9418.85
2608.32498	9449.65
2610.99557	9413.15
2613.66449	9438.35
2616.33175	9408.25
2618.99734	9427.85
2621.66128	9418.45
2624.32355	9417.95
2626.98416	9416.35
2629.64311	9425.45
2632.30041	9410.65
2634.95605	9394.75
2637.61004	9364.25
2640.26238	9363.05
2642.91306	9372.85
2645.56209	9359.65
2648.20948	9352.25
2650.85521	9345.85
2653.4993	9354.55
2656.14175	9347.35
2658.78255	9360.05
2661.42171	9369.95
2664.05923	9381.05
2666.6951	9381.85
2669.32934	9386.15
2671.96194	9381.55
2674.59291	9363.25
2677.22224	9376.75
2679.84993	9386.75
2682.476	9347.55
2685.10043	9358.25
2687.72324	9329.85
2690.34441	9335.95
2692.96396	9341.05
2695.58188	9322.55
2698.19818	9320.35
2700.81285	9335.05
2703.4259	9320.95
2706.03733	9308.95
2708.64714	9299.85
2711.25533	9323.65
2713.86191	9333.05
2716.46687	9335.55
2719.07021	9343.45
2721.67194	9361.15
2724.27206	9358.25
2726.87057	9362.45
2729.46747	9382.05
2732.06276	9371.25
2734.65644	9357.15
2737.24852	9359.15
2739.83899	9362.75
2742.42786	9351.05
2745.01513	9333.85
2747.60079	9338.25
2750.18486	9335.45
2752.76733	9301.25
2755.3482	9295.45
2757.92747	9329.25
2760.50515	9286.75
2763.08123	9284.75
2765.65573	9301.95
2768.22863	9286.55
2770.79994	9267.15
2773.36967	9292.95
2775.9378	9299.25
2778.50435	9296.35
2781.06932	9278.55
2783.6327	9278.45
2786.1945	9275.15
2788.75471	9266.15
2791.31335	9236.85
2793.87041	9229.95
2796.42589	9224.05
2798.97979	9205.05
2801.53212	9199.45
2804.08288	9171.35
2806.63206	9150.95
2809.17967	9123.55
2811.72571	9131.55
2814.27018	9111.55
2816.81308	9103.05
2819.35442	9083.95
2821.89419	9078.55
2824.43239	9089.15
2826.96904	9080.55
2829.50412	9059.45
2832.03763	9052.95
2834.56959	9060.75
2837.1	9048.25
2839.62884	9046.85
2842.15613	9062.95
2844.68186	9060.95
2847.20604	9077.55
2849.72867	9075.95
2852.24974	9093.65
2854.76927	9083.15
2857.28724	9064.15
2859.80367	9041.55
2862.31855	9044.85
2864.83189	9017.55
2867.34368	9026.55
2869.85393	9035.05
2872.36264	8995.45
2874.8698	9016.25
2877.37543	9025.25
2879.87952	9019.15
2882.38207	9008.95
2884.88308	9002.75
2887.38256	9014.85
2889.88051	9012.35
2892.37692	8986.95
2894.8718	9000.95
2897.36515	9021.95
2899.85698	9018.95
2902.34727	9057.35
2904.83604	9066.85
2907.32328	9078.35
2909.809	9077.55
2912.29319	9101.45
2914.77587	9085.85
2917.25702	9091.05
2919.73665	9079.05
2922.21476	9057.15
2924.69136	9062.85
2927.16644	9060.55
2929.64	9047.15
2932.11205	9032.65
2934.58258	8997.55
2937.05161	9017.35
2939.51912	9034.35
2941.98513	8972.75
2944.44962	8968.35
2946.91261	8940.55
2949.37409	8929.15
2951.83407	8939.25
2954.29254	8939.55
2956.74951	8924.65
2959.20498	8932.55
2961.65895	8912.85
2964.11142	8931.25
2966.56239	8913.45
2969.01186	8878.35
2971.45984	8858.75
2973.90632	8858.05
2976.35131	8845.75
2978.7948	8827.65
2981.23681	8813.45
2983.67732	8786.85
2986.11635	8777.55
2988.55388	8741.85
2990.98993	8744.35
2993.4245	8704.75
2995.85758	8691.95
2998.28917	8698.65
3000.71928	8667.35
3003.14791	8650.35
3005.57506	8650.15
3008.00073	8634.25
3010.42493	8617.85
3012.84764	8626.15
3015.26888	8613.45
3017.68865	8592.55
3020.10694	8582.25
3022.52376	8581.15
3024.9391	8571.95
3027.35298	8575.65
3029.76539	8553.05
3032.17632	8533.55
3034.5858	8526.65
3036.9938	8531.25
3039.40034	8541.95
3041.80542	8537.15
3044.20903	8507.65
3046.61118	8498.45
3049.01187	8482.35
3051.4111	8482.95
3053.80888	8476.65
3056.20519	8474.95
3058.60005	8444.25
3060.99345	8421.75
3063.3854	8424.85
3065.7759	8385.55
3068.16494	8380.65
3070.55254	8382.55
3072.93868	8367.55
3075.32338	8335.45
3077.70662	8327.45
3080.08842	8310.35
3082.46878	8314.05
3084.84769	8290.45
3087.22515	8293.35
3089.60118	8273.75
3091.97576	8276.65
3094.3489	8280.75
3096.72061	8284.15
3099.09087	8296.75
3101.4597	8286.55
3103.82709	8278.85
3106.19305	8281.15
3108.55757	8284.45
3110.92066	8254.25
3113.28232	8255.15
3115.64255	8245.15
3118.00134	8221.55
3120.35871	8220.45
3122.71466	8207.45
3125.06917	8196.55
3127.42226	8188.25
3129.77393	8169.55
3132.12417	8175.85
3134.47299	8151.45
3136.82039	8177.25
3139.16636	8171.35
3141.51092	8197.35
3143.85406	8201.75
3146.19579	8200.45
3148.53609	8212.75
3150.87499	8205.25
3153.21246	8203.75
3155.54853	8221.15
3157.88318	8194.45
3160.21642	8222.75
3162.54826	8202.65
3164.87868	8207.55
3167.2077	8208.95
3169.5353	8232.95
3171.86151	8244.85
3174.18631	8228.15
3176.5097	8225.55
3178.83169	8201.15
3181.15228	8212.25
3183.47147	8206.35
3185.78926	8197.05
3188.10565	8187.85
3190.42065	8187.15
3192.73424	8183.85
3195.04645	8186.25
3197.35725	8188.35
3199.66667	8179.55
3201.97469	8194.95
3204.28132	8193.35
3206.58656	8199.15
3208.8904	8207.95
3211.19287	8227.35
3213.49394	8218.05
3215.79363	8226.15
3218.09193	8238.25
3220.38884	8234.55
3222.68438	8222.75
3224.97853	8223.05
3227.2713	8224.35
3229.56269	8210.95
3231.8527	8223.55
3234.14133	8209.45
3236.42858	8175.15
3238.71446	8158.45
3240.99896	8160.45
3243.28209	8180.15
3245.56384	8148.85
3247.84423	8151.65
3250.12324	8154.35
3252.40088	8143.65
3254.67715	8147.45
3256.95205	8141.15
3259.22558	8141.45
3261.49775	8120.75
3263.76855	8101.25
3266.03799	8109.65
3268.30606	8099.25
3270.57277	8094.55
3272.83812	8056.35
3275.10211	8043.45
3277.36474	8024.75
3279.62601	8044.65
3281.88593	8011.45
3284.14448	8024.95
3286.40168	8049.35
3288.65753	8054.15
3290.91202	8038.15
3293.16516	7982.85
3295.41695	8002.35
3297.66738	7951.45
3299.91647	7907.95
3302.16421	7841.55
3304.4106	7831.75
3306.65564	7782.45
3308.89933	7748.75
3311.14169	7703.55
3313.38269	7654.35
3315.62236	7611.05
3317.86068	7548.15
3320.09766	7483.75
3322.3333	7456.75
3324.5676	7437.65
3326.80056	7308.75
3329.03219	7269.85
3331.26248	3.15
3333.49143	0.15
3335.71905	-0.55
