Data from AgNPs_FTO_APTES_UA_1uM_CRN_5uM_R6G_10uM_NaF_0.1M_Addition_RamanShift__18__13-57-09-598.txt Node

Date: Thu Jan 27 13:57:09 GMT 2022
User: TCL
Spectrometer: QEP01345
Trigger mode: 4
Integration Time (sec): 7.000000E0
Scans to average: 10
Electric dark correction enabled: true
Nonlinearity correction enabled: false
Boxcar width: 0
XAxis mode: Raman Shifts
Number of Pixels in Spectrum: 1044
>>>>>Begin Spectral Data<<<<<
46.04893	1.15
50.45542	-0.25
54.85868	-0.95
59.25871	-1.35
63.6555	49.05
68.04907	51.65
72.43941	55.25
76.82654	54.65
81.21044	58.45
85.59113	59.95
89.96862	62.85
94.34289	65.35
98.71396	69.75
103.08183	68.95
107.4465	73.65
111.80798	75.25
116.16626	75.45
120.52136	80.25
124.87327	77.85
129.222	81.65
133.56755	84.35
137.90993	89.65
142.24913	96.55
146.58517	104.65
150.91804	125.65
155.24774	145.75
159.57429	172.55
163.89768	217.55
168.21792	286.75
172.53501	383.75
176.84895	531.45
181.15975	747.55
185.46741	1029.45
189.77193	1430.05
194.07331	1898.75
198.37157	2460.45
202.6667	3023.35
206.9587	3585.25
211.24758	4147.95
215.53334	4699.75
219.81599	5324.15
224.09553	5965.95
228.37195	6706.75
232.64527	7494.75
236.91549	8375.25
241.18261	9245.05
245.44663	10000.15
249.70755	10711.35
253.96539	11328.85
258.22014	11863.85
262.4718	12322.85
266.72039	12617.35
270.96589	12802.75
275.20832	12848.65
279.44768	12777.15
283.68397	12685.05
287.91719	12585.95
292.14735	12539.65
296.37445	12563.95
300.59849	12633.05
304.81948	12712.95
309.03742	12712.75
313.25231	12573.55
317.46415	12243.55
321.67296	11855.85
325.87872	11545.15
330.08145	11380.65
334.28114	11331.85
338.47781	11390.75
342.67145	11548.65
346.86207	11752.35
351.04966	11997.85
355.23424	12287.85
359.4158	12470.75
363.59435	12641.55
367.76989	12759.85
371.94243	12857.35
376.11196	12942.15
380.27849	12972.35
384.44203	13043.15
388.60257	13175.75
392.76012	13283.55
396.91468	13423.05
401.06626	13621.55
405.21485	13775.25
409.36047	13689.95
413.50311	13471.85
417.64277	13278.25
421.77947	13250.55
425.9132	13257.45
430.04396	13333.95
434.17176	13426.35
438.2966	13518.15
442.41849	13698.75
446.53742	14026.65
450.6534	14396.75
454.76644	14721.05
458.87653	14827.85
462.98368	14806.85
467.08789	14650.05
471.18916	14459.05
475.2875	14247.25
479.38291	14118.55
483.4754	14035.65
487.56496	13921.35
491.6516	13684.15
495.73531	13531.35
499.81612	13475.75
503.89401	13553.85
507.96899	13632.85
512.04106	13592.55
516.11023	13529.75
520.1765	13427.25
524.23987	13293.25
528.30034	13186.65
532.35792	13044.65
536.41261	12857.65
540.46441	12714.85
544.51333	12732.65
548.55936	12894.25
552.60252	13171.25
556.64279	13468.85
560.6802	13634.65
564.71473	13689.35
568.7464	13863.05
572.7752	14128.15
576.80114	14405.15
580.82422	14663.95
584.84444	14919.15
588.86181	15087.35
592.87633	15244.85
596.888	15324.95
600.89682	15325.85
604.9028	15811.05
608.90594	17220.35
612.90624	18761.95
616.90371	17768.45
620.89834	14902.15
624.89015	13659.95
628.87913	13565.95
632.86528	13587.55
636.84862	13423.65
640.82913	13181.55
644.80683	12818.25
648.78172	12539.95
652.75379	12467.85
656.72306	12634.25
660.68952	12821.65
664.65319	12772.75
668.61405	12550.25
672.57211	12437.05
676.52738	12442.25
680.47986	12412.75
684.42955	12380.95
688.37646	12316.25
692.32058	12362.65
696.26192	12496.55
700.20048	12644.35
704.13626	12738.65
708.06928	12704.55
711.99952	12586.15
715.927	12566.15
719.85171	12581.45
723.77365	12546.25
727.69284	12444.85
731.60928	12311.55
735.52295	12249.35
739.43388	12274.15
743.34206	12325.35
747.24749	12400.35
751.15017	12522.15
755.05012	12715.65
758.94733	13096.05
762.8418	13757.35
766.73354	14799.15
770.62254	15899.25
774.50882	16198.75
778.39237	15452.15
782.27321	14298.55
786.15132	13313.15
790.02671	12765.35
793.89938	12524.35
797.76935	12447.75
801.6366	12400.25
805.50115	12360.35
809.36299	12302.65
813.22213	12178.45
817.07857	12080.45
820.93231	12058.25
824.78336	12027.55
828.63172	12012.35
832.47738	12020.15
836.32036	12053.85
840.16066	12138.55
843.99827	12227.45
847.8332	12181.05
851.66546	12064.05
855.49504	12015.35
859.32195	12000.75
863.1462	11980.55
866.96777	11925.35
870.78668	11873.15
874.60293	11879.65
878.41652	11856.35
882.22745	11895.95
886.03573	11933.95
889.84136	11963.25
893.64433	11913.95
897.44466	11811.15
901.24235	11758.55
905.0374	11741.95
908.8298	11704.25
912.61957	11724.95
916.40671	11882.15
920.19121	12049.55
923.97308	12237.95
927.75233	12298.75
931.52895	12275.35
935.30295	12152.15
939.07433	11924.25
942.84309	11692.25
946.60924	11611.15
950.37278	11591.25
954.13371	11537.85
957.89203	11454.55
961.64774	11396.45
965.40086	11378.05
969.15137	11325.25
972.89929	11248.05
976.64461	11238.35
980.38733	11239.25
984.12747	11316.15
987.86502	11414.95
991.59999	11642.85
995.33237	11931.15
999.06217	12399.65
1002.78939	12894.05
1006.51404	13139.05
1010.23611	13210.35
1013.95561	13279.55
1017.67255	13262.45
1021.38692	13131.95
1025.09872	13031.85
1028.80796	13188.15
1032.51465	13805.45
1036.21877	14377.65
1039.92035	14428.25
1043.61937	14136.35
1047.31584	13611.35
1051.00976	13082.35
1054.70114	12831.85
1058.38998	12779.75
1062.07627	12819.55
1065.76003	12827.65
1069.44126	12864.95
1073.11995	13038.05
1076.79611	13190.85
1080.46974	13285.65
1084.14085	13372.45
1087.80943	13501.25
1091.47549	13631.35
1095.13903	13616.95
1098.80005	13448.05
1102.45857	13151.15
1106.11456	12919.05
1109.76805	12868.35
1113.41903	12889.35
1117.06751	12985.75
1120.71348	13092.85
1124.35696	13262.15
1127.99793	13396.25
1131.63641	13519.55
1135.2724	13436.75
1138.90589	13298.15
1142.5369	13235.25
1146.16542	13213.75
1149.79145	13230.35
1153.415	13308.65
1157.03607	13449.85
1160.65467	13767.65
1164.27079	14305.55
1167.88443	15090.75
1171.49561	16109.95
1175.10432	17406.05
1178.71056	18978.95
1182.31434	20523.85
1185.91565	21388.15
1189.51451	21446.75
1193.11091	20706.15
1196.70485	19675.25
1200.29634	18714.85
1203.88538	17967.05
1207.47197	17430.55
1211.05612	17055.75
1214.63782	16743.65
1218.21708	16547.75
1221.79391	16401.75
1225.36829	16344.05
1228.94024	16210.55
1232.50976	15863.05
1236.07685	15596.85
1239.6415	15426.45
1243.20374	15364.45
1246.76355	15471.65
1250.32093	15678.65
1253.8759	16064.95
1257.42845	16529.35
1260.97859	17060.55
1264.52631	17527.15
1268.07163	18073.75
1271.61453	18652.15
1275.15503	19298.95
1278.69312	19996.15
1282.22882	20543.25
1285.76211	20957.55
1289.29301	21351.65
1292.82151	21891.95
1296.34761	22782.35
1299.87133	24029.65
1303.39266	25648.95
1306.9116	27485.85
1310.42815	29304.45
1313.94233	30420.15
1317.45412	30351.65
1320.96354	29578.85
1324.47058	28648.95
1327.97525	27839.95
1331.47754	27239.55
1334.97747	26889.15
1338.47502	26710.15
1341.97022	26548.75
1345.46305	26393.05
1348.95352	25994.55
1352.44163	25806.45
1355.92738	26183.85
1359.41078	27363.95
1362.89183	28580.65
1366.37053	28169.05
1369.84688	25894.05
1373.32088	23090.95
1376.79254	21097.55
1380.26186	20198.75
1383.72883	20072.65
1387.19347	19992.75
1390.65578	19818.85
1394.11575	19664.75
1397.57339	19803.55
1401.0287	20225.75
1404.48168	20580.75
1407.93234	20631.75
1411.38068	20436.25
1414.82669	19899.35
1418.27039	19154.05
1421.71177	18410.75
1425.15083	17761.25
1428.58758	17395.75
1432.02203	17416.05
1435.45416	17741.65
1438.88399	18243.65
1442.31151	18677.05
1445.73673	18970.55
1449.15965	19246.25
1452.58027	19420.55
1455.9986	19487.45
1459.41463	19619.75
1462.82837	19901.55
1466.23982	20329.15
1469.64898	20774.45
1473.05586	21053.25
1476.46045	21078.15
1479.86276	20932.35
1483.26279	20668.65
1486.66054	20404.55
1490.05602	20342.65
1493.44922	20431.45
1496.84016	20635.05
1500.22882	20990.35
1503.61521	21656.45
1506.99934	22581.25
1510.38121	23392.35
1513.76081	23678.85
1517.13816	23137.05
1520.51324	22206.75
1523.88607	21253.65
1527.25665	20611.55
1530.62498	20337.15
1533.99105	20189.45
1537.35488	20061.85
1540.71647	19887.35
1544.07581	19580.35
1547.4329	19331.05
1550.78776	18977.45
1554.14038	18785.35
1557.49077	18653.15
1560.83892	18550.35
1564.18484	18521.25
1567.52853	18554.05
1570.86999	18690.45
1574.20922	18893.35
1577.54624	19117.05
1580.88103	19097.85
1584.2136	19110.85
1587.54395	19527.35
1590.87208	20471.75
1594.19801	21859.05
1597.52172	23308.25
1600.84321	23864.85
1604.16251	22908.95
1607.47959	21080.65
1610.79447	19203.15
1614.10715	17468.25
1617.41763	16112.85
1620.7259	15173.05
1624.03199	14676.75
1627.33587	14637.15
1630.63757	15052.05
1633.93707	15995.15
1637.23439	17478.35
1640.52951	19431.05
1643.82246	21568.85
1647.11321	23140.35
1650.40179	23418.65
1653.68819	21878.15
1656.97241	19236.45
1660.25446	16523.45
1663.53433	14493.55
1666.81203	13222.65
1670.08756	12376.45
1673.36092	11885.35
1676.63211	11570.55
1679.90115	11320.65
1683.16801	11138.75
1686.43272	10992.05
1689.69527	10874.35
1692.95567	10789.35
1696.2139	10707.55
1699.46999	10641.55
1702.72392	10586.55
1705.97571	10602.65
1709.22535	10608.05
1712.47284	10628.65
1715.71819	10597.95
1718.96139	10579.75
1722.20246	10559.75
1725.44139	10506.85
1728.67818	10463.95
1731.91284	10380.25
1735.14537	10331.75
1738.37576	10288.15
1741.60403	10235.35
1744.83017	10209.15
1748.05418	10171.15
1751.27607	10164.65
1754.49584	10135.65
1757.71349	10087.55
1760.92903	10064.75
1764.14244	10058.65
1767.35375	10052.45
1770.56294	10063.85
1773.77002	10025.85
1776.97499	10033.15
1780.17785	10032.45
1783.37861	10012.75
1786.57727	10031.15
1789.77382	10017.95
1792.96828	9991.05
1796.16064	9975.85
1799.3509	9946.15
1802.53907	9964.95
1805.72514	9913.55
1808.90913	9898.25
1812.09102	9894.25
1815.27083	9847.55
1818.44856	9841.45
1821.6242	9818.95
1824.79776	9811.25
1827.96924	9817.35
1831.13864	9815.15
1834.30597	9785.25
1837.47122	9825.25
1840.6344	9816.75
1843.7955	9813.95
1846.95454	9822.55
1850.11151	9812.95
1853.26642	9828.45
1856.41926	9823.75
1859.57004	9864.05
1862.71876	9834.05
1865.86542	9841.75
1869.01003	9829.75
1872.15258	9809.55
1875.29308	9800.45
1878.43152	9789.45
1881.56792	9810.55
1884.70227	9796.05
1887.83457	9794.85
1890.96482	9770.85
1894.09304	9774.95
1897.21921	9770.95
1900.34335	9782.55
1903.46544	9750.85
1906.58551	9768.25
1909.70353	9752.85
1912.81953	9730.95
1915.93349	9715.25
1919.04543	9689.95
1922.15534	9673.85
1925.26322	9642.65
1928.36908	9633.85
1931.47292	9592.65
1934.57473	9559.25
1937.67453	9538.25
1940.77232	9503.35
1943.86808	9463.65
1946.96184	9425.35
1950.05358	9381.05
1953.14331	9357.15
1956.23103	9337.95
1959.31675	9313.85
1962.40046	9282.55
1965.48217	9253.45
1968.56188	9251.45
1971.63959	9223.35
1974.7153	9186.85
1977.78901	9163.05
1980.86073	9130.35
1983.93046	9108.35
1986.99819	9081.25
1990.06394	9063.05
1993.1277	9022.25
1996.18947	8981.95
1999.24925	8967.65
2002.30706	8931.35
2005.36288	8906.55
2008.41672	8876.65
2011.46859	8870.35
2014.51848	8842.25
2017.56639	8842.55
2020.61233	8833.85
2023.6563	8798.35
2026.6983	8772.85
2029.73833	8747.25
2032.7764	8755.55
2035.8125	8769.65
2038.84664	8726.85
2041.87881	8734.05
2044.90903	8711.75
2047.93729	8690.25
2050.96359	8676.85
2053.98794	8687.45
2057.01034	8668.75
2060.03078	8665.65
2063.04927	8659.15
2066.06582	8683.65
2069.08042	8669.85
2072.09307	8657.95
2075.10378	8645.05
2078.11255	8645.95
2081.11938	8647.05
2084.12426	8615.45
2087.12722	8603.15
2090.12824	8607.85
2093.12732	8626.95
2096.12447	8610.75
2099.11969	8622.55
2102.11299	8637.45
2105.10435	8613.55
2108.09379	8621.45
2111.08131	8628.85
2114.0669	8641.35
2117.05057	8634.05
2120.03233	8641.25
2123.01216	8652.05
2125.99008	8665.75
2128.96609	8664.95
2131.94018	8690.55
2134.91236	8689.75
2137.88263	8692.85
2140.851	8679.25
2143.81746	8698.05
2146.78201	8720.45
2149.74466	8710.85
2152.7054	8695.65
2155.66425	8703.35
2158.6212	8704.75
2161.57625	8687.05
2164.52941	8697.95
2167.48067	8693.15
2170.43004	8685.35
2173.37752	8723.55
2176.32311	8708.55
2179.26681	8696.25
2182.20863	8719.55
2185.14856	8695.15
2188.08661	8713.95
2191.02278	8721.15
2193.95707	8707.05
2196.88948	8710.05
2199.82001	8727.75
2202.74867	8716.65
2205.67545	8725.85
2208.60037	8685.75
2211.52341	8703.65
2214.44458	8700.05
2217.36388	8669.95
2220.28132	8670.65
2223.1969	8667.25
2226.11061	8665.35
2229.02246	8628.85
2231.93245	8615.25
2234.84058	8594.95
2237.74686	8578.65
2240.65128	8555.75
2243.55385	8572.85
2246.45456	8537.45
2249.35343	8520.35
2252.25044	8505.95
2255.14561	8478.45
2258.03893	8498.45
2260.93041	8457.05
2263.82004	8482.15
2266.70783	8456.45
2269.59378	8424.35
2272.4779	8400.05
2275.36017	8394.55
2278.24061	8383.35
2281.11922	8367.15
2283.996	8353.85
2286.87094	8338.85
2289.74405	8337.35
2292.61534	8327.95
2295.4848	8335.05
2298.35243	8342.45
2301.21824	8349.55
2304.08223	8362.75
2306.94439	8366.25
2309.80474	8363.95
2312.66327	8350.65
2315.51999	8376.45
2318.37489	8381.65
2321.22797	8373.65
2324.07925	8388.95
2326.92871	8338.85
2329.77637	8353.45
2332.62222	8348.55
2335.46626	8336.95
2338.3085	8324.55
2341.14893	8339.75
2343.98756	8368.75
2346.8244	8365.35
2349.65943	8365.95
2352.49267	8383.05
2355.32411	8369.75
2358.15376	8357.55
2360.98161	8348.65
2363.80768	8350.75
2366.63195	8342.65
2369.45444	8311.75
2372.27514	8297.75
2375.09405	8289.75
2377.91118	8270.75
2380.72652	8249.15
2383.54009	8210.35
2386.35187	8208.35
2389.16188	8187.05
2391.97011	8190.25
2394.77657	8147.95
2397.58125	8164.15
2400.38416	8155.35
2403.18529	8151.45
2405.98466	8144.25
2408.78226	8112.75
2411.57809	8104.95
2414.37216	8068.15
2417.16446	8069.95
2419.955	8051.45
2422.74378	8070.75
2425.5308	8055.95
2428.31606	8050.95
2431.09956	8039.95
2433.88131	8027.65
2436.6613	8042.45
2439.43954	8062.65
2442.21603	8040.25
2444.99077	8032.95
2447.76377	8034.65
2450.53501	8032.75
2453.30451	8052.75
2456.07226	8027.15
2458.83827	8026.15
2461.60254	8024.55
2464.36507	8030.45
2467.12586	8011.55
2469.88492	8027.85
2472.64224	8029.75
2475.39782	8041.65
2478.15167	8028.85
2480.90379	8052.15
2483.65417	8080.15
2486.40283	8043.35
2489.14976	8067.85
2491.89497	8089.85
2494.63845	8095.25
2497.3802	8064.25
2500.12024	8088.25
2502.85855	8066.35
2505.59514	8067.45
2508.33002	8069.85
2511.06318	8056.55
2513.79462	8043.35
2516.52435	8006.55
2519.25237	8008.45
2521.97867	8008.15
2524.70327	8013.65
2527.42616	8004.15
2530.14734	7990.85
2532.86681	8018.75
2535.58458	8022.05
2538.30065	8009.55
2541.01501	8002.75
2543.72768	8011.05
2546.43864	7996.65
2549.14791	7997.25
2551.85548	7990.75
2554.56136	7977.15
2557.26554	7954.45
2559.96803	7948.65
2562.66883	7951.25
2565.36794	7960.75
2568.06536	7936.15
2570.7611	7965.15
2573.45514	7947.35
2576.14751	7924.45
2578.83819	7922.95
2581.52719	7932.85
2584.21451	7930.75
2586.90015	7933.25
2589.58411	7918.75
2592.2664	7941.95
2594.94701	7926.45
2597.62594	7920.05
2600.30321	7915.65
2602.9788	7905.85
2605.65273	7907.05
2608.32498	7913.55
2610.99557	7905.15
2613.66449	7905.15
2616.33175	7908.75
2618.99734	7918.95
2621.66128	7921.85
2624.32355	7918.95
2626.98416	7927.05
2629.64311	7917.65
2632.30041	7934.55
2634.95605	7921.45
2637.61004	7929.15
2640.26238	7888.55
2642.91306	7900.85
2645.56209	7883.85
2648.20948	7877.55
2650.85521	7876.55
2653.4993	7875.15
2656.14175	7859.35
2658.78255	7884.65
2661.42171	7861.45
2664.05923	7895.45
2666.6951	7887.85
2669.32934	7880.45
2671.96194	7898.95
2674.59291	7901.55
2677.22224	7906.35
2679.84993	7885.65
2682.476	7874.25
2685.10043	7865.85
2687.72324	7851.05
2690.34441	7830.35
2692.96396	7829.55
2695.58188	7853.15
2698.19818	7838.25
2700.81285	7830.15
2703.4259	7846.45
2706.03733	7817.75
2708.64714	7825.05
2711.25533	7855.15
2713.86191	7857.25
2716.46687	7869.05
2719.07021	7849.45
2721.67194	7882.05
2724.27206	7889.55
2726.87057	7902.75
2729.46747	7900.85
2732.06276	7878.95
2734.65644	7884.45
2737.24852	7869.75
2739.83899	7895.05
2742.42786	7877.25
2745.01513	7867.45
2747.60079	7881.95
2750.18486	7873.95
2752.76733	7850.95
2755.3482	7834.15
2757.92747	7857.95
2760.50515	7843.45
2763.08123	7838.85
2765.65573	7844.25
2768.22863	7854.75
2770.79994	7839.75
2773.36967	7823.45
2775.9378	7868.85
2778.50435	7851.65
2781.06932	7833.95
2783.6327	7831.55
2786.1945	7830.85
2788.75471	7816.55
2791.31335	7814.75
2793.87041	7824.35
2796.42589	7779.05
2798.97979	7788.65
2801.53212	7780.05
2804.08288	7770.65
2806.63206	7751.55
2809.17967	7725.35
2811.72571	7710.35
2814.27018	7693.45
2816.81308	7714.95
2819.35442	7710.15
2821.89419	7700.85
2824.43239	7705.35
2826.96904	7712.45
2829.50412	7691.95
2832.03763	7659.55
2834.56959	7675.35
2837.1	7657.35
2839.62884	7660.95
2842.15613	7676.25
2844.68186	7686.05
2847.20604	7684.25
2849.72867	7708.35
2852.24974	7693.75
2854.76927	7685.25
2857.28724	7677.65
2859.80367	7676.55
2862.31855	7665.25
2864.83189	7659.15
2867.34368	7628.65
2869.85393	7649.25
2872.36264	7652.85
2874.8698	7628.55
2877.37543	7640.35
2879.87952	7651.55
2882.38207	7639.75
2884.88308	7638.85
2887.38256	7631.65
2889.88051	7640.65
2892.37692	7629.85
2894.8718	7659.05
2897.36515	7671.15
2899.85698	7667.45
2902.34727	7679.75
2904.83604	7691.55
2907.32328	7718.85
2909.809	7714.05
2912.29319	7731.95
2914.77587	7728.05
2917.25702	7725.95
2919.73665	7695.05
2922.21476	7725.85
2924.69136	7704.35
2927.16644	7725.95
2929.64	7697.25
2932.11205	7695.45
2934.58258	7658.75
2937.05161	7684.95
2939.51912	7648.25
2941.98513	7630.95
2944.44962	7612.15
2946.91261	7593.45
2949.37409	7603.15
2951.83407	7607.65
2954.29254	7584.05
2956.74951	7567.55
2959.20498	7589.05
2961.65895	7567.55
2964.11142	7593.15
2966.56239	7554.65
2969.01186	7560.65
2971.45984	7524.85
2973.90632	7530.05
2976.35131	7504.05
2978.7948	7487.05
2981.23681	7485.75
2983.67732	7482.85
2986.11635	7448.65
2988.55388	7432.05
2990.98993	7411.75
2993.4245	7418.65
2995.85758	7398.25
2998.28917	7380.35
3000.71928	7349.85
3003.14791	7354.85
3005.57506	7334.85
3008.00073	7331.95
3010.42493	7343.35
3012.84764	7330.25
3015.26888	7337.55
3017.68865	7320.85
3020.10694	7288.95
3022.52376	7284.75
3024.9391	7275.55
3027.35298	7272.25
3029.76539	7282.95
3032.17632	7270.85
3034.5858	7254.15
3036.9938	7264.45
3039.40034	7274.05
3041.80542	7254.15
3044.20903	7250.95
3046.61118	7234.55
3049.01187	7234.15
3051.4111	7223.25
3053.80888	7234.95
3056.20519	7208.95
3058.60005	7171.55
3060.99345	7174.45
3063.3854	7165.35
3065.7759	7134.95
3068.16494	7131.75
3070.55254	7126.25
3072.93868	7130.75
3075.32338	7101.25
3077.70662	7083.45
3080.08842	7075.55
3082.46878	7075.25
3084.84769	7062.85
3087.22515	7075.85
3089.60118	7074.15
3091.97576	7051.55
3094.3489	7044.75
3096.72061	7070.25
3099.09087	7055.65
3101.4597	7054.55
3103.82709	7078.55
3106.19305	7068.65
3108.55757	7057.85
3110.92066	7050.95
3113.28232	7038.95
3115.64255	7023.35
3118.00134	7037.05
3120.35871	7012.95
3122.71466	7008.75
3125.06917	6994.15
3127.42226	6989.35
3129.77393	6988.65
3132.12417	6954.25
3134.47299	6984.55
3136.82039	6974.45
3139.16636	6986.55
3141.51092	6984.85
3143.85406	7004.95
3146.19579	6989.25
3148.53609	7000.45
3150.87499	7010.25
3153.21246	7033.25
3155.54853	7021.95
3157.88318	7010.65
3160.21642	7023.05
3162.54826	7035.85
3164.87868	7023.55
3167.2077	7037.65
3169.5353	7040.25
3171.86151	7034.85
3174.18631	7039.55
3176.5097	7034.85
3178.83169	7035.65
3181.15228	7038.45
3183.47147	7011.65
3185.78926	7027.45
3188.10565	7010.25
3190.42065	7003.95
3192.73424	7013.15
3195.04645	7012.65
3197.35725	7043.85
3199.66667	7029.05
3201.97469	7041.15
3204.28132	7026.15
3206.58656	7048.05
3208.8904	7042.55
3211.19287	7056.05
3213.49394	7057.85
3215.79363	7065.35
3218.09193	7063.65
3220.38884	7054.55
3222.68438	7090.35
3224.97853	7057.25
3227.2713	7055.55
3229.56269	7053.55
3231.8527	7053.55
3234.14133	7041.55
3236.42858	7023.25
3238.71446	7027.05
3240.99896	7021.15
3243.28209	7034.25
3245.56384	7002.95
3247.84423	7015.55
3250.12324	7003.95
3252.40088	6997.95
3254.67715	7006.05
3256.95205	7006.85
3259.22558	7001.05
3261.49775	6998.75
3263.76855	6984.95
3266.03799	6975.35
3268.30606	6952.85
3270.57277	6966.15
3272.83812	6958.55
3275.10211	6939.45
3277.36474	6923.65
3279.62601	6922.05
3281.88593	6922.25
3284.14448	6928.55
3286.40168	6934.65
3288.65753	6933.15
3290.91202	6945.25
3293.16516	6898.15
3295.41695	6882.15
3297.66738	6847.35
3299.91647	6808.05
3302.16421	6761.55
3304.4106	6777.55
3306.65564	6722.25
3308.89933	6707.65
3311.14169	6641.35
3313.38269	6607.05
3315.62236	6555.65
3317.86068	6498.25
3320.09766	6454.65
3322.3333	6435.55
3324.5676	6404.45
3326.80056	6308.45
3329.03219	6261.45
3331.26248	2.75
3333.49143	-0.25
3335.71905	-0.75
