Data from AgNPs_FTO_APTES_UA_1uM_CRN_1000uM_R6G_10uM_NaF_0.1M_Addition_RamanShift__27__19-05-09-942.txt Node

Date: Thu Jan 27 19:05:09 GMT 2022
User: TCL
Spectrometer: QEP01345
Trigger mode: 4
Integration Time (sec): 7.000000E0
Scans to average: 10
Electric dark correction enabled: true
Nonlinearity correction enabled: false
Boxcar width: 0
XAxis mode: Raman Shifts
Number of Pixels in Spectrum: 1044
>>>>>Begin Spectral Data<<<<<
46.04893	-0.35
50.45542	1.35
54.85868	-0.25
59.25871	-1.85
63.6555	52.25
68.04907	54.15
72.43941	58.55
76.82654	63.55
81.21044	63.55
85.59113	65.05
89.96862	65.85
94.34289	68.65
98.71396	74.45
103.08183	73.85
107.4465	75.35
111.80798	80.85
116.16626	78.35
120.52136	87.05
124.87327	91.35
129.222	84.25
133.56755	93.95
137.90993	100.05
142.24913	108.75
146.58517	124.65
150.91804	147.05
155.24774	168.25
159.57429	205.65
163.89768	265.75
168.21792	346.85
172.53501	473.55
176.84895	659.65
181.15975	916.95
185.46741	1288.25
189.77193	1774.05
194.07331	2390.55
198.37157	3101.85
202.6667	3842.45
206.9587	4594.65
211.24758	5335.65
215.53334	6113.05
219.81599	6956.25
224.09553	7887.65
228.37195	8918.65
232.64527	10054.25
236.91549	11172.55
241.18261	12233.85
245.44663	13149.65
249.70755	13906.25
253.96539	14485.85
258.22014	15027.25
262.4718	15498.55
266.72039	15829.25
270.96589	16007.65
275.20832	15972.25
279.44768	15776.55
283.68397	15499.95
287.91719	15266.05
292.14735	15192.75
296.37445	15392.55
300.59849	15845.95
304.81948	16429.75
309.03742	16840.35
313.25231	16800.35
317.46415	16107.35
321.67296	15045.95
325.87872	14090.75
330.08145	13650.75
334.28114	13600.75
338.47781	13826.75
342.67145	14131.95
346.86207	14664.35
351.04966	15430.95
355.23424	16319.05
359.4158	17037.75
363.59435	17390.25
367.76989	17546.55
371.94243	17572.75
376.11196	17544.25
380.27849	17523.05
384.44203	17403.35
388.60257	17141.35
392.76012	16993.35
396.91468	17075.75
401.06626	17405.15
405.21485	17715.05
409.36047	17463.75
413.50311	16602.45
417.64277	15793.35
421.77947	15386.85
425.9132	15200.75
430.04396	15161.15
434.17176	15219.15
438.2966	15480.65
442.41849	15820.95
446.53742	16307.25
450.6534	16808.05
454.76644	17139.45
458.87653	17201.65
462.98368	17013.55
467.08789	16728.25
471.18916	16431.15
475.2875	16090.05
479.38291	15851.25
483.4754	15584.85
487.56496	15307.35
491.6516	15085.25
495.73531	14966.55
499.81612	14925.55
503.89401	15052.45
507.96899	15239.25
512.04106	15488.95
516.11023	15727.15
520.1765	15962.05
524.23987	15953.25
528.30034	15714.15
532.35792	15441.15
536.41261	15122.35
540.46441	14802.25
544.51333	14624.25
548.55936	14635.75
552.60252	14828.35
556.64279	15184.85
560.6802	15448.05
564.71473	15703.35
568.7464	16237.35
572.7752	16692.15
576.80114	16305.95
580.82422	15657.95
584.84444	15352.75
588.86181	15415.35
592.87633	15591.95
596.888	15848.65
600.89682	16195.85
604.9028	17623.55
608.90594	21771.65
612.90624	27688.25
616.90371	27241.25
620.89834	19579.05
624.89015	15725.75
628.87913	14924.15
632.86528	14908.05
636.84862	15074.95
640.82913	14944.15
644.80683	14432.45
648.78172	14043.45
652.75379	14027.85
656.72306	14470.65
660.68952	15113.55
664.65319	15068.25
668.61405	14458.55
672.57211	14115.85
676.52738	14157.75
680.47986	14200.85
684.42955	14116.75
688.37646	14007.75
692.32058	14006.55
696.26192	14103.85
700.20048	14283.25
704.13626	14387.75
708.06928	14292.15
711.99952	14104.45
715.927	14018.75
719.85171	13984.95
723.77365	14014.95
727.69284	13927.85
731.60928	13899.25
735.52295	13892.65
739.43388	13924.85
743.34206	13917.75
747.24749	13967.95
751.15017	13985.45
755.05012	14156.25
758.94733	14671.25
762.8418	15886.15
766.73354	18123.45
770.62254	20807.35
774.50882	22436.75
778.39237	21746.35
782.27321	19044.85
786.15132	16331.25
790.02671	14747.25
793.89938	14072.85
797.76935	13811.05
801.6366	13662.35
805.50115	13554.75
809.36299	13515.95
813.22213	13448.75
817.07857	13440.35
820.93231	13412.95
824.78336	13426.85
828.63172	13488.55
832.47738	13513.45
836.32036	13511.55
840.16066	13427.55
843.99827	13372.95
847.8332	13356.25
851.66546	13344.15
855.49504	13355.85
859.32195	13408.15
863.1462	13417.05
866.96777	13420.05
870.78668	13287.35
874.60293	13251.95
878.41652	13229.95
882.22745	13270.15
886.03573	13313.15
889.84136	13306.25
893.64433	13223.45
897.44466	13129.35
901.24235	13119.85
905.0374	13075.55
908.8298	12986.95
912.61957	12932.55
916.40671	12986.35
920.19121	13138.75
923.97308	13250.95
927.75233	13458.45
931.52895	13641.55
935.30295	13603.75
939.07433	13236.35
942.84309	12867.65
946.60924	12605.35
950.37278	12455.15
954.13371	12357.05
957.89203	12274.55
961.64774	12227.35
965.40086	12189.05
969.15137	12124.95
972.89929	12064.65
976.64461	12067.55
980.38733	12025.75
984.12747	12076.55
987.86502	12149.85
991.59999	12238.95
995.33237	12352.75
999.06217	12612.25
1002.78939	12906.45
1006.51404	13128.35
1010.23611	13286.05
1013.95561	13467.95
1017.67255	13429.15
1021.38692	13205.25
1025.09872	13039.35
1028.80796	12943.55
1032.51465	13017.45
1036.21877	13157.85
1039.92035	13242.75
1043.61937	13247.55
1047.31584	13142.55
1051.00976	13051.65
1054.70114	12979.75
1058.38998	12907.75
1062.07627	12958.55
1065.76003	13014.65
1069.44126	13051.95
1073.11995	13184.05
1076.79611	13371.75
1080.46974	13570.35
1084.14085	13794.65
1087.80943	14062.55
1091.47549	14182.35
1095.13903	13977.55
1098.80005	13541.05
1102.45857	13238.95
1106.11456	13111.95
1109.76805	13161.65
1113.41903	13443.95
1117.06751	13881.55
1120.71348	14421.35
1124.35696	14972.95
1127.99793	15526.65
1131.63641	15601.95
1135.2724	14906.55
1138.90589	14174.95
1142.5369	13730.65
1146.16542	13434.85
1149.79145	13241.65
1153.415	13158.95
1157.03607	13218.95
1160.65467	13454.45
1164.27079	13880.55
1167.88443	14569.35
1171.49561	15697.55
1175.10432	17476.35
1178.71056	19919.25
1182.31434	21800.65
1185.91565	22308.75
1189.51451	21666.75
1193.11091	20296.05
1196.70485	18683.15
1200.29634	17502.45
1203.88538	16672.25
1207.47197	15762.75
1211.05612	15044.05
1214.63782	14634.65
1218.21708	14552.65
1221.79391	14554.85
1225.36829	14535.55
1228.94024	14434.25
1232.50976	14282.45
1236.07685	14225.75
1239.6415	14179.05
1243.20374	14255.45
1246.76355	14323.05
1250.32093	14477.85
1253.8759	14760.45
1257.42845	15141.15
1260.97859	15591.45
1264.52631	16033.75
1268.07163	16522.35
1271.61453	16938.95
1275.15503	17264.25
1278.69312	17427.55
1282.22882	17501.15
1285.76211	17752.45
1289.29301	18253.25
1292.82151	18879.75
1296.34761	19630.85
1299.87133	20662.45
1303.39266	22238.25
1306.9116	24711.55
1310.42815	27582.35
1313.94233	29391.25
1317.45412	28978.35
1320.96354	27072.25
1324.47058	24761.15
1327.97525	22844.55
1331.47754	21542.55
1334.97747	21009.95
1338.47502	21095.05
1341.97022	21508.55
1345.46305	22079.25
1348.95352	23062.95
1352.44163	24646.05
1355.92738	27071.85
1359.41078	30903.25
1362.89183	34771.55
1366.37053	34440.45
1369.84688	29370.35
1373.32088	23921.45
1376.79254	20496.55
1380.26186	18784.75
1383.72883	18081.55
1387.19347	17606.95
1390.65578	17025.75
1394.11575	16565.35
1397.57339	16420.85
1401.0287	16578.45
1404.48168	16856.45
1407.93234	17111.05
1411.38068	17283.55
1414.82669	17208.15
1418.27039	16930.25
1421.71177	16532.95
1425.15083	16150.25
1428.58758	15901.05
1432.02203	15918.05
1435.45416	16121.45
1438.88399	16273.75
1442.31151	16266.95
1445.73673	16322.95
1449.15965	16489.35
1452.58027	16577.15
1455.9986	16425.75
1459.41463	16382.45
1462.82837	16523.25
1466.23982	16887.35
1469.64898	17287.55
1473.05586	17524.85
1476.46045	17655.35
1479.86276	17815.15
1483.26279	18007.15
1486.66054	18272.95
1490.05602	18673.95
1493.44922	19171.25
1496.84016	19937.15
1500.22882	21318.95
1503.61521	23572.55
1506.99934	26396.85
1510.38121	29341.15
1513.76081	30955.85
1517.13816	29640.75
1520.51324	26114.65
1523.88607	22355.35
1527.25665	19801.95
1530.62498	18391.75
1533.99105	17639.95
1537.35488	17244.25
1540.71647	16998.35
1544.07581	16895.05
1547.4329	16874.95
1550.78776	16805.85
1554.14038	16836.45
1557.49077	16959.65
1560.83892	17220.15
1564.18484	17624.95
1567.52853	18094.25
1570.86999	18560.55
1574.20922	18916.25
1577.54624	18913.25
1580.88103	18245.55
1584.2136	17141.05
1587.54395	16488.75
1590.87208	16612.55
1594.19801	17446.15
1597.52172	18766.45
1600.84321	19628.85
1604.16251	19235.15
1607.47959	17962.55
1610.79447	16465.85
1614.10715	15079.85
1617.41763	13946.95
1620.7259	13273.95
1624.03199	12932.25
1627.33587	12934.65
1630.63757	13208.85
1633.93707	13822.05
1637.23439	14781.85
1640.52951	16292.05
1643.82246	18364.25
1647.11321	20853.85
1650.40179	22659.75
1653.68819	22124.55
1656.97241	19274.75
1660.25446	15993.85
1663.53433	13704.15
1666.81203	12370.25
1670.08756	11626.45
1673.36092	11171.35
1676.63211	10879.95
1679.90115	10700.05
1683.16801	10527.45
1686.43272	10390.25
1689.69527	10293.05
1692.95567	10207.05
1696.2139	10148.25
1699.46999	10067.05
1702.72392	10032.65
1705.97571	10056.55
1709.22535	10084.75
1712.47284	10087.05
1715.71819	10103.65
1718.96139	10106.15
1722.20246	10093.25
1725.44139	10062.75
1728.67818	9992.55
1731.91284	9927.95
1735.14537	9834.35
1738.37576	9814.85
1741.60403	9787.35
1744.83017	9741.65
1748.05418	9740.15
1751.27607	9671.65
1754.49584	9630.45
1757.71349	9600.65
1760.92903	9570.55
1764.14244	9539.75
1767.35375	9491.75
1770.56294	9467.65
1773.77002	9417.25
1776.97499	9451.55
1780.17785	9429.65
1783.37861	9416.95
1786.57727	9422.35
1789.77382	9362.65
1792.96828	9385.25
1796.16064	9330.55
1799.3509	9334.85
1802.53907	9310.85
1805.72514	9286.85
1808.90913	9254.15
1812.09102	9223.45
1815.27083	9203.35
1818.44856	9196.05
1821.6242	9147.95
1824.79776	9127.35
1827.96924	9127.45
1831.13864	9113.25
1834.30597	9087.35
1837.47122	9088.15
1840.6344	9062.35
1843.7955	9068.05
1846.95454	9056.85
1850.11151	9044.15
1853.26642	9021.55
1856.41926	9045.55
1859.57004	9030.55
1862.71876	9020.15
1865.86542	9021.65
1869.01003	9047.45
1872.15258	9029.15
1875.29308	9028.05
1878.43152	8996.35
1881.56792	8999.55
1884.70227	8989.15
1887.83457	8978.65
1890.96482	8967.55
1894.09304	8950.85
1897.21921	8963.55
1900.34335	8936.55
1903.46544	8948.35
1906.58551	8952.75
1909.70353	8948.55
1912.81953	8925.95
1915.93349	8921.05
1919.04543	8899.95
1922.15534	8872.75
1925.26322	8881.85
1928.36908	8856.65
1931.47292	8823.95
1934.57473	8767.35
1937.67453	8759.65
1940.77232	8722.05
1943.86808	8683.75
1946.96184	8647.75
1950.05358	8652.75
1953.14331	8598.85
1956.23103	8574.95
1959.31675	8558.25
1962.40046	8520.05
1965.48217	8505.75
1968.56188	8494.95
1971.63959	8455.75
1974.7153	8419.55
1977.78901	8387.55
1980.86073	8365.05
1983.93046	8378.65
1986.99819	8321.85
1990.06394	8267.15
1993.1277	8256.05
1996.18947	8235.55
1999.24925	8206.35
2002.30706	8165.65
2005.36288	8128.95
2008.41672	8133.05
2011.46859	8111.25
2014.51848	8091.35
2017.56639	8053.75
2020.61233	8014.35
2023.6563	8000.25
2026.6983	8016.95
2029.73833	7974.65
2032.7764	7956.85
2035.8125	7940.45
2038.84664	7912.65
2041.87881	7894.65
2044.90903	7866.15
2047.93729	7877.65
2050.96359	7858.25
2053.98794	7837.05
2057.01034	7818.85
2060.03078	7820.85
2063.04927	7820.55
2066.06582	7828.15
2069.08042	7812.95
2072.09307	7793.45
2075.10378	7784.85
2078.11255	7790.15
2081.11938	7758.05
2084.12426	7759.85
2087.12722	7752.35
2090.12824	7767.45
2093.12732	7748.35
2096.12447	7755.85
2099.11969	7744.75
2102.11299	7757.65
2105.10435	7749.55
2108.09379	7755.45
2111.08131	7731.95
2114.0669	7780.25
2117.05057	7777.15
2120.03233	7754.45
2123.01216	7769.55
2125.99008	7767.65
2128.96609	7781.65
2131.94018	7806.65
2134.91236	7795.25
2137.88263	7784.55
2140.851	7781.85
2143.81746	7777.45
2146.78201	7772.95
2149.74466	7791.75
2152.7054	7782.05
2155.66425	7765.35
2158.6212	7774.75
2161.57625	7747.15
2164.52941	7747.75
2167.48067	7735.45
2170.43004	7756.85
2173.37752	7725.55
2176.32311	7754.15
2179.26681	7727.85
2182.20863	7743.55
2185.14856	7739.25
2188.08661	7727.85
2191.02278	7735.35
2193.95707	7703.95
2196.88948	7721.25
2199.82001	7693.05
2202.74867	7675.95
2205.67545	7681.75
2208.60037	7661.65
2211.52341	7662.15
2214.44458	7652.15
2217.36388	7636.05
2220.28132	7636.75
2223.1969	7595.45
2226.11061	7601.05
2229.02246	7564.75
2231.93245	7572.15
2234.84058	7542.85
2237.74686	7523.65
2240.65128	7533.25
2243.55385	7492.35
2246.45456	7485.15
2249.35343	7490.75
2252.25044	7463.85
2255.14561	7463.15
2258.03893	7471.35
2260.93041	7436.35
2263.82004	7427.35
2266.70783	7423.75
2269.59378	7392.95
2272.4779	7381.05
2275.36017	7367.95
2278.24061	7363.65
2281.11922	7341.55
2283.996	7322.35
2286.87094	7287.15
2289.74405	7294.55
2292.61534	7277.95
2295.4848	7275.65
2298.35243	7270.55
2301.21824	7254.55
2304.08223	7255.15
2306.94439	7239.85
2309.80474	7254.75
2312.66327	7253.75
2315.51999	7237.35
2318.37489	7222.55
2321.22797	7223.25
2324.07925	7226.25
2326.92871	7222.95
2329.77637	7212.35
2332.62222	7204.75
2335.46626	7174.15
2338.3085	7182.85
2341.14893	7176.05
2343.98756	7158.95
2346.8244	7163.55
2349.65943	7150.25
2352.49267	7196.65
2355.32411	7190.45
2358.15376	7165.55
2360.98161	7186.55
2363.80768	7177.75
2366.63195	7202.85
2369.45444	7201.55
2372.27514	7179.75
2375.09405	7165.35
2377.91118	7156.15
2380.72652	7121.15
2383.54009	7083.95
2386.35187	7084.95
2389.16188	7036.45
2391.97011	7002.55
2394.77657	7002.25
2397.58125	6992.75
2400.38416	6969.95
2403.18529	6955.75
2405.98466	6955.35
2408.78226	6917.55
2411.57809	6922.35
2414.37216	6884.65
2417.16446	6901.45
2419.955	6873.65
2422.74378	6883.55
2425.5308	6877.95
2428.31606	6900.95
2431.09956	6888.85
2433.88131	6859.25
2436.6613	6855.25
2439.43954	6851.85
2442.21603	6855.25
2444.99077	6849.95
2447.76377	6863.95
2450.53501	6847.25
2453.30451	6858.05
2456.07226	6828.85
2458.83827	6837.05
2461.60254	6815.95
2464.36507	6819.05
2467.12586	6812.05
2469.88492	6826.65
2472.64224	6826.75
2475.39782	6824.15
2478.15167	6826.35
2480.90379	6801.35
2483.65417	6854.15
2486.40283	6831.45
2489.14976	6848.65
2491.89497	6849.45
2494.63845	6843.15
2497.3802	6842.35
2500.12024	6827.25
2502.85855	6823.35
2505.59514	6807.65
2508.33002	6812.75
2511.06318	6786.95
2513.79462	6748.55
2516.52435	6727.95
2519.25237	6707.25
2521.97867	6699.45
2524.70327	6689.85
2527.42616	6670.35
2530.14734	6651.35
2532.86681	6649.35
2535.58458	6649.25
2538.30065	6645.45
2541.01501	6644.95
2543.72768	6637.55
2546.43864	6634.05
2549.14791	6616.75
2551.85548	6617.55
2554.56136	6611.05
2557.26554	6614.15
2559.96803	6588.55
2562.66883	6594.35
2565.36794	6591.95
2568.06536	6568.95
2570.7611	6552.85
2573.45514	6544.15
2576.14751	6525.05
2578.83819	6541.05
2581.52719	6540.75
2584.21451	6498.45
2586.90015	6481.95
2589.58411	6485.25
2592.2664	6476.65
2594.94701	6471.85
2597.62594	6456.85
2600.30321	6458.15
2602.9788	6442.05
2605.65273	6430.55
2608.32498	6435.25
2610.99557	6443.25
2613.66449	6424.85
2616.33175	6417.75
2618.99734	6409.15
2621.66128	6433.55
2624.32355	6400.95
2626.98416	6419.25
2629.64311	6393.85
2632.30041	6409.75
2634.95605	6385.55
2637.61004	6344.85
2640.26238	6348.45
2642.91306	6353.25
2645.56209	6345.85
2648.20948	6319.85
2650.85521	6312.35
2653.4993	6338.75
2656.14175	6330.85
2658.78255	6355.45
2661.42171	6345.75
2664.05923	6361.15
2666.6951	6358.35
2669.32934	6367.25
2671.96194	6352.95
2674.59291	6353.85
2677.22224	6335.65
2679.84993	6350.65
2682.476	6342.25
2685.10043	6337.45
2687.72324	6334.45
2690.34441	6331.65
2692.96396	6327.15
2695.58188	6348.45
2698.19818	6324.45
2700.81285	6321.25
2703.4259	6325.55
2706.03733	6330.05
2708.64714	6304.15
2711.25533	6343.05
2713.86191	6356.15
2716.46687	6341.35
2719.07021	6340.35
2721.67194	6353.35
2724.27206	6347.15
2726.87057	6343.35
2729.46747	6349.85
2732.06276	6343.55
2734.65644	6333.25
2737.24852	6340.35
2739.83899	6333.35
2742.42786	6325.65
2745.01513	6311.45
2747.60079	6293.95
2750.18486	6300.15
2752.76733	6280.95
2755.3482	6277.25
2757.92747	6269.75
2760.50515	6265.35
2763.08123	6261.25
2765.65573	6269.35
2768.22863	6255.05
2770.79994	6222.85
2773.36967	6232.85
2775.9378	6234.95
2778.50435	6246.15
2781.06932	6229.55
2783.6327	6221.65
2786.1945	6226.85
2788.75471	6229.25
2791.31335	6212.05
2793.87041	6223.35
2796.42589	6196.85
2798.97979	6204.55
2801.53212	6196.85
2804.08288	6185.75
2806.63206	6194.25
2809.17967	6179.35
2811.72571	6165.45
2814.27018	6172.95
2816.81308	6184.85
2819.35442	6188.45
2821.89419	6184.15
2824.43239	6184.25
2826.96904	6190.65
2829.50412	6192.55
2832.03763	6172.55
2834.56959	6206.85
2837.1	6211.85
2839.62884	6228.35
2842.15613	6262.05
2844.68186	6349.55
2847.20604	6393.15
2849.72867	6420.25
2852.24974	6452.85
2854.76927	6434.45
2857.28724	6408.55
2859.80367	6414.35
2862.31855	6404.05
2864.83189	6385.65
2867.34368	6361.75
2869.85393	6386.85
2872.36264	6368.85
2874.8698	6401.05
2877.37543	6399.15
2879.87952	6397.95
2882.38207	6406.85
2884.88308	6382.25
2887.38256	6405.95
2889.88051	6387.15
2892.37692	6430.95
2894.8718	6417.15
2897.36515	6427.25
2899.85698	6436.55
2902.34727	6445.65
2904.83604	6478.55
2907.32328	6472.05
2909.809	6462.75
2912.29319	6469.15
2914.77587	6478.75
2917.25702	6462.25
2919.73665	6468.45
2922.21476	6475.35
2924.69136	6463.35
2927.16644	6464.95
2929.64	6466.85
2932.11205	6444.75
2934.58258	6404.65
2937.05161	6400.75
2939.51912	6365.65
2941.98513	6344.15
2944.44962	6279.25
2946.91261	6223.95
2949.37409	6215.25
2951.83407	6186.65
2954.29254	6162.95
2956.74951	6129.05
2959.20498	6110.05
2961.65895	6086.05
2964.11142	6081.55
2966.56239	6046.35
2969.01186	6042.85
2971.45984	6023.65
2973.90632	5994.05
2976.35131	5966.65
2978.7948	5952.45
2981.23681	5933.15
2983.67732	5935.55
2986.11635	5877.45
2988.55388	5859.55
2990.98993	5858.35
2993.4245	5843.45
2995.85758	5835.45
2998.28917	5827.35
3000.71928	5806.85
3003.14791	5790.15
3005.57506	5773.75
3008.00073	5778.55
3010.42493	5755.15
3012.84764	5768.85
3015.26888	5761.95
3017.68865	5741.45
3020.10694	5729.25
3022.52376	5705.35
3024.9391	5696.05
3027.35298	5694.65
3029.76539	5701.55
3032.17632	5675.65
3034.5858	5666.55
3036.9938	5663.45
3039.40034	5639.45
3041.80542	5638.95
3044.20903	5631.05
3046.61118	5616.45
3049.01187	5622.85
3051.4111	5617.95
3053.80888	5593.35
3056.20519	5596.45
3058.60005	5581.25
3060.99345	5567.25
3063.3854	5529.65
3065.7759	5523.25
3068.16494	5531.55
3070.55254	5520.55
3072.93868	5507.95
3075.32338	5501.55
3077.70662	5492.25
3080.08842	5460.75
3082.46878	5472.55
3084.84769	5476.95
3087.22515	5446.75
3089.60118	5448.75
3091.97576	5456.05
3094.3489	5465.35
3096.72061	5450.15
3099.09087	5458.05
3101.4597	5452.05
3103.82709	5446.65
3106.19305	5443.95
3108.55757	5454.05
3110.92066	5451.55
3113.28232	5433.25
3115.64255	5402.65
3118.00134	5412.45
3120.35871	5402.95
3122.71466	5415.15
3125.06917	5389.75
3127.42226	5378.95
3129.77393	5394.05
3132.12417	5398.95
3134.47299	5394.65
3136.82039	5394.55
3139.16636	5390.35
3141.51092	5395.75
3143.85406	5412.25
3146.19579	5414.55
3148.53609	5418.25
3150.87499	5448.55
3153.21246	5438.25
3155.54853	5443.25
3157.88318	5440.15
3160.21642	5453.35
3162.54826	5426.55
3164.87868	5451.95
3167.2077	5460.65
3169.5353	5464.75
3171.86151	5448.55
3174.18631	5455.75
3176.5097	5444.95
3178.83169	5434.85
3181.15228	5444.65
3183.47147	5437.65
3185.78926	5444.35
3188.10565	5449.95
3190.42065	5444.05
3192.73424	5418.85
3195.04645	5444.65
3197.35725	5455.35
3199.66667	5451.75
3201.97469	5458.95
3204.28132	5457.15
3206.58656	5456.15
3208.8904	5467.15
3211.19287	5460.65
3213.49394	5480.05
3215.79363	5473.35
3218.09193	5492.05
3220.38884	5497.05
3222.68438	5490.25
3224.97853	5485.85
3227.2713	5493.45
3229.56269	5476.85
3231.8527	5481.15
3234.14133	5477.85
3236.42858	5467.55
3238.71446	5478.05
3240.99896	5440.65
3243.28209	5462.75
3245.56384	5449.85
3247.84423	5440.05
3250.12324	5440.45
3252.40088	5446.45
3254.67715	5423.35
3256.95205	5445.85
3259.22558	5431.35
3261.49775	5431.75
3263.76855	5420.85
3266.03799	5402.85
3268.30606	5425.25
3270.57277	5400.35
3272.83812	5393.45
3275.10211	5379.95
3277.36474	5368.95
3279.62601	5351.05
3281.88593	5364.45
3284.14448	5358.85
3286.40168	5363.75
3288.65753	5377.75
3290.91202	5370.75
3293.16516	5343.85
3295.41695	5350.65
3297.66738	5313.35
3299.91647	5291.95
3302.16421	5261.95
3304.4106	5243.05
3306.65564	5217.75
3308.89933	5190.95
3311.14169	5157.45
3313.38269	5124.45
3315.62236	5075.25
3317.86068	5044.65
3320.09766	4999.75
3322.3333	4981.85
3324.5676	4950.45
3326.80056	4874.75
3329.03219	4838.65
3331.26248	1.05
3333.49143	0.75
3335.71905	-1.15
