Data from AgNPs_FTO_APTES_UA_1uM_CRN_1000uM_R6G_10uM_NaF_0.1M_Addition_RamanShift__12__18-47-39-930.txt Node

Date: Thu Jan 27 18:47:39 GMT 2022
User: TCL
Spectrometer: QEP01345
Trigger mode: 4
Integration Time (sec): 7.000000E0
Scans to average: 10
Electric dark correction enabled: true
Nonlinearity correction enabled: false
Boxcar width: 0
XAxis mode: Raman Shifts
Number of Pixels in Spectrum: 1044
>>>>>Begin Spectral Data<<<<<
46.04893	1.15
50.45542	0.15
54.85868	-1.55
59.25871	-0.35
63.6555	41.55
68.04907	42.95
72.43941	44.95
76.82654	50.75
81.21044	47.85
85.59113	51.85
89.96862	50.85
94.34289	56.25
98.71396	56.45
103.08183	57.45
107.4465	62.45
111.80798	61.15
116.16626	59.95
120.52136	65.05
124.87327	65.75
129.222	64.35
133.56755	69.45
137.90993	71.25
142.24913	78.95
146.58517	88.85
150.91804	101.75
155.24774	116.45
159.57429	139.65
163.89768	179.05
168.21792	228.35
172.53501	308.05
176.84895	425.45
181.15975	596.45
185.46741	831.45
189.77193	1158.95
194.07331	1554.85
198.37157	2011.25
202.6667	2497.95
206.9587	2996.55
211.24758	3459.25
215.53334	3960.85
219.81599	4441.75
224.09553	4970.95
228.37195	5539.35
232.64527	6183.85
236.91549	6858.45
241.18261	7545.65
245.44663	8192.15
249.70755	8817.65
253.96539	9349.25
258.22014	9757.55
262.4718	10119.75
266.72039	10354.05
270.96589	10449.05
275.20832	10462.55
279.44768	10383.35
283.68397	10224.05
287.91719	10084.35
292.14735	9953.55
296.37445	9896.35
300.59849	9855.85
304.81948	9847.75
309.03742	9841.15
313.25231	9745.55
317.46415	9600.35
321.67296	9419.25
325.87872	9246.65
330.08145	9182.65
334.28114	9203.85
338.47781	9268.35
342.67145	9376.05
346.86207	9503.05
351.04966	9676.15
355.23424	9823.35
359.4158	9985.85
363.59435	10111.05
367.76989	10223.75
371.94243	10291.55
376.11196	10352.45
380.27849	10402.25
384.44203	10439.35
388.60257	10494.85
392.76012	10529.05
396.91468	10672.05
401.06626	10770.45
405.21485	10870.65
409.36047	10865.95
413.50311	10742.95
417.64277	10618.85
421.77947	10612.95
425.9132	10617.05
430.04396	10674.45
434.17176	10732.85
438.2966	10782.35
442.41849	10855.45
446.53742	10988.25
450.6534	11107.55
454.76644	11211.85
458.87653	11282.55
462.98368	11273.65
467.08789	11253.25
471.18916	11196.55
475.2875	11083.75
479.38291	11030.45
483.4754	10927.65
487.56496	10874.65
491.6516	10838.75
495.73531	10815.25
499.81612	10821.45
503.89401	10898.75
507.96899	10955.35
512.04106	10985.85
516.11023	10980.35
520.1765	10951.75
524.23987	10898.45
528.30034	10822.15
532.35792	10738.85
536.41261	10678.45
540.46441	10600.65
544.51333	10582.85
548.55936	10633.25
552.60252	10756.75
556.64279	10872.25
560.6802	10937.75
564.71473	10989.25
568.7464	11070.15
572.7752	11191.45
576.80114	11349.85
580.82422	11537.75
584.84444	11744.15
588.86181	12037.15
592.87633	12258.25
596.888	12245.05
600.89682	12037.25
604.9028	12040.15
608.90594	12652.25
612.90624	13533.75
616.90371	13224.65
620.89834	11703.45
624.89015	10924.35
628.87913	10799.65
632.86528	10887.25
636.84862	10936.25
640.82913	10917.75
644.80683	10754.65
648.78172	10632.95
652.75379	10660.35
656.72306	10731.15
660.68952	10852.25
664.65319	10851.65
668.61405	10762.65
672.57211	10775.15
676.52738	10877.05
680.47986	10935.05
684.42955	10943.45
688.37646	10857.25
692.32058	10815.35
696.26192	10792.55
700.20048	10805.45
704.13626	10845.45
708.06928	10813.95
711.99952	10806.15
715.927	10786.45
719.85171	10765.65
723.77365	10777.15
727.69284	10697.15
731.60928	10659.25
735.52295	10579.75
739.43388	10590.95
743.34206	10587.65
747.24749	10612.35
751.15017	10665.95
755.05012	10778.35
758.94733	10915.65
762.8418	11217.35
766.73354	11747.65
770.62254	12360.35
774.50882	12644.25
778.39237	12413.15
782.27321	11807.75
786.15132	11213.65
790.02671	10849.75
793.89938	10639.65
797.76935	10546.05
801.6366	10491.75
805.50115	10458.25
809.36299	10408.85
813.22213	10366.65
817.07857	10348.35
820.93231	10336.45
824.78336	10329.05
828.63172	10309.75
832.47738	10319.65
836.32036	10280.75
840.16066	10266.45
843.99827	10271.65
847.8332	10275.95
851.66546	10290.75
855.49504	10265.65
859.32195	10263.65
863.1462	10260.55
866.96777	10297.05
870.78668	10263.75
874.60293	10282.25
878.41652	10269.55
882.22745	10263.15
886.03573	10328.55
889.84136	10358.15
893.64433	10338.05
897.44466	10316.55
901.24235	10296.35
905.0374	10247.35
908.8298	10213.15
912.61957	10218.35
916.40671	10230.75
920.19121	10285.25
923.97308	10351.75
927.75233	10382.85
931.52895	10347.15
935.30295	10274.25
939.07433	10146.55
942.84309	10042.05
946.60924	9947.45
950.37278	9920.95
954.13371	9871.85
957.89203	9860.45
961.64774	9846.35
965.40086	9806.55
969.15137	9776.45
972.89929	9761.55
976.64461	9725.15
980.38733	9692.45
984.12747	9676.65
987.86502	9705.35
991.59999	9702.95
995.33237	9736.35
999.06217	9781.45
1002.78939	9863.85
1006.51404	9907.15
1010.23611	10011.65
1013.95561	10106.15
1017.67255	10125.45
1021.38692	10099.55
1025.09872	10036.65
1028.80796	9966.65
1032.51465	9920.15
1036.21877	9896.25
1039.92035	9940.25
1043.61937	9962.35
1047.31584	9997.55
1051.00976	10090.05
1054.70114	10091.55
1058.38998	10095.65
1062.07627	10159.45
1065.76003	10244.15
1069.44126	10307.65
1073.11995	10423.25
1076.79611	10508.55
1080.46974	10572.85
1084.14085	10533.15
1087.80943	10527.85
1091.47549	10547.55
1095.13903	10596.45
1098.80005	10526.85
1102.45857	10395.45
1106.11456	10271.45
1109.76805	10195.35
1113.41903	10186.85
1117.06751	10193.25
1120.71348	10290.85
1124.35696	10394.65
1127.99793	10557.75
1131.63641	10666.55
1135.2724	10575.45
1138.90589	10382.45
1142.5369	10309.65
1146.16542	10305.35
1149.79145	10277.85
1153.415	10284.95
1157.03607	10312.85
1160.65467	10437.15
1164.27079	10653.05
1167.88443	10960.45
1171.49561	11325.65
1175.10432	11759.05
1178.71056	12338.35
1182.31434	12954.85
1185.91565	13311.85
1189.51451	13325.65
1193.11091	13171.15
1196.70485	12827.95
1200.29634	12460.85
1203.88538	12124.65
1207.47197	11836.75
1211.05612	11586.75
1214.63782	11381.15
1218.21708	11206.15
1221.79391	11011.25
1225.36829	10898.95
1228.94024	10845.35
1232.50976	10807.75
1236.07685	10804.85
1239.6415	10760.35
1243.20374	10743.15
1246.76355	10768.55
1250.32093	10817.15
1253.8759	10887.75
1257.42845	11031.75
1260.97859	11203.65
1264.52631	11352.15
1268.07163	11531.95
1271.61453	11720.55
1275.15503	11884.15
1278.69312	12062.45
1282.22882	12203.75
1285.76211	12387.75
1289.29301	12636.15
1292.82151	12950.95
1296.34761	13306.95
1299.87133	13801.25
1303.39266	14314.25
1306.9116	14890.85
1310.42815	15424.05
1313.94233	15690.45
1317.45412	15553.75
1320.96354	15210.35
1324.47058	14878.55
1327.97525	14555.05
1331.47754	14383.85
1334.97747	14315.05
1338.47502	14311.95
1341.97022	14382.95
1345.46305	14503.65
1348.95352	14752.35
1352.44163	15011.05
1355.92738	15407.15
1359.41078	16006.85
1362.89183	16525.95
1366.37053	16440.45
1369.84688	15408.95
1373.32088	13983.85
1376.79254	12909.25
1380.26186	12320.35
1383.72883	12103.05
1387.19347	11927.45
1390.65578	11717.05
1394.11575	11583.95
1397.57339	11548.25
1401.0287	11614.75
1404.48168	11679.05
1407.93234	11686.65
1411.38068	11601.05
1414.82669	11427.05
1418.27039	11219.75
1421.71177	10993.95
1425.15083	10829.35
1428.58758	10719.15
1432.02203	10668.05
1435.45416	10723.55
1438.88399	10845.55
1442.31151	10886.65
1445.73673	10936.85
1449.15965	10951.15
1452.58027	11018.35
1455.9986	11039.85
1459.41463	11112.65
1462.82837	11212.75
1466.23982	11380.75
1469.64898	11487.55
1473.05586	11604.85
1476.46045	11657.55
1479.86276	11652.75
1483.26279	11744.55
1486.66054	11817.65
1490.05602	11942.85
1493.44922	12194.95
1496.84016	12531.85
1500.22882	13042.45
1503.61521	13688.15
1506.99934	14350.05
1510.38121	14857.15
1513.76081	14913.85
1517.13816	14454.25
1520.51324	13710.35
1523.88607	13088.65
1527.25665	12700.55
1530.62498	12460.25
1533.99105	12280.35
1537.35488	12128.45
1540.71647	11949.15
1544.07581	11779.85
1547.4329	11622.65
1550.78776	11457.35
1554.14038	11316.05
1557.49077	11261.35
1560.83892	11227.55
1564.18484	11262.35
1567.52853	11362.85
1570.86999	11489.35
1574.20922	11651.85
1577.54624	11735.05
1580.88103	11637.55
1584.2136	11430.65
1587.54395	11312.25
1590.87208	11459.45
1594.19801	11767.65
1597.52172	12204.25
1600.84321	12461.65
1604.16251	12314.75
1607.47959	11845.75
1610.79447	11329.65
1614.10715	10795.35
1617.41763	10265.75
1620.7259	9894.85
1624.03199	9613.95
1627.33587	9524.05
1630.63757	9570.25
1633.93707	9755.05
1637.23439	10157.65
1640.52951	10822.95
1643.82246	11785.15
1647.11321	12787.65
1650.40179	13402.05
1653.68819	13142.95
1656.97241	12136.45
1660.25446	10923.45
1663.53433	9971.15
1666.81203	9362.25
1670.08756	8953.15
1673.36092	8714.65
1676.63211	8564.25
1679.90115	8456.75
1683.16801	8369.95
1686.43272	8275.15
1689.69527	8214.95
1692.95567	8163.85
1696.2139	8105.55
1699.46999	8039.25
1702.72392	8009.35
1705.97571	8027.75
1709.22535	8034.25
1712.47284	8066.75
1715.71819	8066.35
1718.96139	8056.05
1722.20246	8052.15
1725.44139	8027.75
1728.67818	7960.85
1731.91284	7931.15
1735.14537	7913.85
1738.37576	7862.25
1741.60403	7859.45
1744.83017	7835.35
1748.05418	7806.75
1751.27607	7819.05
1754.49584	7793.35
1757.71349	7820.55
1760.92903	7810.85
1764.14244	7813.75
1767.35375	7773.15
1770.56294	7727.15
1773.77002	7706.45
1776.97499	7686.45
1780.17785	7666.05
1783.37861	7655.85
1786.57727	7642.65
1789.77382	7630.15
1792.96828	7602.65
1796.16064	7571.65
1799.3509	7543.55
1802.53907	7507.15
1805.72514	7486.05
1808.90913	7457.45
1812.09102	7430.95
1815.27083	7459.35
1818.44856	7417.25
1821.6242	7391.95
1824.79776	7377.55
1827.96924	7369.75
1831.13864	7353.15
1834.30597	7339.05
1837.47122	7340.55
1840.6344	7326.65
1843.7955	7329.65
1846.95454	7307.45
1850.11151	7305.35
1853.26642	7303.65
1856.41926	7283.55
1859.57004	7289.55
1862.71876	7280.85
1865.86542	7269.55
1869.01003	7230.55
1872.15258	7240.25
1875.29308	7215.55
1878.43152	7216.05
1881.56792	7218.75
1884.70227	7174.35
1887.83457	7147.45
1890.96482	7151.35
1894.09304	7141.55
1897.21921	7126.25
1900.34335	7122.65
1903.46544	7107.85
1906.58551	7102.65
1909.70353	7075.45
1912.81953	7065.85
1915.93349	7064.15
1919.04543	7046.95
1922.15534	7030.35
1925.26322	7011.85
1928.36908	7000.05
1931.47292	6986.05
1934.57473	6959.35
1937.67453	6964.95
1940.77232	6939.35
1943.86808	6902.15
1946.96184	6904.15
1950.05358	6860.85
1953.14331	6836.35
1956.23103	6819.85
1959.31675	6791.25
1962.40046	6780.65
1965.48217	6770.35
1968.56188	6736.45
1971.63959	6717.55
1974.7153	6687.05
1977.78901	6662.85
1980.86073	6672.65
1983.93046	6620.05
1986.99819	6583.75
1990.06394	6569.55
1993.1277	6553.15
1996.18947	6528.45
1999.24925	6522.15
2002.30706	6497.25
2005.36288	6488.95
2008.41672	6451.45
2011.46859	6438.35
2014.51848	6421.05
2017.56639	6401.45
2020.61233	6380.95
2023.6563	6358.65
2026.6983	6344.35
2029.73833	6323.75
2032.7764	6296.85
2035.8125	6270.65
2038.84664	6249.85
2041.87881	6240.25
2044.90903	6224.05
2047.93729	6220.55
2050.96359	6184.25
2053.98794	6192.85
2057.01034	6171.05
2060.03078	6178.85
2063.04927	6164.25
2066.06582	6186.35
2069.08042	6170.55
2072.09307	6175.35
2075.10378	6152.85
2078.11255	6123.25
2081.11938	6153.65
2084.12426	6145.85
2087.12722	6128.65
2090.12824	6113.15
2093.12732	6127.25
2096.12447	6118.55
2099.11969	6116.95
2102.11299	6124.45
2105.10435	6117.55
2108.09379	6105.25
2111.08131	6109.35
2114.0669	6109.15
2117.05057	6125.05
2120.03233	6105.05
2123.01216	6119.75
2125.99008	6136.15
2128.96609	6120.65
2131.94018	6134.25
2134.91236	6135.45
2137.88263	6128.15
2140.851	6121.45
2143.81746	6124.75
2146.78201	6123.85
2149.74466	6122.85
2152.7054	6134.25
2155.66425	6133.25
2158.6212	6101.85
2161.57625	6095.45
2164.52941	6104.25
2167.48067	6090.65
2170.43004	6099.75
2173.37752	6081.75
2176.32311	6080.55
2179.26681	6078.85
2182.20863	6080.05
2185.14856	6061.85
2188.08661	6068.45
2191.02278	6071.45
2193.95707	6054.75
2196.88948	6043.15
2199.82001	6043.55
2202.74867	6015.95
2205.67545	6024.75
2208.60037	6008.45
2211.52341	5983.05
2214.44458	5964.15
2217.36388	5983.75
2220.28132	5936.85
2223.1969	5932.95
2226.11061	5924.55
2229.02246	5908.55
2231.93245	5886.15
2234.84058	5890.25
2237.74686	5890.35
2240.65128	5877.25
2243.55385	5849.55
2246.45456	5848.85
2249.35343	5842.65
2252.25044	5834.95
2255.14561	5813.25
2258.03893	5797.05
2260.93041	5771.35
2263.82004	5767.95
2266.70783	5748.95
2269.59378	5736.65
2272.4779	5722.95
2275.36017	5714.35
2278.24061	5702.15
2281.11922	5683.05
2283.996	5694.05
2286.87094	5674.05
2289.74405	5657.65
2292.61534	5629.55
2295.4848	5639.15
2298.35243	5620.85
2301.21824	5617.95
2304.08223	5606.25
2306.94439	5606.85
2309.80474	5603.15
2312.66327	5604.65
2315.51999	5575.35
2318.37489	5570.95
2321.22797	5560.65
2324.07925	5544.05
2326.92871	5538.25
2329.77637	5538.25
2332.62222	5509.85
2335.46626	5517.25
2338.3085	5510.55
2341.14893	5491.95
2343.98756	5477.65
2346.8244	5451.35
2349.65943	5472.85
2352.49267	5457.15
2355.32411	5459.55
2358.15376	5441.45
2360.98161	5451.85
2363.80768	5434.75
2366.63195	5439.75
2369.45444	5430.75
2372.27514	5414.75
2375.09405	5417.15
2377.91118	5419.45
2380.72652	5396.55
2383.54009	5378.65
2386.35187	5368.25
2389.16188	5335.65
2391.97011	5342.45
2394.77657	5329.35
2397.58125	5303.65
2400.38416	5293.15
2403.18529	5287.05
2405.98466	5286.95
2408.78226	5264.25
2411.57809	5264.45
2414.37216	5256.05
2417.16446	5255.05
2419.955	5217.75
2422.74378	5241.05
2425.5308	5226.55
2428.31606	5225.25
2431.09956	5219.55
2433.88131	5202.05
2436.6613	5186.55
2439.43954	5182.55
2442.21603	5165.15
2444.99077	5187.65
2447.76377	5178.25
2450.53501	5176.65
2453.30451	5169.65
2456.07226	5166.55
2458.83827	5154.85
2461.60254	5134.75
2464.36507	5134.45
2467.12586	5126.75
2469.88492	5120.75
2472.64224	5112.55
2475.39782	5105.25
2478.15167	5104.35
2480.90379	5097.05
2483.65417	5099.25
2486.40283	5078.35
2489.14976	5101.95
2491.89497	5058.85
2494.63845	5066.05
2497.3802	5053.95
2500.12024	5061.65
2502.85855	5045.55
2505.59514	5054.75
2508.33002	5049.35
2511.06318	5015.95
2513.79462	5008.15
2516.52435	5005.75
2519.25237	4992.55
2521.97867	4990.45
2524.70327	4979.25
2527.42616	4959.75
2530.14734	4974.65
2532.86681	4951.85
2535.58458	4944.85
2538.30065	4929.95
2541.01501	4927.45
2543.72768	4923.25
2546.43864	4915.55
2549.14791	4891.45
2551.85548	4874.75
2554.56136	4879.05
2557.26554	4893.05
2559.96803	4862.85
2562.66883	4866.05
2565.36794	4853.95
2568.06536	4838.15
2570.7611	4828.45
2573.45514	4818.95
2576.14751	4801.45
2578.83819	4798.75
2581.52719	4783.05
2584.21451	4751.15
2586.90015	4775.75
2589.58411	4757.15
2592.2664	4747.55
2594.94701	4730.05
2597.62594	4731.85
2600.30321	4722.55
2602.9788	4685.55
2605.65273	4686.65
2608.32498	4692.85
2610.99557	4683.15
2613.66449	4677.15
2616.33175	4661.65
2618.99734	4660.95
2621.66128	4645.65
2624.32355	4636.15
2626.98416	4648.95
2629.64311	4634.85
2632.30041	4632.75
2634.95605	4605.55
2637.61004	4594.75
2640.26238	4596.55
2642.91306	4586.95
2645.56209	4582.95
2648.20948	4574.45
2650.85521	4570.35
2653.4993	4575.65
2656.14175	4591.65
2658.78255	4573.65
2661.42171	4567.45
2664.05923	4581.85
2666.6951	4575.75
2669.32934	4570.15
2671.96194	4558.05
2674.59291	4560.75
2677.22224	4556.75
2679.84993	4552.55
2682.476	4536.45
2685.10043	4548.05
2687.72324	4536.95
2690.34441	4548.65
2692.96396	4541.05
2695.58188	4544.35
2698.19818	4539.95
2700.81285	4541.95
2703.4259	4520.65
2706.03733	4508.05
2708.64714	4505.15
2711.25533	4527.35
2713.86191	4535.95
2716.46687	4528.45
2719.07021	4515.55
2721.67194	4523.85
2724.27206	4530.05
2726.87057	4536.55
2729.46747	4524.65
2732.06276	4531.55
2734.65644	4509.25
2737.24852	4508.05
2739.83899	4500.75
2742.42786	4487.35
2745.01513	4483.95
2747.60079	4465.25
2750.18486	4478.85
2752.76733	4472.35
2755.3482	4467.15
2757.92747	4458.95
2760.50515	4436.35
2763.08123	4447.05
2765.65573	4431.85
2768.22863	4416.35
2770.79994	4422.15
2773.36967	4411.45
2775.9378	4407.05
2778.50435	4401.75
2781.06932	4395.85
2783.6327	4388.05
2786.1945	4388.85
2788.75471	4370.85
2791.31335	4373.65
2793.87041	4358.25
2796.42589	4341.45
2798.97979	4344.85
2801.53212	4331.25
2804.08288	4326.85
2806.63206	4317.45
2809.17967	4291.65
2811.72571	4289.15
2814.27018	4278.45
2816.81308	4266.75
2819.35442	4279.25
2821.89419	4273.15
2824.43239	4256.65
2826.96904	4259.35
2829.50412	4256.75
2832.03763	4245.75
2834.56959	4266.05
2837.1	4248.35
2839.62884	4280.05
2842.15613	4289.15
2844.68186	4317.65
2847.20604	4336.55
2849.72867	4364.15
2852.24974	4365.65
2854.76927	4352.15
2857.28724	4323.05
2859.80367	4331.55
2862.31855	4329.75
2864.83189	4327.75
2867.34368	4290.15
2869.85393	4306.45
2872.36264	4292.85
2874.8698	4285.65
2877.37543	4294.65
2879.87952	4293.15
2882.38207	4285.55
2884.88308	4269.65
2887.38256	4282.15
2889.88051	4264.05
2892.37692	4283.85
2894.8718	4275.55
2897.36515	4284.05
2899.85698	4274.45
2902.34727	4307.65
2904.83604	4320.05
2907.32328	4278.95
2909.809	4291.45
2912.29319	4294.65
2914.77587	4306.25
2917.25702	4292.05
2919.73665	4296.95
2922.21476	4285.85
2924.69136	4297.25
2927.16644	4304.35
2929.64	4289.55
2932.11205	4297.65
2934.58258	4289.05
2937.05161	4302.95
2939.51912	4271.05
2941.98513	4278.55
2944.44962	4241.15
2946.91261	4228.85
2949.37409	4232.35
2951.83407	4220.45
2954.29254	4210.45
2956.74951	4211.85
2959.20498	4205.25
2961.65895	4181.05
2964.11142	4184.95
2966.56239	4176.45
2969.01186	4148.95
2971.45984	4135.75
2973.90632	4125.75
2976.35131	4107.35
2978.7948	4100.55
2981.23681	4086.95
2983.67732	4081.75
2986.11635	4057.75
2988.55388	4061.95
2990.98993	4037.95
2993.4245	4035.65
2995.85758	4011.75
2998.28917	4022.15
3000.71928	4012.35
3003.14791	3992.85
3005.57506	3990.65
3008.00073	3980.25
3010.42493	3961.45
3012.84764	3976.55
3015.26888	3959.95
3017.68865	3965.75
3020.10694	3943.05
3022.52376	3939.65
3024.9391	3935.75
3027.35298	3928.25
3029.76539	3917.55
3032.17632	3902.45
3034.5858	3904.65
3036.9938	3910.25
3039.40034	3898.35
3041.80542	3903.15
3044.20903	3885.45
3046.61118	3870.95
3049.01187	3860.35
3051.4111	3888.75
3053.80888	3862.55
3056.20519	3867.35
3058.60005	3865.05
3060.99345	3832.55
3063.3854	3839.75
3065.7759	3810.95
3068.16494	3816.95
3070.55254	3822.15
3072.93868	3816.05
3075.32338	3801.25
3077.70662	3804.95
3080.08842	3794.85
3082.46878	3800.75
3084.84769	3795.15
3087.22515	3788.65
3089.60118	3811.35
3091.97576	3805.95
3094.3489	3798.25
3096.72061	3816.45
3099.09087	3814.95
3101.4597	3807.25
3103.82709	3791.25
3106.19305	3796.95
3108.55757	3814.75
3110.92066	3803.15
3113.28232	3794.85
3115.64255	3783.75
3118.00134	3779.45
3120.35871	3783.35
3122.71466	3795.25
3125.06917	3769.75
3127.42226	3784.45
3129.77393	3795.95
3132.12417	3775.45
3134.47299	3777.25
3136.82039	3783.05
3139.16636	3782.55
3141.51092	3788.45
3143.85406	3799.75
3146.19579	3801.55
3148.53609	3814.75
3150.87499	3818.65
3153.21246	3829.05
3155.54853	3824.55
3157.88318	3830.55
3160.21642	3840.15
3162.54826	3839.35
3164.87868	3839.35
3167.2077	3843.85
3169.5353	3861.05
3171.86151	3857.95
3174.18631	3842.95
3176.5097	3852.35
3178.83169	3848.45
3181.15228	3844.15
3183.47147	3852.15
3185.78926	3840.45
3188.10565	3842.15
3190.42065	3840.65
3192.73424	3842.35
3195.04645	3845.25
3197.35725	3842.65
3199.66667	3855.25
3201.97469	3856.85
3204.28132	3846.45
3206.58656	3873.65
3208.8904	3865.55
3211.19287	3863.25
3213.49394	3882.65
3215.79363	3880.15
3218.09193	3882.05
3220.38884	3882.45
3222.68438	3871.85
3224.97853	3857.25
3227.2713	3868.95
3229.56269	3869.15
3231.8527	3873.35
3234.14133	3872.55
3236.42858	3865.75
3238.71446	3857.75
3240.99896	3836.75
3243.28209	3855.55
3245.56384	3842.85
3247.84423	3841.85
3250.12324	3845.05
3252.40088	3834.95
3254.67715	3831.15
3256.95205	3843.95
3259.22558	3837.05
3261.49775	3836.25
3263.76855	3827.65
3266.03799	3796.65
3268.30606	3803.35
3270.57277	3803.45
3272.83812	3796.25
3275.10211	3784.15
3277.36474	3761.55
3279.62601	3774.85
3281.88593	3760.95
3284.14448	3771.45
3286.40168	3763.75
3288.65753	3782.05
3290.91202	3772.85
3293.16516	3760.55
3295.41695	3747.65
3297.66738	3719.15
3299.91647	3720.45
3302.16421	3687.85
3304.4106	3669.55
3306.65564	3647.95
3308.89933	3641.95
3311.14169	3610.05
3313.38269	3592.05
3315.62236	3568.35
3317.86068	3537.15
3320.09766	3516.65
3322.3333	3480.65
3324.5676	3490.05
3326.80056	3417.45
3329.03219	3399.05
3331.26248	1.45
3333.49143	-0.25
3335.71905	-1.35
