Data from AgNPs_FTO_APTES_UA_1uM_CRN_500uM_R6G_10uM_NaF_0.1M_Addition_RamanShift__14__18-00-59-877.txt Node

Date: Thu Jan 27 18:00:59 GMT 2022
User: TCL
Spectrometer: QEP01345
Trigger mode: 4
Integration Time (sec): 7.000000E0
Scans to average: 10
Electric dark correction enabled: true
Nonlinearity correction enabled: false
Boxcar width: 0
XAxis mode: Raman Shifts
Number of Pixels in Spectrum: 1044
>>>>>Begin Spectral Data<<<<<
46.04893	1.45
50.45542	-0.05
54.85868	-2.05
59.25871	-1.95
63.6555	42.75
68.04907	44.65
72.43941	44.85
76.82654	50.25
81.21044	48.15
85.59113	48.05
89.96862	53.75
94.34289	56.35
98.71396	60.95
103.08183	57.55
107.4465	64.25
111.80798	68.05
116.16626	61.75
120.52136	70.05
124.87327	67.45
129.222	64.75
133.56755	68.75
137.90993	73.55
142.24913	75.35
146.58517	86.15
150.91804	97.85
155.24774	108.85
159.57429	127.15
163.89768	159.15
168.21792	203.45
172.53501	275.65
176.84895	377.65
181.15975	520.45
185.46741	731.65
189.77193	1001.05
194.07331	1352.45
198.37157	1744.35
202.6667	2174.15
206.9587	2582.55
211.24758	2989.05
215.53334	3403.15
219.81599	3826.65
224.09553	4274.75
228.37195	4779.75
232.64527	5336.45
236.91549	5913.05
241.18261	6530.45
245.44663	7107.55
249.70755	7619.95
253.96539	8134.95
258.22014	8500.05
262.4718	8804.25
266.72039	9028.55
270.96589	9134.95
275.20832	9146.45
279.44768	9086.95
283.68397	8962.15
287.91719	8848.15
292.14735	8745.45
296.37445	8674.75
300.59849	8656.55
304.81948	8644.35
309.03742	8642.05
313.25231	8564.25
317.46415	8422.45
321.67296	8306.75
325.87872	8154.15
330.08145	8091.25
334.28114	8108.55
338.47781	8146.05
342.67145	8253.25
346.86207	8365.45
351.04966	8488.95
355.23424	8634.15
359.4158	8735.55
363.59435	8830.75
367.76989	8926.75
371.94243	9000.95
376.11196	9046.95
380.27849	9072.25
384.44203	9113.75
388.60257	9156.35
392.76012	9202.15
396.91468	9300.25
401.06626	9425.35
405.21485	9504.15
409.36047	9520.75
413.50311	9421.25
417.64277	9365.95
421.77947	9352.15
425.9132	9388.75
430.04396	9427.55
434.17176	9455.55
438.2966	9517.15
442.41849	9567.55
446.53742	9669.05
450.6534	9794.55
454.76644	9873.85
458.87653	9896.25
462.98368	9932.45
467.08789	9871.45
471.18916	9823.95
475.2875	9754.95
479.38291	9697.35
483.4754	9638.55
487.56496	9613.25
491.6516	9558.25
495.73531	9542.05
499.81612	9534.45
503.89401	9603.45
507.96899	9610.25
512.04106	9664.15
516.11023	9657.85
520.1765	9627.45
524.23987	9551.85
528.30034	9490.55
532.35792	9423.65
536.41261	9352.55
540.46441	9299.85
544.51333	9289.45
548.55936	9370.35
552.60252	9463.05
556.64279	9562.35
560.6802	9626.75
564.71473	9653.35
568.7464	9699.35
572.7752	9816.65
576.80114	9976.15
580.82422	10161.85
584.84444	10413.95
588.86181	10693.15
592.87633	10909.55
596.888	10847.45
600.89682	10634.65
604.9028	10565.55
608.90594	11010.05
612.90624	11703.45
616.90371	11378.65
620.89834	10149.25
624.89015	9559.35
628.87913	9469.35
632.86528	9538.25
636.84862	9591.45
640.82913	9552.05
644.80683	9424.75
648.78172	9342.95
652.75379	9306.35
656.72306	9389.05
660.68952	9507.45
664.65319	9472.35
668.61405	9403.55
672.57211	9363.85
676.52738	9442.55
680.47986	9475.65
684.42955	9435.05
688.37646	9408.55
692.32058	9399.45
696.26192	9430.55
700.20048	9453.05
704.13626	9469.65
708.06928	9493.15
711.99952	9474.05
715.927	9475.45
719.85171	9430.55
723.77365	9418.15
727.69284	9363.65
731.60928	9316.35
735.52295	9283.45
739.43388	9256.45
743.34206	9288.35
747.24749	9303.15
751.15017	9336.95
755.05012	9445.35
758.94733	9568.85
762.8418	9832.95
766.73354	10281.25
770.62254	10760.35
774.50882	10954.95
778.39237	10746.75
782.27321	10238.25
786.15132	9777.85
790.02671	9465.35
793.89938	9331.25
797.76935	9264.65
801.6366	9220.45
805.50115	9171.45
809.36299	9147.35
813.22213	9104.65
817.07857	9071.15
820.93231	9078.25
824.78336	9076.75
828.63172	9046.75
832.47738	9042.15
836.32036	9031.35
840.16066	9046.25
843.99827	9016.45
847.8332	9015.65
851.66546	9022.15
855.49504	9025.45
859.32195	9015.75
863.1462	9016.75
866.96777	9019.85
870.78668	9027.05
874.60293	9019.95
878.41652	9022.55
882.22745	9062.25
886.03573	9058.45
889.84136	9083.25
893.64433	9049.75
897.44466	9068.95
901.24235	9017.15
905.0374	8997.75
908.8298	8973.95
912.61957	8968.95
916.40671	9009.35
920.19121	9064.05
923.97308	9088.15
927.75233	9106.25
931.52895	9081.95
935.30295	9019.15
939.07433	8930.05
942.84309	8830.65
946.60924	8735.55
950.37278	8721.45
954.13371	8696.45
957.89203	8668.35
961.64774	8659.85
965.40086	8665.15
969.15137	8611.55
972.89929	8572.35
976.64461	8549.45
980.38733	8555.65
984.12747	8505.15
987.86502	8505.05
991.59999	8544.25
995.33237	8573.25
999.06217	8620.55
1002.78939	8676.15
1006.51404	8752.05
1010.23611	8793.35
1013.95561	8874.95
1017.67255	8901.15
1021.38692	8886.35
1025.09872	8832.45
1028.80796	8751.65
1032.51465	8711.65
1036.21877	8726.85
1039.92035	8733.75
1043.61937	8754.45
1047.31584	8800.45
1051.00976	8841.85
1054.70114	8875.25
1058.38998	8904.55
1062.07627	8953.85
1065.76003	9007.25
1069.44126	9086.35
1073.11995	9169.25
1076.79611	9289.85
1080.46974	9319.45
1084.14085	9311.75
1087.80943	9292.25
1091.47549	9322.45
1095.13903	9351.95
1098.80005	9285.45
1102.45857	9173.35
1106.11456	9069.75
1109.76805	8977.15
1113.41903	8961.15
1117.06751	9005.55
1120.71348	9035.45
1124.35696	9134.95
1127.99793	9267.55
1131.63641	9343.15
1135.2724	9262.85
1138.90589	9114.65
1142.5369	9093.35
1146.16542	9083.95
1149.79145	9082.65
1153.415	9078.55
1157.03607	9102.65
1160.65467	9193.55
1164.27079	9411.05
1167.88443	9665.85
1171.49561	9976.95
1175.10432	10345.75
1178.71056	10838.85
1182.31434	11310.65
1185.91565	11625.25
1189.51451	11668.55
1193.11091	11519.05
1196.70485	11239.65
1200.29634	10925.15
1203.88538	10644.05
1207.47197	10458.95
1211.05612	10271.85
1214.63782	10107.85
1218.21708	9906.25
1221.79391	9747.95
1225.36829	9630.55
1228.94024	9543.35
1232.50976	9506.55
1236.07685	9501.25
1239.6415	9461.85
1243.20374	9475.95
1246.76355	9487.55
1250.32093	9528.55
1253.8759	9621.15
1257.42845	9737.55
1260.97859	9898.35
1264.52631	10015.15
1268.07163	10175.75
1271.61453	10327.55
1275.15503	10464.35
1278.69312	10625.95
1282.22882	10784.95
1285.76211	10982.55
1289.29301	11202.95
1292.82151	11451.35
1296.34761	11789.95
1299.87133	12213.85
1303.39266	12656.45
1306.9116	13118.55
1310.42815	13500.15
1313.94233	13690.35
1317.45412	13578.75
1320.96354	13321.95
1324.47058	13061.95
1327.97525	12913.55
1331.47754	12783.15
1334.97747	12773.05
1338.47502	12762.25
1341.97022	12790.15
1345.46305	12887.75
1348.95352	12989.25
1352.44163	13215.05
1355.92738	13517.55
1359.41078	13937.75
1362.89183	14353.45
1366.37053	14267.35
1369.84688	13399.55
1373.32088	12245.95
1376.79254	11323.75
1380.26186	10867.55
1383.72883	10684.85
1387.19347	10508.95
1390.65578	10346.05
1394.11575	10245.65
1397.57339	10192.55
1401.0287	10269.15
1404.48168	10349.85
1407.93234	10337.65
1411.38068	10261.65
1414.82669	10093.75
1418.27039	9898.75
1421.71177	9695.45
1425.15083	9508.15
1428.58758	9390.25
1432.02203	9399.15
1435.45416	9481.05
1438.88399	9560.35
1442.31151	9618.55
1445.73673	9657.65
1449.15965	9703.65
1452.58027	9727.95
1455.9986	9759.65
1459.41463	9784.45
1462.82837	9902.85
1466.23982	10052.95
1469.64898	10209.05
1473.05586	10281.05
1476.46045	10349.55
1479.86276	10372.05
1483.26279	10398.85
1486.66054	10486.65
1490.05602	10585.15
1493.44922	10803.65
1496.84016	11069.95
1500.22882	11468.95
1503.61521	11969.15
1506.99934	12497.45
1510.38121	12878.25
1513.76081	12896.25
1517.13816	12534.85
1520.51324	12019.85
1523.88607	11576.65
1527.25665	11283.25
1530.62498	11091.35
1533.99105	10934.85
1537.35488	10799.45
1540.71647	10582.15
1544.07581	10420.15
1547.4329	10283.85
1550.78776	10123.15
1554.14038	10008.95
1557.49077	9962.25
1560.83892	9935.15
1564.18484	9946.45
1567.52853	10041.65
1570.86999	10113.85
1574.20922	10241.65
1577.54624	10275.35
1580.88103	10209.35
1584.2136	10077.05
1587.54395	10023.75
1590.87208	10154.25
1594.19801	10486.65
1597.52172	10884.65
1600.84321	11095.75
1604.16251	10946.05
1607.47959	10521.85
1610.79447	10013.45
1614.10715	9509.95
1617.41763	9078.75
1620.7259	8735.65
1624.03199	8524.25
1627.33587	8443.65
1630.63757	8484.05
1633.93707	8673.65
1637.23439	9041.65
1640.52951	9668.55
1643.82246	10524.25
1647.11321	11403.35
1650.40179	11893.95
1653.68819	11669.25
1656.97241	10714.75
1660.25446	9636.25
1663.53433	8793.15
1666.81203	8270.35
1670.08756	7909.45
1673.36092	7720.05
1676.63211	7585.15
1679.90115	7492.25
1683.16801	7401.15
1686.43272	7331.75
1689.69527	7282.65
1692.95567	7233.45
1696.2139	7163.45
1699.46999	7119.95
1702.72392	7084.45
1705.97571	7086.95
1709.22535	7119.15
1712.47284	7144.45
1715.71819	7160.65
1718.96139	7146.65
1722.20246	7117.65
1725.44139	7100.65
1728.67818	7071.05
1731.91284	7030.25
1735.14537	7000.05
1738.37576	6979.45
1741.60403	6948.85
1744.83017	6940.15
1748.05418	6902.85
1751.27607	6916.55
1754.49584	6883.75
1757.71349	6886.15
1760.92903	6864.55
1764.14244	6870.15
1767.35375	6861.65
1770.56294	6820.65
1773.77002	6818.95
1776.97499	6791.25
1780.17785	6792.65
1783.37861	6804.65
1786.57727	6794.35
1789.77382	6776.85
1792.96828	6749.15
1796.16064	6747.05
1799.3509	6705.35
1802.53907	6690.45
1805.72514	6681.85
1808.90913	6652.65
1812.09102	6658.65
1815.27083	6629.05
1818.44856	6609.25
1821.6242	6597.15
1824.79776	6603.75
1827.96924	6574.65
1831.13864	6572.45
1834.30597	6573.05
1837.47122	6561.65
1840.6344	6563.65
1843.7955	6539.25
1846.95454	6551.95
1850.11151	6538.55
1853.26642	6522.75
1856.41926	6523.95
1859.57004	6544.95
1862.71876	6516.15
1865.86542	6498.35
1869.01003	6482.15
1872.15258	6468.75
1875.29308	6469.95
1878.43152	6469.05
1881.56792	6435.15
1884.70227	6438.85
1887.83457	6435.05
1890.96482	6428.05
1894.09304	6393.05
1897.21921	6390.65
1900.34335	6359.25
1903.46544	6356.05
1906.58551	6351.65
1909.70353	6347.45
1912.81953	6343.35
1915.93349	6325.85
1919.04543	6317.15
1922.15534	6283.45
1925.26322	6285.65
1928.36908	6273.75
1931.47292	6259.65
1934.57473	6237.35
1937.67453	6222.45
1940.77232	6208.65
1943.86808	6180.75
1946.96184	6160.85
1950.05358	6148.45
1953.14331	6135.55
1956.23103	6128.55
1959.31675	6104.85
1962.40046	6063.75
1965.48217	6078.65
1968.56188	6042.05
1971.63959	6005.85
1974.7153	5992.55
1977.78901	5972.25
1980.86073	5956.05
1983.93046	5950.85
1986.99819	5909.15
1990.06394	5881.85
1993.1277	5871.45
1996.18947	5851.65
1999.24925	5869.95
2002.30706	5816.45
2005.36288	5796.95
2008.41672	5796.55
2011.46859	5788.95
2014.51848	5755.45
2017.56639	5736.75
2020.61233	5719.45
2023.6563	5700.55
2026.6983	5691.25
2029.73833	5683.15
2032.7764	5661.45
2035.8125	5650.25
2038.84664	5620.75
2041.87881	5606.85
2044.90903	5602.85
2047.93729	5574.65
2050.96359	5561.85
2053.98794	5564.35
2057.01034	5548.95
2060.03078	5550.25
2063.04927	5544.85
2066.06582	5531.75
2069.08042	5541.85
2072.09307	5549.15
2075.10378	5524.25
2078.11255	5519.45
2081.11938	5521.85
2084.12426	5503.85
2087.12722	5489.75
2090.12824	5502.15
2093.12732	5491.45
2096.12447	5494.65
2099.11969	5487.85
2102.11299	5491.05
2105.10435	5502.05
2108.09379	5512.85
2111.08131	5485.95
2114.0669	5510.35
2117.05057	5503.75
2120.03233	5496.85
2123.01216	5498.85
2125.99008	5538.65
2128.96609	5514.85
2131.94018	5507.55
2134.91236	5502.05
2137.88263	5532.55
2140.851	5501.05
2143.81746	5516.85
2146.78201	5518.35
2149.74466	5498.65
2152.7054	5496.05
2155.66425	5505.85
2158.6212	5521.05
2161.57625	5481.95
2164.52941	5473.15
2167.48067	5480.85
2170.43004	5489.85
2173.37752	5491.85
2176.32311	5465.65
2179.26681	5473.85
2182.20863	5462.45
2185.14856	5473.45
2188.08661	5475.75
2191.02278	5457.55
2193.95707	5469.65
2196.88948	5452.45
2199.82001	5435.55
2202.74867	5411.65
2205.67545	5428.75
2208.60037	5428.25
2211.52341	5391.15
2214.44458	5368.55
2217.36388	5362.85
2220.28132	5366.95
2223.1969	5341.85
2226.11061	5357.35
2229.02246	5333.15
2231.93245	5322.75
2234.84058	5310.35
2237.74686	5300.85
2240.65128	5298.65
2243.55385	5292.05
2246.45456	5267.15
2249.35343	5266.15
2252.25044	5260.95
2255.14561	5244.35
2258.03893	5223.55
2260.93041	5220.55
2263.82004	5200.15
2266.70783	5187.75
2269.59378	5180.25
2272.4779	5166.05
2275.36017	5141.95
2278.24061	5144.45
2281.11922	5129.05
2283.996	5127.65
2286.87094	5100.55
2289.74405	5113.65
2292.61534	5088.25
2295.4848	5065.75
2298.35243	5081.75
2301.21824	5067.55
2304.08223	5060.85
2306.94439	5059.15
2309.80474	5056.95
2312.66327	5037.95
2315.51999	5026.75
2318.37489	5034.75
2321.22797	5011.65
2324.07925	5015.65
2326.92871	5001.75
2329.77637	4990.55
2332.62222	4985.25
2335.46626	4970.55
2338.3085	4971.25
2341.14893	4976.75
2343.98756	4957.95
2346.8244	4946.45
2349.65943	4933.05
2352.49267	4921.75
2355.32411	4931.85
2358.15376	4929.05
2360.98161	4920.05
2363.80768	4917.95
2366.63195	4929.85
2369.45444	4912.05
2372.27514	4906.05
2375.09405	4902.65
2377.91118	4888.15
2380.72652	4885.55
2383.54009	4859.25
2386.35187	4846.85
2389.16188	4841.75
2391.97011	4823.75
2394.77657	4823.15
2397.58125	4811.95
2400.38416	4784.45
2403.18529	4778.05
2405.98466	4784.05
2408.78226	4759.85
2411.57809	4759.15
2414.37216	4754.45
2417.16446	4753.05
2419.955	4741.45
2422.74378	4728.25
2425.5308	4725.75
2428.31606	4739.05
2431.09956	4713.45
2433.88131	4712.95
2436.6613	4703.75
2439.43954	4711.45
2442.21603	4709.95
2444.99077	4704.65
2447.76377	4698.95
2450.53501	4675.35
2453.30451	4676.95
2456.07226	4671.15
2458.83827	4655.65
2461.60254	4670.95
2464.36507	4650.05
2467.12586	4651.15
2469.88492	4639.95
2472.64224	4627.65
2475.39782	4645.05
2478.15167	4613.65
2480.90379	4620.85
2483.65417	4601.65
2486.40283	4614.05
2489.14976	4610.95
2491.89497	4589.45
2494.63845	4585.75
2497.3802	4590.35
2500.12024	4574.35
2502.85855	4575.75
2505.59514	4595.05
2508.33002	4576.95
2511.06318	4570.25
2513.79462	4572.15
2516.52435	4536.15
2519.25237	4538.85
2521.97867	4527.05
2524.70327	4535.25
2527.42616	4497.35
2530.14734	4509.85
2532.86681	4486.05
2535.58458	4494.25
2538.30065	4474.75
2541.01501	4485.15
2543.72768	4481.35
2546.43864	4462.05
2549.14791	4442.55
2551.85548	4466.65
2554.56136	4443.35
2557.26554	4444.25
2559.96803	4420.05
2562.66883	4408.15
2565.36794	4402.55
2568.06536	4401.05
2570.7611	4398.05
2573.45514	4378.45
2576.14751	4365.95
2578.83819	4355.85
2581.52719	4358.35
2584.21451	4350.75
2586.90015	4342.55
2589.58411	4324.65
2592.2664	4345.95
2594.94701	4315.65
2597.62594	4306.75
2600.30321	4281.45
2602.9788	4286.35
2605.65273	4276.95
2608.32498	4271.85
2610.99557	4254.35
2613.66449	4254.85
2616.33175	4255.35
2618.99734	4251.25
2621.66128	4235.35
2624.32355	4239.15
2626.98416	4225.45
2629.64311	4220.85
2632.30041	4215.65
2634.95605	4196.55
2637.61004	4190.05
2640.26238	4189.55
2642.91306	4177.95
2645.56209	4176.65
2648.20948	4163.65
2650.85521	4170.65
2653.4993	4168.05
2656.14175	4167.75
2658.78255	4160.95
2661.42171	4167.05
2664.05923	4175.05
2666.6951	4169.25
2669.32934	4168.95
2671.96194	4164.45
2674.59291	4168.45
2677.22224	4162.55
2679.84993	4152.75
2682.476	4157.75
2685.10043	4148.75
2687.72324	4144.95
2690.34441	4135.25
2692.96396	4159.95
2695.58188	4157.75
2698.19818	4156.65
2700.81285	4136.15
2703.4259	4150.45
2706.03733	4124.15
2708.64714	4104.85
2711.25533	4127.65
2713.86191	4129.15
2716.46687	4142.25
2719.07021	4129.95
2721.67194	4131.65
2724.27206	4138.45
2726.87057	4151.35
2729.46747	4129.95
2732.06276	4133.55
2734.65644	4119.35
2737.24852	4124.45
2739.83899	4122.45
2742.42786	4115.45
2745.01513	4100.95
2747.60079	4087.45
2750.18486	4092.95
2752.76733	4096.95
2755.3482	4074.35
2757.92747	4070.25
2760.50515	4071.35
2763.08123	4065.35
2765.65573	4063.65
2768.22863	4066.25
2770.79994	4051.65
2773.36967	4051.25
2775.9378	4039.75
2778.50435	4035.85
2781.06932	4027.35
2783.6327	4035.05
2786.1945	4006.65
2788.75471	4009.15
2791.31335	3998.55
2793.87041	3982.75
2796.42589	3989.15
2798.97979	3976.35
2801.53212	3966.85
2804.08288	3965.55
2806.63206	3957.15
2809.17967	3934.75
2811.72571	3950.05
2814.27018	3916.65
2816.81308	3915.45
2819.35442	3916.75
2821.89419	3899.35
2824.43239	3902.05
2826.96904	3908.55
2829.50412	3901.95
2832.03763	3895.75
2834.56959	3882.65
2837.1	3904.85
2839.62884	3911.05
2842.15613	3920.85
2844.68186	3943.45
2847.20604	3955.05
2849.72867	3959.05
2852.24974	3955.45
2854.76927	3962.65
2857.28724	3951.95
2859.80367	3941.55
2862.31855	3913.85
2864.83189	3932.55
2867.34368	3928.75
2869.85393	3915.05
2872.36264	3919.85
2874.8698	3912.75
2877.37543	3919.25
2879.87952	3902.15
2882.38207	3893.85
2884.88308	3898.65
2887.38256	3902.75
2889.88051	3880.55
2892.37692	3888.65
2894.8718	3904.95
2897.36515	3883.75
2899.85698	3908.15
2902.34727	3896.25
2904.83604	3900.55
2907.32328	3925.05
2909.809	3925.75
2912.29319	3911.75
2914.77587	3908.05
2917.25702	3905.25
2919.73665	3906.65
2922.21476	3907.05
2924.69136	3908.15
2927.16644	3904.85
2929.64	3909.15
2932.11205	3892.65
2934.58258	3898.15
2937.05161	3889.95
2939.51912	3901.45
2941.98513	3872.45
2944.44962	3856.25
2946.91261	3847.15
2949.37409	3839.45
2951.83407	3849.35
2954.29254	3836.75
2956.74951	3829.15
2959.20498	3822.55
2961.65895	3817.65
2964.11142	3814.05
2966.56239	3795.65
2969.01186	3786.55
2971.45984	3781.25
2973.90632	3758.55
2976.35131	3757.05
2978.7948	3745.95
2981.23681	3762.35
2983.67732	3739.65
2986.11635	3732.25
2988.55388	3713.65
2990.98993	3707.55
2993.4245	3695.15
2995.85758	3697.85
2998.28917	3688.05
3000.71928	3692.35
3003.14791	3673.75
3005.57506	3672.65
3008.00073	3666.95
3010.42493	3640.55
3012.84764	3654.95
3015.26888	3651.95
3017.68865	3636.35
3020.10694	3628.35
3022.52376	3626.95
3024.9391	3621.95
3027.35298	3613.65
3029.76539	3618.45
3032.17632	3593.45
3034.5858	3609.05
3036.9938	3598.65
3039.40034	3592.45
3041.80542	3596.95
3044.20903	3595.05
3046.61118	3580.15
3049.01187	3586.95
3051.4111	3594.85
3053.80888	3577.55
3056.20519	3574.85
3058.60005	3567.25
3060.99345	3557.65
3063.3854	3544.65
3065.7759	3556.85
3068.16494	3535.05
3070.55254	3536.65
3072.93868	3539.75
3075.32338	3513.75
3077.70662	3524.45
3080.08842	3513.75
3082.46878	3514.15
3084.84769	3518.95
3087.22515	3515.95
3089.60118	3526.25
3091.97576	3515.25
3094.3489	3530.85
3096.72061	3525.75
3099.09087	3530.75
3101.4597	3520.05
3103.82709	3530.35
3106.19305	3514.95
3108.55757	3531.05
3110.92066	3524.75
3113.28232	3516.45
3115.64255	3524.95
3118.00134	3506.45
3120.35871	3499.75
3122.71466	3526.15
3125.06917	3514.25
3127.42226	3504.85
3129.77393	3513.85
3132.12417	3513.75
3134.47299	3512.15
3136.82039	3522.15
3139.16636	3516.95
3141.51092	3528.35
3143.85406	3544.25
3146.19579	3540.75
3148.53609	3544.45
3150.87499	3552.45
3153.21246	3561.35
3155.54853	3561.75
3157.88318	3559.35
3160.21642	3567.85
3162.54826	3582.65
3164.87868	3570.75
3167.2077	3585.75
3169.5353	3591.15
3171.86151	3586.55
3174.18631	3581.75
3176.5097	3598.75
3178.83169	3585.05
3181.15228	3588.25
3183.47147	3582.45
3185.78926	3591.85
3188.10565	3581.45
3190.42065	3581.85
3192.73424	3578.85
3195.04645	3579.45
3197.35725	3580.35
3199.66667	3599.85
3201.97469	3590.05
3204.28132	3601.05
3206.58656	3602.15
3208.8904	3612.25
3211.19287	3607.65
3213.49394	3621.25
3215.79363	3609.95
3218.09193	3623.85
3220.38884	3621.75
3222.68438	3616.85
3224.97853	3597.05
3227.2713	3624.05
3229.56269	3608.05
3231.8527	3616.85
3234.14133	3604.05
3236.42858	3610.95
3238.71446	3600.65
3240.99896	3595.25
3243.28209	3580.05
3245.56384	3592.95
3247.84423	3586.35
3250.12324	3573.95
3252.40088	3584.15
3254.67715	3589.65
3256.95205	3579.85
3259.22558	3571.25
3261.49775	3579.05
3263.76855	3573.85
3266.03799	3546.75
3268.30606	3562.85
3270.57277	3551.35
3272.83812	3529.55
3275.10211	3531.95
3277.36474	3519.45
3279.62601	3528.55
3281.88593	3507.75
3284.14448	3521.65
3286.40168	3518.15
3288.65753	3513.65
3290.91202	3511.05
3293.16516	3497.65
3295.41695	3494.15
3297.66738	3479.05
3299.91647	3465.15
3302.16421	3459.75
3304.4106	3435.95
3306.65564	3410.65
3308.89933	3398.05
3311.14169	3378.05
3313.38269	3352.75
3315.62236	3325.55
3317.86068	3292.35
3320.09766	3276.95
3322.3333	3259.15
3324.5676	3240.25
3326.80056	3192.35
3329.03219	3168.05
3331.26248	2.05
3333.49143	0.75
3335.71905	-0.55
