Data from AgNPs_FTO_APTES_UA_1uM_CRN_500uM_R6G_10uM_NaF_0.1M_Addition_RamanShift__17__18-04-29-880.txt Node

Date: Thu Jan 27 18:04:29 GMT 2022
User: TCL
Spectrometer: QEP01345
Trigger mode: 4
Integration Time (sec): 7.000000E0
Scans to average: 10
Electric dark correction enabled: true
Nonlinearity correction enabled: false
Boxcar width: 0
XAxis mode: Raman Shifts
Number of Pixels in Spectrum: 1044
>>>>>Begin Spectral Data<<<<<
46.04893	0.25
50.45542	0.85
54.85868	-1.35
59.25871	-0.45
63.6555	42.05
68.04907	47.05
72.43941	48.05
76.82654	52.25
81.21044	53.35
85.59113	53.35
89.96862	54.25
94.34289	58.45
98.71396	61.55
103.08183	57.35
107.4465	64.25
111.80798	63.55
116.16626	62.05
120.52136	71.25
124.87327	67.75
129.222	65.45
133.56755	70.75
137.90993	73.55
142.24913	80.05
146.58517	89.05
150.91804	98.35
155.24774	114.25
159.57429	137.85
163.89768	166.85
168.21792	217.95
172.53501	294.65
176.84895	395.95
181.15975	557.95
185.46741	776.65
189.77193	1060.15
194.07331	1429.25
198.37157	1832.45
202.6667	2272.25
206.9587	2717.75
211.24758	3128.35
215.53334	3573.05
219.81599	4014.55
224.09553	4508.05
228.37195	5058.65
232.64527	5613.35
236.91549	6255.65
241.18261	6882.15
245.44663	7462.65
249.70755	7978.65
253.96539	8432.85
258.22014	8814.95
262.4718	9142.35
266.72039	9336.75
270.96589	9444.65
275.20832	9416.55
279.44768	9367.75
283.68397	9249.55
287.91719	9168.75
292.14735	9104.25
296.37445	9085.75
300.59849	9119.55
304.81948	9151.65
309.03742	9178.25
313.25231	9051.25
317.46415	8833.15
321.67296	8589.55
325.87872	8363.55
330.08145	8263.25
334.28114	8242.55
338.47781	8328.15
342.67145	8398.45
346.86207	8511.85
351.04966	8697.55
355.23424	8867.25
359.4158	9003.55
363.59435	9151.55
367.76989	9219.25
371.94243	9291.95
376.11196	9334.95
380.27849	9367.45
384.44203	9426.45
388.60257	9483.65
392.76012	9534.95
396.91468	9626.55
401.06626	9751.35
405.21485	9869.85
409.36047	9856.45
413.50311	9704.25
417.64277	9615.45
421.77947	9600.35
425.9132	9618.65
430.04396	9653.75
434.17176	9701.05
438.2966	9745.75
442.41849	9830.75
446.53742	10030.35
450.6534	10234.75
454.76644	10413.75
458.87653	10463.35
462.98368	10444.35
467.08789	10352.55
471.18916	10233.45
475.2875	10135.65
479.38291	10089.35
483.4754	9992.25
487.56496	9928.95
491.6516	9816.75
495.73531	9751.75
499.81612	9721.85
503.89401	9780.25
507.96899	9838.75
512.04106	9840.15
516.11023	9801.95
520.1765	9731.75
524.23987	9642.85
528.30034	9559.25
532.35792	9468.65
536.41261	9364.45
540.46441	9281.95
544.51333	9298.85
548.55936	9351.55
552.60252	9520.95
556.64279	9692.85
560.6802	9800.25
564.71473	9884.25
568.7464	10001.95
572.7752	10225.25
576.80114	10381.45
580.82422	10563.65
584.84444	10754.25
588.86181	10927.15
592.87633	11074.25
596.888	11013.15
600.89682	10905.35
604.9028	11067.65
608.90594	11932.05
612.90624	12892.85
616.90371	12368.65
620.89834	10498.15
624.89015	9647.05
628.87913	9541.05
632.86528	9595.95
636.84862	9619.65
640.82913	9539.35
644.80683	9368.65
648.78172	9210.35
652.75379	9161.05
656.72306	9243.25
660.68952	9359.95
664.65319	9348.75
668.61405	9242.75
672.57211	9228.25
676.52738	9290.05
680.47986	9369.05
684.42955	9331.15
688.37646	9252.65
692.32058	9207.15
696.26192	9193.75
700.20048	9269.65
704.13626	9278.75
708.06928	9274.95
711.99952	9247.65
715.927	9226.65
719.85171	9227.45
723.77365	9203.55
727.69284	9142.55
731.60928	9107.15
735.52295	9029.95
739.43388	9059.85
743.34206	9078.75
747.24749	9105.55
751.15017	9144.15
755.05012	9250.35
758.94733	9476.25
762.8418	9842.15
766.73354	10502.95
770.62254	11243.25
774.50882	11537.85
778.39237	11148.35
782.27321	10378.85
786.15132	9688.05
790.02671	9280.75
793.89938	9096.05
797.76935	9038.05
801.6366	8995.85
805.50115	8972.25
809.36299	8907.15
813.22213	8850.95
817.07857	8796.45
820.93231	8781.85
824.78336	8725.55
828.63172	8725.25
832.47738	8720.55
836.32036	8722.45
840.16066	8744.35
843.99827	8769.25
847.8332	8724.65
851.66546	8690.45
855.49504	8670.35
859.32195	8693.45
863.1462	8722.35
866.96777	8701.65
870.78668	8683.75
874.60293	8677.75
878.41652	8667.35
882.22745	8692.05
886.03573	8723.05
889.84136	8728.65
893.64433	8719.35
897.44466	8685.55
901.24235	8638.65
905.0374	8585.55
908.8298	8551.45
912.61957	8547.55
916.40671	8589.65
920.19121	8700.75
923.97308	8775.45
927.75233	8802.55
931.52895	8807.75
935.30295	8717.95
939.07433	8560.75
942.84309	8426.75
946.60924	8348.85
950.37278	8312.65
954.13371	8293.25
957.89203	8258.55
961.64774	8217.35
965.40086	8229.15
969.15137	8172.95
972.89929	8129.55
976.64461	8087.25
980.38733	8091.95
984.12747	8082.65
987.86502	8118.45
991.59999	8200.75
995.33237	8289.75
999.06217	8444.85
1002.78939	8623.55
1006.51404	8727.15
1010.23611	8800.75
1013.95561	8862.95
1017.67255	8876.25
1021.38692	8859.45
1025.09872	8767.85
1028.80796	8757.25
1032.51465	8854.55
1036.21877	8980.15
1039.92035	9017.55
1043.61937	8966.55
1047.31584	8852.45
1051.00976	8775.55
1054.70114	8729.75
1058.38998	8756.25
1062.07627	8803.65
1065.76003	8855.85
1069.44126	8900.85
1073.11995	8985.25
1076.79611	9119.05
1080.46974	9126.65
1084.14085	9146.15
1087.80943	9164.25
1091.47549	9204.15
1095.13903	9218.75
1098.80005	9115.95
1102.45857	8944.05
1106.11456	8813.55
1109.76805	8747.85
1113.41903	8777.55
1117.06751	8859.55
1120.71348	8979.95
1124.35696	9099.65
1127.99793	9257.45
1131.63641	9370.05
1135.2724	9270.25
1138.90589	9143.35
1142.5369	9067.05
1146.16542	9035.55
1149.79145	9043.65
1153.415	9076.65
1157.03607	9189.75
1160.65467	9378.05
1164.27079	9713.55
1167.88443	10168.15
1171.49561	10695.95
1175.10432	11414.05
1178.71056	12315.75
1182.31434	13159.25
1185.91565	13607.65
1189.51451	13552.65
1193.11091	13150.25
1196.70485	12602.55
1200.29634	12019.15
1203.88538	11632.75
1207.47197	11283.75
1211.05612	11004.75
1214.63782	10772.95
1218.21708	10610.85
1221.79391	10517.55
1225.36829	10479.15
1228.94024	10392.05
1232.50976	10247.15
1236.07685	10091.85
1239.6415	9988.75
1243.20374	9954.45
1246.76355	9989.25
1250.32093	10067.85
1253.8759	10241.25
1257.42845	10457.35
1260.97859	10726.75
1264.52631	10959.15
1268.07163	11197.15
1271.61453	11499.15
1275.15503	11785.95
1278.69312	12089.15
1282.22882	12376.65
1285.76211	12658.15
1289.29301	13005.85
1292.82151	13455.65
1296.34761	14031.95
1299.87133	14772.25
1303.39266	15655.05
1306.9116	16622.45
1310.42815	17555.75
1313.94233	18122.35
1317.45412	18061.05
1320.96354	17595.55
1324.47058	17081.05
1327.97525	16609.65
1331.47754	16338.65
1334.97747	16150.35
1338.47502	16042.35
1341.97022	15934.25
1345.46305	15827.85
1348.95352	15806.05
1352.44163	15975.25
1355.92738	16415.05
1359.41078	17195.25
1362.89183	17875.85
1366.37053	17778.15
1369.84688	16417.15
1373.32088	14615.05
1376.79254	13265.85
1380.26186	12635.95
1383.72883	12476.85
1387.19347	12395.35
1390.65578	12199.45
1394.11575	12137.65
1397.57339	12238.15
1401.0287	12492.55
1404.48168	12716.95
1407.93234	12812.55
1411.38068	12663.45
1414.82669	12382.65
1418.27039	11997.85
1421.71177	11576.45
1425.15083	11197.05
1428.58758	10941.85
1432.02203	10974.55
1435.45416	11143.35
1438.88399	11390.65
1442.31151	11657.95
1445.73673	11776.25
1449.15965	11925.65
1452.58027	12009.25
1455.9986	12057.75
1459.41463	12100.55
1462.82837	12213.45
1466.23982	12429.65
1469.64898	12637.65
1473.05586	12790.95
1476.46045	12833.25
1479.86276	12807.75
1483.26279	12720.95
1486.66054	12686.95
1490.05602	12695.05
1493.44922	12757.25
1496.84016	12951.15
1500.22882	13229.05
1503.61521	13742.45
1506.99934	14426.15
1510.38121	15008.05
1513.76081	15162.45
1517.13816	14793.25
1520.51324	14035.45
1523.88607	13342.95
1527.25665	12890.35
1530.62498	12652.25
1533.99105	12520.05
1537.35488	12391.55
1540.71647	12272.55
1544.07581	12112.05
1547.4329	11920.35
1550.78776	11721.55
1554.14038	11585.65
1557.49077	11495.95
1560.83892	11444.95
1564.18484	11468.15
1567.52853	11507.25
1570.86999	11651.45
1574.20922	11855.75
1577.54624	11992.45
1580.88103	11968.65
1584.2136	11883.65
1587.54395	11984.55
1590.87208	12396.85
1594.19801	12997.75
1597.52172	13777.35
1600.84321	14189.65
1604.16251	13874.05
1607.47959	12996.55
1610.79447	11973.05
1614.10715	10988.65
1617.41763	10197.05
1620.7259	9639.15
1624.03199	9292.65
1627.33587	9252.05
1630.63757	9388.65
1633.93707	9830.35
1637.23439	10622.45
1640.52951	11725.75
1643.82246	13158.35
1647.11321	14386.75
1650.40179	14839.05
1653.68819	14056.15
1656.97241	12429.75
1660.25446	10742.55
1663.53433	9501.85
1666.81203	8738.45
1670.08756	8264.45
1673.36092	7973.75
1676.63211	7813.65
1679.90115	7680.15
1683.16801	7567.65
1686.43272	7467.35
1689.69527	7403.25
1692.95567	7345.95
1696.2139	7281.15
1699.46999	7208.65
1702.72392	7168.75
1705.97571	7182.45
1709.22535	7184.95
1712.47284	7202.15
1715.71819	7194.95
1718.96139	7214.55
1722.20246	7194.95
1725.44139	7164.35
1728.67818	7123.85
1731.91284	7092.25
1735.14537	7044.35
1738.37576	7028.15
1741.60403	7043.25
1744.83017	7004.95
1748.05418	6994.05
1751.27607	7009.15
1754.49584	6971.95
1757.71349	6967.35
1760.92903	6958.05
1764.14244	6922.15
1767.35375	6897.25
1770.56294	6840.45
1773.77002	6831.05
1776.97499	6812.45
1780.17785	6834.25
1783.37861	6823.25
1786.57727	6798.15
1789.77382	6790.75
1792.96828	6773.25
1796.16064	6746.85
1799.3509	6700.25
1802.53907	6731.65
1805.72514	6687.75
1808.90913	6672.05
1812.09102	6660.85
1815.27083	6655.15
1818.44856	6644.35
1821.6242	6636.55
1824.79776	6630.05
1827.96924	6610.75
1831.13864	6610.65
1834.30597	6606.15
1837.47122	6610.45
1840.6344	6603.35
1843.7955	6584.95
1846.95454	6588.45
1850.11151	6594.75
1853.26642	6596.25
1856.41926	6593.65
1859.57004	6600.95
1862.71876	6581.35
1865.86542	6585.15
1869.01003	6556.25
1872.15258	6561.75
1875.29308	6562.55
1878.43152	6547.45
1881.56792	6544.25
1884.70227	6535.15
1887.83457	6531.95
1890.96482	6520.95
1894.09304	6519.45
1897.21921	6497.05
1900.34335	6488.75
1903.46544	6497.85
1906.58551	6480.45
1909.70353	6476.35
1912.81953	6464.35
1915.93349	6442.85
1919.04543	6451.75
1922.15534	6428.35
1925.26322	6420.75
1928.36908	6423.55
1931.47292	6384.95
1934.57473	6378.75
1937.67453	6349.35
1940.77232	6340.45
1943.86808	6318.15
1946.96184	6289.55
1950.05358	6285.25
1953.14331	6262.05
1956.23103	6241.45
1959.31675	6214.15
1962.40046	6206.05
1965.48217	6183.25
1968.56188	6165.75
1971.63959	6158.45
1974.7153	6129.65
1977.78901	6112.95
1980.86073	6096.95
1983.93046	6077.35
1986.99819	6054.95
1990.06394	6046.85
1993.1277	6048.35
1996.18947	6000.45
1999.24925	5996.25
2002.30706	5985.25
2005.36288	5964.45
2008.41672	5950.85
2011.46859	5944.25
2014.51848	5906.15
2017.56639	5897.45
2020.61233	5898.25
2023.6563	5880.55
2026.6983	5874.55
2029.73833	5869.15
2032.7764	5857.85
2035.8125	5834.75
2038.84664	5820.25
2041.87881	5797.55
2044.90903	5796.25
2047.93729	5788.15
2050.96359	5778.95
2053.98794	5753.75
2057.01034	5775.65
2060.03078	5774.25
2063.04927	5759.45
2066.06582	5747.05
2069.08042	5742.65
2072.09307	5749.65
2075.10378	5747.55
2078.11255	5743.35
2081.11938	5716.75
2084.12426	5750.75
2087.12722	5725.55
2090.12824	5709.15
2093.12732	5742.25
2096.12447	5729.85
2099.11969	5712.25
2102.11299	5726.05
2105.10435	5738.05
2108.09379	5725.55
2111.08131	5754.25
2114.0669	5740.55
2117.05057	5745.55
2120.03233	5745.05
2123.01216	5737.05
2125.99008	5754.55
2128.96609	5745.75
2131.94018	5758.65
2134.91236	5777.95
2137.88263	5780.65
2140.851	5781.25
2143.81746	5784.35
2146.78201	5770.65
2149.74466	5786.15
2152.7054	5759.75
2155.66425	5773.35
2158.6212	5779.25
2161.57625	5750.45
2164.52941	5768.15
2167.48067	5754.25
2170.43004	5766.95
2173.37752	5760.85
2176.32311	5748.25
2179.26681	5755.95
2182.20863	5748.75
2185.14856	5771.65
2188.08661	5764.65
2191.02278	5764.55
2193.95707	5745.15
2196.88948	5740.35
2199.82001	5724.15
2202.74867	5732.05
2205.67545	5739.95
2208.60037	5733.35
2211.52341	5724.15
2214.44458	5717.55
2217.36388	5698.65
2220.28132	5699.15
2223.1969	5688.95
2226.11061	5683.15
2229.02246	5685.95
2231.93245	5670.65
2234.84058	5637.85
2237.74686	5621.55
2240.65128	5634.85
2243.55385	5610.75
2246.45456	5605.95
2249.35343	5597.45
2252.25044	5587.95
2255.14561	5595.35
2258.03893	5582.55
2260.93041	5563.25
2263.82004	5551.35
2266.70783	5549.75
2269.59378	5554.15
2272.4779	5518.75
2275.36017	5479.95
2278.24061	5499.55
2281.11922	5484.75
2283.996	5471.35
2286.87094	5475.45
2289.74405	5460.65
2292.61534	5458.35
2295.4848	5435.95
2298.35243	5448.85
2301.21824	5449.75
2304.08223	5444.95
2306.94439	5445.15
2309.80474	5440.05
2312.66327	5454.45
2315.51999	5440.75
2318.37489	5437.95
2321.22797	5424.95
2324.07925	5426.25
2326.92871	5404.35
2329.77637	5422.25
2332.62222	5399.15
2335.46626	5387.55
2338.3085	5396.45
2341.14893	5394.35
2343.98756	5392.15
2346.8244	5389.15
2349.65943	5388.75
2352.49267	5377.05
2355.32411	5373.85
2358.15376	5378.25
2360.98161	5383.55
2363.80768	5385.85
2366.63195	5376.95
2369.45444	5372.85
2372.27514	5376.05
2375.09405	5358.25
2377.91118	5328.35
2380.72652	5331.75
2383.54009	5307.25
2386.35187	5308.85
2389.16188	5302.05
2391.97011	5279.05
2394.77657	5273.35
2397.58125	5278.85
2400.38416	5259.05
2403.18529	5243.75
2405.98466	5242.95
2408.78226	5234.35
2411.57809	5231.45
2414.37216	5212.05
2417.16446	5191.15
2419.955	5187.25
2422.74378	5218.95
2425.5308	5203.35
2428.31606	5196.95
2431.09956	5187.85
2433.88131	5175.25
2436.6613	5189.05
2439.43954	5189.25
2442.21603	5195.45
2444.99077	5170.35
2447.76377	5170.75
2450.53501	5170.65
2453.30451	5172.05
2456.07226	5179.75
2458.83827	5151.45
2461.60254	5175.05
2464.36507	5160.15
2467.12586	5162.15
2469.88492	5157.15
2472.64224	5165.15
2475.39782	5153.25
2478.15167	5144.25
2480.90379	5142.35
2483.65417	5138.95
2486.40283	5148.85
2489.14976	5158.25
2491.89497	5152.85
2494.63845	5160.85
2497.3802	5142.15
2500.12024	5137.45
2502.85855	5142.05
2505.59514	5150.85
2508.33002	5139.35
2511.06318	5118.45
2513.79462	5117.25
2516.52435	5128.15
2519.25237	5100.15
2521.97867	5099.95
2524.70327	5094.45
2527.42616	5097.85
2530.14734	5089.95
2532.86681	5075.55
2535.58458	5085.55
2538.30065	5072.35
2541.01501	5072.65
2543.72768	5072.55
2546.43864	5052.05
2549.14791	5058.65
2551.85548	5044.15
2554.56136	5028.55
2557.26554	5026.95
2559.96803	5026.55
2562.66883	5022.45
2565.36794	5022.15
2568.06536	5014.55
2570.7611	5008.75
2573.45514	5002.75
2576.14751	4986.05
2578.83819	4981.85
2581.52719	4988.05
2584.21451	4977.55
2586.90015	4975.05
2589.58411	4954.75
2592.2664	4964.15
2594.94701	4962.15
2597.62594	4958.45
2600.30321	4936.65
2602.9788	4937.05
2605.65273	4916.95
2608.32498	4941.85
2610.99557	4923.95
2613.66449	4927.45
2616.33175	4920.25
2618.99734	4917.95
2621.66128	4927.75
2624.32355	4921.05
2626.98416	4930.05
2629.64311	4916.95
2632.30041	4908.95
2634.95605	4904.35
2637.61004	4898.05
2640.26238	4887.05
2642.91306	4890.85
2645.56209	4891.95
2648.20948	4871.45
2650.85521	4889.25
2653.4993	4873.85
2656.14175	4892.45
2658.78255	4890.45
2661.42171	4895.85
2664.05923	4900.15
2666.6951	4902.45
2669.32934	4889.05
2671.96194	4886.65
2674.59291	4900.35
2677.22224	4884.05
2679.84993	4898.05
2682.476	4880.75
2685.10043	4897.15
2687.72324	4872.05
2690.34441	4871.15
2692.96396	4866.15
2695.58188	4880.25
2698.19818	4889.05
2700.81285	4895.15
2703.4259	4873.35
2706.03733	4862.45
2708.64714	4867.35
2711.25533	4884.85
2713.86191	4884.75
2716.46687	4880.05
2719.07021	4896.15
2721.67194	4891.75
2724.27206	4900.95
2726.87057	4908.45
2729.46747	4891.65
2732.06276	4904.15
2734.65644	4895.35
2737.24852	4912.65
2739.83899	4894.05
2742.42786	4874.25
2745.01513	4869.15
2747.60079	4888.15
2750.18486	4879.05
2752.76733	4878.85
2755.3482	4876.45
2757.92747	4883.65
2760.50515	4865.55
2763.08123	4881.85
2765.65573	4876.75
2768.22863	4867.45
2770.79994	4855.65
2773.36967	4846.85
2775.9378	4860.05
2778.50435	4857.65
2781.06932	4857.15
2783.6327	4837.85
2786.1945	4841.95
2788.75471	4838.05
2791.31335	4818.25
2793.87041	4818.45
2796.42589	4816.35
2798.97979	4826.75
2801.53212	4806.35
2804.08288	4818.45
2806.63206	4796.95
2809.17967	4778.55
2811.72571	4765.05
2814.27018	4773.65
2816.81308	4768.35
2819.35442	4769.05
2821.89419	4756.95
2824.43239	4755.35
2826.96904	4765.25
2829.50412	4752.05
2832.03763	4762.05
2834.56959	4753.85
2837.1	4761.15
2839.62884	4775.75
2842.15613	4770.05
2844.68186	4807.85
2847.20604	4834.15
2849.72867	4833.35
2852.24974	4845.55
2854.76927	4831.85
2857.28724	4829.15
2859.80367	4812.95
2862.31855	4818.75
2864.83189	4818.85
2867.34368	4799.25
2869.85393	4809.35
2872.36264	4809.05
2874.8698	4808.65
2877.37543	4810.85
2879.87952	4792.45
2882.38207	4807.25
2884.88308	4810.35
2887.38256	4805.35
2889.88051	4808.95
2892.37692	4817.85
2894.8718	4812.75
2897.36515	4840.95
2899.85698	4844.95
2902.34727	4852.95
2904.83604	4854.75
2907.32328	4870.95
2909.809	4880.75
2912.29319	4887.55
2914.77587	4879.15
2917.25702	4899.35
2919.73665	4876.05
2922.21476	4889.65
2924.69136	4880.35
2927.16644	4878.95
2929.64	4880.45
2932.11205	4896.35
2934.58258	4881.65
2937.05161	4890.65
2939.51912	4878.85
2941.98513	4867.15
2944.44962	4840.45
2946.91261	4831.05
2949.37409	4827.35
2951.83407	4825.95
2954.29254	4804.55
2956.74951	4804.85
2959.20498	4823.05
2961.65895	4798.95
2964.11142	4800.75
2966.56239	4764.05
2969.01186	4760.65
2971.45984	4733.05
2973.90632	4745.85
2976.35131	4735.65
2978.7948	4716.55
2981.23681	4702.15
2983.67732	4693.85
2986.11635	4674.05
2988.55388	4668.85
2990.98993	4669.55
2993.4245	4660.85
2995.85758	4640.95
2998.28917	4643.95
3000.71928	4626.65
3003.14791	4608.05
3005.57506	4622.65
3008.00073	4597.15
3010.42493	4583.15
3012.84764	4603.55
3015.26888	4599.25
3017.68865	4582.75
3020.10694	4586.85
3022.52376	4558.15
3024.9391	4565.95
3027.35298	4571.85
3029.76539	4566.95
3032.17632	4564.25
3034.5858	4551.85
3036.9938	4548.75
3039.40034	4543.85
3041.80542	4547.25
3044.20903	4537.65
3046.61118	4543.45
3049.01187	4522.05
3051.4111	4522.85
3053.80888	4523.85
3056.20519	4523.55
3058.60005	4513.75
3060.99345	4503.35
3063.3854	4491.95
3065.7759	4485.05
3068.16494	4496.15
3070.55254	4478.55
3072.93868	4466.15
3075.32338	4477.35
3077.70662	4468.85
3080.08842	4454.85
3082.46878	4464.55
3084.84769	4456.95
3087.22515	4463.95
3089.60118	4459.05
3091.97576	4480.45
3094.3489	4471.85
3096.72061	4481.85
3099.09087	4478.95
3101.4597	4467.65
3103.82709	4478.75
3106.19305	4487.25
3108.55757	4481.85
3110.92066	4476.05
3113.28232	4471.75
3115.64255	4457.55
3118.00134	4469.15
3120.35871	4465.85
3122.71466	4462.85
3125.06917	4452.25
3127.42226	4442.45
3129.77393	4455.25
3132.12417	4441.75
3134.47299	4440.15
3136.82039	4475.15
3139.16636	4476.25
3141.51092	4475.15
3143.85406	4488.75
3146.19579	4480.05
3148.53609	4493.95
3150.87499	4515.15
3153.21246	4494.55
3155.54853	4527.05
3157.88318	4536.55
3160.21642	4544.35
3162.54826	4543.75
3164.87868	4542.05
3167.2077	4555.85
3169.5353	4556.95
3171.86151	4565.85
3174.18631	4563.55
3176.5097	4557.75
3178.83169	4564.25
3181.15228	4566.35
3183.47147	4563.85
3185.78926	4568.05
3188.10565	4564.05
3190.42065	4560.05
3192.73424	4552.35
3195.04645	4566.45
3197.35725	4572.15
3199.66667	4574.85
3201.97469	4576.35
3204.28132	4571.05
3206.58656	4586.95
3208.8904	4588.95
3211.19287	4594.65
3213.49394	4600.65
3215.79363	4610.95
3218.09193	4623.65
3220.38884	4600.05
3222.68438	4603.45
3224.97853	4607.05
3227.2713	4618.75
3229.56269	4614.05
3231.8527	4620.15
3234.14133	4608.75
3236.42858	4612.75
3238.71446	4604.25
3240.99896	4587.75
3243.28209	4595.95
3245.56384	4583.35
3247.84423	4602.95
3250.12324	4589.65
3252.40088	4604.75
3254.67715	4589.85
3256.95205	4600.25
3259.22558	4577.95
3261.49775	4585.05
3263.76855	4587.35
3266.03799	4577.75
3268.30606	4555.65
3270.57277	4568.85
3272.83812	4551.45
3275.10211	4538.05
3277.36474	4543.25
3279.62601	4543.25
3281.88593	4528.55
3284.14448	4549.35
3286.40168	4528.05
3288.65753	4547.65
3290.91202	4547.35
3293.16516	4522.55
3295.41695	4524.95
3297.66738	4491.45
3299.91647	4473.95
3302.16421	4460.15
3304.4106	4429.95
3306.65564	4437.25
3308.89933	4391.25
3311.14169	4372.55
3313.38269	4339.85
3315.62236	4332.15
3317.86068	4279.15
3320.09766	4249.45
3322.3333	4223.25
3324.5676	4197.75
3326.80056	4121.65
3329.03219	4116.15
3331.26248	2.05
3333.49143	0.65
3335.71905	-1.25
