Data from AgNPs_FTO_APTES_UA_1uM_CRN_500uM_R6G_10uM_NaF_0.1M_Addition_RamanShift__3__17-48-09-862.txt Node

Date: Thu Jan 27 17:48:09 GMT 2022
User: TCL
Spectrometer: QEP01345
Trigger mode: 4
Integration Time (sec): 7.000000E0
Scans to average: 10
Electric dark correction enabled: true
Nonlinearity correction enabled: false
Boxcar width: 0
XAxis mode: Raman Shifts
Number of Pixels in Spectrum: 1044
>>>>>Begin Spectral Data<<<<<
46.04893	-0.05
50.45542	0.85
54.85868	-2.05
59.25871	-0.75
63.6555	39.65
68.04907	41.65
72.43941	44.75
76.82654	48.15
81.21044	50.05
85.59113	52.95
89.96862	51.35
94.34289	57.05
98.71396	59.55
103.08183	55.35
107.4465	62.45
111.80798	65.65
116.16626	63.85
120.52136	67.55
124.87327	66.05
129.222	65.95
133.56755	70.35
137.90993	70.55
142.24913	73.25
146.58517	86.75
150.91804	95.95
155.24774	108.65
159.57429	131.55
163.89768	160.75
168.21792	216.15
172.53501	283.55
176.84895	387.95
181.15975	545.75
185.46741	752.25
189.77193	1035.15
194.07331	1384.15
198.37157	1777.85
202.6667	2213.15
206.9587	2633.25
211.24758	3039.05
215.53334	3445.25
219.81599	3876.85
224.09553	4360.45
228.37195	4881.55
232.64527	5456.65
236.91549	6057.15
241.18261	6666.05
245.44663	7251.25
249.70755	7762.95
253.96539	8218.25
258.22014	8578.95
262.4718	8876.35
266.72039	9071.95
270.96589	9162.35
275.20832	9127.35
279.44768	9055.45
283.68397	8909.05
287.91719	8767.85
292.14735	8688.75
296.37445	8644.45
300.59849	8650.65
304.81948	8713.25
309.03742	8733.45
313.25231	8668.35
317.46415	8546.35
321.67296	8356.45
325.87872	8206.65
330.08145	8135.95
334.28114	8118.65
338.47781	8184.75
342.67145	8270.65
346.86207	8402.85
351.04966	8554.85
355.23424	8713.25
359.4158	8823.85
363.59435	8943.85
367.76989	8998.75
371.94243	9070.75
376.11196	9131.35
380.27849	9162.55
384.44203	9226.35
388.60257	9289.95
392.76012	9365.75
396.91468	9459.05
401.06626	9595.25
405.21485	9689.95
409.36047	9678.65
413.50311	9583.65
417.64277	9484.55
421.77947	9477.65
425.9132	9503.95
430.04396	9552.65
434.17176	9596.45
438.2966	9619.45
442.41849	9701.05
446.53742	9941.85
450.6534	10171.05
454.76644	10305.95
458.87653	10286.65
462.98368	10204.95
467.08789	10077.65
471.18916	9903.35
475.2875	9748.85
479.38291	9631.25
483.4754	9557.95
487.56496	9489.15
491.6516	9436.25
495.73531	9414.35
499.81612	9411.95
503.89401	9456.45
507.96899	9484.35
512.04106	9484.85
516.11023	9447.65
520.1765	9407.95
524.23987	9380.45
528.30034	9339.05
532.35792	9255.25
536.41261	9163.65
540.46441	9061.35
544.51333	8995.35
548.55936	9078.35
552.60252	9229.05
556.64279	9437.95
560.6802	9544.35
564.71473	9564.45
568.7464	9621.75
572.7752	9779.45
576.80114	9938.75
580.82422	10232.55
584.84444	10641.85
588.86181	11196.15
592.87633	11623.05
596.888	11611.95
600.89682	11072.55
604.9028	10854.95
608.90594	11499.65
612.90624	12410.65
616.90371	11949.95
620.89834	10213.95
624.89015	9399.75
628.87913	9245.65
632.86528	9306.65
636.84862	9321.65
640.82913	9235.65
644.80683	9042.05
648.78172	8917.15
652.75379	8943.45
656.72306	9007.05
660.68952	9115.45
664.65319	9065.15
668.61405	8935.75
672.57211	8909.95
676.52738	8969.35
680.47986	9016.15
684.42955	8977.05
688.37646	8880.55
692.32058	8882.05
696.26192	8945.95
700.20048	9052.65
704.13626	9104.55
708.06928	9089.85
711.99952	9057.65
715.927	9074.85
719.85171	9093.15
723.77365	9091.45
727.69284	8998.25
731.60928	8912.55
735.52295	8881.95
739.43388	8906.95
743.34206	8902.45
747.24749	8945.95
751.15017	9028.65
755.05012	9107.75
758.94733	9291.55
762.8418	9647.05
766.73354	10231.75
770.62254	10902.55
774.50882	11197.75
778.39237	10913.85
782.27321	10204.05
786.15132	9585.55
790.02671	9167.75
793.89938	9003.65
797.76935	8932.55
801.6366	8915.65
805.50115	8883.55
809.36299	8834.75
813.22213	8764.75
817.07857	8728.05
820.93231	8678.85
824.78336	8643.85
828.63172	8636.65
832.47738	8655.05
836.32036	8662.55
840.16066	8703.45
843.99827	8716.45
847.8332	8701.35
851.66546	8659.45
855.49504	8661.05
859.32195	8637.75
863.1462	8646.35
866.96777	8634.15
870.78668	8599.05
874.60293	8591.65
878.41652	8602.85
882.22745	8641.95
886.03573	8672.65
889.84136	8692.05
893.64433	8665.25
897.44466	8614.85
901.24235	8589.35
905.0374	8567.35
908.8298	8538.75
912.61957	8520.75
916.40671	8571.65
920.19121	8667.55
923.97308	8723.05
927.75233	8815.15
931.52895	8821.05
935.30295	8708.25
939.07433	8574.45
942.84309	8455.35
946.60924	8374.35
950.37278	8335.55
954.13371	8294.85
957.89203	8260.15
961.64774	8260.85
965.40086	8237.35
969.15137	8224.55
972.89929	8181.35
976.64461	8135.25
980.38733	8148.75
984.12747	8166.15
987.86502	8212.45
991.59999	8287.75
995.33237	8411.95
999.06217	8529.35
1002.78939	8702.95
1006.51404	8848.15
1010.23611	8904.85
1013.95561	9010.95
1017.67255	9017.75
1021.38692	8985.35
1025.09872	8868.95
1028.80796	8832.75
1032.51465	8976.65
1036.21877	9102.15
1039.92035	9207.05
1043.61937	9148.95
1047.31584	9042.55
1051.00976	8935.85
1054.70114	8848.65
1058.38998	8831.35
1062.07627	8869.95
1065.76003	8900.55
1069.44126	9002.05
1073.11995	9108.35
1076.79611	9236.75
1080.46974	9263.65
1084.14085	9237.65
1087.80943	9280.65
1091.47549	9318.65
1095.13903	9299.35
1098.80005	9208.85
1102.45857	9042.35
1106.11456	8916.25
1109.76805	8841.45
1113.41903	8858.45
1117.06751	8909.65
1120.71348	9015.85
1124.35696	9137.25
1127.99793	9294.85
1131.63641	9401.45
1135.2724	9326.15
1138.90589	9159.85
1142.5369	9108.75
1146.16542	9106.05
1149.79145	9109.25
1153.415	9115.35
1157.03607	9199.35
1160.65467	9399.05
1164.27079	9745.05
1167.88443	10205.15
1171.49561	10760.25
1175.10432	11378.05
1178.71056	12264.65
1182.31434	13119.55
1185.91565	13527.45
1189.51451	13381.85
1193.11091	12879.65
1196.70485	12285.55
1200.29634	11768.65
1203.88538	11381.65
1207.47197	11102.85
1211.05612	10881.45
1214.63782	10649.05
1218.21708	10465.35
1221.79391	10342.15
1225.36829	10300.75
1228.94024	10237.65
1232.50976	10126.35
1236.07685	9993.75
1239.6415	9898.95
1243.20374	9850.35
1246.76355	9868.85
1250.32093	9972.05
1253.8759	10134.55
1257.42845	10352.75
1260.97859	10597.95
1264.52631	10867.75
1268.07163	11127.35
1271.61453	11429.85
1275.15503	11705.05
1278.69312	12010.75
1282.22882	12281.05
1285.76211	12634.75
1289.29301	13056.45
1292.82151	13545.55
1296.34761	14176.65
1299.87133	15002.15
1303.39266	15920.85
1306.9116	16873.55
1310.42815	17741.15
1313.94233	18171.65
1317.45412	17935.35
1320.96354	17253.75
1324.47058	16498.85
1327.97525	15880.05
1331.47754	15423.85
1334.97747	15158.75
1338.47502	14887.65
1341.97022	14662.15
1345.46305	14505.15
1348.95352	14625.85
1352.44163	15146.35
1355.92738	16073.35
1359.41078	17206.25
1362.89183	18148.05
1366.37053	18054.35
1369.84688	16646.25
1373.32088	14619.15
1376.79254	13159.95
1380.26186	12492.35
1383.72883	12287.25
1387.19347	12099.55
1390.65578	11801.05
1394.11575	11660.95
1397.57339	11746.85
1401.0287	11993.35
1404.48168	12188.45
1407.93234	12214.75
1411.38068	12104.75
1414.82669	11871.75
1418.27039	11579.55
1421.71177	11256.85
1425.15083	10940.35
1428.58758	10765.25
1432.02203	10810.45
1435.45416	11038.35
1438.88399	11258.95
1442.31151	11378.05
1445.73673	11412.25
1449.15965	11474.15
1452.58027	11452.75
1455.9986	11351.45
1459.41463	11332.05
1462.82837	11440.05
1466.23982	11688.95
1469.64898	11975.75
1473.05586	12169.55
1476.46045	12275.85
1479.86276	12310.65
1483.26279	12312.25
1486.66054	12362.85
1490.05602	12458.95
1493.44922	12676.35
1496.84016	12889.75
1500.22882	13200.65
1503.61521	13712.35
1506.99934	14325.05
1510.38121	14845.85
1513.76081	14931.65
1517.13816	14443.05
1520.51324	13684.65
1523.88607	13070.05
1527.25665	12687.85
1530.62498	12493.85
1533.99105	12348.45
1537.35488	12213.05
1540.71647	12013.35
1544.07581	11782.95
1547.4329	11550.15
1550.78776	11334.85
1554.14038	11151.55
1557.49077	11028.25
1560.83892	10969.25
1564.18484	10929.55
1567.52853	11028.45
1570.86999	11178.25
1574.20922	11378.35
1577.54624	11555.65
1580.88103	11509.45
1584.2136	11439.35
1587.54395	11573.15
1590.87208	12034.25
1594.19801	12719.45
1597.52172	13464.65
1600.84321	13905.05
1604.16251	13566.25
1607.47959	12669.35
1610.79447	11564.15
1614.10715	10575.85
1617.41763	9833.95
1620.7259	9366.85
1624.03199	9118.05
1627.33587	9103.75
1630.63757	9284.15
1633.93707	9716.15
1637.23439	10451.45
1640.52951	11645.65
1643.82246	13219.25
1647.11321	14726.15
1650.40179	15217.55
1653.68819	14300.35
1656.97241	12480.25
1660.25446	10709.75
1663.53433	9472.55
1666.81203	8737.05
1670.08756	8320.15
1673.36092	8045.15
1676.63211	7887.65
1679.90115	7766.45
1683.16801	7661.65
1686.43272	7594.75
1689.69527	7539.15
1692.95567	7471.45
1696.2139	7409.05
1699.46999	7367.55
1702.72392	7320.15
1705.97571	7324.15
1709.22535	7365.45
1712.47284	7379.35
1715.71819	7406.55
1718.96139	7390.35
1722.20246	7381.95
1725.44139	7342.35
1728.67818	7314.35
1731.91284	7277.45
1735.14537	7251.55
1738.37576	7210.55
1741.60403	7215.15
1744.83017	7171.45
1748.05418	7178.55
1751.27607	7162.35
1754.49584	7148.75
1757.71349	7134.05
1760.92903	7118.85
1764.14244	7085.55
1767.35375	7085.05
1770.56294	7045.25
1773.77002	7032.35
1776.97499	7039.75
1780.17785	7069.45
1783.37861	7044.35
1786.57727	7045.25
1789.77382	7015.95
1792.96828	7005.25
1796.16064	6999.95
1799.3509	6966.45
1802.53907	6986.45
1805.72514	6958.15
1808.90913	6940.75
1812.09102	6939.35
1815.27083	6932.75
1818.44856	6911.05
1821.6242	6905.55
1824.79776	6886.85
1827.96924	6886.95
1831.13864	6881.35
1834.30597	6887.75
1837.47122	6881.85
1840.6344	6891.85
1843.7955	6855.15
1846.95454	6866.85
1850.11151	6857.65
1853.26642	6853.45
1856.41926	6851.15
1859.57004	6854.15
1862.71876	6843.65
1865.86542	6847.95
1869.01003	6849.95
1872.15258	6840.95
1875.29308	6832.55
1878.43152	6826.05
1881.56792	6815.75
1884.70227	6794.55
1887.83457	6791.15
1890.96482	6792.55
1894.09304	6766.75
1897.21921	6776.35
1900.34335	6742.45
1903.46544	6754.45
1906.58551	6736.85
1909.70353	6741.95
1912.81953	6729.75
1915.93349	6706.35
1919.04543	6693.95
1922.15534	6696.55
1925.26322	6678.15
1928.36908	6678.95
1931.47292	6661.45
1934.57473	6631.65
1937.67453	6628.15
1940.77232	6587.25
1943.86808	6585.75
1946.96184	6556.85
1950.05358	6541.55
1953.14331	6545.75
1956.23103	6503.25
1959.31675	6498.75
1962.40046	6489.75
1965.48217	6464.45
1968.56188	6444.15
1971.63959	6410.95
1974.7153	6406.85
1977.78901	6394.55
1980.86073	6383.45
1983.93046	6374.35
1986.99819	6357.45
1990.06394	6325.45
1993.1277	6305.35
1996.18947	6281.15
1999.24925	6268.35
2002.30706	6281.55
2005.36288	6235.05
2008.41672	6213.05
2011.46859	6203.95
2014.51848	6184.25
2017.56639	6168.15
2020.61233	6175.15
2023.6563	6134.15
2026.6983	6140.45
2029.73833	6135.05
2032.7764	6123.55
2035.8125	6117.15
2038.84664	6090.35
2041.87881	6072.05
2044.90903	6056.25
2047.93729	6051.15
2050.96359	6069.65
2053.98794	6033.55
2057.01034	6032.65
2060.03078	6047.35
2063.04927	6017.95
2066.06582	6027.55
2069.08042	6023.55
2072.09307	6019.95
2075.10378	6029.75
2078.11255	6033.05
2081.11938	6006.35
2084.12426	6025.85
2087.12722	6005.85
2090.12824	6001.25
2093.12732	6027.15
2096.12447	6010.25
2099.11969	6005.45
2102.11299	6021.15
2105.10435	6017.85
2108.09379	6007.25
2111.08131	6021.15
2114.0669	6027.55
2117.05057	6050.85
2120.03233	6040.45
2123.01216	6037.95
2125.99008	6058.05
2128.96609	6065.15
2131.94018	6070.15
2134.91236	6051.95
2137.88263	6074.15
2140.851	6065.85
2143.81746	6059.75
2146.78201	6068.45
2149.74466	6055.55
2152.7054	6047.05
2155.66425	6079.45
2158.6212	6074.15
2161.57625	6043.65
2164.52941	6055.95
2167.48067	6070.45
2170.43004	6061.45
2173.37752	6060.85
2176.32311	6053.05
2179.26681	6064.45
2182.20863	6067.75
2185.14856	6049.35
2188.08661	6068.55
2191.02278	6079.25
2193.95707	6064.55
2196.88948	6075.85
2199.82001	6047.25
2202.74867	6044.85
2205.67545	6035.35
2208.60037	6038.45
2211.52341	6020.95
2214.44458	6036.55
2217.36388	6003.75
2220.28132	6022.05
2223.1969	6000.45
2226.11061	5992.05
2229.02246	5987.35
2231.93245	5972.45
2234.84058	5970.55
2237.74686	5957.85
2240.65128	5954.95
2243.55385	5934.05
2246.45456	5937.05
2249.35343	5917.65
2252.25044	5920.25
2255.14561	5901.45
2258.03893	5898.25
2260.93041	5875.15
2263.82004	5882.15
2266.70783	5859.35
2269.59378	5841.05
2272.4779	5827.75
2275.36017	5818.55
2278.24061	5829.35
2281.11922	5827.45
2283.996	5812.35
2286.87094	5793.15
2289.74405	5797.15
2292.61534	5783.55
2295.4848	5775.45
2298.35243	5772.65
2301.21824	5776.95
2304.08223	5789.05
2306.94439	5804.45
2309.80474	5770.45
2312.66327	5797.75
2315.51999	5749.95
2318.37489	5765.15
2321.22797	5758.15
2324.07925	5748.45
2326.92871	5740.85
2329.77637	5738.05
2332.62222	5726.15
2335.46626	5732.75
2338.3085	5720.45
2341.14893	5726.15
2343.98756	5715.85
2346.8244	5712.75
2349.65943	5713.65
2352.49267	5702.55
2355.32411	5708.35
2358.15376	5684.65
2360.98161	5713.35
2363.80768	5716.55
2366.63195	5697.25
2369.45444	5694.95
2372.27514	5686.05
2375.09405	5678.25
2377.91118	5675.55
2380.72652	5659.95
2383.54009	5639.75
2386.35187	5649.25
2389.16188	5616.95
2391.97011	5613.85
2394.77657	5608.95
2397.58125	5600.65
2400.38416	5596.05
2403.18529	5580.45
2405.98466	5554.05
2408.78226	5568.75
2411.57809	5550.05
2414.37216	5558.55
2417.16446	5538.35
2419.955	5534.15
2422.74378	5525.65
2425.5308	5534.15
2428.31606	5538.95
2431.09956	5533.85
2433.88131	5542.05
2436.6613	5530.35
2439.43954	5513.55
2442.21603	5518.75
2444.99077	5517.05
2447.76377	5524.75
2450.53501	5512.15
2453.30451	5516.15
2456.07226	5513.65
2458.83827	5518.05
2461.60254	5495.95
2464.36507	5509.45
2467.12586	5478.95
2469.88492	5496.55
2472.64224	5514.45
2475.39782	5511.15
2478.15167	5487.25
2480.90379	5494.95
2483.65417	5517.25
2486.40283	5509.75
2489.14976	5512.85
2491.89497	5490.75
2494.63845	5494.35
2497.3802	5479.15
2500.12024	5497.65
2502.85855	5481.55
2505.59514	5491.85
2508.33002	5489.05
2511.06318	5474.45
2513.79462	5460.95
2516.52435	5454.55
2519.25237	5461.15
2521.97867	5437.85
2524.70327	5456.65
2527.42616	5449.35
2530.14734	5442.85
2532.86681	5418.65
2535.58458	5422.15
2538.30065	5415.65
2541.01501	5424.75
2543.72768	5414.25
2546.43864	5410.05
2549.14791	5419.15
2551.85548	5406.95
2554.56136	5378.55
2557.26554	5376.85
2559.96803	5386.05
2562.66883	5381.65
2565.36794	5378.05
2568.06536	5378.05
2570.7611	5360.05
2573.45514	5351.95
2576.14751	5352.95
2578.83819	5353.85
2581.52719	5338.25
2584.21451	5346.65
2586.90015	5309.85
2589.58411	5312.65
2592.2664	5322.15
2594.94701	5310.35
2597.62594	5312.55
2600.30321	5311.25
2602.9788	5298.45
2605.65273	5293.45
2608.32498	5296.25
2610.99557	5282.05
2613.66449	5287.85
2616.33175	5274.75
2618.99734	5273.75
2621.66128	5271.45
2624.32355	5255.15
2626.98416	5258.25
2629.64311	5275.15
2632.30041	5262.45
2634.95605	5241.45
2637.61004	5237.75
2640.26238	5226.05
2642.91306	5234.15
2645.56209	5214.95
2648.20948	5225.35
2650.85521	5210.65
2653.4993	5233.15
2656.14175	5239.55
2658.78255	5242.85
2661.42171	5239.15
2664.05923	5236.75
2666.6951	5258.55
2669.32934	5253.15
2671.96194	5228.85
2674.59291	5243.25
2677.22224	5239.15
2679.84993	5253.35
2682.476	5246.55
2685.10043	5243.15
2687.72324	5232.35
2690.34441	5225.15
2692.96396	5227.15
2695.58188	5255.85
2698.19818	5236.45
2700.81285	5243.45
2703.4259	5224.65
2706.03733	5224.35
2708.64714	5227.05
2711.25533	5250.05
2713.86191	5234.85
2716.46687	5251.25
2719.07021	5247.15
2721.67194	5253.35
2724.27206	5263.75
2726.87057	5268.45
2729.46747	5270.55
2732.06276	5280.75
2734.65644	5268.85
2737.24852	5278.25
2739.83899	5257.35
2742.42786	5255.35
2745.01513	5237.85
2747.60079	5250.35
2750.18486	5245.35
2752.76733	5238.85
2755.3482	5237.85
2757.92747	5237.75
2760.50515	5224.85
2763.08123	5247.35
2765.65573	5237.25
2768.22863	5224.35
2770.79994	5234.35
2773.36967	5222.05
2775.9378	5228.45
2778.50435	5218.25
2781.06932	5217.65
2783.6327	5197.75
2786.1945	5224.25
2788.75471	5217.45
2791.31335	5199.95
2793.87041	5176.85
2796.42589	5154.55
2798.97979	5184.25
2801.53212	5186.15
2804.08288	5191.15
2806.63206	5159.45
2809.17967	5141.45
2811.72571	5138.65
2814.27018	5130.35
2816.81308	5125.75
2819.35442	5140.75
2821.89419	5115.95
2824.43239	5139.75
2826.96904	5126.85
2829.50412	5123.25
2832.03763	5115.65
2834.56959	5120.35
2837.1	5120.55
2839.62884	5139.15
2842.15613	5154.05
2844.68186	5188.35
2847.20604	5216.55
2849.72867	5221.85
2852.24974	5235.35
2854.76927	5220.15
2857.28724	5226.85
2859.80367	5207.05
2862.31855	5217.05
2864.83189	5199.55
2867.34368	5184.95
2869.85393	5188.85
2872.36264	5204.85
2874.8698	5193.45
2877.37543	5196.85
2879.87952	5170.75
2882.38207	5181.05
2884.88308	5183.25
2887.38256	5197.25
2889.88051	5177.95
2892.37692	5196.75
2894.8718	5201.75
2897.36515	5217.85
2899.85698	5226.95
2902.34727	5244.35
2904.83604	5226.25
2907.32328	5249.25
2909.809	5245.85
2912.29319	5232.35
2914.77587	5254.35
2917.25702	5239.85
2919.73665	5255.55
2922.21476	5248.35
2924.69136	5258.55
2927.16644	5265.95
2929.64	5243.85
2932.11205	5250.35
2934.58258	5234.85
2937.05161	5265.25
2939.51912	5246.95
2941.98513	5222.45
2944.44962	5202.45
2946.91261	5176.45
2949.37409	5185.75
2951.83407	5185.55
2954.29254	5189.55
2956.74951	5158.95
2959.20498	5171.05
2961.65895	5135.95
2964.11142	5146.75
2966.56239	5144.05
2969.01186	5128.85
2971.45984	5108.55
2973.90632	5109.85
2976.35131	5082.85
2978.7948	5086.55
2981.23681	5059.15
2983.67732	5051.55
2986.11635	5055.15
2988.55388	5054.05
2990.98993	5021.85
2993.4245	5020.35
2995.85758	5028.15
2998.28917	5011.85
3000.71928	5006.95
3003.14791	5009.75
3005.57506	5000.25
3008.00073	5001.85
3010.42493	4970.85
3012.84764	4977.35
3015.26888	4975.05
3017.68865	4969.85
3020.10694	4971.55
3022.52376	4952.95
3024.9391	4945.85
3027.35298	4926.05
3029.76539	4942.85
3032.17632	4947.35
3034.5858	4935.25
3036.9938	4921.45
3039.40034	4923.75
3041.80542	4918.45
3044.20903	4907.55
3046.61118	4915.65
3049.01187	4903.75
3051.4111	4917.15
3053.80888	4905.35
3056.20519	4903.95
3058.60005	4905.25
3060.99345	4889.95
3063.3854	4881.45
3065.7759	4867.05
3068.16494	4872.35
3070.55254	4842.05
3072.93868	4850.55
3075.32338	4843.85
3077.70662	4858.85
3080.08842	4817.75
3082.46878	4836.25
3084.84769	4837.55
3087.22515	4838.05
3089.60118	4838.15
3091.97576	4837.65
3094.3489	4855.05
3096.72061	4864.75
3099.09087	4853.35
3101.4597	4850.95
3103.82709	4851.25
3106.19305	4845.45
3108.55757	4862.85
3110.92066	4858.15
3113.28232	4839.65
3115.64255	4843.55
3118.00134	4831.95
3120.35871	4849.55
3122.71466	4840.25
3125.06917	4812.65
3127.42226	4832.05
3129.77393	4829.85
3132.12417	4845.15
3134.47299	4844.15
3136.82039	4858.75
3139.16636	4846.05
3141.51092	4850.75
3143.85406	4854.75
3146.19579	4861.55
3148.53609	4891.75
3150.87499	4886.85
3153.21246	4895.35
3155.54853	4886.55
3157.88318	4914.75
3160.21642	4930.55
3162.54826	4918.15
3164.87868	4918.55
3167.2077	4939.85
3169.5353	4934.35
3171.86151	4941.85
3174.18631	4930.65
3176.5097	4943.55
3178.83169	4933.05
3181.15228	4946.95
3183.47147	4934.25
3185.78926	4930.15
3188.10565	4940.05
3190.42065	4935.35
3192.73424	4927.95
3195.04645	4923.25
3197.35725	4940.95
3199.66667	4937.25
3201.97469	4967.15
3204.28132	4942.85
3206.58656	4953.95
3208.8904	4946.15
3211.19287	4966.45
3213.49394	4971.15
3215.79363	4976.55
3218.09193	4970.75
3220.38884	4982.75
3222.68438	5005.15
3224.97853	4986.35
3227.2713	4992.85
3229.56269	4993.15
3231.8527	4968.95
3234.14133	4991.75
3236.42858	4970.65
3238.71446	4980.85
3240.99896	4979.95
3243.28209	4953.55
3245.56384	4958.65
3247.84423	4957.35
3250.12324	4941.65
3252.40088	4952.15
3254.67715	4979.75
3256.95205	4951.25
3259.22558	4953.25
3261.49775	4950.15
3263.76855	4957.05
3266.03799	4921.95
3268.30606	4919.95
3270.57277	4931.85
3272.83812	4914.75
3275.10211	4902.55
3277.36474	4897.05
3279.62601	4908.15
3281.88593	4877.75
3284.14448	4899.45
3286.40168	4902.65
3288.65753	4891.65
3290.91202	4906.65
3293.16516	4893.35
3295.41695	4874.05
3297.66738	4834.35
3299.91647	4853.65
3302.16421	4809.65
3304.4106	4780.95
3306.65564	4766.55
3308.89933	4746.95
3311.14169	4696.05
3313.38269	4667.75
3315.62236	4650.45
3317.86068	4623.75
3320.09766	4583.95
3322.3333	4546.15
3324.5676	4545.75
3326.80056	4469.25
3329.03219	4444.25
3331.26248	2.05
3333.49143	0.75
3335.71905	-1.05
