Data from AgNPs_FTO_APTES_UA_1uM_CRN_10uM_R6G_50uM_NaF_0.1M_Addition_RamanShift__1__15-42-09-719.txt Node

Date: Thu Jan 27 15:42:09 GMT 2022
User: TCL
Spectrometer: QEP01345
Trigger mode: 4
Integration Time (sec): 7.000000E0
Scans to average: 10
Electric dark correction enabled: true
Nonlinearity correction enabled: false
Boxcar width: 0
XAxis mode: Raman Shifts
Number of Pixels in Spectrum: 1044
>>>>>Begin Spectral Data<<<<<
46.04893	1.55
50.45542	0.65
54.85868	-0.55
59.25871	-0.95
63.6555	46.85
68.04907	52.45
72.43941	50.95
76.82654	56.75
81.21044	58.55
85.59113	58.55
89.96862	63.05
94.34289	62.05
98.71396	66.05
103.08183	63.75
107.4465	73.45
111.80798	71.05
116.16626	70.75
120.52136	79.15
124.87327	77.05
129.222	78.35
133.56755	83.35
137.90993	85.05
142.24913	94.55
146.58517	105.85
150.91804	117.85
155.24774	142.65
159.57429	170.15
163.89768	210.55
168.21792	280.15
172.53501	373.65
176.84895	520.45
181.15975	730.45
185.46741	1017.45
189.77193	1392.45
194.07331	1865.35
198.37157	2423.85
202.6667	2979.45
206.9587	3531.85
211.24758	4088.45
215.53334	4648.05
219.81599	5237.15
224.09553	5865.45
228.37195	6561.55
232.64527	7327.25
236.91549	8156.55
241.18261	8980.95
245.44663	9757.25
249.70755	10454.95
253.96539	11073.95
258.22014	11604.95
262.4718	12027.95
266.72039	12339.05
270.96589	12486.05
275.20832	12522.15
279.44768	12456.55
283.68397	12313.65
287.91719	12198.55
292.14735	12151.65
296.37445	12130.45
300.59849	12130.45
304.81948	12169.25
309.03742	12210.15
313.25231	12121.75
317.46415	11958.65
321.67296	11737.85
325.87872	11531.65
330.08145	11428.45
334.28114	11392.75
338.47781	11479.95
342.67145	11593.75
346.86207	11767.35
351.04966	11972.65
355.23424	12185.45
359.4158	12404.75
363.59435	12543.85
367.76989	12662.05
371.94243	12720.45
376.11196	12790.75
380.27849	12834.15
384.44203	12907.45
388.60257	12992.85
392.76012	13121.85
396.91468	13252.55
401.06626	13444.45
405.21485	13568.95
409.36047	13529.05
413.50311	13391.85
417.64277	13291.95
421.77947	13308.15
425.9132	13346.45
430.04396	13413.15
434.17176	13452.35
438.2966	13559.55
442.41849	13725.85
446.53742	14047.85
450.6534	14382.35
454.76644	14575.45
458.87653	14714.35
462.98368	14622.15
467.08789	14473.15
471.18916	14333.75
475.2875	14155.45
479.38291	14047.65
483.4754	13952.95
487.56496	13854.65
491.6516	13682.95
495.73531	13566.95
499.81612	13517.05
503.89401	13571.35
507.96899	13617.85
512.04106	13591.05
516.11023	13518.75
520.1765	13440.05
524.23987	13344.45
528.30034	13267.25
532.35792	13174.25
536.41261	13054.25
540.46441	12925.35
544.51333	12930.05
548.55936	13028.75
552.60252	13221.85
556.64279	13466.45
560.6802	13680.75
564.71473	13761.25
568.7464	13922.15
572.7752	14160.05
576.80114	14488.05
580.82422	14796.65
584.84444	15153.95
588.86181	15653.15
592.87633	16067.95
596.888	16060.25
600.89682	15649.35
604.9028	15555.65
608.90594	16349.65
612.90624	17350.75
616.90371	16551.35
620.89834	14415.65
624.89015	13453.85
628.87913	13336.25
632.86528	13399.65
636.84862	13373.75
640.82913	13178.65
644.80683	12974.65
648.78172	12818.55
652.75379	12814.55
656.72306	12915.25
660.68952	13090.55
664.65319	13014.95
668.61405	12864.75
672.57211	12836.85
676.52738	12878.75
680.47986	12860.75
684.42955	12821.45
688.37646	12784.85
692.32058	12814.15
696.26192	12940.85
700.20048	13080.45
704.13626	13171.65
708.06928	13190.95
711.99952	13143.15
715.927	13122.95
719.85171	13175.45
723.77365	13119.45
727.69284	12978.45
731.60928	12847.75
735.52295	12776.45
739.43388	12769.55
743.34206	12794.75
747.24749	12866.35
751.15017	12982.75
755.05012	13155.85
758.94733	13446.65
762.8418	13914.75
766.73354	14676.45
770.62254	15438.05
774.50882	15587.05
778.39237	15074.25
782.27321	14237.45
786.15132	13554.75
790.02671	13130.45
793.89938	12932.65
797.76935	12848.55
801.6366	12805.75
805.50115	12775.25
809.36299	12716.35
813.22213	12687.85
817.07857	12647.15
820.93231	12591.25
824.78336	12576.35
828.63172	12524.05
832.47738	12526.25
836.32036	12530.55
840.16066	12566.35
843.99827	12574.85
847.8332	12576.75
851.66546	12511.45
855.49504	12534.25
859.32195	12542.65
863.1462	12518.45
866.96777	12481.15
870.78668	12430.65
874.60293	12457.65
878.41652	12464.15
882.22745	12468.05
886.03573	12586.65
889.84136	12585.95
893.64433	12479.65
897.44466	12442.05
901.24235	12433.05
905.0374	12376.15
908.8298	12352.35
912.61957	12357.65
916.40671	12455.85
920.19121	12585.65
923.97308	12716.95
927.75233	12744.75
931.52895	12673.05
935.30295	12545.15
939.07433	12355.45
942.84309	12228.25
946.60924	12158.65
950.37278	12137.05
954.13371	12128.05
957.89203	12100.65
961.64774	12074.15
965.40086	12078.25
969.15137	12033.15
972.89929	12005.15
976.64461	12013.55
980.38733	11999.25
984.12747	12018.95
987.86502	12105.75
991.59999	12183.25
995.33237	12334.75
999.06217	12520.35
1002.78939	12796.45
1006.51404	12990.85
1010.23611	13153.45
1013.95561	13186.25
1017.67255	13222.65
1021.38692	13139.55
1025.09872	12979.15
1028.80796	12999.65
1032.51465	13161.05
1036.21877	13370.65
1039.92035	13455.65
1043.61937	13384.35
1047.31584	13222.65
1051.00976	13048.75
1054.70114	12984.55
1058.38998	12985.55
1062.07627	13041.45
1065.76003	13109.55
1069.44126	13207.25
1073.11995	13376.25
1076.79611	13501.75
1080.46974	13619.95
1084.14085	13685.35
1087.80943	13753.25
1091.47549	13847.15
1095.13903	13854.35
1098.80005	13693.75
1102.45857	13454.75
1106.11456	13279.85
1109.76805	13176.05
1113.41903	13159.85
1117.06751	13221.65
1120.71348	13310.65
1124.35696	13436.65
1127.99793	13560.55
1131.63641	13624.65
1135.2724	13553.95
1138.90589	13468.55
1142.5369	13501.05
1146.16542	13534.75
1149.79145	13620.65
1153.415	13691.55
1157.03607	13794.95
1160.65467	14103.85
1164.27079	14559.15
1167.88443	15160.75
1171.49561	15831.05
1175.10432	16636.25
1178.71056	17675.45
1182.31434	18666.25
1185.91565	19191.55
1189.51451	19148.25
1193.11091	18739.85
1196.70485	18186.95
1200.29634	17643.65
1203.88538	17226.95
1207.47197	16989.95
1211.05612	16751.75
1214.63782	16475.85
1218.21708	16123.95
1221.79391	15809.85
1225.36829	15602.65
1228.94024	15448.25
1232.50976	15260.95
1236.07685	15088.65
1239.6415	14955.95
1243.20374	14981.45
1246.76355	15102.65
1250.32093	15253.85
1253.8759	15534.65
1257.42845	15867.65
1260.97859	16217.15
1264.52631	16603.05
1268.07163	16984.05
1271.61453	17380.35
1275.15503	17806.25
1278.69312	18204.25
1282.22882	18599.85
1285.76211	19077.15
1289.29301	19643.75
1292.82151	20338.45
1296.34761	21219.05
1299.87133	22311.95
1303.39266	23442.05
1306.9116	24511.45
1310.42815	25375.45
1313.94233	25742.25
1317.45412	25512.25
1320.96354	24993.75
1324.47058	24508.05
1327.97525	24094.55
1331.47754	23796.85
1334.97747	23601.15
1338.47502	23458.55
1341.97022	23213.45
1345.46305	22986.95
1348.95352	22837.85
1352.44163	22903.05
1355.92738	23372.05
1359.41078	24367.75
1362.89183	25110.25
1366.37053	24830.95
1369.84688	23109.15
1373.32088	20910.65
1376.79254	19367.55
1380.26186	18756.45
1383.72883	18723.65
1387.19347	18715.65
1390.65578	18533.65
1394.11575	18382.85
1397.57339	18452.35
1401.0287	18655.45
1404.48168	18871.35
1407.93234	18830.25
1411.38068	18586.75
1414.82669	18125.95
1418.27039	17601.55
1421.71177	17026.15
1425.15083	16537.85
1428.58758	16326.05
1432.02203	16392.05
1435.45416	16703.15
1438.88399	17116.85
1442.31151	17450.65
1445.73673	17616.25
1449.15965	17769.25
1452.58027	17787.95
1455.9986	17732.85
1459.41463	17746.35
1462.82837	17908.45
1466.23982	18196.75
1469.64898	18506.45
1473.05586	18743.45
1476.46045	18828.65
1479.86276	18779.05
1483.26279	18650.65
1486.66054	18614.95
1490.05602	18668.15
1493.44922	18842.05
1496.84016	19071.55
1500.22882	19391.55
1503.61521	19832.25
1506.99934	20362.45
1510.38121	20857.65
1513.76081	21006.25
1517.13816	20606.65
1520.51324	19980.45
1523.88607	19435.75
1527.25665	19125.85
1530.62498	19094.25
1533.99105	18992.65
1537.35488	18794.65
1540.71647	18501.15
1544.07581	18109.75
1547.4329	17722.85
1550.78776	17393.15
1554.14038	17167.95
1557.49077	17048.05
1560.83892	16959.55
1564.18484	17000.65
1567.52853	17037.25
1570.86999	17199.85
1574.20922	17431.65
1577.54624	17639.05
1580.88103	17735.45
1584.2136	17810.65
1587.54395	18190.05
1590.87208	18930.95
1594.19801	19899.25
1597.52172	20818.25
1600.84321	21037.95
1604.16251	20296.25
1607.47959	18970.75
1610.79447	17524.75
1614.10715	16250.65
1617.41763	15221.85
1620.7259	14597.75
1624.03199	14248.45
1627.33587	14221.55
1630.63757	14554.75
1633.93707	15214.45
1637.23439	16344.35
1640.52951	18032.85
1643.82246	20024.75
1647.11321	21753.85
1650.40179	22171.55
1653.68819	20868.65
1656.97241	18517.45
1660.25446	16190.75
1663.53433	14447.95
1666.81203	13383.45
1670.08756	12718.85
1673.36092	12282.85
1676.63211	12041.45
1679.90115	11844.65
1683.16801	11692.15
1686.43272	11587.25
1689.69527	11509.25
1692.95567	11394.95
1696.2139	11338.85
1699.46999	11297.75
1702.72392	11244.05
1705.97571	11239.75
1709.22535	11264.45
1712.47284	11262.55
1715.71819	11263.35
1718.96139	11276.95
1722.20246	11241.55
1725.44139	11213.75
1728.67818	11161.35
1731.91284	11098.15
1735.14537	11076.35
1738.37576	10999.15
1741.60403	10971.15
1744.83017	10928.95
1748.05418	10919.55
1751.27607	10901.65
1754.49584	10857.65
1757.71349	10834.95
1760.92903	10817.65
1764.14244	10801.05
1767.35375	10802.85
1770.56294	10791.25
1773.77002	10778.35
1776.97499	10795.05
1780.17785	10805.55
1783.37861	10789.05
1786.57727	10784.05
1789.77382	10773.55
1792.96828	10726.75
1796.16064	10735.45
1799.3509	10685.05
1802.53907	10693.65
1805.72514	10718.75
1808.90913	10639.05
1812.09102	10632.55
1815.27083	10620.35
1818.44856	10606.75
1821.6242	10564.25
1824.79776	10541.65
1827.96924	10568.05
1831.13864	10563.15
1834.30597	10549.75
1837.47122	10547.15
1840.6344	10532.55
1843.7955	10533.35
1846.95454	10541.75
1850.11151	10537.85
1853.26642	10513.95
1856.41926	10514.65
1859.57004	10549.75
1862.71876	10512.35
1865.86542	10503.95
1869.01003	10503.15
1872.15258	10484.45
1875.29308	10473.55
1878.43152	10467.45
1881.56792	10461.65
1884.70227	10436.85
1887.83457	10428.35
1890.96482	10403.05
1894.09304	10408.65
1897.21921	10415.55
1900.34335	10375.95
1903.46544	10400.85
1906.58551	10370.25
1909.70353	10357.85
1912.81953	10336.25
1915.93349	10331.85
1919.04543	10306.65
1922.15534	10315.55
1925.26322	10289.95
1928.36908	10269.15
1931.47292	10265.65
1934.57473	10243.95
1937.67453	10209.15
1940.77232	10167.35
1943.86808	10149.25
1946.96184	10101.45
1950.05358	10097.25
1953.14331	10075.25
1956.23103	10048.75
1959.31675	10036.25
1962.40046	9995.05
1965.48217	9974.15
1968.56188	9930.55
1971.63959	9940.55
1974.7153	9910.85
1977.78901	9898.75
1980.86073	9838.25
1983.93046	9828.15
1986.99819	9802.05
1990.06394	9771.55
1993.1277	9740.55
1996.18947	9708.25
1999.24925	9666.95
2002.30706	9643.85
2005.36288	9628.55
2008.41672	9608.65
2011.46859	9579.85
2014.51848	9566.85
2017.56639	9525.75
2020.61233	9539.55
2023.6563	9509.25
2026.6983	9481.45
2029.73833	9471.45
2032.7764	9456.55
2035.8125	9442.85
2038.84664	9398.65
2041.87881	9392.45
2044.90903	9394.55
2047.93729	9376.35
2050.96359	9369.85
2053.98794	9371.55
2057.01034	9350.75
2060.03078	9346.45
2063.04927	9303.55
2066.06582	9344.05
2069.08042	9326.05
2072.09307	9317.65
2075.10378	9300.45
2078.11255	9300.85
2081.11938	9304.85
2084.12426	9314.95
2087.12722	9295.65
2090.12824	9285.25
2093.12732	9309.55
2096.12447	9289.35
2099.11969	9301.65
2102.11299	9303.55
2105.10435	9301.35
2108.09379	9301.65
2111.08131	9333.55
2114.0669	9315.45
2117.05057	9346.45
2120.03233	9335.35
2123.01216	9354.75
2125.99008	9341.25
2128.96609	9362.05
2131.94018	9375.25
2134.91236	9388.55
2137.88263	9407.75
2140.851	9395.65
2143.81746	9387.95
2146.78201	9386.85
2149.74466	9420.35
2152.7054	9405.65
2155.66425	9376.55
2158.6212	9383.05
2161.57625	9400.35
2164.52941	9406.45
2167.48067	9390.85
2170.43004	9386.25
2173.37752	9405.25
2176.32311	9407.45
2179.26681	9403.35
2182.20863	9406.15
2185.14856	9403.65
2188.08661	9422.15
2191.02278	9391.05
2193.95707	9427.05
2196.88948	9413.15
2199.82001	9406.65
2202.74867	9393.85
2205.67545	9375.35
2208.60037	9382.45
2211.52341	9350.45
2214.44458	9349.95
2217.36388	9344.65
2220.28132	9315.55
2223.1969	9299.55
2226.11061	9303.65
2229.02246	9295.85
2231.93245	9276.05
2234.84058	9243.45
2237.74686	9238.75
2240.65128	9219.25
2243.55385	9191.35
2246.45456	9194.95
2249.35343	9211.95
2252.25044	9174.25
2255.14561	9185.25
2258.03893	9155.25
2260.93041	9138.75
2263.82004	9119.35
2266.70783	9107.95
2269.59378	9087.35
2272.4779	9068.65
2275.36017	9063.45
2278.24061	9032.65
2281.11922	9014.25
2283.996	9030.95
2286.87094	9011.85
2289.74405	8976.45
2292.61534	8981.55
2295.4848	8965.95
2298.35243	8983.65
2301.21824	8995.05
2304.08223	8977.25
2306.94439	9005.65
2309.80474	8982.35
2312.66327	8975.45
2315.51999	8975.45
2318.37489	8953.35
2321.22797	8962.75
2324.07925	8947.05
2326.92871	8934.95
2329.77637	8910.75
2332.62222	8904.95
2335.46626	8895.25
2338.3085	8884.75
2341.14893	8896.15
2343.98756	8897.55
2346.8244	8872.35
2349.65943	8864.35
2352.49267	8897.85
2355.32411	8868.15
2358.15376	8887.65
2360.98161	8845.45
2363.80768	8862.45
2366.63195	8864.65
2369.45444	8849.15
2372.27514	8839.15
2375.09405	8801.85
2377.91118	8813.15
2380.72652	8811.45
2383.54009	8757.85
2386.35187	8750.75
2389.16188	8746.95
2391.97011	8737.45
2394.77657	8714.45
2397.58125	8702.45
2400.38416	8704.25
2403.18529	8702.75
2405.98466	8668.45
2408.78226	8695.55
2411.57809	8676.35
2414.37216	8646.65
2417.16446	8636.95
2419.955	8628.85
2422.74378	8630.15
2425.5308	8653.95
2428.31606	8621.15
2431.09956	8626.35
2433.88131	8603.15
2436.6613	8606.85
2439.43954	8621.65
2442.21603	8592.35
2444.99077	8599.05
2447.76377	8587.85
2450.53501	8575.85
2453.30451	8603.25
2456.07226	8560.35
2458.83827	8562.55
2461.60254	8571.05
2464.36507	8567.95
2467.12586	8533.65
2469.88492	8551.55
2472.64224	8556.25
2475.39782	8562.45
2478.15167	8558.05
2480.90379	8541.85
2483.65417	8588.45
2486.40283	8557.05
2489.14976	8575.85
2491.89497	8583.25
2494.63845	8558.85
2497.3802	8534.85
2500.12024	8539.75
2502.85855	8538.85
2505.59514	8545.65
2508.33002	8527.85
2511.06318	8522.25
2513.79462	8529.05
2516.52435	8508.75
2519.25237	8536.85
2521.97867	8508.95
2524.70327	8495.45
2527.42616	8503.75
2530.14734	8506.95
2532.86681	8457.95
2535.58458	8481.25
2538.30065	8488.55
2541.01501	8464.15
2543.72768	8453.45
2546.43864	8431.85
2549.14791	8444.05
2551.85548	8440.45
2554.56136	8423.65
2557.26554	8406.45
2559.96803	8400.95
2562.66883	8398.05
2565.36794	8396.85
2568.06536	8394.85
2570.7611	8374.05
2573.45514	8369.45
2576.14751	8359.55
2578.83819	8352.65
2581.52719	8330.35
2584.21451	8335.95
2586.90015	8321.25
2589.58411	8325.55
2592.2664	8360.55
2594.94701	8312.95
2597.62594	8304.65
2600.30321	8289.25
2602.9788	8279.75
2605.65273	8289.65
2608.32498	8285.55
2610.99557	8263.25
2613.66449	8268.65
2616.33175	8275.15
2618.99734	8272.75
2621.66128	8276.45
2624.32355	8253.35
2626.98416	8242.15
2629.64311	8253.85
2632.30041	8252.45
2634.95605	8233.45
2637.61004	8221.55
2640.26238	8223.45
2642.91306	8199.55
2645.56209	8205.75
2648.20948	8202.85
2650.85521	8204.35
2653.4993	8187.05
2656.14175	8208.85
2658.78255	8191.75
2661.42171	8199.25
2664.05923	8226.55
2666.6951	8238.15
2669.32934	8232.05
2671.96194	8224.05
2674.59291	8230.65
2677.22224	8233.65
2679.84993	8219.65
2682.476	8204.65
2685.10043	8204.25
2687.72324	8190.65
2690.34441	8214.05
2692.96396	8205.95
2695.58188	8195.25
2698.19818	8222.95
2700.81285	8229.75
2703.4259	8225.05
2706.03733	8203.75
2708.64714	8197.55
2711.25533	8214.05
2713.86191	8218.05
2716.46687	8223.55
2719.07021	8241.45
2721.67194	8246.35
2724.27206	8247.25
2726.87057	8262.65
2729.46747	8243.65
2732.06276	8256.25
2734.65644	8229.75
2737.24852	8268.25
2739.83899	8252.15
2742.42786	8236.65
2745.01513	8216.85
2747.60079	8217.45
2750.18486	8235.75
2752.76733	8231.95
2755.3482	8229.55
2757.92747	8226.95
2760.50515	8200.05
2763.08123	8213.05
2765.65573	8192.45
2768.22863	8187.95
2770.79994	8182.15
2773.36967	8176.85
2775.9378	8190.45
2778.50435	8174.65
2781.06932	8165.55
2783.6327	8151.85
2786.1945	8145.85
2788.75471	8162.65
2791.31335	8137.85
2793.87041	8126.25
2796.42589	8111.25
2798.97979	8122.75
2801.53212	8097.75
2804.08288	8099.75
2806.63206	8058.85
2809.17967	8058.05
2811.72571	8041.15
2814.27018	8021.25
2816.81308	7999.95
2819.35442	8006.45
2821.89419	8004.85
2824.43239	7986.85
2826.96904	7969.05
2829.50412	8006.65
2832.03763	7949.45
2834.56959	7982.75
2837.1	7948.95
2839.62884	7965.35
2842.15613	7977.15
2844.68186	8006.45
2847.20604	7979.85
2849.72867	7997.45
2852.24974	7978.55
2854.76927	7992.65
2857.28724	7952.85
2859.80367	7967.85
2862.31855	7957.45
2864.83189	7937.45
2867.34368	7914.15
2869.85393	7938.65
2872.36264	7916.65
2874.8698	7935.65
2877.37543	7921.65
2879.87952	7901.75
2882.38207	7918.75
2884.88308	7915.45
2887.38256	7905.05
2889.88051	7905.05
2892.37692	7903.25
2894.8718	7937.35
2897.36515	7909.35
2899.85698	7914.45
2902.34727	7948.85
2904.83604	7940.95
2907.32328	7968.15
2909.809	7947.95
2912.29319	7955.15
2914.77587	7954.15
2917.25702	7942.55
2919.73665	7930.75
2922.21476	7940.35
2924.69136	7927.15
2927.16644	7943.35
2929.64	7960.35
2932.11205	7939.15
2934.58258	7923.45
2937.05161	7940.75
2939.51912	7932.45
2941.98513	7912.45
2944.44962	7891.75
2946.91261	7862.65
2949.37409	7897.25
2951.83407	7862.95
2954.29254	7859.35
2956.74951	7886.35
2959.20498	7881.65
2961.65895	7864.05
2964.11142	7860.95
2966.56239	7846.85
2969.01186	7849.45
2971.45984	7835.75
2973.90632	7829.85
2976.35131	7820.75
2978.7948	7799.75
2981.23681	7791.85
2983.67732	7777.95
2986.11635	7767.25
2988.55388	7744.65
2990.98993	7737.05
2993.4245	7743.35
2995.85758	7727.25
2998.28917	7724.15
3000.71928	7695.45
3003.14791	7663.65
3005.57506	7699.25
3008.00073	7648.85
3010.42493	7648.45
3012.84764	7659.95
3015.26888	7666.95
3017.68865	7624.55
3020.10694	7632.85
3022.52376	7599.65
3024.9391	7586.15
3027.35298	7582.85
3029.76539	7584.95
3032.17632	7560.05
3034.5858	7576.35
3036.9938	7565.35
3039.40034	7559.75
3041.80542	7555.55
3044.20903	7542.85
3046.61118	7529.15
3049.01187	7537.45
3051.4111	7519.45
3053.80888	7511.95
3056.20519	7504.45
3058.60005	7500.15
3060.99345	7471.15
3063.3854	7462.65
3065.7759	7446.95
3068.16494	7443.65
3070.55254	7410.75
3072.93868	7415.65
3075.32338	7393.75
3077.70662	7396.15
3080.08842	7384.65
3082.46878	7369.75
3084.84769	7366.05
3087.22515	7385.85
3089.60118	7345.95
3091.97576	7353.55
3094.3489	7372.15
3096.72061	7364.85
3099.09087	7381.85
3101.4597	7375.05
3103.82709	7360.45
3106.19305	7347.05
3108.55757	7370.55
3110.92066	7362.55
3113.28232	7327.35
3115.64255	7314.85
3118.00134	7313.05
3120.35871	7327.25
3122.71466	7299.05
3125.06917	7287.75
3127.42226	7278.95
3129.77393	7280.55
3132.12417	7279.75
3134.47299	7269.65
3136.82039	7275.95
3139.16636	7287.65
3141.51092	7277.35
3143.85406	7285.65
3146.19579	7277.15
3148.53609	7287.65
3150.87499	7318.05
3153.21246	7324.25
3155.54853	7329.55
3157.88318	7317.55
3160.21642	7311.25
3162.54826	7322.95
3164.87868	7312.75
3167.2077	7318.95
3169.5353	7328.95
3171.86151	7338.25
3174.18631	7332.65
3176.5097	7312.55
3178.83169	7308.15
3181.15228	7321.85
3183.47147	7303.95
3185.78926	7302.05
3188.10565	7309.35
3190.42065	7306.65
3192.73424	7302.35
3195.04645	7286.25
3197.35725	7292.65
3199.66667	7276.45
3201.97469	7293.95
3204.28132	7291.55
3206.58656	7295.55
3208.8904	7306.55
3211.19287	7320.45
3213.49394	7323.25
3215.79363	7334.05
3218.09193	7319.15
3220.38884	7317.45
3222.68438	7311.35
3224.97853	7294.55
3227.2713	7294.45
3229.56269	7310.55
3231.8527	7317.45
3234.14133	7299.85
3236.42858	7277.05
3238.71446	7254.65
3240.99896	7228.85
3243.28209	7259.15
3245.56384	7241.15
3247.84423	7252.35
3250.12324	7251.05
3252.40088	7238.85
3254.67715	7261.75
3256.95205	7229.95
3259.22558	7241.55
3261.49775	7212.95
3263.76855	7220.45
3266.03799	7198.35
3268.30606	7186.45
3270.57277	7181.65
3272.83812	7170.35
3275.10211	7143.95
3277.36474	7135.45
3279.62601	7152.65
3281.88593	7132.95
3284.14448	7139.85
3286.40168	7151.15
3288.65753	7142.75
3290.91202	7159.35
3293.16516	7143.65
3295.41695	7102.45
3297.66738	7049.75
3299.91647	7035.65
3302.16421	6985.55
3304.4106	6966.15
3306.65564	6920.85
3308.89933	6903.75
3311.14169	6869.75
3313.38269	6776.75
3315.62236	6741.65
3317.86068	6684.75
3320.09766	6661.15
3322.3333	6606.65
3324.5676	6579.35
3326.80056	6496.05
3329.03219	6454.55
3331.26248	1.75
3333.49143	-0.85
3335.71905	-1.45
