Data from AgNPs_FTO_APTES_UA_1uM_CRN_2uM_R6G_10uM_NaF_0.1M_Addition_RamanShift__15__13-12-49-547.txt Node

Date: Thu Jan 27 13:12:49 GMT 2022
User: TCL
Spectrometer: QEP01345
Trigger mode: 4
Integration Time (sec): 7.000000E0
Scans to average: 10
Electric dark correction enabled: true
Nonlinearity correction enabled: false
Boxcar width: 0
XAxis mode: Raman Shifts
Number of Pixels in Spectrum: 1044
>>>>>Begin Spectral Data<<<<<
46.04893	0.05
50.45542	0.15
54.85868	-0.75
59.25871	-1.25
63.6555	57.85
68.04907	63.35
72.43941	62.55
76.82654	69.55
81.21044	71.05
85.59113	71.55
89.96862	73.85
94.34289	80.75
98.71396	80.45
103.08183	79.35
107.4465	89.55
111.80798	87.05
116.16626	85.45
120.52136	97.45
124.87327	97.45
129.222	95.85
133.56755	105.75
137.90993	110.95
142.24913	122.75
146.58517	132.85
150.91804	158.05
155.24774	183.65
159.57429	224.35
163.89768	280.15
168.21792	378.65
172.53501	510.65
176.84895	701.05
181.15975	982.15
185.46741	1378.15
189.77193	1904.35
194.07331	2558.95
198.37157	3299.25
202.6667	4088.75
206.9587	4862.05
211.24758	5621.75
215.53334	6385.95
219.81599	7194.45
224.09553	8057.45
228.37195	9009.85
232.64527	10096.65
236.91549	11242.05
241.18261	12396.55
245.44663	13515.65
249.70755	14531.25
253.96539	15372.45
258.22014	16156.25
262.4718	16749.45
266.72039	17210.75
270.96589	17431.85
275.20832	17450.45
279.44768	17386.65
283.68397	17204.15
287.91719	17003.95
292.14735	16891.05
296.37445	16809.35
300.59849	16836.85
304.81948	16905.35
309.03742	16875.35
313.25231	16780.95
317.46415	16472.65
321.67296	16107.95
325.87872	15801.25
330.08145	15652.55
334.28114	15655.05
338.47781	15802.05
342.67145	15988.85
346.86207	16254.55
351.04966	16575.05
355.23424	16877.65
359.4158	17180.55
363.59435	17370.15
367.76989	17572.25
371.94243	17712.75
376.11196	17800.05
380.27849	17890.75
384.44203	17983.85
388.60257	18076.55
392.76012	18238.75
396.91468	18458.65
401.06626	18707.35
405.21485	18874.35
409.36047	18808.65
413.50311	18621.35
417.64277	18433.25
421.77947	18443.35
425.9132	18478.25
430.04396	18517.75
434.17176	18607.25
438.2966	18688.95
442.41849	18843.55
446.53742	19162.75
450.6534	19523.75
454.76644	19836.15
458.87653	19977.75
462.98368	19939.85
467.08789	19842.35
471.18916	19655.35
475.2875	19463.55
479.38291	19361.25
483.4754	19213.05
487.56496	19160.05
491.6516	19007.95
495.73531	18879.45
499.81612	18849.25
503.89401	18965.35
507.96899	19045.55
512.04106	19068.55
516.11023	19049.95
520.1765	18903.95
524.23987	18795.05
528.30034	18601.35
532.35792	18474.35
536.41261	18352.15
540.46441	18189.05
544.51333	18169.05
548.55936	18322.25
552.60252	18604.05
556.64279	18903.55
560.6802	19113.85
564.71473	19225.95
568.7464	19333.15
572.7752	19599.75
576.80114	19973.75
580.82422	20316.45
584.84444	20710.45
588.86181	21054.75
592.87633	21219.15
596.888	21055.35
600.89682	20756.05
604.9028	21094.85
608.90594	22525.85
612.90624	24203.75
616.90371	23350.35
620.89834	20388.95
624.89015	19002.15
628.87913	18815.05
632.86528	18882.05
636.84862	18918.35
640.82913	18753.65
644.80683	18414.75
648.78172	18179.35
652.75379	18122.45
656.72306	18330.95
660.68952	18595.55
664.65319	18536.75
668.61405	18318.45
672.57211	18253.35
676.52738	18311.55
680.47986	18289.65
684.42955	18211.05
688.37646	18169.15
692.32058	18219.25
696.26192	18396.45
700.20048	18598.55
704.13626	18652.05
708.06928	18665.45
711.99952	18599.95
715.927	18564.25
719.85171	18666.35
723.77365	18598.55
727.69284	18451.95
731.60928	18287.75
735.52295	18180.25
739.43388	18192.15
743.34206	18239.05
747.24749	18291.75
751.15017	18423.55
755.05012	18605.35
758.94733	18989.05
762.8418	19632.25
766.73354	20659.75
770.62254	21728.55
774.50882	22099.65
778.39237	21469.95
782.27321	20443.05
786.15132	19426.65
790.02671	18827.05
793.89938	18518.75
797.76935	18418.35
801.6366	18326.45
805.50115	18310.15
809.36299	18206.65
813.22213	18123.85
817.07857	18065.25
820.93231	18021.45
824.78336	17984.75
828.63172	17971.25
832.47738	17950.25
836.32036	17982.35
840.16066	18005.85
843.99827	18034.85
847.8332	17977.35
851.66546	17976.75
855.49504	17949.25
859.32195	17984.05
863.1462	17978.25
866.96777	17952.05
870.78668	17964.55
874.60293	17929.25
878.41652	17969.75
882.22745	18032.75
886.03573	18089.85
889.84136	18073.15
893.64433	18044.35
897.44466	18003.35
901.24235	17906.15
905.0374	17885.35
908.8298	17811.85
912.61957	17797.55
916.40671	17925.25
920.19121	18030.55
923.97308	18206.85
927.75233	18224.75
931.52895	18175.95
935.30295	18060.35
939.07433	17830.75
942.84309	17650.65
946.60924	17598.05
950.37278	17537.05
954.13371	17504.45
957.89203	17476.95
961.64774	17424.85
965.40086	17387.25
969.15137	17376.15
972.89929	17364.55
976.64461	17289.95
980.38733	17308.25
984.12747	17369.05
987.86502	17484.35
991.59999	17588.85
995.33237	17743.05
999.06217	18010.75
1002.78939	18303.95
1006.51404	18529.95
1010.23611	18724.95
1013.95561	18826.45
1017.67255	18824.35
1021.38692	18693.85
1025.09872	18530.35
1028.80796	18480.85
1032.51465	18633.25
1036.21877	18920.45
1039.92035	19042.65
1043.61937	18980.75
1047.31584	18804.35
1051.00976	18599.35
1054.70114	18522.05
1058.38998	18540.25
1062.07627	18648.05
1065.76003	18800.45
1069.44126	18939.85
1073.11995	19174.35
1076.79611	19391.85
1080.46974	19540.85
1084.14085	19648.75
1087.80943	19732.55
1091.47549	19848.85
1095.13903	19892.75
1098.80005	19756.15
1102.45857	19471.25
1106.11456	19212.65
1109.76805	19038.45
1113.41903	18979.15
1117.06751	19018.75
1120.71348	19129.55
1124.35696	19252.35
1127.99793	19368.75
1131.63641	19518.45
1135.2724	19415.25
1138.90589	19280.95
1142.5369	19194.55
1146.16542	19221.95
1149.79145	19215.55
1153.415	19255.05
1157.03607	19341.75
1160.65467	19636.75
1164.27079	20168.45
1167.88443	20933.35
1171.49561	21786.05
1175.10432	22790.15
1178.71056	24174.95
1182.31434	25528.65
1185.91565	26364.55
1189.51451	26406.65
1193.11091	25981.55
1196.70485	25257.65
1200.29634	24425.05
1203.88538	23826.05
1207.47197	23411.15
1211.05612	23035.05
1214.63782	22674.85
1218.21708	22276.35
1221.79391	21914.95
1225.36829	21650.65
1228.94024	21438.25
1232.50976	21220.35
1236.07685	21038.55
1239.6415	20934.05
1243.20374	20967.95
1246.76355	21082.15
1250.32093	21320.25
1253.8759	21636.55
1257.42845	22075.35
1260.97859	22572.85
1264.52631	23042.55
1268.07163	23516.65
1271.61453	24009.15
1275.15503	24493.65
1278.69312	24962.65
1282.22882	25323.45
1285.76211	25662.35
1289.29301	26153.05
1292.82151	26784.15
1296.34761	27708.15
1299.87133	28869.25
1303.39266	30258.05
1306.9116	31704.95
1310.42815	32869.55
1313.94233	33485.75
1317.45412	33261.45
1320.96354	32717.25
1324.47058	32218.25
1327.97525	31794.05
1331.47754	31577.95
1334.97747	31420.55
1338.47502	31309.75
1341.97022	31272.25
1345.46305	31170.05
1348.95352	31104.25
1352.44163	31137.95
1355.92738	31424.55
1359.41078	32315.65
1362.89183	33219.55
1366.37053	32826.35
1369.84688	30693.45
1373.32088	28057.95
1376.79254	26117.45
1380.26186	25205.35
1383.72883	24965.65
1387.19347	24890.15
1390.65578	24635.65
1394.11575	24396.95
1397.57339	24415.55
1401.0287	24618.25
1404.48168	24847.95
1407.93234	24882.85
1411.38068	24712.25
1414.82669	24227.95
1418.27039	23625.05
1421.71177	23011.45
1425.15083	22496.85
1428.58758	22231.95
1432.02203	22267.65
1435.45416	22627.15
1438.88399	23114.65
1442.31151	23412.65
1445.73673	23608.85
1449.15965	23760.05
1452.58027	23775.75
1455.9986	23799.25
1459.41463	23815.85
1462.82837	24143.45
1466.23982	24459.55
1469.64898	24837.85
1473.05586	25093.45
1476.46045	25166.55
1479.86276	25080.85
1483.26279	24894.65
1486.66054	24790.05
1490.05602	24873.75
1493.44922	25164.05
1496.84016	25549.85
1500.22882	26183.95
1503.61521	27029.15
1506.99934	28067.65
1510.38121	28867.45
1513.76081	29013.95
1517.13816	28400.55
1520.51324	27397.75
1523.88607	26423.35
1527.25665	25794.95
1530.62498	25482.05
1533.99105	25288.35
1537.35488	25073.85
1540.71647	24782.65
1544.07581	24399.45
1547.4329	24038.45
1550.78776	23723.25
1554.14038	23488.75
1557.49077	23398.95
1560.83892	23341.65
1564.18484	23377.85
1567.52853	23456.25
1570.86999	23646.45
1574.20922	23906.25
1577.54624	24158.55
1580.88103	24125.15
1584.2136	24069.75
1587.54395	24356.55
1590.87208	25089.65
1594.19801	26121.25
1597.52172	27288.35
1600.84321	27674.55
1604.16251	26862.25
1607.47959	25371.55
1610.79447	23767.05
1614.10715	22271.15
1617.41763	21003.85
1620.7259	20078.45
1624.03199	19595.65
1627.33587	19529.55
1630.63757	19865.25
1633.93707	20616.05
1637.23439	21909.55
1640.52951	23786.75
1643.82246	25979.75
1647.11321	27788.95
1650.40179	28336.05
1653.68819	27022.25
1656.97241	24440.75
1660.25446	21788.45
1663.53433	19736.45
1666.81203	18447.75
1670.08756	17618.05
1673.36092	17116.45
1676.63211	16804.25
1679.90115	16585.35
1683.16801	16400.25
1686.43272	16261.85
1689.69527	16122.45
1692.95567	16027.35
1696.2139	15953.25
1699.46999	15863.05
1702.72392	15836.45
1705.97571	15828.95
1709.22535	15867.85
1712.47284	15865.45
1715.71819	15844.65
1718.96139	15830.35
1722.20246	15782.55
1725.44139	15749.95
1728.67818	15701.55
1731.91284	15605.25
1735.14537	15559.45
1738.37576	15486.45
1741.60403	15413.05
1744.83017	15373.65
1748.05418	15316.15
1751.27607	15297.55
1754.49584	15257.95
1757.71349	15274.45
1760.92903	15204.95
1764.14244	15176.85
1767.35375	15181.75
1770.56294	15180.45
1773.77002	15161.55
1776.97499	15153.45
1780.17785	15164.05
1783.37861	15173.25
1786.57727	15129.65
1789.77382	15118.55
1792.96828	15105.95
1796.16064	15052.45
1799.3509	15015.85
1802.53907	15025.05
1805.72514	14999.15
1808.90913	14930.75
1812.09102	14918.95
1815.27083	14913.65
1818.44856	14877.15
1821.6242	14835.15
1824.79776	14829.85
1827.96924	14820.15
1831.13864	14805.95
1834.30597	14831.55
1837.47122	14799.45
1840.6344	14810.85
1843.7955	14817.85
1846.95454	14819.05
1850.11151	14832.65
1853.26642	14805.15
1856.41926	14788.55
1859.57004	14839.05
1862.71876	14787.15
1865.86542	14755.35
1869.01003	14733.45
1872.15258	14715.75
1875.29308	14688.65
1878.43152	14665.25
1881.56792	14666.85
1884.70227	14630.15
1887.83457	14621.65
1890.96482	14586.05
1894.09304	14578.75
1897.21921	14554.15
1900.34335	14519.45
1903.46544	14507.05
1906.58551	14495.95
1909.70353	14486.95
1912.81953	14434.45
1915.93349	14425.95
1919.04543	14371.45
1922.15534	14356.45
1925.26322	14314.05
1928.36908	14311.75
1931.47292	14245.25
1934.57473	14261.05
1937.67453	14200.55
1940.77232	14167.45
1943.86808	14110.45
1946.96184	14060.75
1950.05358	14030.25
1953.14331	14008.85
1956.23103	13971.45
1959.31675	13937.05
1962.40046	13903.95
1965.48217	13871.55
1968.56188	13815.75
1971.63959	13778.75
1974.7153	13746.45
1977.78901	13707.15
1980.86073	13663.85
1983.93046	13628.55
1986.99819	13588.65
1990.06394	13523.85
1993.1277	13511.45
1996.18947	13443.75
1999.24925	13417.15
2002.30706	13358.65
2005.36288	13306.35
2008.41672	13321.25
2011.46859	13262.45
2014.51848	13205.55
2017.56639	13182.75
2020.61233	13177.15
2023.6563	13133.45
2026.6983	13092.05
2029.73833	13046.35
2032.7764	13068.35
2035.8125	13023.55
2038.84664	12980.55
2041.87881	12956.05
2044.90903	12942.85
2047.93729	12925.95
2050.96359	12884.25
2053.98794	12882.45
2057.01034	12872.95
2060.03078	12850.65
2063.04927	12869.05
2066.06582	12842.35
2069.08042	12860.25
2072.09307	12842.95
2075.10378	12821.35
2078.11255	12818.45
2081.11938	12800.75
2084.12426	12780.85
2087.12722	12811.65
2090.12824	12784.45
2093.12732	12803.45
2096.12447	12781.65
2099.11969	12780.95
2102.11299	12801.45
2105.10435	12802.35
2108.09379	12816.45
2111.08131	12790.55
2114.0669	12822.65
2117.05057	12816.25
2120.03233	12813.65
2123.01216	12822.75
2125.99008	12847.75
2128.96609	12865.45
2131.94018	12868.75
2134.91236	12897.25
2137.88263	12858.85
2140.851	12885.85
2143.81746	12910.45
2146.78201	12889.95
2149.74466	12914.45
2152.7054	12900.35
2155.66425	12889.05
2158.6212	12918.35
2161.57625	12893.05
2164.52941	12888.35
2167.48067	12879.55
2170.43004	12868.95
2173.37752	12864.65
2176.32311	12826.85
2179.26681	12849.55
2182.20863	12835.95
2185.14856	12852.85
2188.08661	12854.95
2191.02278	12857.95
2193.95707	12855.25
2196.88948	12845.25
2199.82001	12820.15
2202.74867	12795.85
2205.67545	12812.35
2208.60037	12768.45
2211.52341	12755.95
2214.44458	12747.75
2217.36388	12709.25
2220.28132	12688.45
2223.1969	12680.85
2226.11061	12676.95
2229.02246	12605.55
2231.93245	12606.85
2234.84058	12557.45
2237.74686	12561.75
2240.65128	12560.95
2243.55385	12531.85
2246.45456	12505.15
2249.35343	12490.05
2252.25044	12444.05
2255.14561	12440.95
2258.03893	12451.45
2260.93041	12397.75
2263.82004	12389.95
2266.70783	12366.15
2269.59378	12344.45
2272.4779	12304.25
2275.36017	12285.55
2278.24061	12246.65
2281.11922	12241.35
2283.996	12248.95
2286.87094	12231.85
2289.74405	12190.05
2292.61534	12162.85
2295.4848	12155.35
2298.35243	12126.35
2301.21824	12141.05
2304.08223	12135.65
2306.94439	12158.65
2309.80474	12133.85
2312.66327	12119.95
2315.51999	12119.65
2318.37489	12104.05
2321.22797	12077.65
2324.07925	12069.15
2326.92871	12039.85
2329.77637	12030.65
2332.62222	12010.45
2335.46626	11963.35
2338.3085	11965.45
2341.14893	11965.65
2343.98756	11957.75
2346.8244	11941.25
2349.65943	11961.45
2352.49267	11933.95
2355.32411	11929.35
2358.15376	11930.55
2360.98161	11898.55
2363.80768	11915.25
2366.63195	11907.05
2369.45444	11875.65
2372.27514	11866.65
2375.09405	11845.55
2377.91118	11828.35
2380.72652	11819.75
2383.54009	11759.95
2386.35187	11734.45
2389.16188	11749.15
2391.97011	11711.85
2394.77657	11681.95
2397.58125	11672.45
2400.38416	11677.25
2403.18529	11629.15
2405.98466	11607.15
2408.78226	11589.95
2411.57809	11586.65
2414.37216	11551.25
2417.16446	11555.45
2419.955	11548.05
2422.74378	11547.75
2425.5308	11502.45
2428.31606	11519.55
2431.09956	11504.45
2433.88131	11503.35
2436.6613	11484.95
2439.43954	11495.65
2442.21603	11467.35
2444.99077	11449.45
2447.76377	11470.35
2450.53501	11431.85
2453.30451	11425.25
2456.07226	11435.55
2458.83827	11424.15
2461.60254	11408.55
2464.36507	11392.65
2467.12586	11382.95
2469.88492	11387.25
2472.64224	11390.25
2475.39782	11392.35
2478.15167	11398.45
2480.90379	11372.25
2483.65417	11375.15
2486.40283	11355.35
2489.14976	11358.75
2491.89497	11352.35
2494.63845	11350.25
2497.3802	11346.75
2500.12024	11316.85
2502.85855	11319.35
2505.59514	11307.75
2508.33002	11272.15
2511.06318	11292.15
2513.79462	11268.05
2516.52435	11271.35
2519.25237	11256.25
2521.97867	11244.25
2524.70327	11255.45
2527.42616	11223.85
2530.14734	11196.95
2532.86681	11191.75
2535.58458	11186.75
2538.30065	11173.25
2541.01501	11147.35
2543.72768	11136.25
2546.43864	11147.25
2549.14791	11108.05
2551.85548	11106.05
2554.56136	11089.95
2557.26554	11075.25
2559.96803	11056.05
2562.66883	11068.45
2565.36794	11052.35
2568.06536	11028.75
2570.7611	10975.75
2573.45514	10967.35
2576.14751	10969.75
2578.83819	10953.45
2581.52719	10958.95
2584.21451	10930.35
2586.90015	10902.45
2589.58411	10886.75
2592.2664	10861.15
2594.94701	10843.75
2597.62594	10844.25
2600.30321	10844.55
2602.9788	10810.75
2605.65273	10823.75
2608.32498	10818.25
2610.99557	10798.15
2613.66449	10780.15
2616.33175	10758.95
2618.99734	10767.25
2621.66128	10755.45
2624.32355	10757.35
2626.98416	10740.55
2629.64311	10729.75
2632.30041	10723.45
2634.95605	10709.15
2637.61004	10680.95
2640.26238	10673.05
2642.91306	10658.35
2645.56209	10640.95
2648.20948	10645.65
2650.85521	10647.85
2653.4993	10629.45
2656.14175	10645.15
2658.78255	10628.35
2661.42171	10629.45
2664.05923	10656.45
2666.6951	10658.05
2669.32934	10677.45
2671.96194	10645.15
2674.59291	10659.85
2677.22224	10647.75
2679.84993	10637.35
2682.476	10615.65
2685.10043	10621.95
2687.72324	10630.05
2690.34441	10608.35
2692.96396	10598.65
2695.58188	10611.95
2698.19818	10591.55
2700.81285	10592.55
2703.4259	10611.15
2706.03733	10577.25
2708.64714	10567.85
2711.25533	10602.15
2713.86191	10582.25
2716.46687	10618.65
2719.07021	10605.55
2721.67194	10610.95
2724.27206	10618.05
2726.87057	10621.75
2729.46747	10606.85
2732.06276	10616.65
2734.65644	10611.55
2737.24852	10613.85
2739.83899	10573.65
2742.42786	10602.55
2745.01513	10577.45
2747.60079	10574.55
2750.18486	10556.85
2752.76733	10548.05
2755.3482	10534.35
2757.92747	10533.05
2760.50515	10512.45
2763.08123	10497.15
2765.65573	10466.25
2768.22863	10497.55
2770.79994	10477.55
2773.36967	10457.55
2775.9378	10474.95
2778.50435	10441.95
2781.06932	10425.55
2783.6327	10436.35
2786.1945	10437.85
2788.75471	10393.35
2791.31335	10394.95
2793.87041	10347.95
2796.42589	10329.45
2798.97979	10340.85
2801.53212	10307.15
2804.08288	10286.95
2806.63206	10253.95
2809.17967	10237.45
2811.72571	10185.55
2814.27018	10200.05
2816.81308	10197.05
2819.35442	10181.85
2821.89419	10157.05
2824.43239	10165.95
2826.96904	10143.25
2829.50412	10125.75
2832.03763	10097.75
2834.56959	10113.25
2837.1	10106.15
2839.62884	10109.45
2842.15613	10112.55
2844.68186	10113.05
2847.20604	10118.35
2849.72867	10104.35
2852.24974	10117.05
2854.76927	10102.25
2857.28724	10098.15
2859.80367	10080.35
2862.31855	10065.05
2864.83189	10060.55
2867.34368	10015.05
2869.85393	10032.05
2872.36264	10018.35
2874.8698	10009.25
2877.37543	9997.25
2879.87952	9982.25
2882.38207	9970.35
2884.88308	9966.75
2887.38256	9981.25
2889.88051	9949.55
2892.37692	9953.25
2894.8718	9987.25
2897.36515	9988.05
2899.85698	9994.95
2902.34727	9992.25
2904.83604	9999.85
2907.32328	10011.35
2909.809	10014.25
2912.29319	10025.45
2914.77587	10029.35
2917.25702	10012.05
2919.73665	9985.75
2922.21476	10001.95
2924.69136	9961.75
2927.16644	9985.65
2929.64	9953.65
2932.11205	9959.25
2934.58258	9912.25
2937.05161	9941.15
2939.51912	9927.65
2941.98513	9890.25
2944.44962	9875.95
2946.91261	9864.45
2949.37409	9863.55
2951.83407	9836.95
2954.29254	9854.05
2956.74951	9847.35
2959.20498	9829.55
2961.65895	9812.45
2964.11142	9814.15
2966.56239	9790.75
2969.01186	9812.55
2971.45984	9790.85
2973.90632	9788.15
2976.35131	9747.55
2978.7948	9728.65
2981.23681	9710.05
2983.67732	9706.55
2986.11635	9678.95
2988.55388	9615.65
2990.98993	9597.35
2993.4245	9603.25
2995.85758	9591.25
2998.28917	9543.85
3000.71928	9526.65
3003.14791	9521.95
3005.57506	9500.05
3008.00073	9509.25
3010.42493	9498.15
3012.84764	9490.25
3015.26888	9480.15
3017.68865	9448.95
3020.10694	9448.05
3022.52376	9441.25
3024.9391	9420.85
3027.35298	9430.95
3029.76539	9411.55
3032.17632	9381.85
3034.5858	9366.25
3036.9938	9368.85
3039.40034	9379.05
3041.80542	9351.45
3044.20903	9349.25
3046.61118	9335.15
3049.01187	9333.35
3051.4111	9314.15
3053.80888	9287.45
3056.20519	9285.55
3058.60005	9242.75
3060.99345	9219.65
3063.3854	9208.75
3065.7759	9159.65
3068.16494	9173.65
3070.55254	9148.85
3072.93868	9138.85
3075.32338	9100.95
3077.70662	9137.95
3080.08842	9073.85
3082.46878	9095.15
3084.84769	9080.35
3087.22515	9061.55
3089.60118	9034.25
3091.97576	9057.55
3094.3489	9033.75
3096.72061	9057.55
3099.09087	9069.05
3101.4597	9022.35
3103.82709	9043.75
3106.19305	9026.95
3108.55757	9027.05
3110.92066	9014.85
3113.28232	8993.95
3115.64255	8967.85
3118.00134	8948.15
3120.35871	8956.75
3122.71466	8935.95
3125.06917	8909.95
3127.42226	8873.15
3129.77393	8880.55
3132.12417	8898.75
3134.47299	8897.45
3136.82039	8878.15
3139.16636	8880.45
3141.51092	8878.15
3143.85406	8903.85
3146.19579	8894.15
3148.53609	8882.75
3150.87499	8904.45
3153.21246	8898.65
3155.54853	8911.55
3157.88318	8889.35
3160.21642	8890.75
3162.54826	8893.95
3164.87868	8894.55
3167.2077	8899.85
3169.5353	8911.45
3171.86151	8904.35
3174.18631	8890.15
3176.5097	8877.15
3178.83169	8869.55
3181.15228	8854.45
3183.47147	8845.05
3185.78926	8836.95
3188.10565	8822.35
3190.42065	8802.65
3192.73424	8803.35
3195.04645	8793.95
3197.35725	8817.35
3199.66667	8780.35
3201.97469	8808.65
3204.28132	8798.15
3206.58656	8811.65
3208.8904	8825.25
3211.19287	8831.45
3213.49394	8841.75
3215.79363	8827.75
3218.09193	8828.55
3220.38884	8817.65
3222.68438	8834.35
3224.97853	8809.35
3227.2713	8787.85
3229.56269	8793.75
3231.8527	8793.35
3234.14133	8780.55
3236.42858	8761.95
3238.71446	8731.15
3240.99896	8722.35
3243.28209	8735.85
3245.56384	8722.65
3247.84423	8714.55
3250.12324	8694.95
3252.40088	8701.05
3254.67715	8676.35
3256.95205	8696.45
3259.22558	8671.55
3261.49775	8678.65
3263.76855	8672.25
3266.03799	8645.15
3268.30606	8607.05
3270.57277	8604.75
3272.83812	8586.55
3275.10211	8576.75
3277.36474	8556.65
3279.62601	8559.95
3281.88593	8521.05
3284.14448	8537.85
3286.40168	8552.15
3288.65753	8552.95
3290.91202	8529.85
3293.16516	8507.75
3295.41695	8495.85
3297.66738	8419.05
3299.91647	8388.15
3302.16421	8329.55
3304.4106	8304.05
3306.65564	8273.25
3308.89933	8211.75
3311.14169	8163.45
3313.38269	8109.75
3315.62236	8045.85
3317.86068	7967.15
3320.09766	7925.15
3322.3333	7877.15
3324.5676	7846.45
3326.80056	7743.35
3329.03219	7677.75
3331.26248	2.95
3333.49143	-0.15
3335.71905	-1.95
