Data from AgNPs_FTO_APTES_UA_1uM_CRN_1000uM_R6G_10uM_NaF_0.1M_Addition_RamanShift__0__18-33-39-914.txt Node

Date: Thu Jan 27 18:33:39 GMT 2022
User: TCL
Spectrometer: QEP01345
Trigger mode: 4
Integration Time (sec): 7.000000E0
Scans to average: 10
Electric dark correction enabled: true
Nonlinearity correction enabled: false
Boxcar width: 0
XAxis mode: Raman Shifts
Number of Pixels in Spectrum: 1044
>>>>>Begin Spectral Data<<<<<
46.04893	-0.25
50.45542	0.05
54.85868	-0.65
59.25871	-0.35
63.6555	36.55
68.04907	39.25
72.43941	43.65
76.82654	48.15
81.21044	45.55
85.59113	49.75
89.96862	49.75
94.34289	53.55
98.71396	57.95
103.08183	56.05
107.4465	60.25
111.80798	62.95
116.16626	58.65
120.52136	68.55
124.87327	61.65
129.222	60.95
133.56755	65.45
137.90993	73.35
142.24913	74.75
146.58517	85.05
150.91804	92.55
155.24774	112.55
159.57429	131.55
163.89768	164.95
168.21792	213.25
172.53501	290.05
176.84895	405.55
181.15975	558.55
185.46741	782.75
189.77193	1081.35
194.07331	1449.35
198.37157	1878.05
202.6667	2337.15
206.9587	2805.65
211.24758	3265.75
215.53334	3721.15
219.81599	4205.65
224.09553	4740.65
228.37195	5323.45
232.64527	5970.05
236.91549	6621.35
241.18261	7277.55
245.44663	7871.75
249.70755	8352.65
253.96539	8770.25
258.22014	9073.35
262.4718	9380.65
266.72039	9564.65
270.96589	9643.35
275.20832	9620.35
279.44768	9481.55
283.68397	9290.45
287.91719	9122.15
292.14735	9027.45
296.37445	8980.05
300.59849	9053.15
304.81948	9155.45
309.03742	9237.45
313.25231	9218.35
317.46415	8984.85
321.67296	8681.15
325.87872	8398.75
330.08145	8280.65
334.28114	8257.25
338.47781	8353.75
342.67145	8479.55
346.86207	8701.75
351.04966	8937.05
355.23424	9187.05
359.4158	9366.85
363.59435	9493.65
367.76989	9560.35
371.94243	9608.15
376.11196	9639.15
380.27849	9656.55
384.44203	9662.25
388.60257	9689.55
392.76012	9712.35
396.91468	9828.55
401.06626	10035.85
405.21485	10201.05
409.36047	10147.75
413.50311	9898.25
417.64277	9604.85
421.77947	9430.35
425.9132	9326.45
430.04396	9251.45
434.17176	9279.45
438.2966	9332.95
442.41849	9444.75
446.53742	9616.25
450.6534	9822.35
454.76644	9925.75
458.87653	9932.65
462.98368	9881.05
467.08789	9804.85
471.18916	9696.05
475.2875	9557.55
479.38291	9475.15
483.4754	9382.35
487.56496	9321.35
491.6516	9264.45
495.73531	9233.65
499.81612	9236.55
503.89401	9261.75
507.96899	9304.35
512.04106	9368.85
516.11023	9462.75
520.1765	9489.95
524.23987	9469.45
528.30034	9414.85
532.35792	9360.15
536.41261	9208.85
540.46441	9098.45
544.51333	9004.75
548.55936	9043.05
552.60252	9199.95
556.64279	9355.35
560.6802	9434.25
564.71473	9442.25
568.7464	9551.85
572.7752	9665.25
576.80114	9632.45
580.82422	9639.55
584.84444	9809.75
588.86181	10061.45
592.87633	10271.45
596.888	10309.15
600.89682	10186.95
604.9028	10433.45
608.90594	11751.05
612.90624	13692.65
616.90371	13417.45
620.89834	10791.75
624.89015	9383.35
628.87913	9118.85
632.86528	9219.15
636.84862	9332.05
640.82913	9313.55
644.80683	9081.75
648.78172	8933.85
652.75379	8909.55
656.72306	9025.25
660.68952	9194.55
664.65319	9166.95
668.61405	8956.95
672.57211	8877.05
676.52738	8919.55
680.47986	9006.75
684.42955	8943.55
688.37646	8855.45
692.32058	8808.95
696.26192	8804.15
700.20048	8864.05
704.13626	8916.35
708.06928	8932.75
711.99952	8887.25
715.927	8896.15
719.85171	8899.05
723.77365	8912.05
727.69284	8868.15
731.60928	8822.45
735.52295	8786.85
739.43388	8801.85
743.34206	8798.85
747.24749	8802.55
751.15017	8852.95
755.05012	8933.95
758.94733	9135.45
762.8418	9554.95
766.73354	10410.75
770.62254	11479.45
774.50882	12089.75
778.39237	11803.15
782.27321	10776.85
786.15132	9752.55
790.02671	9093.95
793.89938	8807.85
797.76935	8688.15
801.6366	8631.25
805.50115	8574.45
809.36299	8556.95
813.22213	8513.65
817.07857	8505.05
820.93231	8509.05
824.78336	8487.25
828.63172	8491.75
832.47738	8507.65
836.32036	8513.15
840.16066	8477.45
843.99827	8451.75
847.8332	8417.45
851.66546	8426.35
855.49504	8389.65
859.32195	8410.25
863.1462	8390.35
866.96777	8426.45
870.78668	8388.25
874.60293	8415.45
878.41652	8409.75
882.22745	8434.45
886.03573	8476.85
889.84136	8504.45
893.64433	8471.75
897.44466	8410.15
901.24235	8386.05
905.0374	8356.25
908.8298	8293.15
912.61957	8287.65
916.40671	8314.05
920.19121	8369.35
923.97308	8406.55
927.75233	8509.85
931.52895	8563.35
935.30295	8509.45
939.07433	8372.35
942.84309	8187.85
946.60924	8082.65
950.37278	8004.15
954.13371	7965.85
957.89203	7936.75
961.64774	7925.25
965.40086	7914.35
969.15137	7880.15
972.89929	7839.45
976.64461	7824.05
980.38733	7828.85
984.12747	7808.55
987.86502	7803.65
991.59999	7819.65
995.33237	7864.05
999.06217	7911.15
1002.78939	8004.05
1006.51404	8071.85
1010.23611	8165.35
1013.95561	8258.95
1017.67255	8298.45
1021.38692	8252.75
1025.09872	8165.45
1028.80796	8064.55
1032.51465	8014.05
1036.21877	8041.05
1039.92035	8096.25
1043.61937	8148.35
1047.31584	8170.35
1051.00976	8234.45
1054.70114	8266.05
1058.38998	8245.15
1062.07627	8309.05
1065.76003	8380.05
1069.44126	8459.95
1073.11995	8578.65
1076.79611	8702.15
1080.46974	8695.25
1084.14085	8645.15
1087.80943	8650.95
1091.47549	8748.25
1095.13903	8749.45
1098.80005	8618.85
1102.45857	8430.45
1106.11456	8298.95
1109.76805	8240.85
1113.41903	8301.95
1117.06751	8410.65
1120.71348	8591.45
1124.35696	8808.45
1127.99793	9065.45
1131.63641	9162.45
1135.2724	8965.85
1138.90589	8656.95
1142.5369	8493.35
1146.16542	8395.05
1149.79145	8341.35
1153.415	8310.75
1157.03607	8334.05
1160.65467	8435.25
1164.27079	8631.65
1167.88443	8956.25
1171.49561	9442.65
1175.10432	10169.05
1178.71056	11117.05
1182.31434	11944.05
1185.91565	12258.75
1189.51451	12036.05
1193.11091	11481.25
1196.70485	10823.85
1200.29634	10265.25
1203.88538	9835.85
1207.47197	9448.25
1211.05612	9109.75
1214.63782	8880.05
1218.21708	8778.65
1221.79391	8730.15
1225.36829	8733.05
1228.94024	8793.15
1232.50976	8766.95
1236.07685	8721.25
1239.6415	8678.15
1243.20374	8660.95
1246.76355	8663.15
1250.32093	8715.45
1253.8759	8766.85
1257.42845	8907.85
1260.97859	9097.15
1264.52631	9277.55
1268.07163	9490.55
1271.61453	9667.15
1275.15503	9875.35
1278.69312	9985.55
1282.22882	10132.45
1285.76211	10333.15
1289.29301	10626.75
1292.82151	11008.95
1296.34761	11407.65
1299.87133	11871.85
1303.39266	12483.15
1306.9116	13326.55
1310.42815	14284.55
1313.94233	14978.05
1317.45412	14846.45
1320.96354	14198.85
1324.47058	13389.55
1327.97525	12597.55
1331.47754	11982.75
1334.97747	11610.75
1338.47502	11420.15
1341.97022	11361.25
1345.46305	11525.55
1348.95352	11969.35
1352.44163	12797.65
1355.92738	13947.05
1359.41078	15451.25
1362.89183	17011.95
1366.37053	17165.25
1369.84688	15381.75
1373.32088	13073.35
1376.79254	11437.75
1380.26186	10609.65
1383.72883	10232.55
1387.19347	9945.35
1390.65578	9564.95
1394.11575	9350.65
1397.57339	9230.65
1401.0287	9187.95
1404.48168	9221.25
1407.93234	9199.65
1411.38068	9151.45
1414.82669	9123.55
1418.27039	9071.85
1421.71177	9006.25
1425.15083	8884.85
1428.58758	8769.15
1432.02203	8754.65
1435.45416	8817.25
1438.88399	8900.75
1442.31151	8929.25
1445.73673	8904.95
1449.15965	8945.95
1452.58027	8956.65
1455.9986	8904.25
1459.41463	8876.25
1462.82837	8931.45
1466.23982	9073.75
1469.64898	9228.75
1473.05586	9371.45
1476.46045	9481.25
1479.86276	9603.85
1483.26279	9735.75
1486.66054	9916.45
1490.05602	10164.55
1493.44922	10545.45
1496.84016	11091.45
1500.22882	11924.35
1503.61521	13074.95
1506.99934	14365.25
1510.38121	15419.35
1513.76081	15687.75
1517.13816	14878.55
1520.51324	13363.45
1523.88607	11921.75
1527.25665	10941.15
1530.62498	10392.95
1533.99105	10078.15
1537.35488	9852.45
1540.71647	9680.05
1544.07581	9533.45
1547.4329	9427.45
1550.78776	9315.65
1554.14038	9262.15
1557.49077	9273.55
1560.83892	9358.15
1564.18484	9468.85
1567.52853	9683.55
1570.86999	9994.25
1574.20922	10238.55
1577.54624	10324.05
1580.88103	10083.55
1584.2136	9596.05
1587.54395	9272.25
1590.87208	9211.75
1594.19801	9424.05
1597.52172	9866.65
1600.84321	10151.05
1604.16251	10057.45
1607.47959	9598.85
1610.79447	9055.65
1614.10715	8486.05
1617.41763	8024.05
1620.7259	7702.05
1624.03199	7551.95
1627.33587	7512.45
1630.63757	7584.95
1633.93707	7788.15
1637.23439	8200.35
1640.52951	8898.15
1643.82246	9989.05
1647.11321	11254.15
1650.40179	12158.15
1653.68819	12010.25
1656.97241	10770.35
1660.25446	9264.15
1663.53433	8161.45
1666.81203	7491.95
1670.08756	7093.55
1673.36092	6873.85
1676.63211	6752.55
1679.90115	6665.15
1683.16801	6575.85
1686.43272	6506.45
1689.69527	6441.35
1692.95567	6389.05
1696.2139	6333.15
1699.46999	6267.45
1702.72392	6266.35
1705.97571	6254.35
1709.22535	6277.05
1712.47284	6300.45
1715.71819	6317.25
1718.96139	6310.85
1722.20246	6313.65
1725.44139	6293.95
1728.67818	6241.05
1731.91284	6202.85
1735.14537	6193.75
1738.37576	6182.95
1741.60403	6145.25
1744.83017	6139.75
1748.05418	6142.75
1751.27607	6126.35
1754.49584	6138.45
1757.71349	6100.45
1760.92903	6070.05
1764.14244	6041.85
1767.35375	6033.65
1770.56294	5984.75
1773.77002	5951.65
1776.97499	5951.35
1780.17785	5957.35
1783.37861	5945.25
1786.57727	5944.25
1789.77382	5926.85
1792.96828	5901.25
1796.16064	5885.65
1799.3509	5864.15
1802.53907	5858.25
1805.72514	5830.35
1808.90913	5801.85
1812.09102	5792.35
1815.27083	5781.95
1818.44856	5776.05
1821.6242	5746.25
1824.79776	5729.05
1827.96924	5711.35
1831.13864	5717.25
1834.30597	5714.05
1837.47122	5719.05
1840.6344	5686.95
1843.7955	5694.35
1846.95454	5653.95
1850.11151	5670.35
1853.26642	5666.75
1856.41926	5656.05
1859.57004	5650.75
1862.71876	5655.45
1865.86542	5647.35
1869.01003	5626.15
1872.15258	5640.15
1875.29308	5634.55
1878.43152	5617.25
1881.56792	5605.95
1884.70227	5559.15
1887.83457	5564.75
1890.96482	5560.55
1894.09304	5557.55
1897.21921	5545.15
1900.34335	5536.75
1903.46544	5527.25
1906.58551	5520.95
1909.70353	5516.05
1912.81953	5513.25
1915.93349	5503.25
1919.04543	5480.55
1922.15534	5471.05
1925.26322	5459.35
1928.36908	5454.35
1931.47292	5432.55
1934.57473	5411.05
1937.67453	5400.85
1940.77232	5376.05
1943.86808	5347.75
1946.96184	5361.95
1950.05358	5322.45
1953.14331	5315.65
1956.23103	5290.15
1959.31675	5298.25
1962.40046	5258.55
1965.48217	5261.55
1968.56188	5216.75
1971.63959	5218.55
1974.7153	5209.85
1977.78901	5184.55
1980.86073	5156.85
1983.93046	5167.15
1986.99819	5127.25
1990.06394	5108.95
1993.1277	5085.55
1996.18947	5070.25
1999.24925	5065.35
2002.30706	5035.75
2005.36288	5033.25
2008.41672	5008.45
2011.46859	4993.75
2014.51848	4992.25
2017.56639	4961.55
2020.61233	4950.55
2023.6563	4928.95
2026.6983	4922.75
2029.73833	4913.85
2032.7764	4897.25
2035.8125	4877.95
2038.84664	4843.65
2041.87881	4848.55
2044.90903	4844.45
2047.93729	4829.75
2050.96359	4813.55
2053.98794	4799.25
2057.01034	4807.95
2060.03078	4791.55
2063.04927	4797.25
2066.06582	4804.15
2069.08042	4782.95
2072.09307	4782.85
2075.10378	4772.45
2078.11255	4772.75
2081.11938	4765.05
2084.12426	4754.25
2087.12722	4757.25
2090.12824	4755.55
2093.12732	4756.05
2096.12447	4754.75
2099.11969	4756.85
2102.11299	4752.45
2105.10435	4740.55
2108.09379	4745.85
2111.08131	4759.55
2114.0669	4748.45
2117.05057	4757.95
2120.03233	4748.55
2123.01216	4742.55
2125.99008	4761.55
2128.96609	4772.85
2131.94018	4765.65
2134.91236	4770.05
2137.88263	4762.75
2140.851	4768.75
2143.81746	4758.35
2146.78201	4756.75
2149.74466	4752.35
2152.7054	4748.05
2155.66425	4752.85
2158.6212	4735.55
2161.57625	4739.35
2164.52941	4730.55
2167.48067	4712.15
2170.43004	4724.15
2173.37752	4712.25
2176.32311	4707.35
2179.26681	4723.95
2182.20863	4702.45
2185.14856	4695.75
2188.08661	4700.35
2191.02278	4701.25
2193.95707	4699.45
2196.88948	4671.45
2199.82001	4684.05
2202.74867	4659.15
2205.67545	4658.85
2208.60037	4666.65
2211.52341	4624.65
2214.44458	4624.25
2217.36388	4622.35
2220.28132	4623.75
2223.1969	4590.95
2226.11061	4611.05
2229.02246	4576.35
2231.93245	4564.25
2234.84058	4562.15
2237.74686	4554.15
2240.65128	4548.45
2243.55385	4538.05
2246.45456	4531.35
2249.35343	4508.05
2252.25044	4526.45
2255.14561	4503.15
2258.03893	4485.15
2260.93041	4492.85
2263.82004	4454.05
2266.70783	4473.45
2269.59378	4451.35
2272.4779	4437.45
2275.36017	4447.35
2278.24061	4424.25
2281.11922	4432.65
2283.996	4410.65
2286.87094	4411.05
2289.74405	4378.65
2292.61534	4379.95
2295.4848	4367.95
2298.35243	4362.25
2301.21824	4357.55
2304.08223	4360.15
2306.94439	4354.25
2309.80474	4346.05
2312.66327	4338.25
2315.51999	4329.65
2318.37489	4327.15
2321.22797	4315.95
2324.07925	4301.25
2326.92871	4291.35
2329.77637	4308.75
2332.62222	4296.35
2335.46626	4275.05
2338.3085	4271.25
2341.14893	4252.55
2343.98756	4258.35
2346.8244	4237.65
2349.65943	4262.85
2352.49267	4255.45
2355.32411	4255.15
2358.15376	4245.45
2360.98161	4235.25
2363.80768	4255.35
2366.63195	4250.55
2369.45444	4250.25
2372.27514	4248.95
2375.09405	4226.45
2377.91118	4228.25
2380.72652	4222.45
2383.54009	4191.25
2386.35187	4186.95
2389.16188	4167.45
2391.97011	4158.45
2394.77657	4144.85
2397.58125	4135.95
2400.38416	4125.25
2403.18529	4105.45
2405.98466	4102.15
2408.78226	4078.55
2411.57809	4093.15
2414.37216	4081.65
2417.16446	4083.45
2419.955	4073.05
2422.74378	4065.55
2425.5308	4067.65
2428.31606	4067.05
2431.09956	4066.05
2433.88131	4057.75
2436.6613	4060.55
2439.43954	4045.95
2442.21603	4046.15
2444.99077	4036.95
2447.76377	4035.05
2450.53501	4032.65
2453.30451	4029.55
2456.07226	4028.45
2458.83827	4021.45
2461.60254	4018.55
2464.36507	4020.55
2467.12586	4011.75
2469.88492	3989.55
2472.64224	3994.85
2475.39782	3986.35
2478.15167	3985.45
2480.90379	3988.25
2483.65417	3991.55
2486.40283	3980.45
2489.14976	3986.55
2491.89497	3985.65
2494.63845	3976.05
2497.3802	3963.75
2500.12024	3952.65
2502.85855	3961.45
2505.59514	3964.55
2508.33002	3940.65
2511.06318	3926.95
2513.79462	3923.95
2516.52435	3901.15
2519.25237	3910.85
2521.97867	3900.75
2524.70327	3881.35
2527.42616	3860.65
2530.14734	3868.65
2532.86681	3850.95
2535.58458	3855.85
2538.30065	3842.15
2541.01501	3851.45
2543.72768	3827.65
2546.43864	3840.95
2549.14791	3824.85
2551.85548	3825.75
2554.56136	3815.75
2557.26554	3801.25
2559.96803	3787.05
2562.66883	3792.45
2565.36794	3805.45
2568.06536	3781.95
2570.7611	3781.15
2573.45514	3756.45
2576.14751	3755.25
2578.83819	3740.65
2581.52719	3750.75
2584.21451	3729.55
2586.90015	3721.65
2589.58411	3720.35
2592.2664	3695.45
2594.94701	3706.75
2597.62594	3686.55
2600.30321	3673.75
2602.9788	3679.35
2605.65273	3662.05
2608.32498	3652.75
2610.99557	3659.15
2613.66449	3641.85
2616.33175	3634.15
2618.99734	3644.25
2621.66128	3640.35
2624.32355	3617.85
2626.98416	3621.85
2629.64311	3618.95
2632.30041	3611.45
2634.95605	3595.75
2637.61004	3574.85
2640.26238	3578.35
2642.91306	3578.05
2645.56209	3563.25
2648.20948	3566.45
2650.85521	3558.65
2653.4993	3565.25
2656.14175	3566.75
2658.78255	3567.65
2661.42171	3567.45
2664.05923	3572.65
2666.6951	3578.75
2669.32934	3579.05
2671.96194	3562.45
2674.59291	3565.35
2677.22224	3561.35
2679.84993	3570.55
2682.476	3541.75
2685.10043	3559.65
2687.72324	3555.45
2690.34441	3547.15
2692.96396	3548.65
2695.58188	3565.65
2698.19818	3555.95
2700.81285	3563.55
2703.4259	3550.25
2706.03733	3529.85
2708.64714	3527.35
2711.25533	3517.25
2713.86191	3550.35
2716.46687	3540.65
2719.07021	3541.85
2721.67194	3535.25
2724.27206	3548.55
2726.87057	3542.05
2729.46747	3546.75
2732.06276	3544.75
2734.65644	3530.35
2737.24852	3525.05
2739.83899	3514.35
2742.42786	3516.45
2745.01513	3501.55
2747.60079	3497.55
2750.18486	3492.25
2752.76733	3492.35
2755.3482	3486.95
2757.92747	3480.45
2760.50515	3468.25
2763.08123	3467.35
2765.65573	3475.95
2768.22863	3457.15
2770.79994	3457.65
2773.36967	3445.75
2775.9378	3447.65
2778.50435	3452.55
2781.06932	3426.95
2783.6327	3432.45
2786.1945	3423.55
2788.75471	3418.55
2791.31335	3419.35
2793.87041	3405.65
2796.42589	3411.95
2798.97979	3409.75
2801.53212	3404.45
2804.08288	3394.55
2806.63206	3415.05
2809.17967	3388.35
2811.72571	3375.05
2814.27018	3373.95
2816.81308	3373.75
2819.35442	3368.95
2821.89419	3367.15
2824.43239	3376.95
2826.96904	3377.65
2829.50412	3372.15
2832.03763	3376.45
2834.56959	3374.75
2837.1	3392.65
2839.62884	3408.45
2842.15613	3424.95
2844.68186	3476.75
2847.20604	3488.55
2849.72867	3509.85
2852.24974	3530.95
2854.76927	3504.85
2857.28724	3495.75
2859.80367	3493.05
2862.31855	3506.45
2864.83189	3494.55
2867.34368	3488.15
2869.85393	3488.35
2872.36264	3499.85
2874.8698	3494.35
2877.37543	3495.85
2879.87952	3499.15
2882.38207	3480.05
2884.88308	3478.75
2887.38256	3486.85
2889.88051	3483.35
2892.37692	3490.45
2894.8718	3483.05
2897.36515	3486.75
2899.85698	3498.45
2902.34727	3513.35
2904.83604	3524.85
2907.32328	3508.15
2909.809	3531.75
2912.29319	3531.35
2914.77587	3540.95
2917.25702	3539.65
2919.73665	3527.75
2922.21476	3550.55
2924.69136	3539.75
2927.16644	3556.05
2929.64	3550.05
2932.11205	3548.05
2934.58258	3537.15
2937.05161	3537.45
2939.51912	3521.45
2941.98513	3517.85
2944.44962	3486.35
2946.91261	3466.35
2949.37409	3452.75
2951.83407	3432.35
2954.29254	3408.15
2956.74951	3390.55
2959.20498	3393.55
2961.65895	3384.25
2964.11142	3373.35
2966.56239	3363.05
2969.01186	3349.85
2971.45984	3321.55
2973.90632	3312.55
2976.35131	3293.55
2978.7948	3280.25
2981.23681	3272.75
2983.67732	3266.35
2986.11635	3250.85
2988.55388	3233.25
2990.98993	3215.35
2993.4245	3216.25
2995.85758	3216.05
2998.28917	3207.35
3000.71928	3200.75
3003.14791	3186.35
3005.57506	3184.35
3008.00073	3164.55
3010.42493	3152.65
3012.84764	3177.25
3015.26888	3167.25
3017.68865	3157.85
3020.10694	3152.55
3022.52376	3146.25
3024.9391	3134.05
3027.35298	3132.15
3029.76539	3127.05
3032.17632	3117.95
3034.5858	3108.15
3036.9938	3104.45
3039.40034	3101.95
3041.80542	3103.55
3044.20903	3099.95
3046.61118	3096.35
3049.01187	3101.15
3051.4111	3100.05
3053.80888	3096.75
3056.20519	3082.15
3058.60005	3070.45
3060.99345	3069.35
3063.3854	3070.35
3065.7759	3072.05
3068.16494	3067.75
3070.55254	3046.85
3072.93868	3057.35
3075.32338	3045.25
3077.70662	3053.75
3080.08842	3026.65
3082.46878	3039.55
3084.84769	3043.75
3087.22515	3033.25
3089.60118	3050.65
3091.97576	3036.75
3094.3489	3055.55
3096.72061	3052.45
3099.09087	3056.25
3101.4597	3049.45
3103.82709	3069.65
3106.19305	3041.75
3108.55757	3059.65
3110.92066	3048.15
3113.28232	3042.35
3115.64255	3038.05
3118.00134	3036.45
3120.35871	3036.65
3122.71466	3057.25
3125.06917	3040.75
3127.42226	3043.05
3129.77393	3048.35
3132.12417	3045.25
3134.47299	3060.65
3136.82039	3051.15
3139.16636	3072.85
3141.51092	3076.45
3143.85406	3071.05
3146.19579	3075.75
3148.53609	3085.75
3150.87499	3100.55
3153.21246	3107.05
3155.54853	3110.85
3157.88318	3115.85
3160.21642	3131.15
3162.54826	3133.55
3164.87868	3136.05
3167.2077	3129.95
3169.5353	3140.75
3171.86151	3150.45
3174.18631	3136.85
3176.5097	3154.95
3178.83169	3155.05
3181.15228	3156.75
3183.47147	3149.95
3185.78926	3145.05
3188.10565	3142.05
3190.42065	3145.15
3192.73424	3132.45
3195.04645	3156.05
3197.35725	3148.65
3199.66667	3149.15
3201.97469	3163.15
3204.28132	3174.05
3206.58656	3169.35
3208.8904	3174.25
3211.19287	3183.65
3213.49394	3193.25
3215.79363	3180.35
3218.09193	3191.25
3220.38884	3197.25
3222.68438	3182.05
3224.97853	3190.15
3227.2713	3188.15
3229.56269	3185.25
3231.8527	3197.65
3234.14133	3188.55
3236.42858	3187.75
3238.71446	3187.75
3240.99896	3186.25
3243.28209	3183.35
3245.56384	3180.65
3247.84423	3173.15
3250.12324	3178.35
3252.40088	3165.25
3254.67715	3166.55
3256.95205	3180.25
3259.22558	3176.35
3261.49775	3169.25
3263.76855	3168.25
3266.03799	3152.45
3268.30606	3152.65
3270.57277	3147.75
3272.83812	3141.35
3275.10211	3118.15
3277.36474	3129.15
3279.62601	3143.85
3281.88593	3130.05
3284.14448	3129.35
3286.40168	3121.45
3288.65753	3131.15
3290.91202	3137.25
3293.16516	3120.15
3295.41695	3107.95
3297.66738	3097.75
3299.91647	3090.45
3302.16421	3058.85
3304.4106	3055.55
3306.65564	3044.05
3308.89933	3022.85
3311.14169	3013.25
3313.38269	2994.85
3315.62236	2974.35
3317.86068	2951.35
3320.09766	2931.65
3322.3333	2913.35
3324.5676	2900.75
3326.80056	2843.65
3329.03219	2827.35
3331.26248	0.55
3333.49143	-0.35
3335.71905	0.55
