Data from AgNPs_FTO_APTES_UA_1uM_CRN_100uM_R6G_10uM_NaF_0.1M_Addition_RamanShift__28__16-53-19-800.txt Node

Date: Thu Jan 27 16:53:19 GMT 2022
User: TCL
Spectrometer: QEP01345
Trigger mode: 4
Integration Time (sec): 7.000000E0
Scans to average: 10
Electric dark correction enabled: true
Nonlinearity correction enabled: false
Boxcar width: 0
XAxis mode: Raman Shifts
Number of Pixels in Spectrum: 1044
>>>>>Begin Spectral Data<<<<<
46.04893	1.05
50.45542	0.85
54.85868	-0.95
59.25871	-1.25
63.6555	47.45
68.04907	49.35
72.43941	48.25
76.82654	57.35
81.21044	53.95
85.59113	57.95
89.96862	57.85
94.34289	63.15
98.71396	63.75
103.08183	64.15
107.4465	67.85
111.80798	70.05
116.16626	70.25
120.52136	76.15
124.87327	75.55
129.222	73.55
133.56755	78.05
137.90993	81.65
142.24913	89.45
146.58517	99.15
150.91804	114.15
155.24774	128.35
159.57429	160.25
163.89768	198.25
168.21792	257.95
172.53501	349.55
176.84895	470.85
181.15975	667.45
185.46741	927.55
189.77193	1266.75
194.07331	1704.85
198.37157	2192.85
202.6667	2715.65
206.9587	3233.65
211.24758	3736.35
215.53334	4245.15
219.81599	4822.55
224.09553	5438.55
228.37195	6143.25
232.64527	6905.95
236.91549	7684.85
241.18261	8445.05
245.44663	9112.95
249.70755	9698.15
253.96539	10221.95
258.22014	10675.15
262.4718	11073.65
266.72039	11386.15
270.96589	11569.45
275.20832	11606.85
279.44768	11597.45
283.68397	11513.75
287.91719	11426.45
292.14735	11432.15
296.37445	11542.55
300.59849	11754.25
304.81948	11945.45
309.03742	12074.35
313.25231	11920.65
317.46415	11511.75
321.67296	10897.45
325.87872	10393.85
330.08145	10192.45
334.28114	10166.95
338.47781	10309.05
342.67145	10486.35
346.86207	10822.95
351.04966	11220.75
355.23424	11700.15
359.4158	12063.55
363.59435	12275.25
367.76989	12377.35
371.94243	12424.25
376.11196	12443.65
380.27849	12438.05
384.44203	12408.85
388.60257	12353.65
392.76012	12365.65
396.91468	12495.15
401.06626	12740.65
405.21485	12948.85
409.36047	12830.55
413.50311	12453.15
417.64277	12069.75
421.77947	11883.35
425.9132	11853.15
430.04396	11878.45
434.17176	11961.45
438.2966	12119.55
442.41849	12355.25
446.53742	12682.55
450.6534	13015.75
454.76644	13293.65
458.87653	13402.95
462.98368	13352.85
467.08789	13219.85
471.18916	13004.55
475.2875	12829.65
479.38291	12694.55
483.4754	12561.95
487.56496	12411.25
491.6516	12240.45
495.73531	12099.65
499.81612	12066.85
503.89401	12099.35
507.96899	12193.75
512.04106	12231.45
516.11023	12324.85
520.1765	12347.25
524.23987	12289.25
528.30034	12159.85
532.35792	11969.05
536.41261	11795.65
540.46441	11639.45
544.51333	11625.85
548.55936	11707.25
552.60252	11955.75
556.64279	12254.55
560.6802	12374.65
564.71473	12508.55
568.7464	12829.95
572.7752	13098.25
576.80114	13031.65
580.82422	12818.65
584.84444	12758.45
588.86181	12808.35
592.87633	12923.65
596.888	13032.55
600.89682	13240.35
604.9028	14014.65
608.90594	16207.15
612.90624	19130.55
616.90371	18540.65
620.89834	14453.45
624.89015	12552.55
628.87913	12215.95
632.86528	12220.05
636.84862	12266.15
640.82913	12124.55
644.80683	11781.45
648.78172	11502.65
652.75379	11473.55
656.72306	11734.95
660.68952	12099.75
664.65319	12078.45
668.61405	11753.05
672.57211	11573.25
676.52738	11561.25
680.47986	11604.65
684.42955	11556.15
688.37646	11536.15
692.32058	11559.15
696.26192	11634.05
700.20048	11752.65
704.13626	11829.05
708.06928	11773.75
711.99952	11708.05
715.927	11665.75
719.85171	11735.75
723.77365	11696.15
727.69284	11630.65
731.60928	11523.05
735.52295	11518.95
739.43388	11558.85
743.34206	11586.35
747.24749	11637.15
751.15017	11753.55
755.05012	11904.25
758.94733	12302.95
762.8418	13075.15
766.73354	14420.05
770.62254	15843.35
774.50882	16521.55
778.39237	15884.95
782.27321	14332.25
786.15132	12914.45
790.02671	12106.65
793.89938	11755.95
797.76935	11606.05
801.6366	11500.25
805.50115	11472.15
809.36299	11424.05
813.22213	11415.85
817.07857	11420.05
820.93231	11401.15
824.78336	11448.55
828.63172	11451.35
832.47738	11464.45
836.32036	11454.35
840.16066	11435.55
843.99827	11438.35
847.8332	11403.65
851.66546	11399.65
855.49504	11365.45
859.32195	11327.85
863.1462	11317.25
866.96777	11278.35
870.78668	11270.55
874.60293	11254.75
878.41652	11293.35
882.22745	11318.45
886.03573	11365.05
889.84136	11355.85
893.64433	11305.55
897.44466	11294.05
901.24235	11241.75
905.0374	11235.35
908.8298	11212.35
912.61957	11205.05
916.40671	11287.55
920.19121	11395.35
923.97308	11468.55
927.75233	11515.15
931.52895	11553.95
935.30295	11492.85
939.07433	11260.45
942.84309	11067.05
946.60924	10973.35
950.37278	10910.25
954.13371	10868.85
957.89203	10819.15
961.64774	10823.35
965.40086	10795.35
969.15137	10736.55
972.89929	10685.25
976.64461	10641.05
980.38733	10653.45
984.12747	10688.35
987.86502	10748.85
991.59999	10842.35
995.33237	10994.85
999.06217	11224.15
1002.78939	11533.95
1006.51404	11757.85
1010.23611	11903.65
1013.95561	12018.75
1017.67255	12036.55
1021.38692	11902.65
1025.09872	11789.75
1028.80796	11799.75
1032.51465	11959.25
1036.21877	12122.95
1039.92035	12150.65
1043.61937	12063.15
1047.31584	11896.45
1051.00976	11762.55
1054.70114	11669.95
1058.38998	11657.75
1062.07627	11747.55
1065.76003	11794.25
1069.44126	11865.45
1073.11995	11894.65
1076.79611	11989.85
1080.46974	12088.95
1084.14085	12189.15
1087.80943	12389.65
1091.47549	12477.55
1095.13903	12380.65
1098.80005	12166.75
1102.45857	11920.35
1106.11456	11757.55
1109.76805	11766.35
1113.41903	11909.15
1117.06751	12137.35
1120.71348	12392.15
1124.35696	12659.15
1127.99793	12917.35
1131.63641	12975.75
1135.2724	12639.85
1138.90589	12297.55
1142.5369	12098.15
1146.16542	12026.75
1149.79145	11970.95
1153.415	11988.35
1157.03607	12095.75
1160.65467	12317.55
1164.27079	12638.65
1167.88443	13157.25
1171.49561	13938.35
1175.10432	15103.85
1178.71056	16625.95
1182.31434	17845.05
1185.91565	18367.65
1189.51451	18189.05
1193.11091	17554.35
1196.70485	16657.75
1200.29634	15873.95
1203.88538	15217.45
1207.47197	14653.55
1211.05612	14133.35
1214.63782	13805.95
1218.21708	13684.65
1221.79391	13663.65
1225.36829	13680.55
1228.94024	13643.05
1232.50976	13554.35
1236.07685	13522.35
1239.6415	13497.85
1243.20374	13491.75
1246.76355	13554.45
1250.32093	13723.05
1253.8759	13980.05
1257.42845	14332.35
1260.97859	14645.45
1264.52631	14932.45
1268.07163	15204.55
1271.61453	15551.95
1275.15503	15849.75
1278.69312	16117.85
1282.22882	16332.95
1285.76211	16585.35
1289.29301	16993.35
1292.82151	17500.75
1296.34761	18048.15
1299.87133	18816.65
1303.39266	19946.15
1306.9116	21463.15
1310.42815	23239.75
1313.94233	24418.15
1317.45412	24440.55
1320.96354	23611.45
1324.47058	22606.75
1327.97525	21696.05
1331.47754	21121.95
1334.97747	20959.05
1338.47502	21069.65
1341.97022	21335.65
1345.46305	21495.55
1348.95352	21611.85
1352.44163	21867.65
1355.92738	22649.65
1359.41078	24319.65
1362.89183	26240.85
1366.37053	25934.45
1369.84688	23082.05
1373.32088	20043.05
1376.79254	18108.15
1380.26186	17221.45
1383.72883	16926.25
1387.19347	16789.55
1390.65578	16608.05
1394.11575	16480.45
1397.57339	16494.25
1401.0287	16814.95
1404.48168	17179.35
1407.93234	17430.05
1411.38068	17521.15
1414.82669	17301.35
1418.27039	16805.45
1421.71177	16233.35
1425.15083	15707.45
1428.58758	15403.15
1432.02203	15346.45
1435.45416	15453.75
1438.88399	15585.15
1442.31151	15738.25
1445.73673	15884.15
1449.15965	16058.85
1452.58027	16167.85
1455.9986	16222.95
1459.41463	16263.35
1462.82837	16434.35
1466.23982	16665.55
1469.64898	16920.45
1473.05586	17075.15
1476.46045	17101.05
1479.86276	17133.75
1483.26279	17182.65
1486.66054	17335.15
1490.05602	17491.85
1493.44922	17809.25
1496.84016	18239.25
1500.22882	18954.55
1503.61521	19976.15
1506.99934	21343.75
1510.38121	22882.35
1513.76081	23749.25
1517.13816	23242.45
1520.51324	21577.25
1523.88607	19731.05
1527.25665	18406.05
1530.62498	17659.15
1533.99105	17236.65
1537.35488	16959.25
1540.71647	16803.85
1544.07581	16687.25
1547.4329	16562.95
1550.78776	16396.35
1554.14038	16332.25
1557.49077	16396.65
1560.83892	16518.55
1564.18484	16715.35
1567.52853	16868.55
1570.86999	16980.05
1574.20922	17101.65
1577.54624	17170.05
1580.88103	16884.95
1584.2136	16466.55
1587.54395	16426.25
1590.87208	16901.35
1594.19801	17792.25
1597.52172	18811.75
1600.84321	19263.15
1604.16251	18754.65
1607.47959	17636.65
1610.79447	16394.35
1614.10715	15165.75
1617.41763	14181.35
1620.7259	13532.15
1624.03199	13187.45
1627.33587	13157.45
1630.63757	13414.85
1633.93707	13987.15
1637.23439	14860.75
1640.52951	16057.25
1643.82246	17432.35
1647.11321	18823.45
1650.40179	19629.95
1653.68819	19065.55
1656.97241	17141.45
1660.25446	14903.65
1663.53433	13248.95
1666.81203	12221.25
1670.08756	11610.55
1673.36092	11230.45
1676.63211	10988.75
1679.90115	10815.75
1683.16801	10699.75
1686.43272	10606.65
1689.69527	10501.65
1692.95567	10439.05
1696.2139	10368.55
1699.46999	10315.15
1702.72392	10280.85
1705.97571	10263.85
1709.22535	10294.25
1712.47284	10350.45
1715.71819	10361.95
1718.96139	10354.75
1722.20246	10355.85
1725.44139	10311.25
1728.67818	10263.35
1731.91284	10225.85
1735.14537	10161.95
1738.37576	10113.85
1741.60403	10107.05
1744.83017	10061.05
1748.05418	10054.25
1751.27607	10044.85
1754.49584	9991.25
1757.71349	9952.25
1760.92903	9945.05
1764.14244	9932.05
1767.35375	9916.35
1770.56294	9929.35
1773.77002	9906.75
1776.97499	9898.45
1780.17785	9909.25
1783.37861	9917.65
1786.57727	9921.35
1789.77382	9903.55
1792.96828	9888.15
1796.16064	9879.25
1799.3509	9876.55
1802.53907	9873.55
1805.72514	9826.15
1808.90913	9833.65
1812.09102	9786.95
1815.27083	9773.95
1818.44856	9787.55
1821.6242	9751.65
1824.79776	9744.35
1827.96924	9760.85
1831.13864	9733.05
1834.30597	9738.85
1837.47122	9714.75
1840.6344	9703.95
1843.7955	9716.25
1846.95454	9689.15
1850.11151	9695.85
1853.26642	9721.25
1856.41926	9716.05
1859.57004	9724.45
1862.71876	9742.25
1865.86542	9714.35
1869.01003	9735.15
1872.15258	9728.05
1875.29308	9743.75
1878.43152	9726.65
1881.56792	9712.55
1884.70227	9716.95
1887.83457	9718.55
1890.96482	9709.75
1894.09304	9713.15
1897.21921	9698.35
1900.34335	9696.85
1903.46544	9695.55
1906.58551	9698.55
1909.70353	9667.45
1912.81953	9673.15
1915.93349	9681.15
1919.04543	9660.05
1922.15534	9646.85
1925.26322	9662.05
1928.36908	9629.45
1931.47292	9603.55
1934.57473	9576.55
1937.67453	9571.15
1940.77232	9512.15
1943.86808	9497.55
1946.96184	9455.25
1950.05358	9406.05
1953.14331	9387.05
1956.23103	9353.95
1959.31675	9354.65
1962.40046	9292.05
1965.48217	9290.05
1968.56188	9245.05
1971.63959	9238.85
1974.7153	9196.45
1977.78901	9204.65
1980.86073	9165.55
1983.93046	9133.15
1986.99819	9082.15
1990.06394	9063.15
1993.1277	9046.75
1996.18947	9012.45
1999.24925	9004.85
2002.30706	8954.75
2005.36288	8952.75
2008.41672	8950.55
2011.46859	8914.35
2014.51848	8882.05
2017.56639	8860.75
2020.61233	8858.55
2023.6563	8842.95
2026.6983	8809.15
2029.73833	8814.35
2032.7764	8770.15
2035.8125	8757.05
2038.84664	8747.25
2041.87881	8712.15
2044.90903	8712.85
2047.93729	8714.35
2050.96359	8687.15
2053.98794	8686.45
2057.01034	8658.15
2060.03078	8679.45
2063.04927	8643.45
2066.06582	8642.25
2069.08042	8637.15
2072.09307	8614.75
2075.10378	8618.55
2078.11255	8633.75
2081.11938	8640.15
2084.12426	8611.25
2087.12722	8612.25
2090.12824	8611.95
2093.12732	8621.45
2096.12447	8621.25
2099.11969	8594.45
2102.11299	8605.95
2105.10435	8621.35
2108.09379	8609.85
2111.08131	8618.15
2114.0669	8616.75
2117.05057	8630.65
2120.03233	8633.25
2123.01216	8627.45
2125.99008	8651.85
2128.96609	8649.65
2131.94018	8692.95
2134.91236	8664.15
2137.88263	8703.95
2140.851	8684.35
2143.81746	8679.25
2146.78201	8675.35
2149.74466	8710.15
2152.7054	8690.55
2155.66425	8705.15
2158.6212	8688.15
2161.57625	8672.35
2164.52941	8669.35
2167.48067	8679.75
2170.43004	8676.05
2173.37752	8677.25
2176.32311	8670.25
2179.26681	8688.95
2182.20863	8673.55
2185.14856	8662.95
2188.08661	8687.55
2191.02278	8686.25
2193.95707	8686.15
2196.88948	8678.15
2199.82001	8662.85
2202.74867	8667.65
2205.67545	8659.65
2208.60037	8629.65
2211.52341	8646.05
2214.44458	8636.25
2217.36388	8612.75
2220.28132	8624.25
2223.1969	8566.35
2226.11061	8576.35
2229.02246	8544.25
2231.93245	8570.45
2234.84058	8530.15
2237.74686	8527.25
2240.65128	8501.55
2243.55385	8518.25
2246.45456	8459.65
2249.35343	8489.15
2252.25044	8451.55
2255.14561	8460.25
2258.03893	8468.65
2260.93041	8439.55
2263.82004	8398.45
2266.70783	8400.85
2269.59378	8401.95
2272.4779	8349.45
2275.36017	8348.05
2278.24061	8328.15
2281.11922	8318.95
2283.996	8322.15
2286.87094	8293.55
2289.74405	8280.35
2292.61534	8263.15
2295.4848	8264.65
2298.35243	8268.35
2301.21824	8247.55
2304.08223	8288.35
2306.94439	8273.65
2309.80474	8266.25
2312.66327	8286.05
2315.51999	8250.15
2318.37489	8237.75
2321.22797	8237.35
2324.07925	8232.15
2326.92871	8224.75
2329.77637	8203.35
2332.62222	8198.75
2335.46626	8200.65
2338.3085	8189.45
2341.14893	8194.85
2343.98756	8191.85
2346.8244	8206.05
2349.65943	8189.05
2352.49267	8202.75
2355.32411	8209.65
2358.15376	8198.65
2360.98161	8199.15
2363.80768	8184.45
2366.63195	8170.05
2369.45444	8193.65
2372.27514	8164.35
2375.09405	8166.55
2377.91118	8148.95
2380.72652	8137.75
2383.54009	8097.25
2386.35187	8073.15
2389.16188	8055.85
2391.97011	8015.95
2394.77657	8018.85
2397.58125	8013.95
2400.38416	8018.55
2403.18529	7984.55
2405.98466	7981.15
2408.78226	7943.05
2411.57809	7937.05
2414.37216	7932.65
2417.16446	7920.35
2419.955	7920.25
2422.74378	7917.05
2425.5308	7914.95
2428.31606	7929.55
2431.09956	7899.75
2433.88131	7864.35
2436.6613	7876.35
2439.43954	7879.25
2442.21603	7879.45
2444.99077	7870.25
2447.76377	7890.05
2450.53501	7862.85
2453.30451	7880.45
2456.07226	7867.15
2458.83827	7841.75
2461.60254	7858.15
2464.36507	7868.45
2467.12586	7828.55
2469.88492	7833.85
2472.64224	7831.75
2475.39782	7842.25
2478.15167	7832.25
2480.90379	7824.85
2483.65417	7854.65
2486.40283	7863.95
2489.14976	7884.45
2491.89497	7870.45
2494.63845	7857.25
2497.3802	7877.35
2500.12024	7869.65
2502.85855	7860.85
2505.59514	7830.45
2508.33002	7825.75
2511.06318	7814.85
2513.79462	7818.15
2516.52435	7790.85
2519.25237	7801.45
2521.97867	7773.75
2524.70327	7764.75
2527.42616	7769.05
2530.14734	7754.65
2532.86681	7728.65
2535.58458	7740.65
2538.30065	7717.65
2541.01501	7722.95
2543.72768	7716.75
2546.43864	7703.55
2549.14791	7721.45
2551.85548	7673.45
2554.56136	7683.75
2557.26554	7699.65
2559.96803	7685.35
2562.66883	7660.85
2565.36794	7652.85
2568.06536	7660.75
2570.7611	7644.95
2573.45514	7631.05
2576.14751	7617.05
2578.83819	7621.95
2581.52719	7614.15
2584.21451	7591.35
2586.90015	7595.35
2589.58411	7594.15
2592.2664	7584.05
2594.94701	7596.05
2597.62594	7566.55
2600.30321	7565.15
2602.9788	7552.55
2605.65273	7554.65
2608.32498	7547.25
2610.99557	7543.35
2613.66449	7538.85
2616.33175	7539.35
2618.99734	7541.15
2621.66128	7548.75
2624.32355	7527.85
2626.98416	7553.05
2629.64311	7535.05
2632.30041	7538.75
2634.95605	7520.45
2637.61004	7505.75
2640.26238	7487.75
2642.91306	7484.45
2645.56209	7484.15
2648.20948	7473.35
2650.85521	7475.15
2653.4993	7459.05
2656.14175	7479.15
2658.78255	7499.95
2661.42171	7484.25
2664.05923	7493.75
2666.6951	7508.15
2669.32934	7522.05
2671.96194	7484.85
2674.59291	7498.55
2677.22224	7499.25
2679.84993	7492.15
2682.476	7492.45
2685.10043	7483.95
2687.72324	7486.25
2690.34441	7464.15
2692.96396	7473.35
2695.58188	7499.75
2698.19818	7487.65
2700.81285	7472.15
2703.4259	7455.25
2706.03733	7456.45
2708.64714	7465.45
2711.25533	7463.85
2713.86191	7490.95
2716.46687	7498.45
2719.07021	7496.55
2721.67194	7509.85
2724.27206	7510.55
2726.87057	7528.25
2729.46747	7504.25
2732.06276	7522.65
2734.65644	7498.85
2737.24852	7493.65
2739.83899	7496.05
2742.42786	7507.95
2745.01513	7469.05
2747.60079	7499.85
2750.18486	7474.05
2752.76733	7490.25
2755.3482	7474.15
2757.92747	7469.85
2760.50515	7454.95
2763.08123	7453.15
2765.65573	7478.55
2768.22863	7465.95
2770.79994	7450.75
2773.36967	7422.95
2775.9378	7426.65
2778.50435	7446.65
2781.06932	7419.15
2783.6327	7400.05
2786.1945	7429.65
2788.75471	7411.45
2791.31335	7388.25
2793.87041	7383.25
2796.42589	7372.05
2798.97979	7356.85
2801.53212	7359.95
2804.08288	7348.05
2806.63206	7336.05
2809.17967	7320.35
2811.72571	7314.55
2814.27018	7287.05
2816.81308	7294.35
2819.35442	7296.05
2821.89419	7269.65
2824.43239	7283.05
2826.96904	7274.85
2829.50412	7272.35
2832.03763	7251.55
2834.56959	7272.95
2837.1	7268.45
2839.62884	7266.35
2842.15613	7279.65
2844.68186	7294.45
2847.20604	7302.35
2849.72867	7333.15
2852.24974	7315.85
2854.76927	7322.55
2857.28724	7308.85
2859.80367	7287.85
2862.31855	7295.05
2864.83189	7304.35
2867.34368	7264.75
2869.85393	7254.25
2872.36264	7275.85
2874.8698	7270.95
2877.37543	7247.55
2879.87952	7242.25
2882.38207	7245.05
2884.88308	7242.05
2887.38256	7253.95
2889.88051	7222.05
2892.37692	7242.75
2894.8718	7246.95
2897.36515	7245.25
2899.85698	7261.85
2902.34727	7267.35
2904.83604	7269.85
2907.32328	7296.85
2909.809	7284.85
2912.29319	7283.45
2914.77587	7290.65
2917.25702	7281.15
2919.73665	7275.25
2922.21476	7274.65
2924.69136	7249.15
2927.16644	7272.15
2929.64	7257.95
2932.11205	7255.95
2934.58258	7241.15
2937.05161	7225.15
2939.51912	7236.75
2941.98513	7214.15
2944.44962	7191.55
2946.91261	7155.95
2949.37409	7153.85
2951.83407	7164.05
2954.29254	7159.75
2956.74951	7124.45
2959.20498	7133.15
2961.65895	7137.75
2964.11142	7141.95
2966.56239	7102.65
2969.01186	7100.15
2971.45984	7093.25
2973.90632	7084.55
2976.35131	7077.85
2978.7948	7057.35
2981.23681	7042.55
2983.67732	7030.15
2986.11635	7013.05
2988.55388	7015.85
2990.98993	7006.65
2993.4245	6980.15
2995.85758	6979.65
2998.28917	6986.95
3000.71928	6933.75
3003.14791	6923.95
3005.57506	6913.65
3008.00073	6884.55
3010.42493	6892.45
3012.84764	6891.05
3015.26888	6898.35
3017.68865	6877.45
3020.10694	6873.15
3022.52376	6846.75
3024.9391	6851.15
3027.35298	6840.85
3029.76539	6843.45
3032.17632	6815.95
3034.5858	6817.65
3036.9938	6811.05
3039.40034	6811.35
3041.80542	6794.75
3044.20903	6819.85
3046.61118	6781.65
3049.01187	6770.15
3051.4111	6777.25
3053.80888	6753.95
3056.20519	6756.05
3058.60005	6733.35
3060.99345	6713.75
3063.3854	6702.85
3065.7759	6706.65
3068.16494	6678.45
3070.55254	6656.65
3072.93868	6647.55
3075.32338	6626.05
3077.70662	6624.25
3080.08842	6595.55
3082.46878	6604.25
3084.84769	6602.55
3087.22515	6584.35
3089.60118	6586.95
3091.97576	6577.25
3094.3489	6566.75
3096.72061	6615.55
3099.09087	6587.55
3101.4597	6560.75
3103.82709	6577.45
3106.19305	6595.15
3108.55757	6589.45
3110.92066	6573.65
3113.28232	6557.95
3115.64255	6552.55
3118.00134	6518.45
3120.35871	6519.05
3122.71466	6527.05
3125.06917	6501.95
3127.42226	6478.75
3129.77393	6503.25
3132.12417	6482.05
3134.47299	6475.35
3136.82039	6476.65
3139.16636	6487.25
3141.51092	6499.45
3143.85406	6506.35
3146.19579	6493.15
3148.53609	6510.35
3150.87499	6538.05
3153.21246	6518.55
3155.54853	6539.15
3157.88318	6526.15
3160.21642	6516.55
3162.54826	6541.25
3164.87868	6531.15
3167.2077	6526.35
3169.5353	6522.85
3171.86151	6547.55
3174.18631	6532.35
3176.5097	6542.05
3178.83169	6513.15
3181.15228	6528.15
3183.47147	6516.15
3185.78926	6520.45
3188.10565	6499.75
3190.42065	6519.55
3192.73424	6486.65
3195.04645	6526.55
3197.35725	6507.25
3199.66667	6498.95
3201.97469	6515.55
3204.28132	6500.35
3206.58656	6528.95
3208.8904	6520.05
3211.19287	6523.05
3213.49394	6519.25
3215.79363	6525.75
3218.09193	6548.45
3220.38884	6539.15
3222.68438	6529.75
3224.97853	6526.55
3227.2713	6533.45
3229.56269	6522.95
3231.8527	6537.35
3234.14133	6511.85
3236.42858	6497.85
3238.71446	6505.35
3240.99896	6466.25
3243.28209	6474.25
3245.56384	6488.55
3247.84423	6469.75
3250.12324	6460.55
3252.40088	6441.95
3254.67715	6457.05
3256.95205	6473.35
3259.22558	6457.05
3261.49775	6456.55
3263.76855	6440.25
3266.03799	6420.65
3268.30606	6427.05
3270.57277	6405.75
3272.83812	6416.85
3275.10211	6379.65
3277.36474	6385.35
3279.62601	6383.15
3281.88593	6366.45
3284.14448	6373.05
3286.40168	6375.95
3288.65753	6384.95
3290.91202	6365.85
3293.16516	6349.45
3295.41695	6332.55
3297.66738	6315.55
3299.91647	6294.45
3302.16421	6234.95
3304.4106	6222.05
3306.65564	6183.05
3308.89933	6145.75
3311.14169	6113.75
3313.38269	6061.45
3315.62236	6006.55
3317.86068	5981.35
3320.09766	5945.75
3322.3333	5893.25
3324.5676	5885.55
3326.80056	5775.65
3329.03219	5748.35
3331.26248	0.25
3333.49143	0.35
3335.71905	-1.15
