Data from AgNPs_FTO_APTES_UA_1uM_CRN_2uM_R6G_10uM_NaF_0.1M_Addition_RamanShift__29__13-29-09-565.txt Node

Date: Thu Jan 27 13:29:09 GMT 2022
User: TCL
Spectrometer: QEP01345
Trigger mode: 4
Integration Time (sec): 7.000000E0
Scans to average: 10
Electric dark correction enabled: true
Nonlinearity correction enabled: false
Boxcar width: 0
XAxis mode: Raman Shifts
Number of Pixels in Spectrum: 1044
>>>>>Begin Spectral Data<<<<<
46.04893	1.65
50.45542	0.25
54.85868	0.15
59.25871	-1.25
63.6555	35.85
68.04907	37.85
72.43941	39.95
76.82654	43.35
81.21044	45.05
85.59113	45.75
89.96862	45.55
94.34289	48.05
98.71396	50.85
103.08183	51.95
107.4465	56.85
111.80798	59.75
116.16626	55.65
120.52136	60.55
124.87327	58.55
129.222	55.35
133.56755	56.75
137.90993	62.45
142.24913	62.25
146.58517	71.45
150.91804	79.55
155.24774	85.15
159.57429	97.75
163.89768	122.95
168.21792	158.45
172.53501	209.05
176.84895	272.55
181.15975	376.25
185.46741	522.15
189.77193	715.95
194.07331	949.75
198.37157	1230.85
202.6667	1516.25
206.9587	1799.15
211.24758	2072.35
215.53334	2373.85
219.81599	2694.85
224.09553	3055.25
228.37195	3453.05
232.64527	3904.45
236.91549	4355.45
241.18261	4752.25
245.44663	5086.05
249.70755	5381.15
253.96539	5663.15
258.22014	5872.45
262.4718	6096.15
266.72039	6272.55
270.96589	6370.65
275.20832	6417.15
279.44768	6356.65
283.68397	6307.05
287.91719	6270.35
292.14735	6251.25
296.37445	6300.35
300.59849	6469.65
304.81948	6697.55
309.03742	6832.75
313.25231	6819.55
317.46415	6559.05
321.67296	6122.75
325.87872	5771.05
330.08145	5611.65
334.28114	5595.35
338.47781	5693.15
342.67145	5832.25
346.86207	6067.05
351.04966	6378.45
355.23424	6723.35
359.4158	7011.05
363.59435	7155.15
367.76989	7183.05
371.94243	7187.85
376.11196	7147.15
380.27849	7092.95
384.44203	7051.95
388.60257	6960.85
392.76012	6957.35
396.91468	7053.05
401.06626	7246.55
405.21485	7402.15
409.36047	7327.05
413.50311	7048.45
417.64277	6772.95
421.77947	6632.45
425.9132	6578.65
430.04396	6606.65
434.17176	6615.35
438.2966	6692.75
442.41849	6847.05
446.53742	7048.85
450.6534	7249.75
454.76644	7373.25
458.87653	7423.55
462.98368	7356.65
467.08789	7244.25
471.18916	7098.55
475.2875	6930.45
479.38291	6814.35
483.4754	6716.35
487.56496	6655.45
491.6516	6606.55
495.73531	6591.15
499.81612	6594.15
503.89401	6652.55
507.96899	6723.75
512.04106	6782.45
516.11023	6850.75
520.1765	6890.25
524.23987	6859.75
528.30034	6757.35
532.35792	6614.45
536.41261	6491.25
540.46441	6385.95
544.51333	6351.75
548.55936	6398.45
552.60252	6511.95
556.64279	6664.75
560.6802	6720.65
564.71473	6779.85
568.7464	7030.45
572.7752	7201.35
576.80114	7116.55
580.82422	7013.95
584.84444	6976.35
588.86181	6951.25
592.87633	6968.75
596.888	7015.25
600.89682	7217.05
604.9028	7861.65
608.90594	9470.85
612.90624	11619.65
616.90371	11315.85
620.89834	8468.45
624.89015	7046.95
628.87913	6750.55
632.86528	6763.55
636.84862	6802.05
640.82913	6740.85
644.80683	6513.55
648.78172	6384.55
652.75379	6390.25
656.72306	6642.95
660.68952	6926.55
664.65319	6911.45
668.61405	6646.25
672.57211	6479.75
676.52738	6472.45
680.47986	6467.25
684.42955	6446.95
688.37646	6435.25
692.32058	6453.25
696.26192	6496.85
700.20048	6598.85
704.13626	6630.45
708.06928	6638.95
711.99952	6598.85
715.927	6564.15
719.85171	6538.35
723.77365	6522.75
727.69284	6469.95
731.60928	6408.45
735.52295	6411.35
739.43388	6445.75
743.34206	6472.15
747.24749	6538.75
751.15017	6595.55
755.05012	6722.25
758.94733	6982.75
762.8418	7516.75
766.73354	8457.75
770.62254	9450.65
774.50882	9920.85
778.39237	9537.15
782.27321	8558.35
786.15132	7538.05
790.02671	6966.65
793.89938	6847.75
797.76935	6617.95
801.6366	6507.35
805.50115	6445.15
809.36299	6428.25
813.22213	6408.65
817.07857	6409.95
820.93231	6414.25
824.78336	6427.85
828.63172	6469.35
832.47738	6473.35
836.32036	6501.75
840.16066	6447.75
843.99827	6413.65
847.8332	6411.65
851.66546	6399.35
855.49504	6404.05
859.32195	6367.35
863.1462	6358.05
866.96777	6345.75
870.78668	6331.85
874.60293	6342.55
878.41652	6352.15
882.22745	6398.65
886.03573	6415.75
889.84136	6387.45
893.64433	6382.65
897.44466	6354.15
901.24235	6363.85
905.0374	6345.35
908.8298	6334.55
912.61957	6332.55
916.40671	6364.65
920.19121	6420.35
923.97308	6496.25
927.75233	6540.45
931.52895	6581.15
935.30295	6507.55
939.07433	6378.95
942.84309	6233.45
946.60924	6190.55
950.37278	6128.35
954.13371	6104.45
957.89203	6090.15
961.64774	6062.95
965.40086	6040.25
969.15137	6029.55
972.89929	6028.25
976.64461	6002.55
980.38733	6004.65
984.12747	6019.95
987.86502	6046.15
991.59999	6073.85
995.33237	6151.85
999.06217	6277.45
1002.78939	6430.25
1006.51404	6602.55
1010.23611	6748.35
1013.95561	6856.45
1017.67255	6826.25
1021.38692	6753.05
1025.09872	6621.05
1028.80796	6578.45
1032.51465	6602.25
1036.21877	6710.35
1039.92035	6762.95
1043.61937	6749.75
1047.31584	6704.65
1051.00976	6637.55
1054.70114	6592.75
1058.38998	6601.75
1062.07627	6630.95
1065.76003	6699.65
1069.44126	6744.95
1073.11995	6797.25
1076.79611	6862.75
1080.46974	6905.15
1084.14085	7023.25
1087.80943	7127.35
1091.47549	7192.25
1095.13903	7106.65
1098.80005	6933.75
1102.45857	6722.95
1106.11456	6618.15
1109.76805	6620.55
1113.41903	6703.75
1117.06751	6822.65
1120.71348	7033.55
1124.35696	7237.05
1127.99793	7453.25
1131.63641	7482.05
1135.2724	7237.85
1138.90589	6992.95
1142.5369	6851.05
1146.16542	6755.05
1149.79145	6704.95
1153.415	6713.85
1157.03607	6771.45
1160.65467	6887.65
1164.27079	7079.55
1167.88443	7366.85
1171.49561	7821.25
1175.10432	8590.65
1178.71056	9561.55
1182.31434	10335.75
1185.91565	10577.45
1189.51451	10474.85
1193.11091	9996.55
1196.70485	9325.65
1200.29634	8778.85
1203.88538	8380.15
1207.47197	7956.25
1211.05612	7621.55
1214.63782	7428.55
1218.21708	7383.45
1221.79391	7401.45
1225.36829	7489.05
1228.94024	7603.35
1232.50976	7705.85
1236.07685	7761.25
1239.6415	7755.85
1243.20374	7716.15
1246.76355	7696.75
1250.32093	7745.25
1253.8759	7903.65
1257.42845	8103.15
1260.97859	8306.05
1264.52631	8513.55
1268.07163	8695.75
1271.61453	8859.85
1275.15503	9024.35
1278.69312	9133.15
1282.22882	9263.45
1285.76211	9459.75
1289.29301	9715.05
1292.82151	9966.45
1296.34761	10181.65
1299.87133	10552.65
1303.39266	11097.75
1306.9116	12012.55
1310.42815	13152.55
1313.94233	13890.25
1317.45412	13906.75
1320.96354	13319.15
1324.47058	12602.25
1327.97525	12003.55
1331.47754	11683.45
1334.97747	11540.05
1338.47502	11559.25
1341.97022	11702.85
1345.46305	11868.25
1348.95352	12123.55
1352.44163	12534.75
1355.92738	13284.95
1359.41078	14560.55
1362.89183	15905.05
1366.37053	15706.15
1369.84688	13788.85
1373.32088	11828.15
1376.79254	10556.35
1380.26186	9939.45
1383.72883	9646.55
1387.19347	9379.05
1390.65578	9106.05
1394.11575	8869.55
1397.57339	8786.65
1401.0287	8862.35
1404.48168	9020.55
1407.93234	9246.15
1411.38068	9429.85
1414.82669	9413.35
1418.27039	9256.75
1421.71177	9026.45
1425.15083	8837.45
1428.58758	8743.05
1432.02203	8727.85
1435.45416	8749.95
1438.88399	8771.45
1442.31151	8762.75
1445.73673	8785.05
1449.15965	8815.25
1452.58027	8797.45
1455.9986	8713.95
1459.41463	8685.15
1462.82837	8712.25
1466.23982	8824.15
1469.64898	8978.05
1473.05586	9077.55
1476.46045	9155.85
1479.86276	9261.55
1483.26279	9450.55
1486.66054	9653.25
1490.05602	9925.45
1493.44922	10266.55
1496.84016	10748.55
1500.22882	11436.65
1503.61521	12306.95
1506.99934	13277.05
1510.38121	14280.15
1513.76081	14863.05
1517.13816	14445.65
1520.51324	13183.25
1523.88607	11773.05
1527.25665	10787.05
1530.62498	10206.95
1533.99105	9821.45
1537.35488	9559.05
1540.71647	9436.75
1544.07581	9359.35
1547.4329	9292.75
1550.78776	9222.55
1554.14038	9193.95
1557.49077	9204.35
1560.83892	9329.25
1564.18484	9476.85
1567.52853	9607.15
1570.86999	9759.15
1574.20922	9821.35
1577.54624	9785.85
1580.88103	9496.35
1584.2136	9102.35
1587.54395	8996.75
1590.87208	9203.55
1594.19801	9704.45
1597.52172	10317.35
1600.84321	10618.25
1604.16251	10325.25
1607.47959	9729.25
1610.79447	9002.45
1614.10715	8337.15
1617.41763	7831.65
1620.7259	7513.45
1624.03199	7368.65
1627.33587	7387.75
1630.63757	7559.25
1633.93707	7894.45
1637.23439	8414.45
1640.52951	9098.55
1643.82246	9861.45
1647.11321	10554.15
1650.40179	11031.65
1653.68819	10723.65
1656.97241	9592.55
1660.25446	8290.75
1663.53433	7333.45
1666.81203	6761.15
1670.08756	6423.75
1673.36092	6220.55
1676.63211	6112.45
1679.90115	6017.95
1683.16801	5943.15
1686.43272	5881.25
1689.69527	5846.55
1692.95567	5793.45
1696.2139	5757.45
1699.46999	5732.35
1702.72392	5680.95
1705.97571	5711.25
1709.22535	5744.65
1712.47284	5771.95
1715.71819	5765.65
1718.96139	5795.65
1722.20246	5786.05
1725.44139	5761.55
1728.67818	5750.05
1731.91284	5694.35
1735.14537	5647.45
1738.37576	5638.15
1741.60403	5593.15
1744.83017	5573.35
1748.05418	5557.55
1751.27607	5539.95
1754.49584	5505.85
1757.71349	5498.45
1760.92903	5488.05
1764.14244	5481.95
1767.35375	5463.95
1770.56294	5470.65
1773.77002	5470.15
1776.97499	5457.55
1780.17785	5476.45
1783.37861	5477.25
1786.57727	5470.65
1789.77382	5459.35
1792.96828	5453.05
1796.16064	5464.35
1799.3509	5457.85
1802.53907	5444.45
1805.72514	5427.45
1808.90913	5418.55
1812.09102	5390.15
1815.27083	5402.35
1818.44856	5394.95
1821.6242	5386.55
1824.79776	5373.75
1827.96924	5357.95
1831.13864	5368.15
1834.30597	5380.25
1837.47122	5370.65
1840.6344	5364.45
1843.7955	5364.15
1846.95454	5355.75
1850.11151	5361.95
1853.26642	5363.15
1856.41926	5373.85
1859.57004	5370.55
1862.71876	5374.85
1865.86542	5383.05
1869.01003	5381.25
1872.15258	5390.75
1875.29308	5390.95
1878.43152	5404.55
1881.56792	5402.95
1884.70227	5396.15
1887.83457	5413.15
1890.96482	5396.55
1894.09304	5412.85
1897.21921	5412.25
1900.34335	5414.25
1903.46544	5426.35
1906.58551	5421.05
1909.70353	5404.25
1912.81953	5410.55
1915.93349	5403.35
1919.04543	5397.45
1922.15534	5379.35
1925.26322	5374.35
1928.36908	5353.85
1931.47292	5326.85
1934.57473	5309.25
1937.67453	5280.75
1940.77232	5249.45
1943.86808	5214.15
1946.96184	5205.65
1950.05358	5181.45
1953.14331	5154.85
1956.23103	5139.75
1959.31675	5104.85
1962.40046	5094.55
1965.48217	5075.75
1968.56188	5066.65
1971.63959	5043.25
1974.7153	5037.25
1977.78901	5034.75
1980.86073	4995.35
1983.93046	4986.25
1986.99819	4962.75
1990.06394	4943.05
1993.1277	4923.75
1996.18947	4898.75
1999.24925	4887.15
2002.30706	4872.15
2005.36288	4874.05
2008.41672	4862.05
2011.46859	4845.65
2014.51848	4829.35
2017.56639	4809.15
2020.61233	4802.95
2023.6563	4781.55
2026.6983	4779.15
2029.73833	4758.65
2032.7764	4763.35
2035.8125	4753.05
2038.84664	4736.75
2041.87881	4739.75
2044.90903	4714.95
2047.93729	4704.15
2050.96359	4696.45
2053.98794	4692.45
2057.01034	4674.35
2060.03078	4687.25
2063.04927	4669.45
2066.06582	4676.25
2069.08042	4668.05
2072.09307	4663.75
2075.10378	4674.95
2078.11255	4664.55
2081.11938	4663.45
2084.12426	4651.05
2087.12722	4642.65
2090.12824	4651.35
2093.12732	4644.15
2096.12447	4651.15
2099.11969	4654.25
2102.11299	4641.55
2105.10435	4645.55
2108.09379	4637.05
2111.08131	4637.95
2114.0669	4658.15
2117.05057	4635.95
2120.03233	4628.35
2123.01216	4644.15
2125.99008	4650.95
2128.96609	4649.45
2131.94018	4658.35
2134.91236	4655.45
2137.88263	4660.85
2140.851	4656.35
2143.81746	4667.05
2146.78201	4652.85
2149.74466	4658.15
2152.7054	4664.45
2155.66425	4666.75
2158.6212	4658.15
2161.57625	4629.25
2164.52941	4634.55
2167.48067	4649.85
2170.43004	4632.85
2173.37752	4624.95
2176.32311	4633.25
2179.26681	4639.15
2182.20863	4626.05
2185.14856	4621.15
2188.08661	4623.85
2191.02278	4626.85
2193.95707	4617.05
2196.88948	4616.45
2199.82001	4604.55
2202.74867	4620.35
2205.67545	4610.35
2208.60037	4594.05
2211.52341	4588.45
2214.44458	4602.15
2217.36388	4569.95
2220.28132	4563.25
2223.1969	4559.65
2226.11061	4536.55
2229.02246	4535.75
2231.93245	4520.65
2234.84058	4520.55
2237.74686	4510.55
2240.65128	4503.45
2243.55385	4498.45
2246.45456	4506.15
2249.35343	4498.15
2252.25044	4495.15
2255.14561	4477.35
2258.03893	4476.95
2260.93041	4463.45
2263.82004	4448.45
2266.70783	4458.45
2269.59378	4434.55
2272.4779	4429.95
2275.36017	4417.75
2278.24061	4411.65
2281.11922	4389.55
2283.996	4379.85
2286.87094	4387.55
2289.74405	4365.15
2292.61534	4360.05
2295.4848	4353.45
2298.35243	4341.75
2301.21824	4345.45
2304.08223	4346.25
2306.94439	4348.05
2309.80474	4346.35
2312.66327	4346.15
2315.51999	4334.95
2318.37489	4341.95
2321.22797	4321.75
2324.07925	4318.85
2326.92871	4318.15
2329.77637	4305.55
2332.62222	4297.65
2335.46626	4294.15
2338.3085	4274.25
2341.14893	4286.75
2343.98756	4285.25
2346.8244	4274.65
2349.65943	4274.95
2352.49267	4270.45
2355.32411	4278.05
2358.15376	4266.65
2360.98161	4286.05
2363.80768	4276.65
2366.63195	4299.65
2369.45444	4269.05
2372.27514	4276.25
2375.09405	4271.85
2377.91118	4255.35
2380.72652	4228.95
2383.54009	4220.15
2386.35187	4212.05
2389.16188	4202.15
2391.97011	4188.15
2394.77657	4189.95
2397.58125	4164.05
2400.38416	4167.65
2403.18529	4159.05
2405.98466	4126.45
2408.78226	4141.25
2411.57809	4138.35
2414.37216	4127.75
2417.16446	4125.85
2419.955	4114.15
2422.74378	4111.85
2425.5308	4106.95
2428.31606	4109.35
2431.09956	4107.15
2433.88131	4086.75
2436.6613	4089.55
2439.43954	4091.55
2442.21603	4079.55
2444.99077	4089.65
2447.76377	4084.65
2450.53501	4066.45
2453.30451	4079.45
2456.07226	4069.65
2458.83827	4052.45
2461.60254	4052.45
2464.36507	4055.45
2467.12586	4046.35
2469.88492	4050.45
2472.64224	4062.95
2475.39782	4057.45
2478.15167	4052.45
2480.90379	4059.85
2483.65417	4063.95
2486.40283	4056.25
2489.14976	4069.05
2491.89497	4070.35
2494.63845	4062.75
2497.3802	4055.95
2500.12024	4055.45
2502.85855	4051.15
2505.59514	4038.35
2508.33002	4023.45
2511.06318	4029.05
2513.79462	4020.15
2516.52435	4010.45
2519.25237	3998.95
2521.97867	3990.25
2524.70327	3990.05
2527.42616	3975.55
2530.14734	3972.85
2532.86681	3969.25
2535.58458	3952.15
2538.30065	3957.55
2541.01501	3958.95
2543.72768	3952.15
2546.43864	3953.85
2549.14791	3951.45
2551.85548	3946.85
2554.56136	3937.45
2557.26554	3935.55
2559.96803	3913.95
2562.66883	3920.45
2565.36794	3913.85
2568.06536	3914.45
2570.7611	3893.25
2573.45514	3888.75
2576.14751	3881.15
2578.83819	3883.05
2581.52719	3881.05
2584.21451	3877.25
2586.90015	3863.95
2589.58411	3863.05
2592.2664	3865.05
2594.94701	3857.45
2597.62594	3854.15
2600.30321	3842.85
2602.9788	3841.05
2605.65273	3840.95
2608.32498	3828.35
2610.99557	3838.65
2613.66449	3856.05
2616.33175	3835.15
2618.99734	3826.65
2621.66128	3825.45
2624.32355	3818.75
2626.98416	3818.95
2629.64311	3814.45
2632.30041	3809.75
2634.95605	3807.65
2637.61004	3793.75
2640.26238	3792.15
2642.91306	3799.45
2645.56209	3782.65
2648.20948	3784.55
2650.85521	3777.25
2653.4993	3776.65
2656.14175	3776.55
2658.78255	3783.85
2661.42171	3772.75
2664.05923	3783.75
2666.6951	3787.75
2669.32934	3786.15
2671.96194	3795.85
2674.59291	3790.95
2677.22224	3794.85
2679.84993	3776.75
2682.476	3780.65
2685.10043	3783.15
2687.72324	3770.65
2690.34441	3794.85
2692.96396	3791.95
2695.58188	3792.55
2698.19818	3777.85
2700.81285	3795.85
2703.4259	3788.55
2706.03733	3778.45
2708.64714	3771.35
2711.25533	3788.15
2713.86191	3784.05
2716.46687	3777.35
2719.07021	3782.45
2721.67194	3791.25
2724.27206	3799.55
2726.87057	3799.35
2729.46747	3799.55
2732.06276	3795.05
2734.65644	3791.55
2737.24852	3793.55
2739.83899	3791.75
2742.42786	3798.25
2745.01513	3769.65
2747.60079	3794.85
2750.18486	3770.05
2752.76733	3768.85
2755.3482	3755.05
2757.92747	3763.15
2760.50515	3742.95
2763.08123	3741.95
2765.65573	3725.45
2768.22863	3743.15
2770.79994	3718.95
2773.36967	3725.15
2775.9378	3723.05
2778.50435	3718.15
2781.06932	3717.65
2783.6327	3722.95
2786.1945	3711.85
2788.75471	3715.05
2791.31335	3711.75
2793.87041	3690.15
2796.42589	3695.85
2798.97979	3699.85
2801.53212	3689.15
2804.08288	3687.85
2806.63206	3666.35
2809.17967	3678.45
2811.72571	3664.85
2814.27018	3673.25
2816.81308	3674.45
2819.35442	3670.65
2821.89419	3666.45
2824.43239	3673.85
2826.96904	3679.95
2829.50412	3688.95
2832.03763	3671.05
2834.56959	3683.15
2837.1	3683.75
2839.62884	3687.25
2842.15613	3715.45
2844.68186	3735.95
2847.20604	3768.75
2849.72867	3808.95
2852.24974	3801.45
2854.76927	3809.45
2857.28724	3778.95
2859.80367	3780.95
2862.31855	3767.05
2864.83189	3755.35
2867.34368	3738.35
2869.85393	3743.15
2872.36264	3748.05
2874.8698	3720.55
2877.37543	3728.95
2879.87952	3724.95
2882.38207	3716.35
2884.88308	3713.65
2887.38256	3708.95
2889.88051	3706.65
2892.37692	3728.05
2894.8718	3722.65
2897.36515	3718.65
2899.85698	3710.35
2902.34727	3727.65
2904.83604	3729.75
2907.32328	3729.85
2909.809	3725.95
2912.29319	3735.55
2914.77587	3719.25
2917.25702	3720.55
2919.73665	3715.25
2922.21476	3708.75
2924.69136	3713.75
2927.16644	3702.45
2929.64	3711.95
2932.11205	3702.45
2934.58258	3670.35
2937.05161	3689.45
2939.51912	3672.55
2941.98513	3648.45
2944.44962	3621.45
2946.91261	3581.25
2949.37409	3595.35
2951.83407	3569.55
2954.29254	3568.15
2956.74951	3561.55
2959.20498	3563.95
2961.65895	3544.45
2964.11142	3535.35
2966.56239	3525.05
2969.01186	3513.85
2971.45984	3523.25
2973.90632	3504.65
2976.35131	3498.35
2978.7948	3485.95
2981.23681	3479.35
2983.67732	3473.05
2986.11635	3451.15
2988.55388	3454.95
2990.98993	3443.25
2993.4245	3441.25
2995.85758	3415.55
2998.28917	3405.05
3000.71928	3395.95
3003.14791	3386.45
3005.57506	3390.25
3008.00073	3383.55
3010.42493	3378.95
3012.84764	3382.05
3015.26888	3380.85
3017.68865	3367.15
3020.10694	3359.95
3022.52376	3333.65
3024.9391	3335.55
3027.35298	3342.85
3029.76539	3349.35
3032.17632	3338.15
3034.5858	3348.25
3036.9938	3321.45
3039.40034	3323.05
3041.80542	3334.65
3044.20903	3328.55
3046.61118	3321.65
3049.01187	3310.55
3051.4111	3299.15
3053.80888	3309.55
3056.20519	3312.25
3058.60005	3299.75
3060.99345	3284.35
3063.3854	3282.45
3065.7759	3272.45
3068.16494	3266.35
3070.55254	3254.75
3072.93868	3246.45
3075.32338	3228.15
3077.70662	3233.45
3080.08842	3234.05
3082.46878	3228.65
3084.84769	3218.45
3087.22515	3208.05
3089.60118	3210.45
3091.97576	3205.05
3094.3489	3210.75
3096.72061	3212.15
3099.09087	3219.65
3101.4597	3211.85
3103.82709	3213.45
3106.19305	3217.75
3108.55757	3220.95
3110.92066	3208.95
3113.28232	3191.85
3115.64255	3189.15
3118.00134	3203.25
3120.35871	3186.85
3122.71466	3187.85
3125.06917	3176.85
3127.42226	3180.65
3129.77393	3178.75
3132.12417	3179.65
3134.47299	3179.45
3136.82039	3182.45
3139.16636	3194.85
3141.51092	3193.55
3143.85406	3207.05
3146.19579	3186.45
3148.53609	3185.85
3150.87499	3198.45
3153.21246	3201.05
3155.54853	3221.25
3157.88318	3231.05
3160.21642	3217.95
3162.54826	3221.25
3164.87868	3212.65
3167.2077	3212.05
3169.5353	3216.45
3171.86151	3224.75
3174.18631	3222.75
3176.5097	3221.25
3178.83169	3217.55
3181.15228	3241.95
3183.47147	3226.75
3185.78926	3223.55
3188.10565	3223.15
3190.42065	3229.25
3192.73424	3234.05
3195.04645	3241.65
3197.35725	3228.55
3199.66667	3239.95
3201.97469	3239.15
3204.28132	3239.25
3206.58656	3243.45
3208.8904	3247.15
3211.19287	3250.65
3213.49394	3265.45
3215.79363	3257.55
3218.09193	3270.35
3220.38884	3258.15
3222.68438	3255.35
3224.97853	3251.85
3227.2713	3249.25
3229.56269	3253.65
3231.8527	3253.55
3234.14133	3242.15
3236.42858	3246.55
3238.71446	3239.75
3240.99896	3242.55
3243.28209	3226.25
3245.56384	3225.25
3247.84423	3229.85
3250.12324	3219.75
3252.40088	3224.65
3254.67715	3219.75
3256.95205	3212.95
3259.22558	3214.05
3261.49775	3210.65
3263.76855	3204.05
3266.03799	3210.45
3268.30606	3192.85
3270.57277	3195.35
3272.83812	3185.45
3275.10211	3183.35
3277.36474	3167.75
3279.62601	3168.05
3281.88593	3146.25
3284.14448	3140.45
3286.40168	3160.55
3288.65753	3165.65
3290.91202	3145.55
3293.16516	3148.85
3295.41695	3141.35
3297.66738	3119.65
3299.91647	3100.15
3302.16421	3082.05
3304.4106	3078.75
3306.65564	3052.15
3308.89933	3054.25
3311.14169	3026.95
3313.38269	3000.75
3315.62236	2978.15
3317.86068	2942.35
3320.09766	2934.45
3322.3333	2912.65
3324.5676	2897.95
3326.80056	2854.25
3329.03219	2811.95
3331.26248	0.75
3333.49143	-0.85
3335.71905	0.15
