Data from AgNPs_FTO_APTES_UA_1uM_CRN_0uM_R6G_10uM_NaF_0.1M_Addition_RamanShift__54__12-08-39-474.txt Node

Date: Thu Jan 27 12:08:39 GMT 2022
User: TCL
Spectrometer: QEP01345
Trigger mode: 4
Integration Time (sec): 7.000000E0
Scans to average: 10
Electric dark correction enabled: true
Nonlinearity correction enabled: false
Boxcar width: 0
XAxis mode: Raman Shifts
Number of Pixels in Spectrum: 1044
>>>>>Begin Spectral Data<<<<<
46.04893	0.75
50.45542	0.45
54.85868	-0.05
59.25871	-2.05
63.6555	29.45
68.04907	33.35
72.43941	34.45
76.82654	37.05
81.21044	37.85
85.59113	39.85
89.96862	41.75
94.34289	44.85
98.71396	48.45
103.08183	43.45
107.4465	49.95
111.80798	49.85
116.16626	47.55
120.52136	51.15
124.87327	53.55
129.222	46.25
133.56755	48.25
137.90993	53.55
142.24913	54.35
146.58517	58.75
150.91804	64.45
155.24774	69.05
159.57429	81.45
163.89768	100.95
168.21792	126.85
172.53501	164.25
176.84895	214.05
181.15975	297.75
185.46741	410.95
189.77193	556.35
194.07331	733.55
198.37157	945.25
202.6667	1167.85
206.9587	1381.65
211.24758	1598.65
215.53334	1848.95
219.81599	2100.35
224.09553	2402.35
228.37195	2737.85
232.64527	3079.75
236.91549	3431.75
241.18261	3732.15
245.44663	3954.85
249.70755	4128.45
253.96539	4278.45
258.22014	4415.75
262.4718	4534.85
266.72039	4653.45
270.96589	4729.25
275.20832	4720.85
279.44768	4662.95
283.68397	4581.85
287.91719	4546.35
292.14735	4547.35
296.37445	4667.95
300.59849	4879.05
304.81948	5167.25
309.03742	5393.25
313.25231	5396.85
317.46415	5112.05
321.67296	4645.85
325.87872	4246.95
330.08145	4049.85
334.28114	4030.85
338.47781	4115.35
342.67145	4254.95
346.86207	4484.55
351.04966	4827.35
355.23424	5213.45
359.4158	5550.95
363.59435	5674.25
367.76989	5709.65
371.94243	5656.25
376.11196	5592.35
380.27849	5536.25
384.44203	5437.95
388.60257	5321.05
392.76012	5270.25
396.91468	5325.95
401.06626	5480.35
405.21485	5614.45
409.36047	5505.15
413.50311	5156.25
417.64277	4815.55
421.77947	4607.45
425.9132	4506.15
430.04396	4492.45
434.17176	4506.45
438.2966	4600.85
442.41849	4744.35
446.53742	4953.45
450.6534	5124.65
454.76644	5229.95
458.87653	5223.05
462.98368	5154.85
467.08789	5027.55
471.18916	4871.15
475.2875	4736.95
479.38291	4604.85
483.4754	4545.35
487.56496	4457.05
491.6516	4388.25
495.73531	4342.95
499.81612	4370.65
503.89401	4430.15
507.96899	4526.45
512.04106	4604.85
516.11023	4722.55
520.1765	4808.55
524.23987	4790.65
528.30034	4680.15
532.35792	4537.35
536.41261	4394.45
540.46441	4251.35
544.51333	4163.05
548.55936	4197.95
552.60252	4293.65
556.64279	4437.55
560.6802	4513.75
564.71473	4613.65
568.7464	4857.45
572.7752	5047.85
576.80114	4874.75
580.82422	4651.35
584.84444	4560.15
588.86181	4543.75
592.87633	4602.35
596.888	4682.25
600.89682	4883.25
604.9028	5535.85
608.90594	7293.65
612.90624	9812.35
616.90371	9724.85
620.89834	6451.55
624.89015	4752.85
628.87913	4400.95
632.86528	4383.95
636.84862	4456.65
640.82913	4406.75
644.80683	4182.65
648.78172	4029.75
652.75379	4065.65
656.72306	4313.75
660.68952	4625.25
664.65319	4584.15
668.61405	4256.95
672.57211	4093.05
676.52738	4069.45
680.47986	4060.95
684.42955	4012.45
688.37646	3986.75
692.32058	4002.45
696.26192	4032.05
700.20048	4099.55
704.13626	4159.25
708.06928	4146.15
711.99952	4086.75
715.927	4069.45
719.85171	4074.25
723.77365	4073.15
727.69284	4012.45
731.60928	3979.95
735.52295	3985.55
739.43388	3997.75
743.34206	4042.75
747.24749	4072.35
751.15017	4102.75
755.05012	4182.45
758.94733	4437.75
762.8418	4982.65
766.73354	5987.35
770.62254	7130.35
774.50882	7776.95
778.39237	7573.75
782.27321	6451.15
786.15132	5285.25
790.02671	4581.45
793.89938	4278.05
797.76935	4152.65
801.6366	4086.95
805.50115	4053.05
809.36299	4026.15
813.22213	3998.25
817.07857	3972.45
820.93231	3975.55
824.78336	4012.95
828.63172	4028.05
832.47738	4038.25
836.32036	4045.35
840.16066	4010.25
843.99827	3973.45
847.8332	3940.85
851.66546	3938.95
855.49504	3938.45
859.32195	3916.95
863.1462	3903.65
866.96777	3863.25
870.78668	3864.05
874.60293	3888.65
878.41652	3895.45
882.22745	3913.45
886.03573	3949.85
889.84136	3936.55
893.64433	3908.15
897.44466	3903.45
901.24235	3896.15
905.0374	3879.05
908.8298	3863.55
912.61957	3848.35
916.40671	3869.35
920.19121	3905.75
923.97308	3953.25
927.75233	4029.85
931.52895	4094.65
935.30295	4049.25
939.07433	3908.15
942.84309	3786.25
946.60924	3686.35
950.37278	3638.45
954.13371	3617.95
957.89203	3593.85
961.64774	3583.25
965.40086	3563.85
969.15137	3556.35
972.89929	3561.25
976.64461	3551.35
980.38733	3558.85
984.12747	3545.45
987.86502	3556.55
991.59999	3582.05
995.33237	3623.75
999.06217	3727.05
1002.78939	3824.45
1006.51404	3950.85
1010.23611	4051.45
1013.95561	4133.85
1017.67255	4104.95
1021.38692	4022.65
1025.09872	3922.35
1028.80796	3843.45
1032.51465	3853.95
1036.21877	3895.35
1039.92035	3962.95
1043.61937	3998.85
1047.31584	3998.25
1051.00976	3960.75
1054.70114	3926.35
1058.38998	3897.05
1062.07627	3892.55
1065.76003	3890.85
1069.44126	3929.25
1073.11995	4002.35
1076.79611	4069.55
1080.46974	4157.65
1084.14085	4308.55
1087.80943	4455.15
1091.47549	4525.75
1095.13903	4413.75
1098.80005	4204.55
1102.45857	4010.05
1106.11456	3945.85
1109.76805	3986.75
1113.41903	4098.65
1117.06751	4258.15
1120.71348	4507.55
1124.35696	4761.85
1127.99793	4992.95
1131.63641	5000.85
1135.2724	4705.35
1138.90589	4392.55
1142.5369	4231.75
1146.16542	4097.35
1149.79145	4038.15
1153.415	4029.75
1157.03607	4090.15
1160.65467	4180.65
1164.27079	4353.05
1167.88443	4635.65
1171.49561	5127.55
1175.10432	5938.35
1178.71056	7062.65
1182.31434	7872.45
1185.91565	8095.65
1189.51451	7883.55
1193.11091	7297.65
1196.70485	6573.25
1200.29634	5994.95
1203.88538	5570.55
1207.47197	5113.85
1211.05612	4756.65
1214.63782	4540.15
1218.21708	4490.55
1221.79391	4504.75
1225.36829	4562.55
1228.94024	4623.15
1232.50976	4642.65
1236.07685	4670.05
1239.6415	4648.15
1243.20374	4651.55
1246.76355	4624.65
1250.32093	4666.55
1253.8759	4761.25
1257.42845	4919.15
1260.97859	5142.85
1264.52631	5366.85
1268.07163	5583.55
1271.61453	5773.15
1275.15503	5919.65
1278.69312	5952.95
1282.22882	5944.35
1285.76211	6109.85
1289.29301	6361.45
1292.82151	6614.15
1296.34761	6877.35
1299.87133	7224.85
1303.39266	7796.75
1306.9116	8781.85
1310.42815	10020.75
1313.94233	10910.55
1317.45412	10844.15
1320.96354	10094.55
1324.47058	9143.25
1327.97525	8344.05
1331.47754	7840.75
1334.97747	7627.85
1338.47502	7537.95
1341.97022	7591.15
1345.46305	7810.55
1348.95352	8338.15
1352.44163	9144.95
1355.92738	10274.55
1359.41078	11967.35
1362.89183	13694.55
1366.37053	13591.25
1369.84688	11451.25
1373.32088	9140.55
1376.79254	7599.75
1380.26186	6870.55
1383.72883	6520.45
1387.19347	6253.25
1390.65578	5905.75
1394.11575	5641.15
1397.57339	5483.95
1401.0287	5517.05
1404.48168	5614.45
1407.93234	5727.35
1411.38068	5805.85
1414.82669	5768.75
1418.27039	5632.65
1421.71177	5492.05
1425.15083	5363.25
1428.58758	5295.95
1432.02203	5344.65
1435.45416	5416.65
1438.88399	5464.15
1442.31151	5462.15
1445.73673	5461.75
1449.15965	5486.45
1452.58027	5458.95
1455.9986	5358.45
1459.41463	5329.35
1462.82837	5365.75
1466.23982	5481.65
1469.64898	5616.85
1473.05586	5717.95
1476.46045	5776.85
1479.86276	5868.55
1483.26279	5989.05
1486.66054	6153.25
1490.05602	6325.25
1493.44922	6637.95
1496.84016	7133.65
1500.22882	7938.55
1503.61521	9043.45
1506.99934	10312.55
1510.38121	11621.55
1513.76081	12465.95
1517.13816	11994.95
1520.51324	10396.75
1523.88607	8671.65
1527.25665	7457.85
1530.62498	6798.65
1533.99105	6436.35
1537.35488	6191.45
1540.71647	6032.35
1544.07581	5942.65
1547.4329	5880.75
1550.78776	5804.75
1554.14038	5765.95
1557.49077	5789.65
1560.83892	5874.25
1564.18484	6044.85
1567.52853	6283.55
1570.86999	6540.35
1574.20922	6718.55
1577.54624	6741.95
1580.88103	6394.85
1584.2136	5832.25
1587.54395	5532.05
1590.87208	5579.85
1594.19801	5969.45
1597.52172	6558.85
1600.84321	6897.65
1604.16251	6733.25
1607.47959	6223.15
1610.79447	5613.15
1614.10715	5013.85
1617.41763	4574.65
1620.7259	4283.65
1624.03199	4162.35
1627.33587	4151.85
1630.63757	4268.55
1633.93707	4525.55
1637.23439	4915.45
1640.52951	5534.55
1643.82246	6359.15
1647.11321	7370.05
1650.40179	8132.95
1653.68819	8010.65
1656.97241	6874.75
1660.25446	5501.65
1663.53433	4480.65
1666.81203	3914.45
1670.08756	3593.75
1673.36092	3428.35
1676.63211	3316.75
1679.90115	3244.15
1683.16801	3187.65
1686.43272	3150.55
1689.69527	3100.75
1692.95567	3070.15
1696.2139	3018.95
1699.46999	2962.75
1702.72392	2943.75
1705.97571	2979.15
1709.22535	3006.15
1712.47284	3030.85
1715.71819	3055.15
1718.96139	3063.65
1722.20246	3054.75
1725.44139	3049.05
1728.67818	3026.05
1731.91284	2981.05
1735.14537	2945.85
1738.37576	2922.85
1741.60403	2907.75
1744.83017	2875.85
1748.05418	2866.35
1751.27607	2837.55
1754.49584	2806.45
1757.71349	2788.25
1760.92903	2762.35
1764.14244	2767.95
1767.35375	2760.15
1770.56294	2749.05
1773.77002	2746.05
1776.97499	2737.75
1780.17785	2758.65
1783.37861	2755.25
1786.57727	2757.45
1789.77382	2774.45
1792.96828	2757.35
1796.16064	2750.05
1799.3509	2755.75
1802.53907	2739.95
1805.72514	2725.95
1808.90913	2723.45
1812.09102	2720.35
1815.27083	2704.35
1818.44856	2698.25
1821.6242	2680.65
1824.79776	2688.05
1827.96924	2674.25
1831.13864	2679.95
1834.30597	2677.75
1837.47122	2676.65
1840.6344	2676.25
1843.7955	2662.55
1846.95454	2660.85
1850.11151	2665.05
1853.26642	2664.55
1856.41926	2662.85
1859.57004	2660.55
1862.71876	2658.75
1865.86542	2649.75
1869.01003	2664.45
1872.15258	2660.35
1875.29308	2673.25
1878.43152	2670.85
1881.56792	2678.65
1884.70227	2675.45
1887.83457	2674.05
1890.96482	2673.85
1894.09304	2676.45
1897.21921	2675.55
1900.34335	2672.55
1903.46544	2683.05
1906.58551	2678.65
1909.70353	2674.35
1912.81953	2682.95
1915.93349	2674.55
1919.04543	2653.45
1922.15534	2644.15
1925.26322	2651.15
1928.36908	2629.65
1931.47292	2621.45
1934.57473	2602.55
1937.67453	2600.65
1940.77232	2586.75
1943.86808	2568.55
1946.96184	2554.05
1950.05358	2541.05
1953.14331	2532.85
1956.23103	2512.95
1959.31675	2504.15
1962.40046	2489.95
1965.48217	2493.45
1968.56188	2475.85
1971.63959	2468.65
1974.7153	2461.95
1977.78901	2451.15
1980.86073	2444.05
1983.93046	2432.25
1986.99819	2419.05
1990.06394	2418.15
1993.1277	2402.35
1996.18947	2394.75
1999.24925	2377.65
2002.30706	2378.75
2005.36288	2373.65
2008.41672	2363.95
2011.46859	2352.85
2014.51848	2341.35
2017.56639	2335.15
2020.61233	2336.35
2023.6563	2316.75
2026.6983	2315.15
2029.73833	2305.55
2032.7764	2299.55
2035.8125	2292.95
2038.84664	2294.85
2041.87881	2284.45
2044.90903	2276.35
2047.93729	2267.65
2050.96359	2267.65
2053.98794	2259.15
2057.01034	2257.25
2060.03078	2252.85
2063.04927	2245.35
2066.06582	2245.55
2069.08042	2256.55
2072.09307	2255.55
2075.10378	2244.25
2078.11255	2232.75
2081.11938	2230.25
2084.12426	2238.45
2087.12722	2233.15
2090.12824	2227.55
2093.12732	2229.35
2096.12447	2227.45
2099.11969	2216.85
2102.11299	2226.65
2105.10435	2226.65
2108.09379	2222.25
2111.08131	2222.95
2114.0669	2225.35
2117.05057	2225.15
2120.03233	2220.55
2123.01216	2222.85
2125.99008	2229.35
2128.96609	2219.45
2131.94018	2240.65
2134.91236	2220.95
2137.88263	2210.15
2140.851	2219.15
2143.81746	2221.15
2146.78201	2216.65
2149.74466	2222.95
2152.7054	2222.45
2155.66425	2207.75
2158.6212	2211.05
2161.57625	2216.95
2164.52941	2193.45
2167.48067	2196.95
2170.43004	2190.95
2173.37752	2208.75
2176.32311	2195.15
2179.26681	2200.05
2182.20863	2192.95
2185.14856	2203.45
2188.08661	2195.15
2191.02278	2191.65
2193.95707	2184.45
2196.88948	2183.55
2199.82001	2179.85
2202.74867	2175.55
2205.67545	2176.35
2208.60037	2171.75
2211.52341	2163.45
2214.44458	2169.55
2217.36388	2157.05
2220.28132	2150.55
2223.1969	2132.95
2226.11061	2139.35
2229.02246	2127.25
2231.93245	2127.45
2234.84058	2129.35
2237.74686	2115.85
2240.65128	2112.95
2243.55385	2110.55
2246.45456	2101.65
2249.35343	2112.75
2252.25044	2104.75
2255.14561	2099.65
2258.03893	2096.85
2260.93041	2091.55
2263.82004	2084.85
2266.70783	2089.05
2269.59378	2086.85
2272.4779	2067.65
2275.36017	2076.45
2278.24061	2070.25
2281.11922	2057.95
2283.996	2054.15
2286.87094	2050.55
2289.74405	2054.45
2292.61534	2036.25
2295.4848	2036.75
2298.35243	2031.35
2301.21824	2037.25
2304.08223	2036.55
2306.94439	2033.85
2309.80474	2029.15
2312.66327	2014.25
2315.51999	2023.45
2318.37489	2017.95
2321.22797	2007.35
2324.07925	2008.55
2326.92871	2006.95
2329.77637	2012.05
2332.62222	2006.15
2335.46626	1995.95
2338.3085	2000.05
2341.14893	1997.65
2343.98756	1995.65
2346.8244	1989.95
2349.65943	1987.15
2352.49267	1995.25
2355.32411	2007.65
2358.15376	2009.95
2360.98161	2003.45
2363.80768	2009.75
2366.63195	2025.25
2369.45444	2021.15
2372.27514	2026.05
2375.09405	2014.45
2377.91118	2012.85
2380.72652	1993.45
2383.54009	1980.95
2386.35187	1978.35
2389.16188	1959.35
2391.97011	1954.85
2394.77657	1950.75
2397.58125	1938.65
2400.38416	1922.95
2403.18529	1923.65
2405.98466	1924.85
2408.78226	1924.65
2411.57809	1918.85
2414.37216	1919.35
2417.16446	1923.55
2419.955	1909.05
2422.74378	1905.65
2425.5308	1908.05
2428.31606	1892.05
2431.09956	1908.35
2433.88131	1902.45
2436.6613	1900.55
2439.43954	1899.35
2442.21603	1905.95
2444.99077	1897.05
2447.76377	1908.45
2450.53501	1907.55
2453.30451	1903.05
2456.07226	1891.85
2458.83827	1897.55
2461.60254	1897.25
2464.36507	1901.75
2467.12586	1900.15
2469.88492	1909.45
2472.64224	1891.45
2475.39782	1904.35
2478.15167	1897.35
2480.90379	1903.05
2483.65417	1903.05
2486.40283	1918.05
2489.14976	1924.15
2491.89497	1915.05
2494.63845	1914.75
2497.3802	1909.05
2500.12024	1908.95
2502.85855	1902.35
2505.59514	1901.35
2508.33002	1898.15
2511.06318	1883.65
2513.79462	1872.65
2516.52435	1864.15
2519.25237	1859.45
2521.97867	1852.75
2524.70327	1851.45
2527.42616	1843.05
2530.14734	1842.15
2532.86681	1840.95
2535.58458	1834.45
2538.30065	1834.75
2541.01501	1836.65
2543.72768	1840.05
2546.43864	1841.45
2549.14791	1842.15
2551.85548	1829.05
2554.56136	1827.55
2557.26554	1835.55
2559.96803	1828.65
2562.66883	1831.65
2565.36794	1822.05
2568.06536	1813.35
2570.7611	1815.55
2573.45514	1818.95
2576.14751	1816.45
2578.83819	1812.05
2581.52719	1802.55
2584.21451	1805.25
2586.90015	1802.55
2589.58411	1793.15
2592.2664	1788.55
2594.94701	1790.25
2597.62594	1794.15
2600.30321	1789.35
2602.9788	1800.05
2605.65273	1785.95
2608.32498	1785.45
2610.99557	1789.95
2613.66449	1789.95
2616.33175	1781.45
2618.99734	1783.65
2621.66128	1783.15
2624.32355	1779.75
2626.98416	1774.45
2629.64311	1771.25
2632.30041	1768.65
2634.95605	1769.05
2637.61004	1767.75
2640.26238	1766.85
2642.91306	1758.45
2645.56209	1758.35
2648.20948	1754.15
2650.85521	1748.95
2653.4993	1747.05
2656.14175	1756.05
2658.78255	1755.95
2661.42171	1761.85
2664.05923	1758.05
2666.6951	1760.75
2669.32934	1771.85
2671.96194	1763.25
2674.59291	1770.95
2677.22224	1773.65
2679.84993	1774.75
2682.476	1773.65
2685.10043	1780.85
2687.72324	1776.45
2690.34441	1767.45
2692.96396	1772.15
2695.58188	1771.05
2698.19818	1775.05
2700.81285	1768.75
2703.4259	1774.85
2706.03733	1752.25
2708.64714	1758.05
2711.25533	1777.65
2713.86191	1788.75
2716.46687	1790.35
2719.07021	1789.65
2721.67194	1801.75
2724.27206	1797.05
2726.87057	1796.95
2729.46747	1794.85
2732.06276	1788.65
2734.65644	1784.35
2737.24852	1788.75
2739.83899	1790.75
2742.42786	1793.05
2745.01513	1769.45
2747.60079	1766.25
2750.18486	1773.15
2752.76733	1765.95
2755.3482	1765.35
2757.92747	1762.35
2760.50515	1765.45
2763.08123	1761.95
2765.65573	1763.25
2768.22863	1761.15
2770.79994	1758.95
2773.36967	1770.35
2775.9378	1765.45
2778.50435	1764.05
2781.06932	1770.35
2783.6327	1776.35
2786.1945	1778.45
2788.75471	1774.45
2791.31335	1783.05
2793.87041	1781.35
2796.42589	1787.45
2798.97979	1792.95
2801.53212	1794.35
2804.08288	1793.75
2806.63206	1787.25
2809.17967	1794.75
2811.72571	1808.45
2814.27018	1811.55
2816.81308	1809.45
2819.35442	1818.55
2821.89419	1823.15
2824.43239	1822.05
2826.96904	1833.85
2829.50412	1847.05
2832.03763	1848.55
2834.56959	1847.95
2837.1	1864.05
2839.62884	1869.35
2842.15613	1880.05
2844.68186	1932.85
2847.20604	1973.25
2849.72867	2015.65
2852.24974	2022.25
2854.76927	2028.45
2857.28724	1999.75
2859.80367	2007.65
2862.31855	1989.75
2864.83189	1988.65
2867.34368	1970.65
2869.85393	1972.65
2872.36264	1974.35
2874.8698	1968.85
2877.37543	1969.65
2879.87952	1959.35
2882.38207	1962.65
2884.88308	1947.95
2887.38256	1958.55
2889.88051	1948.85
2892.37692	1954.95
2894.8718	1955.15
2897.36515	1947.25
2899.85698	1956.05
2902.34727	1960.55
2904.83604	1957.05
2907.32328	1947.55
2909.809	1960.25
2912.29319	1946.45
2914.77587	1944.25
2917.25702	1952.25
2919.73665	1945.55
2922.21476	1933.55
2924.69136	1936.85
2927.16644	1935.65
2929.64	1930.25
2932.11205	1919.75
2934.58258	1913.25
2937.05161	1900.55
2939.51912	1891.25
2941.98513	1867.65
2944.44962	1837.75
2946.91261	1798.95
2949.37409	1790.55
2951.83407	1773.85
2954.29254	1750.35
2956.74951	1749.95
2959.20498	1746.15
2961.65895	1729.95
2964.11142	1724.25
2966.56239	1713.75
2969.01186	1700.65
2971.45984	1692.35
2973.90632	1689.55
2976.35131	1689.05
2978.7948	1667.85
2981.23681	1659.55
2983.67732	1666.65
2986.11635	1662.45
2988.55388	1647.45
2990.98993	1635.35
2993.4245	1637.05
2995.85758	1618.95
2998.28917	1612.95
3000.71928	1620.55
3003.14791	1604.75
3005.57506	1609.65
3008.00073	1618.35
3010.42493	1602.45
3012.84764	1604.65
3015.26888	1603.55
3017.68865	1589.25
3020.10694	1595.65
3022.52376	1596.75
3024.9391	1581.65
3027.35298	1582.65
3029.76539	1593.95
3032.17632	1588.35
3034.5858	1590.45
3036.9938	1584.55
3039.40034	1581.35
3041.80542	1590.55
3044.20903	1588.85
3046.61118	1572.75
3049.01187	1570.85
3051.4111	1578.05
3053.80888	1577.45
3056.20519	1568.15
3058.60005	1565.75
3060.99345	1570.75
3063.3854	1562.35
3065.7759	1563.35
3068.16494	1572.95
3070.55254	1563.25
3072.93868	1564.45
3075.32338	1550.25
3077.70662	1561.65
3080.08842	1550.85
3082.46878	1547.05
3084.84769	1552.25
3087.22515	1544.95
3089.60118	1537.05
3091.97576	1539.85
3094.3489	1548.45
3096.72061	1543.35
3099.09087	1558.85
3101.4597	1554.95
3103.82709	1546.75
3106.19305	1544.75
3108.55757	1544.45
3110.92066	1548.05
3113.28232	1554.25
3115.64255	1541.25
3118.00134	1548.75
3120.35871	1546.05
3122.71466	1547.95
3125.06917	1548.65
3127.42226	1559.75
3129.77393	1548.45
3132.12417	1558.95
3134.47299	1560.75
3136.82039	1559.45
3139.16636	1571.45
3141.51092	1572.25
3143.85406	1573.25
3146.19579	1581.35
3148.53609	1582.75
3150.87499	1595.95
3153.21246	1600.85
3155.54853	1603.15
3157.88318	1606.75
3160.21642	1618.85
3162.54826	1623.45
3164.87868	1612.45
3167.2077	1618.45
3169.5353	1626.65
3171.86151	1621.45
3174.18631	1625.85
3176.5097	1631.35
3178.83169	1630.35
3181.15228	1627.35
3183.47147	1648.05
3185.78926	1639.35
3188.10565	1644.95
3190.42065	1651.25
3192.73424	1650.65
3195.04645	1649.15
3197.35725	1654.55
3199.66667	1661.65
3201.97469	1670.45
3204.28132	1672.25
3206.58656	1670.25
3208.8904	1679.35
3211.19287	1682.05
3213.49394	1687.75
3215.79363	1690.25
3218.09193	1698.45
3220.38884	1688.85
3222.68438	1691.45
3224.97853	1682.75
3227.2713	1690.45
3229.56269	1689.15
3231.8527	1694.85
3234.14133	1689.75
3236.42858	1688.55
3238.71446	1688.85
3240.99896	1693.65
3243.28209	1686.45
3245.56384	1685.75
3247.84423	1692.25
3250.12324	1693.35
3252.40088	1687.25
3254.67715	1683.35
3256.95205	1691.65
3259.22558	1680.05
3261.49775	1688.75
3263.76855	1678.45
3266.03799	1674.85
3268.30606	1669.85
3270.57277	1664.65
3272.83812	1681.35
3275.10211	1672.75
3277.36474	1671.95
3279.62601	1667.85
3281.88593	1657.05
3284.14448	1669.75
3286.40168	1661.65
3288.65753	1663.35
3290.91202	1666.35
3293.16516	1658.25
3295.41695	1653.55
3297.66738	1640.45
3299.91647	1646.95
3302.16421	1627.75
3304.4106	1633.25
3306.65564	1623.65
3308.89933	1604.75
3311.14169	1597.65
3313.38269	1582.55
3315.62236	1566.45
3317.86068	1548.15
3320.09766	1549.95
3322.3333	1526.25
3324.5676	1535.45
3326.80056	1503.75
3329.03219	1490.65
3331.26248	-0.05
3333.49143	1.45
3335.71905	-0.55
