Data from AgNPs_FTO_APTES_UA_1uM_CRN_2uM_R6G_10uM_NaF_0.1M_Addition_RamanShift__28__13-27-59-564.txt Node

Date: Thu Jan 27 13:27:59 GMT 2022
User: TCL
Spectrometer: QEP01345
Trigger mode: 4
Integration Time (sec): 7.000000E0
Scans to average: 10
Electric dark correction enabled: true
Nonlinearity correction enabled: false
Boxcar width: 0
XAxis mode: Raman Shifts
Number of Pixels in Spectrum: 1044
>>>>>Begin Spectral Data<<<<<
46.04893	1.35
50.45542	1.45
54.85868	-1.75
59.25871	-2.25
63.6555	46.85
68.04907	48.65
72.43941	51.55
76.82654	54.55
81.21044	54.85
85.59113	58.35
89.96862	58.95
94.34289	62.45
98.71396	63.65
103.08183	64.25
107.4465	68.05
111.80798	68.85
116.16626	68.15
120.52136	75.25
124.87327	70.15
129.222	70.95
133.56755	75.95
137.90993	80.25
142.24913	89.25
146.58517	96.35
150.91804	110.55
155.24774	125.25
159.57429	150.15
163.89768	182.05
168.21792	243.15
172.53501	323.75
176.84895	450.15
181.15975	623.85
185.46741	862.75
189.77193	1190.95
194.07331	1592.55
198.37157	2053.05
202.6667	2544.65
206.9587	3030.45
211.24758	3507.85
215.53334	3994.35
219.81599	4558.35
224.09553	5170.65
228.37195	5874.65
232.64527	6612.65
236.91549	7376.35
241.18261	8063.95
245.44663	8678.25
249.70755	9162.15
253.96539	9614.55
258.22014	10007.15
262.4718	10378.05
266.72039	10665.55
270.96589	10797.25
275.20832	10883.25
279.44768	10819.35
283.68397	10690.55
287.91719	10607.95
292.14735	10615.55
296.37445	10740.85
300.59849	11011.35
304.81948	11348.55
309.03742	11599.95
313.25231	11543.95
317.46415	11090.65
321.67296	10378.05
325.87872	9789.45
330.08145	9501.65
334.28114	9476.05
338.47781	9613.65
342.67145	9835.95
346.86207	10218.65
351.04966	10744.75
355.23424	11332.05
359.4158	11801.85
363.59435	12014.65
367.76989	12124.95
371.94243	12096.85
376.11196	12107.85
380.27849	12054.75
384.44203	11951.65
388.60257	11869.75
392.76012	11848.75
396.91468	11977.95
401.06626	12284.45
405.21485	12528.25
409.36047	12408.25
413.50311	11928.85
417.64277	11477.95
421.77947	11263.75
425.9132	11183.75
430.04396	11188.85
434.17176	11235.05
438.2966	11352.55
442.41849	11621.05
446.53742	11966.05
450.6534	12317.45
454.76644	12591.55
458.87653	12668.05
462.98368	12611.05
467.08789	12405.65
471.18916	12145.85
475.2875	11869.15
479.38291	11642.85
483.4754	11480.65
487.56496	11385.05
491.6516	11224.95
495.73531	11144.45
499.81612	11141.55
503.89401	11245.55
507.96899	11351.65
512.04106	11471.25
516.11023	11548.15
520.1765	11650.25
524.23987	11566.95
528.30034	11420.25
532.35792	11191.65
536.41261	10991.65
540.46441	10824.95
544.51333	10756.95
548.55936	10841.95
552.60252	11064.55
556.64279	11342.35
560.6802	11449.85
564.71473	11582.65
568.7464	11941.15
572.7752	12257.65
576.80114	12153.45
580.82422	11935.05
584.84444	11850.75
588.86181	11876.25
592.87633	11941.35
596.888	12075.95
600.89682	12418.35
604.9028	13486.75
608.90594	16188.25
612.90624	19807.55
616.90371	19253.15
620.89834	14392.05
624.89015	12035.75
628.87913	11588.15
632.86528	11567.65
636.84862	11625.85
640.82913	11427.25
644.80683	11027.05
648.78172	10757.05
652.75379	10806.45
656.72306	11098.35
660.68952	11607.65
664.65319	11572.65
668.61405	11155.45
672.57211	10951.35
676.52738	10904.25
680.47986	10905.75
684.42955	10867.15
688.37646	10840.85
692.32058	10870.95
696.26192	10985.75
700.20048	11091.55
704.13626	11182.15
708.06928	11166.35
711.99952	11053.35
715.927	11032.85
719.85171	11047.15
723.77365	11008.75
727.69284	10907.25
731.60928	10796.35
735.52295	10803.25
739.43388	10853.95
743.34206	10922.35
747.24749	11001.35
751.15017	11083.05
755.05012	11319.15
758.94733	11736.15
762.8418	12651.55
766.73354	14233.05
770.62254	15915.35
774.50882	16681.55
778.39237	16048.15
782.27321	14298.15
786.15132	12639.35
790.02671	11677.45
793.89938	11226.35
797.76935	11065.65
801.6366	10996.25
805.50115	10928.45
809.36299	10863.55
813.22213	10822.95
817.07857	10816.45
820.93231	10827.05
824.78336	10830.45
828.63172	10903.45
832.47738	10946.55
836.32036	10965.05
840.16066	10935.75
843.99827	10939.85
847.8332	10908.15
851.66546	10862.05
855.49504	10840.05
859.32195	10823.05
863.1462	10790.15
866.96777	10722.15
870.78668	10735.65
874.60293	10757.95
878.41652	10750.45
882.22745	10813.65
886.03573	10876.35
889.84136	10848.75
893.64433	10799.15
897.44466	10773.25
901.24235	10765.45
905.0374	10761.85
908.8298	10710.45
912.61957	10738.35
916.40671	10799.35
920.19121	10919.85
923.97308	11053.65
927.75233	11146.25
931.52895	11233.35
935.30295	11128.65
939.07433	10879.15
942.84309	10672.35
946.60924	10548.15
950.37278	10496.75
954.13371	10439.25
957.89203	10405.05
961.64774	10357.25
965.40086	10309.05
969.15137	10274.85
972.89929	10244.65
976.64461	10250.25
980.38733	10250.85
984.12747	10282.65
987.86502	10369.65
991.59999	10497.05
995.33237	10653.25
999.06217	10927.55
1002.78939	11309.95
1006.51404	11655.75
1010.23611	11883.55
1013.95561	12051.05
1017.67255	12058.35
1021.38692	11910.25
1025.09872	11802.55
1028.80796	11814.35
1032.51465	12008.35
1036.21877	12241.05
1039.92035	12290.75
1043.61937	12151.45
1047.31584	11905.85
1051.00976	11606.05
1054.70114	11436.05
1058.38998	11408.75
1062.07627	11477.45
1065.76003	11517.45
1069.44126	11578.45
1073.11995	11679.35
1076.79611	11787.25
1080.46974	11880.45
1084.14085	12077.55
1087.80943	12274.75
1091.47549	12357.25
1095.13903	12248.25
1098.80005	11959.95
1102.45857	11636.85
1106.11456	11506.25
1109.76805	11509.85
1113.41903	11650.35
1117.06751	11889.85
1120.71348	12211.95
1124.35696	12545.05
1127.99793	12857.65
1131.63641	12942.35
1135.2724	12541.65
1138.90589	12136.15
1142.5369	11912.35
1146.16542	11760.25
1149.79145	11663.05
1153.415	11682.75
1157.03607	11769.55
1160.65467	11964.45
1164.27079	12325.45
1167.88443	12865.05
1171.49561	13723.25
1175.10432	15025.85
1178.71056	16776.45
1182.31434	18258.75
1185.91565	18852.75
1189.51451	18769.25
1193.11091	17915.85
1196.70485	16718.45
1200.29634	15720.05
1203.88538	15005.05
1207.47197	14273.45
1211.05612	13690.85
1214.63782	13374.75
1218.21708	13290.85
1221.79391	13351.35
1225.36829	13481.45
1228.94024	13610.05
1232.50976	13610.75
1236.07685	13622.05
1239.6415	13567.05
1243.20374	13512.45
1246.76355	13516.75
1250.32093	13650.55
1253.8759	13937.95
1257.42845	14344.65
1260.97859	14759.75
1264.52631	15096.25
1268.07163	15428.15
1271.61453	15796.15
1275.15503	16188.95
1278.69312	16448.75
1282.22882	16727.65
1285.76211	17055.15
1289.29301	17523.15
1292.82151	17964.35
1296.34761	18433.35
1299.87133	19151.45
1303.39266	20256.25
1306.9116	22006.75
1310.42815	24032.85
1313.94233	25549.85
1317.45412	25602.15
1320.96354	24606.25
1324.47058	23301.65
1327.97525	22193.15
1331.47754	21441.75
1334.97747	21140.75
1338.47502	21165.35
1341.97022	21357.75
1345.46305	21548.95
1348.95352	21860.45
1352.44163	22412.45
1355.92738	23497.45
1359.41078	25668.35
1362.89183	28164.05
1366.37053	28047.05
1369.84688	24692.85
1373.32088	21140.15
1376.79254	18837.15
1380.26186	17727.25
1383.72883	17262.65
1387.19347	16879.75
1390.65578	16464.25
1394.11575	16216.05
1397.57339	16168.55
1401.0287	16374.35
1404.48168	16706.75
1407.93234	17097.35
1411.38068	17358.75
1414.82669	17335.75
1418.27039	16967.85
1421.71177	16470.45
1425.15083	16079.05
1428.58758	15802.85
1432.02203	15746.45
1435.45416	15834.05
1438.88399	15903.25
1442.31151	15955.75
1445.73673	16014.95
1449.15965	16115.45
1452.58027	16112.95
1455.9986	16032.35
1459.41463	15974.15
1462.82837	16089.45
1466.23982	16303.95
1469.64898	16592.65
1473.05586	16831.75
1476.46045	16932.95
1479.86276	17109.05
1483.26279	17301.55
1486.66054	17568.65
1490.05602	17937.95
1493.44922	18464.85
1496.84016	19083.65
1500.22882	20013.55
1503.61521	21230.45
1506.99934	22848.25
1510.38121	24588.35
1513.76081	25678.95
1517.13816	25135.35
1520.51324	23131.45
1523.88607	20844.35
1527.25665	19155.65
1530.62498	18124.95
1533.99105	17482.05
1537.35488	17083.55
1540.71647	16850.85
1544.07581	16717.65
1547.4329	16586.05
1550.78776	16498.15
1554.14038	16484.05
1557.49077	16534.05
1560.83892	16712.45
1564.18484	16949.55
1567.52853	17155.15
1570.86999	17254.35
1574.20922	17373.55
1577.54624	17371.05
1580.88103	17008.65
1584.2136	16449.35
1587.54395	16395.15
1590.87208	16874.75
1594.19801	17881.85
1597.52172	19070.05
1600.84321	19654.85
1604.16251	19116.25
1607.47959	17859.15
1610.79447	16465.25
1614.10715	15194.25
1617.41763	14176.75
1620.7259	13545.35
1624.03199	13229.85
1627.33587	13270.25
1630.63757	13629.55
1633.93707	14302.85
1637.23439	15306.65
1640.52951	16544.75
1643.82246	17891.05
1647.11321	19197.75
1650.40179	20030.55
1653.68819	19478.85
1656.97241	17414.95
1660.25446	15030.85
1663.53433	13248.35
1666.81203	12159.75
1670.08756	11514.95
1673.36092	11153.55
1676.63211	10908.35
1679.90115	10722.75
1683.16801	10592.65
1686.43272	10506.95
1689.69527	10419.15
1692.95567	10365.85
1696.2139	10301.35
1699.46999	10255.25
1702.72392	10243.85
1705.97571	10259.25
1709.22535	10267.05
1712.47284	10310.95
1715.71819	10332.15
1718.96139	10337.95
1722.20246	10308.65
1725.44139	10272.65
1728.67818	10261.05
1731.91284	10171.95
1735.14537	10132.35
1738.37576	10075.75
1741.60403	10052.15
1744.83017	10021.85
1748.05418	9979.35
1751.27607	9956.85
1754.49584	9916.25
1757.71349	9909.55
1760.92903	9890.45
1764.14244	9876.35
1767.35375	9902.65
1770.56294	9843.95
1773.77002	9872.25
1776.97499	9874.05
1780.17785	9848.25
1783.37861	9872.75
1786.57727	9885.35
1789.77382	9876.75
1792.96828	9847.25
1796.16064	9853.55
1799.3509	9851.95
1802.53907	9839.85
1805.72514	9812.95
1808.90913	9772.05
1812.09102	9773.05
1815.27083	9756.65
1818.44856	9755.45
1821.6242	9719.15
1824.79776	9730.85
1827.96924	9708.95
1831.13864	9705.15
1834.30597	9716.05
1837.47122	9699.95
1840.6344	9713.75
1843.7955	9697.05
1846.95454	9709.45
1850.11151	9722.35
1853.26642	9747.05
1856.41926	9750.85
1859.57004	9772.55
1862.71876	9744.55
1865.86542	9751.35
1869.01003	9764.15
1872.15258	9769.95
1875.29308	9785.85
1878.43152	9772.95
1881.56792	9786.55
1884.70227	9796.55
1887.83457	9805.55
1890.96482	9796.55
1894.09304	9821.65
1897.21921	9797.75
1900.34335	9807.65
1903.46544	9813.25
1906.58551	9829.15
1909.70353	9799.35
1912.81953	9795.15
1915.93349	9797.15
1919.04543	9788.45
1922.15534	9773.45
1925.26322	9750.65
1928.36908	9727.15
1931.47292	9686.65
1934.57473	9656.95
1937.67453	9627.45
1940.77232	9565.15
1943.86808	9525.75
1946.96184	9490.05
1950.05358	9463.05
1953.14331	9417.75
1956.23103	9383.55
1959.31675	9364.85
1962.40046	9325.15
1965.48217	9280.35
1968.56188	9261.45
1971.63959	9241.15
1974.7153	9204.65
1977.78901	9179.95
1980.86073	9152.25
1983.93046	9134.75
1986.99819	9103.95
1990.06394	9066.85
1993.1277	9037.75
1996.18947	9022.05
1999.24925	9015.65
2002.30706	8950.65
2005.36288	8966.25
2008.41672	8921.65
2011.46859	8909.35
2014.51848	8874.45
2017.56639	8862.75
2020.61233	8847.05
2023.6563	8821.85
2026.6983	8774.95
2029.73833	8777.85
2032.7764	8750.75
2035.8125	8758.75
2038.84664	8718.65
2041.87881	8715.85
2044.90903	8696.75
2047.93729	8700.65
2050.96359	8687.25
2053.98794	8650.55
2057.01034	8662.35
2060.03078	8664.35
2063.04927	8655.05
2066.06582	8643.05
2069.08042	8655.55
2072.09307	8641.65
2075.10378	8626.15
2078.11255	8619.75
2081.11938	8603.65
2084.12426	8607.45
2087.12722	8586.45
2090.12824	8591.75
2093.12732	8592.65
2096.12447	8607.85
2099.11969	8603.65
2102.11299	8619.25
2105.10435	8617.95
2108.09379	8634.45
2111.08131	8608.05
2114.0669	8629.15
2117.05057	8610.85
2120.03233	8620.85
2123.01216	8644.35
2125.99008	8670.05
2128.96609	8644.75
2131.94018	8657.95
2134.91236	8664.65
2137.88263	8668.05
2140.851	8667.45
2143.81746	8665.35
2146.78201	8670.25
2149.74466	8671.35
2152.7054	8670.55
2155.66425	8704.55
2158.6212	8697.75
2161.57625	8646.25
2164.52941	8658.65
2167.48067	8659.25
2170.43004	8654.25
2173.37752	8672.45
2176.32311	8662.65
2179.26681	8649.65
2182.20863	8645.25
2185.14856	8649.25
2188.08661	8662.35
2191.02278	8669.85
2193.95707	8670.35
2196.88948	8650.55
2199.82001	8657.75
2202.74867	8639.65
2205.67545	8647.55
2208.60037	8638.85
2211.52341	8640.95
2214.44458	8618.55
2217.36388	8591.75
2220.28132	8601.85
2223.1969	8590.95
2226.11061	8585.85
2229.02246	8543.55
2231.93245	8527.95
2234.84058	8510.45
2237.74686	8510.15
2240.65128	8493.85
2243.55385	8488.35
2246.45456	8486.25
2249.35343	8465.75
2252.25044	8450.25
2255.14561	8454.75
2258.03893	8451.15
2260.93041	8436.15
2263.82004	8416.85
2266.70783	8402.55
2269.59378	8381.35
2272.4779	8366.35
2275.36017	8343.85
2278.24061	8326.45
2281.11922	8295.65
2283.996	8320.85
2286.87094	8288.35
2289.74405	8289.65
2292.61534	8260.95
2295.4848	8251.75
2298.35243	8266.05
2301.21824	8256.35
2304.08223	8258.85
2306.94439	8259.15
2309.80474	8263.65
2312.66327	8255.85
2315.51999	8277.15
2318.37489	8275.95
2321.22797	8261.45
2324.07925	8241.65
2326.92871	8247.25
2329.77637	8235.25
2332.62222	8212.55
2335.46626	8207.95
2338.3085	8215.55
2341.14893	8215.25
2343.98756	8219.65
2346.8244	8217.25
2349.65943	8229.05
2352.49267	8222.55
2355.32411	8219.85
2358.15376	8196.75
2360.98161	8199.85
2363.80768	8194.05
2366.63195	8225.45
2369.45444	8203.25
2372.27514	8187.55
2375.09405	8179.15
2377.91118	8157.85
2380.72652	8130.65
2383.54009	8111.05
2386.35187	8087.55
2389.16188	8068.25
2391.97011	8062.95
2394.77657	8021.55
2397.58125	8028.15
2400.38416	8049.55
2403.18529	7993.65
2405.98466	7991.15
2408.78226	7967.25
2411.57809	7950.95
2414.37216	7945.75
2417.16446	7924.85
2419.955	7944.85
2422.74378	7924.85
2425.5308	7898.75
2428.31606	7907.55
2431.09956	7898.95
2433.88131	7896.55
2436.6613	7893.15
2439.43954	7891.65
2442.21603	7896.55
2444.99077	7874.85
2447.76377	7865.75
2450.53501	7879.85
2453.30451	7899.65
2456.07226	7878.75
2458.83827	7860.15
2461.60254	7884.35
2464.36507	7876.75
2467.12586	7847.65
2469.88492	7862.25
2472.64224	7848.35
2475.39782	7857.35
2478.15167	7854.25
2480.90379	7865.95
2483.65417	7856.25
2486.40283	7888.85
2489.14976	7877.45
2491.89497	7877.65
2494.63845	7890.45
2497.3802	7879.15
2500.12024	7870.45
2502.85855	7880.15
2505.59514	7878.85
2508.33002	7834.45
2511.06318	7853.65
2513.79462	7836.05
2516.52435	7806.05
2519.25237	7784.55
2521.97867	7803.25
2524.70327	7793.25
2527.42616	7760.05
2530.14734	7760.75
2532.86681	7741.55
2535.58458	7732.35
2538.30065	7732.65
2541.01501	7744.65
2543.72768	7745.65
2546.43864	7741.45
2549.14791	7748.65
2551.85548	7712.55
2554.56136	7692.35
2557.26554	7702.15
2559.96803	7704.55
2562.66883	7693.65
2565.36794	7691.25
2568.06536	7671.95
2570.7611	7653.45
2573.45514	7644.05
2576.14751	7641.35
2578.83819	7627.45
2581.52719	7647.05
2584.21451	7624.55
2586.90015	7626.95
2589.58411	7621.95
2592.2664	7620.35
2594.94701	7588.15
2597.62594	7591.65
2600.30321	7606.05
2602.9788	7603.35
2605.65273	7591.15
2608.32498	7590.75
2610.99557	7581.95
2613.66449	7566.75
2616.33175	7590.45
2618.99734	7583.45
2621.66128	7587.15
2624.32355	7576.55
2626.98416	7599.35
2629.64311	7585.35
2632.30041	7566.55
2634.95605	7557.85
2637.61004	7545.85
2640.26238	7540.25
2642.91306	7542.35
2645.56209	7530.25
2648.20948	7509.55
2650.85521	7530.55
2653.4993	7497.45
2656.14175	7492.65
2658.78255	7539.45
2661.42171	7509.95
2664.05923	7542.45
2666.6951	7532.55
2669.32934	7537.95
2671.96194	7537.85
2674.59291	7547.35
2677.22224	7552.55
2679.84993	7560.75
2682.476	7540.75
2685.10043	7528.65
2687.72324	7543.45
2690.34441	7527.15
2692.96396	7535.35
2695.58188	7538.55
2698.19818	7521.95
2700.81285	7530.15
2703.4259	7539.15
2706.03733	7523.05
2708.64714	7511.95
2711.25533	7533.95
2713.86191	7543.45
2716.46687	7540.85
2719.07021	7534.05
2721.67194	7549.45
2724.27206	7562.55
2726.87057	7558.15
2729.46747	7550.85
2732.06276	7548.85
2734.65644	7543.75
2737.24852	7558.35
2739.83899	7529.95
2742.42786	7527.75
2745.01513	7510.45
2747.60079	7519.95
2750.18486	7520.55
2752.76733	7505.25
2755.3482	7507.45
2757.92747	7521.35
2760.50515	7487.25
2763.08123	7500.75
2765.65573	7492.85
2768.22863	7501.45
2770.79994	7478.35
2773.36967	7481.85
2775.9378	7481.05
2778.50435	7475.15
2781.06932	7462.65
2783.6327	7479.05
2786.1945	7441.65
2788.75471	7450.45
2791.31335	7425.05
2793.87041	7423.25
2796.42589	7393.55
2798.97979	7408.45
2801.53212	7391.85
2804.08288	7390.85
2806.63206	7365.85
2809.17967	7365.85
2811.72571	7345.05
2814.27018	7321.25
2816.81308	7355.25
2819.35442	7319.95
2821.89419	7340.65
2824.43239	7339.25
2826.96904	7330.15
2829.50412	7324.85
2832.03763	7331.05
2834.56959	7341.05
2837.1	7342.45
2839.62884	7337.55
2842.15613	7342.25
2844.68186	7383.55
2847.20604	7373.85
2849.72867	7420.95
2852.24974	7406.65
2854.76927	7395.95
2857.28724	7384.35
2859.80367	7395.25
2862.31855	7353.95
2864.83189	7376.45
2867.34368	7361.85
2869.85393	7345.15
2872.36264	7314.95
2874.8698	7352.05
2877.37543	7329.05
2879.87952	7323.75
2882.38207	7321.35
2884.88308	7304.95
2887.38256	7335.45
2889.88051	7322.15
2892.37692	7315.65
2894.8718	7307.85
2897.36515	7320.55
2899.85698	7325.45
2902.34727	7317.05
2904.83604	7354.95
2907.32328	7362.25
2909.809	7355.65
2912.29319	7362.85
2914.77587	7351.65
2917.25702	7339.65
2919.73665	7345.35
2922.21476	7344.35
2924.69136	7346.25
2927.16644	7342.05
2929.64	7331.55
2932.11205	7309.25
2934.58258	7294.75
2937.05161	7299.85
2939.51912	7283.05
2941.98513	7240.95
2944.44962	7250.05
2946.91261	7196.75
2949.37409	7217.65
2951.83407	7181.95
2954.29254	7167.25
2956.74951	7162.65
2959.20498	7170.05
2961.65895	7139.55
2964.11142	7154.55
2966.56239	7122.45
2969.01186	7126.35
2971.45984	7104.75
2973.90632	7090.35
2976.35131	7081.75
2978.7948	7077.95
2981.23681	7053.45
2983.67732	7043.55
2986.11635	7030.85
2988.55388	7010.05
2990.98993	6998.15
2993.4245	6979.05
2995.85758	6962.85
2998.28917	6942.55
3000.71928	6931.35
3003.14791	6919.55
3005.57506	6915.25
3008.00073	6896.35
3010.42493	6887.15
3012.84764	6884.95
3015.26888	6884.15
3017.68865	6868.05
3020.10694	6853.35
3022.52376	6832.05
3024.9391	6839.05
3027.35298	6827.55
3029.76539	6839.05
3032.17632	6812.25
3034.5858	6798.45
3036.9938	6794.65
3039.40034	6797.85
3041.80542	6784.15
3044.20903	6776.75
3046.61118	6754.55
3049.01187	6744.45
3051.4111	6749.25
3053.80888	6745.05
3056.20519	6719.75
3058.60005	6699.65
3060.99345	6680.85
3063.3854	6675.15
3065.7759	6651.65
3068.16494	6634.75
3070.55254	6644.25
3072.93868	6603.85
3075.32338	6596.85
3077.70662	6569.35
3080.08842	6569.65
3082.46878	6553.55
3084.84769	6565.15
3087.22515	6549.05
3089.60118	6559.55
3091.97576	6548.55
3094.3489	6536.65
3096.72061	6545.85
3099.09087	6527.65
3101.4597	6528.05
3103.82709	6542.75
3106.19305	6507.05
3108.55757	6545.65
3110.92066	6485.45
3113.28232	6505.55
3115.64255	6474.05
3118.00134	6465.85
3120.35871	6467.15
3122.71466	6458.45
3125.06917	6442.85
3127.42226	6424.15
3129.77393	6442.15
3132.12417	6423.25
3134.47299	6438.05
3136.82039	6410.55
3139.16636	6430.75
3141.51092	6441.35
3143.85406	6438.55
3146.19579	6435.95
3148.53609	6428.95
3150.87499	6455.65
3153.21246	6453.15
3155.54853	6455.25
3157.88318	6453.95
3160.21642	6433.15
3162.54826	6447.25
3164.87868	6437.45
3167.2077	6463.75
3169.5353	6454.65
3171.86151	6460.95
3174.18631	6441.75
3176.5097	6457.25
3178.83169	6451.75
3181.15228	6454.95
3183.47147	6419.35
3185.78926	6420.65
3188.10565	6427.25
3190.42065	6425.75
3192.73424	6427.85
3195.04645	6414.75
3197.35725	6424.25
3199.66667	6416.55
3201.97469	6422.45
3204.28132	6429.85
3206.58656	6454.25
3208.8904	6417.95
3211.19287	6467.15
3213.49394	6455.45
3215.79363	6443.55
3218.09193	6461.05
3220.38884	6454.05
3222.68438	6451.25
3224.97853	6434.55
3227.2713	6449.85
3229.56269	6432.45
3231.8527	6437.05
3234.14133	6428.85
3236.42858	6421.15
3238.71446	6408.35
3240.99896	6393.05
3243.28209	6397.15
3245.56384	6391.45
3247.84423	6378.05
3250.12324	6366.85
3252.40088	6387.95
3254.67715	6370.45
3256.95205	6374.05
3259.22558	6365.95
3261.49775	6352.25
3263.76855	6360.15
3266.03799	6325.35
3268.30606	6340.05
3270.57277	6337.35
3272.83812	6320.25
3275.10211	6275.45
3277.36474	6272.55
3279.62601	6275.95
3281.88593	6275.75
3284.14448	6291.65
3286.40168	6272.85
3288.65753	6289.45
3290.91202	6276.25
3293.16516	6238.85
3295.41695	6227.75
3297.66738	6174.35
3299.91647	6172.15
3302.16421	6135.65
3304.4106	6107.65
3306.65564	6085.25
3308.89933	6033.55
3311.14169	6003.45
3313.38269	5975.55
3315.62236	5916.65
3317.86068	5865.35
3320.09766	5836.55
3322.3333	5787.55
3324.5676	5768.85
3326.80056	5686.15
3329.03219	5656.85
3331.26248	2.25
3333.49143	0.35
3335.71905	-1.55
