Data from AgNPs_FTO_APTES_UA_1uM_CRN_10uM_R6G_50uM_NaF_0.1M_Addition_RamanShift__24__16-08-59-749.txt Node

Date: Thu Jan 27 16:08:59 GMT 2022
User: TCL
Spectrometer: QEP01345
Trigger mode: 4
Integration Time (sec): 7.000000E0
Scans to average: 10
Electric dark correction enabled: true
Nonlinearity correction enabled: false
Boxcar width: 0
XAxis mode: Raman Shifts
Number of Pixels in Spectrum: 1044
>>>>>Begin Spectral Data<<<<<
46.04893	0.45
50.45542	0.75
54.85868	-2.75
59.25871	-1.35
63.6555	49.45
68.04907	50.85
72.43941	52.35
76.82654	55.65
81.21044	55.95
85.59113	55.05
89.96862	61.15
94.34289	66.65
98.71396	67.15
103.08183	64.05
107.4465	69.05
111.80798	72.55
116.16626	70.05
120.52136	77.95
124.87327	75.25
129.222	75.45
133.56755	80.15
137.90993	88.05
142.24913	94.55
146.58517	103.15
150.91804	120.25
155.24774	137.25
159.57429	162.05
163.89768	213.95
168.21792	277.65
172.53501	369.85
176.84895	512.25
181.15975	711.85
185.46741	998.15
189.77193	1373.35
194.07331	1841.85
198.37157	2383.65
202.6667	2929.45
206.9587	3501.25
211.24758	4032.35
215.53334	4589.75
219.81599	5173.35
224.09553	5823.35
228.37195	6549.45
232.64527	7332.15
236.91549	8150.35
241.18261	9001.65
245.44663	9747.15
249.70755	10428.35
253.96539	11031.25
258.22014	11571.75
262.4718	12019.85
266.72039	12338.45
270.96589	12548.85
275.20832	12610.35
279.44768	12595.55
283.68397	12527.35
287.91719	12462.95
292.14735	12483.85
296.37445	12518.95
300.59849	12644.45
304.81948	12747.95
309.03742	12717.85
313.25231	12567.05
317.46415	12181.15
321.67296	11690.95
325.87872	11306.25
330.08145	11141.55
334.28114	11151.55
338.47781	11269.65
342.67145	11443.05
346.86207	11694.45
351.04966	12016.95
355.23424	12356.15
359.4158	12672.55
363.59435	12859.55
367.76989	12961.55
371.94243	13060.95
376.11196	13074.45
380.27849	13139.35
384.44203	13181.55
388.60257	13194.85
392.76012	13262.35
396.91468	13394.55
401.06626	13624.15
405.21485	13816.25
409.36047	13747.35
413.50311	13460.65
417.64277	13230.45
421.77947	13130.75
425.9132	13153.25
430.04396	13201.65
434.17176	13307.65
438.2966	13499.25
442.41849	13695.95
446.53742	14015.95
450.6534	14382.85
454.76644	14682.55
458.87653	14839.95
462.98368	14778.45
467.08789	14634.15
471.18916	14494.05
475.2875	14294.55
479.38291	14212.75
483.4754	14054.55
487.56496	13887.45
491.6516	13681.05
495.73531	13502.55
499.81612	13454.45
503.89401	13524.55
507.96899	13581.05
512.04106	13587.25
516.11023	13589.95
520.1765	13538.55
524.23987	13460.15
528.30034	13325.95
532.35792	13179.55
536.41261	13034.05
540.46441	12938.95
544.51333	12922.55
548.55936	13057.95
552.60252	13293.25
556.64279	13614.35
560.6802	13742.75
564.71473	13834.45
568.7464	14064.95
572.7752	14329.55
576.80114	14385.85
580.82422	14379.75
584.84444	14439.95
588.86181	14511.85
592.87633	14678.95
596.888	14828.75
600.89682	14995.35
604.9028	15613.95
608.90594	17261.35
612.90624	19277.05
616.90371	18531.55
620.89834	15285.55
624.89015	13837.25
628.87913	13659.25
632.86528	13670.65
636.84862	13643.25
640.82913	13439.95
644.80683	13109.95
648.78172	12858.05
652.75379	12770.35
656.72306	12969.65
660.68952	13269.75
664.65319	13250.45
668.61405	13020.15
672.57211	12865.95
676.52738	12854.65
680.47986	12866.55
684.42955	12850.25
688.37646	12824.85
692.32058	12856.95
696.26192	12935.05
700.20048	13063.75
704.13626	13130.25
708.06928	13146.35
711.99952	13034.95
715.927	13012.05
719.85171	13002.75
723.77365	12977.45
727.69284	12903.95
731.60928	12796.25
735.52295	12780.15
739.43388	12809.45
743.34206	12832.25
747.24749	12897.55
751.15017	12997.75
755.05012	13239.35
758.94733	13611.85
762.8418	14314.65
766.73354	15455.65
770.62254	16640.55
774.50882	17080.85
778.39237	16346.65
782.27321	15020.65
786.15132	13906.45
790.02671	13243.85
793.89938	12956.45
797.76935	12856.15
801.6366	12797.45
805.50115	12756.45
809.36299	12734.55
813.22213	12649.75
817.07857	12675.65
820.93231	12674.45
824.78336	12670.45
828.63172	12668.35
832.47738	12658.55
836.32036	12673.85
840.16066	12718.65
843.99827	12728.65
847.8332	12698.25
851.66546	12634.95
855.49504	12635.25
859.32195	12587.15
863.1462	12555.55
866.96777	12527.25
870.78668	12503.05
874.60293	12508.55
878.41652	12515.35
882.22745	12546.45
886.03573	12578.85
889.84136	12566.75
893.64433	12555.65
897.44466	12485.25
901.24235	12470.85
905.0374	12449.95
908.8298	12410.55
912.61957	12425.75
916.40671	12540.35
920.19121	12657.55
923.97308	12766.25
927.75233	12796.45
931.52895	12825.85
935.30295	12730.95
939.07433	12531.35
942.84309	12343.65
946.60924	12252.95
950.37278	12188.95
954.13371	12142.55
957.89203	12084.45
961.64774	12045.25
965.40086	12017.35
969.15137	11964.85
972.89929	11940.35
976.64461	11887.05
980.38733	11894.55
984.12747	11921.75
987.86502	11985.95
991.59999	12138.55
995.33237	12324.55
999.06217	12645.55
1002.78939	13045.55
1006.51404	13228.45
1010.23611	13393.95
1013.95561	13528.25
1017.67255	13531.85
1021.38692	13450.55
1025.09872	13339.25
1028.80796	13426.95
1032.51465	13732.35
1036.21877	14017.05
1039.92035	14061.15
1043.61937	13904.75
1047.31584	13578.65
1051.00976	13287.15
1054.70114	13089.15
1058.38998	13120.35
1062.07627	13176.55
1065.76003	13230.15
1069.44126	13325.55
1073.11995	13384.15
1076.79611	13476.45
1080.46974	13510.35
1084.14085	13598.35
1087.80943	13748.45
1091.47549	13855.55
1095.13903	13770.15
1098.80005	13555.95
1102.45857	13331.55
1106.11456	13175.35
1109.76805	13160.75
1113.41903	13258.25
1117.06751	13423.15
1120.71348	13663.65
1124.35696	13843.65
1127.99793	14014.75
1131.63641	14109.05
1135.2724	13875.75
1138.90589	13644.45
1142.5369	13536.85
1146.16542	13452.95
1149.79145	13485.55
1153.415	13532.85
1157.03607	13667.25
1160.65467	13904.25
1164.27079	14292.95
1167.88443	14876.15
1171.49561	15748.35
1175.10432	16858.25
1178.71056	18366.85
1182.31434	19650.05
1185.91565	20235.85
1189.51451	20300.95
1193.11091	19708.25
1196.70485	18855.85
1200.29634	18002.35
1203.88538	17352.85
1207.47197	16789.05
1211.05612	16335.05
1214.63782	16035.95
1218.21708	15860.05
1221.79391	15821.95
1225.36829	15807.75
1228.94024	15766.85
1232.50976	15623.95
1236.07685	15517.85
1239.6415	15428.55
1243.20374	15436.45
1246.76355	15485.35
1250.32093	15669.55
1253.8759	15949.75
1257.42845	16376.15
1260.97859	16743.75
1264.52631	17008.65
1268.07163	17364.85
1271.61453	17729.95
1275.15503	18190.65
1278.69312	18633.45
1282.22882	18969.95
1285.76211	19379.75
1289.29301	19799.15
1292.82151	20322.55
1296.34761	21044.65
1299.87133	21942.25
1303.39266	23147.95
1306.9116	24707.55
1310.42815	26340.05
1313.94233	27459.25
1317.45412	27494.65
1320.96354	26831.55
1324.47058	26000.05
1327.97525	25287.55
1331.47754	24754.35
1334.97747	24596.05
1338.47502	24743.45
1341.97022	25030.45
1345.46305	25042.75
1348.95352	24904.05
1352.44163	24738.95
1355.92738	25042.35
1359.41078	26265.65
1362.89183	27636.45
1366.37053	27226.25
1369.84688	24799.15
1373.32088	22165.65
1376.79254	20332.05
1380.26186	19548.05
1383.72883	19314.05
1387.19347	19248.55
1390.65578	19137.95
1394.11575	19117.55
1397.57339	19326.55
1401.0287	19699.65
1404.48168	20131.05
1407.93234	20427.75
1411.38068	20365.55
1414.82669	20081.25
1418.27039	19438.35
1421.71177	18690.35
1425.15083	18097.05
1428.58758	17666.65
1432.02203	17615.45
1435.45416	17739.15
1438.88399	17976.95
1442.31151	18251.95
1445.73673	18503.15
1449.15965	18767.15
1452.58027	18944.55
1455.9986	19025.05
1459.41463	19124.75
1462.82837	19341.65
1466.23982	19621.45
1469.64898	19887.45
1473.05586	20068.25
1476.46045	20086.35
1479.86276	20048.35
1483.26279	19998.15
1486.66054	20066.65
1490.05602	20138.85
1493.44922	20344.95
1496.84016	20632.35
1500.22882	21002.15
1503.61521	21712.15
1506.99934	22669.45
1510.38121	23708.65
1513.76081	24329.35
1517.13816	23943.35
1520.51324	22760.45
1523.88607	21480.75
1527.25665	20571.35
1530.62498	20064.55
1533.99105	19765.95
1537.35488	19608.45
1540.71647	19449.95
1544.07581	19282.85
1547.4329	19082.55
1550.78776	18887.95
1554.14038	18753.45
1557.49077	18786.85
1560.83892	18823.95
1564.18484	18891.55
1567.52853	18934.45
1570.86999	19002.45
1574.20922	19048.55
1577.54624	19165.95
1580.88103	19050.75
1584.2136	18945.45
1587.54395	19176.65
1590.87208	19833.75
1594.19801	20860.15
1597.52172	22023.85
1600.84321	22507.05
1604.16251	21846.55
1607.47959	20475.65
1610.79447	18999.35
1614.10715	17628.25
1617.41763	16459.85
1620.7259	15638.75
1624.03199	15219.45
1627.33587	15154.25
1630.63757	15517.65
1633.93707	16209.25
1637.23439	17292.85
1640.52951	18680.75
1643.82246	20207.65
1647.11321	21486.85
1650.40179	21971.65
1653.68819	21082.65
1656.97241	18965.45
1660.25446	16711.15
1663.53433	14944.55
1666.81203	13853.15
1670.08756	13132.15
1673.36092	12738.75
1676.63211	12447.45
1679.90115	12251.85
1683.16801	12100.35
1686.43272	11969.05
1689.69527	11887.35
1692.95567	11780.05
1696.2139	11727.25
1699.46999	11655.05
1702.72392	11622.95
1705.97571	11614.75
1709.22535	11673.45
1712.47284	11667.25
1715.71819	11680.05
1718.96139	11660.05
1722.20246	11645.45
1725.44139	11619.35
1728.67818	11562.15
1731.91284	11504.95
1735.14537	11449.55
1738.37576	11408.45
1741.60403	11353.85
1744.83017	11319.55
1748.05418	11321.95
1751.27607	11299.65
1754.49584	11238.75
1757.71349	11263.25
1760.92903	11251.25
1764.14244	11223.35
1767.35375	11248.45
1770.56294	11213.35
1773.77002	11181.75
1776.97499	11201.25
1780.17785	11194.05
1783.37861	11206.05
1786.57727	11212.75
1789.77382	11188.55
1792.96828	11170.25
1796.16064	11147.75
1799.3509	11160.55
1802.53907	11140.05
1805.72514	11136.85
1808.90913	11077.25
1812.09102	11062.35
1815.27083	11047.25
1818.44856	11052.95
1821.6242	11015.95
1824.79776	10993.35
1827.96924	11012.55
1831.13864	10998.35
1834.30597	10991.45
1837.47122	10978.25
1840.6344	11007.05
1843.7955	10992.15
1846.95454	10997.25
1850.11151	10973.85
1853.26642	10994.05
1856.41926	11012.85
1859.57004	11012.35
1862.71876	10999.85
1865.86542	11000.65
1869.01003	10998.45
1872.15258	11008.75
1875.29308	11005.25
1878.43152	10991.15
1881.56792	10998.15
1884.70227	10997.35
1887.83457	10999.75
1890.96482	10985.35
1894.09304	10989.75
1897.21921	10952.35
1900.34335	10967.35
1903.46544	10963.55
1906.58551	10978.75
1909.70353	10961.95
1912.81953	10955.95
1915.93349	10973.75
1919.04543	10948.05
1922.15534	10922.15
1925.26322	10910.65
1928.36908	10884.15
1931.47292	10872.95
1934.57473	10801.15
1937.67453	10816.65
1940.77232	10773.85
1943.86808	10746.15
1946.96184	10698.55
1950.05358	10667.25
1953.14331	10623.15
1956.23103	10566.95
1959.31675	10581.95
1962.40046	10533.25
1965.48217	10530.35
1968.56188	10489.85
1971.63959	10470.65
1974.7153	10429.45
1977.78901	10401.65
1980.86073	10361.45
1983.93046	10345.75
1986.99819	10315.95
1990.06394	10266.75
1993.1277	10243.45
1996.18947	10214.05
1999.24925	10187.75
2002.30706	10149.55
2005.36288	10134.15
2008.41672	10101.15
2011.46859	10095.85
2014.51848	10061.35
2017.56639	10036.25
2020.61233	10012.25
2023.6563	10004.15
2026.6983	9995.25
2029.73833	9957.85
2032.7764	9964.65
2035.8125	9955.85
2038.84664	9906.65
2041.87881	9897.55
2044.90903	9891.85
2047.93729	9882.45
2050.96359	9856.65
2053.98794	9835.95
2057.01034	9844.05
2060.03078	9848.65
2063.04927	9856.55
2066.06582	9835.45
2069.08042	9818.15
2072.09307	9822.45
2075.10378	9798.05
2078.11255	9797.55
2081.11938	9812.25
2084.12426	9801.55
2087.12722	9795.55
2090.12824	9766.85
2093.12732	9798.35
2096.12447	9746.35
2099.11969	9768.55
2102.11299	9791.55
2105.10435	9782.85
2108.09379	9807.25
2111.08131	9791.95
2114.0669	9793.45
2117.05057	9811.75
2120.03233	9815.55
2123.01216	9834.05
2125.99008	9837.95
2128.96609	9838.85
2131.94018	9859.05
2134.91236	9850.15
2137.88263	9878.25
2140.851	9870.65
2143.81746	9876.05
2146.78201	9885.25
2149.74466	9887.95
2152.7054	9900.35
2155.66425	9896.35
2158.6212	9906.75
2161.57625	9883.45
2164.52941	9910.55
2167.48067	9884.35
2170.43004	9873.85
2173.37752	9868.95
2176.32311	9879.55
2179.26681	9884.75
2182.20863	9873.55
2185.14856	9898.05
2188.08661	9888.25
2191.02278	9905.75
2193.95707	9899.65
2196.88948	9880.25
2199.82001	9891.75
2202.74867	9884.85
2205.67545	9866.85
2208.60037	9876.45
2211.52341	9863.65
2214.44458	9864.85
2217.36388	9821.25
2220.28132	9818.95
2223.1969	9787.75
2226.11061	9817.45
2229.02246	9781.45
2231.93245	9780.45
2234.84058	9744.45
2237.74686	9721.45
2240.65128	9737.75
2243.55385	9697.45
2246.45456	9679.35
2249.35343	9682.65
2252.25044	9663.35
2255.14561	9656.95
2258.03893	9635.85
2260.93041	9638.95
2263.82004	9611.25
2266.70783	9575.95
2269.59378	9559.85
2272.4779	9545.35
2275.36017	9527.75
2278.24061	9527.65
2281.11922	9494.25
2283.996	9502.95
2286.87094	9478.55
2289.74405	9465.65
2292.61534	9471.35
2295.4848	9451.05
2298.35243	9453.25
2301.21824	9450.95
2304.08223	9423.35
2306.94439	9459.65
2309.80474	9467.95
2312.66327	9471.95
2315.51999	9447.45
2318.37489	9474.35
2321.22797	9459.05
2324.07925	9429.15
2326.92871	9425.25
2329.77637	9440.45
2332.62222	9417.05
2335.46626	9429.45
2338.3085	9418.15
2341.14893	9416.45
2343.98756	9430.05
2346.8244	9423.35
2349.65943	9424.15
2352.49267	9416.25
2355.32411	9430.45
2358.15376	9387.45
2360.98161	9396.65
2363.80768	9389.05
2366.63195	9394.95
2369.45444	9358.85
2372.27514	9377.75
2375.09405	9348.85
2377.91118	9329.85
2380.72652	9302.55
2383.54009	9257.45
2386.35187	9259.55
2389.16188	9253.95
2391.97011	9216.75
2394.77657	9208.35
2397.58125	9202.45
2400.38416	9194.05
2403.18529	9190.15
2405.98466	9165.35
2408.78226	9137.65
2411.57809	9151.45
2414.37216	9116.25
2417.16446	9111.05
2419.955	9072.35
2422.74378	9089.45
2425.5308	9092.75
2428.31606	9089.75
2431.09956	9076.05
2433.88131	9094.35
2436.6613	9085.75
2439.43954	9070.95
2442.21603	9084.65
2444.99077	9063.15
2447.76377	9062.75
2450.53501	9056.65
2453.30451	9059.45
2456.07226	9036.35
2458.83827	9015.55
2461.60254	9026.95
2464.36507	9017.85
2467.12586	9017.85
2469.88492	9015.45
2472.64224	9035.05
2475.39782	9043.35
2478.15167	9014.35
2480.90379	9033.55
2483.65417	9054.25
2486.40283	9067.75
2489.14976	9046.95
2491.89497	9057.65
2494.63845	9070.05
2497.3802	9056.45
2500.12024	9070.35
2502.85855	9049.45
2505.59514	9028.85
2508.33002	9038.05
2511.06318	9037.65
2513.79462	9023.25
2516.52435	9014.45
2519.25237	9011.75
2521.97867	8991.75
2524.70327	8993.15
2527.42616	8973.25
2530.14734	8979.25
2532.86681	8976.35
2535.58458	8957.95
2538.30065	8949.15
2541.01501	8958.85
2543.72768	8925.95
2546.43864	8913.55
2549.14791	8911.85
2551.85548	8912.05
2554.56136	8902.25
2557.26554	8892.15
2559.96803	8893.45
2562.66883	8881.55
2565.36794	8895.95
2568.06536	8851.85
2570.7611	8852.15
2573.45514	8837.45
2576.14751	8831.55
2578.83819	8817.75
2581.52719	8821.85
2584.21451	8825.95
2586.90015	8840.45
2589.58411	8786.05
2592.2664	8813.85
2594.94701	8804.05
2597.62594	8803.15
2600.30321	8783.65
2602.9788	8797.95
2605.65273	8784.95
2608.32498	8779.55
2610.99557	8792.85
2613.66449	8801.05
2616.33175	8772.15
2618.99734	8794.75
2621.66128	8784.55
2624.32355	8768.35
2626.98416	8778.05
2629.64311	8790.25
2632.30041	8804.65
2634.95605	8800.25
2637.61004	8749.95
2640.26238	8751.55
2642.91306	8752.65
2645.56209	8723.45
2648.20948	8716.95
2650.85521	8721.35
2653.4993	8718.35
2656.14175	8731.75
2658.78255	8728.55
2661.42171	8735.45
2664.05923	8763.15
2666.6951	8756.65
2669.32934	8772.05
2671.96194	8731.95
2674.59291	8762.05
2677.22224	8753.35
2679.84993	8763.05
2682.476	8759.95
2685.10043	8755.95
2687.72324	8751.15
2690.34441	8745.15
2692.96396	8738.15
2695.58188	8759.15
2698.19818	8714.85
2700.81285	8770.35
2703.4259	8723.55
2706.03733	8738.25
2708.64714	8737.95
2711.25533	8759.95
2713.86191	8737.85
2716.46687	8751.25
2719.07021	8741.65
2721.67194	8772.15
2724.27206	8775.65
2726.87057	8782.65
2729.46747	8755.45
2732.06276	8760.55
2734.65644	8776.45
2737.24852	8767.35
2739.83899	8757.35
2742.42786	8759.35
2745.01513	8758.45
2747.60079	8773.45
2750.18486	8749.25
2752.76733	8777.05
2755.3482	8743.35
2757.92747	8752.15
2760.50515	8726.05
2763.08123	8743.25
2765.65573	8717.75
2768.22863	8725.75
2770.79994	8725.35
2773.36967	8721.45
2775.9378	8725.25
2778.50435	8729.95
2781.06932	8721.05
2783.6327	8717.15
2786.1945	8711.95
2788.75471	8686.05
2791.31335	8692.25
2793.87041	8661.55
2796.42589	8654.05
2798.97979	8654.25
2801.53212	8646.05
2804.08288	8643.65
2806.63206	8611.45
2809.17967	8602.45
2811.72571	8590.95
2814.27018	8567.35
2816.81308	8561.25
2819.35442	8564.35
2821.89419	8551.55
2824.43239	8559.35
2826.96904	8538.95
2829.50412	8543.45
2832.03763	8509.65
2834.56959	8532.95
2837.1	8527.95
2839.62884	8537.95
2842.15613	8525.45
2844.68186	8519.45
2847.20604	8526.05
2849.72867	8540.65
2852.24974	8563.35
2854.76927	8546.75
2857.28724	8517.15
2859.80367	8511.05
2862.31855	8503.95
2864.83189	8505.85
2867.34368	8491.45
2869.85393	8478.15
2872.36264	8468.55
2874.8698	8491.95
2877.37543	8457.35
2879.87952	8480.75
2882.38207	8470.45
2884.88308	8468.55
2887.38256	8479.85
2889.88051	8456.05
2892.37692	8481.05
2894.8718	8484.45
2897.36515	8491.65
2899.85698	8491.85
2902.34727	8515.75
2904.83604	8503.25
2907.32328	8538.85
2909.809	8514.75
2912.29319	8526.55
2914.77587	8537.85
2917.25702	8536.45
2919.73665	8512.85
2922.21476	8529.05
2924.69136	8517.15
2927.16644	8520.75
2929.64	8499.85
2932.11205	8497.15
2934.58258	8477.35
2937.05161	8475.55
2939.51912	8485.25
2941.98513	8465.45
2944.44962	8446.65
2946.91261	8412.05
2949.37409	8421.95
2951.83407	8426.75
2954.29254	8434.05
2956.74951	8422.75
2959.20498	8439.05
2961.65895	8400.45
2964.11142	8414.95
2966.56239	8377.35
2969.01186	8359.25
2971.45984	8358.25
2973.90632	8353.25
2976.35131	8327.35
2978.7948	8318.65
2981.23681	8307.65
2983.67732	8312.95
2986.11635	8278.35
2988.55388	8252.85
2990.98993	8263.35
2993.4245	8252.45
2995.85758	8256.85
2998.28917	8239.65
3000.71928	8202.95
3003.14791	8173.15
3005.57506	8182.75
3008.00073	8161.25
3010.42493	8159.95
3012.84764	8146.65
3015.26888	8163.55
3017.68865	8125.05
3020.10694	8100.25
3022.52376	8094.95
3024.9391	8098.85
3027.35298	8075.75
3029.76539	8093.55
3032.17632	8072.95
3034.5858	8047.75
3036.9938	8049.05
3039.40034	8046.55
3041.80542	8058.75
3044.20903	8041.65
3046.61118	8027.25
3049.01187	8018.55
3051.4111	8013.55
3053.80888	8010.95
3056.20519	7984.05
3058.60005	7971.05
3060.99345	7949.65
3063.3854	7929.65
3065.7759	7911.25
3068.16494	7893.45
3070.55254	7854.35
3072.93868	7883.25
3075.32338	7847.95
3077.70662	7840.05
3080.08842	7815.55
3082.46878	7819.35
3084.84769	7801.25
3087.22515	7793.95
3089.60118	7786.45
3091.97576	7813.65
3094.3489	7794.15
3096.72061	7799.85
3099.09087	7795.55
3101.4597	7812.25
3103.82709	7796.05
3106.19305	7800.85
3108.55757	7799.05
3110.92066	7774.75
3113.28232	7764.15
3115.64255	7758.85
3118.00134	7741.05
3120.35871	7726.75
3122.71466	7724.65
3125.06917	7719.65
3127.42226	7691.35
3129.77393	7704.65
3132.12417	7689.75
3134.47299	7680.65
3136.82039	7681.65
3139.16636	7706.45
3141.51092	7694.55
3143.85406	7708.25
3146.19579	7704.45
3148.53609	7694.95
3150.87499	7712.85
3153.21246	7737.95
3155.54853	7752.25
3157.88318	7729.55
3160.21642	7717.85
3162.54826	7759.05
3164.87868	7741.75
3167.2077	7720.05
3169.5353	7747.35
3171.86151	7732.05
3174.18631	7728.75
3176.5097	7727.95
3178.83169	7710.75
3181.15228	7704.85
3183.47147	7703.45
3185.78926	7717.95
3188.10565	7697.15
3190.42065	7699.05
3192.73424	7692.65
3195.04645	7699.15
3197.35725	7713.45
3199.66667	7707.65
3201.97469	7714.55
3204.28132	7694.35
3206.58656	7735.35
3208.8904	7722.15
3211.19287	7739.85
3213.49394	7738.55
3215.79363	7731.95
3218.09193	7729.75
3220.38884	7717.95
3222.68438	7748.05
3224.97853	7734.25
3227.2713	7728.55
3229.56269	7730.15
3231.8527	7739.85
3234.14133	7712.95
3236.42858	7683.15
3238.71446	7669.25
3240.99896	7673.85
3243.28209	7677.05
3245.56384	7663.25
3247.84423	7671.55
3250.12324	7648.65
3252.40088	7671.85
3254.67715	7643.75
3256.95205	7643.35
3259.22558	7667.15
3261.49775	7654.35
3263.76855	7621.45
3266.03799	7602.55
3268.30606	7612.95
3270.57277	7611.95
3272.83812	7564.25
3275.10211	7555.15
3277.36474	7555.65
3279.62601	7553.65
3281.88593	7548.55
3284.14448	7549.35
3286.40168	7545.15
3288.65753	7558.05
3290.91202	7560.45
3293.16516	7523.35
3295.41695	7507.95
3297.66738	7460.85
3299.91647	7428.75
3302.16421	7389.85
3304.4106	7379.45
3306.65564	7323.15
3308.89933	7290.45
3311.14169	7239.65
3313.38269	7198.05
3315.62236	7153.25
3317.86068	7094.85
3320.09766	7049.05
3322.3333	7013.55
3324.5676	6985.55
3326.80056	6864.25
3329.03219	6831.75
3331.26248	3.55
3333.49143	0.55
3335.71905	-1.45
