Data from AgNPs_FTO_APTES_UA_1uM_CRN_1uM_R6G_10uM_NaF_0.1M_Addition_RamanShift__6__12-19-09-486.txt Node

Date: Thu Jan 27 12:19:09 GMT 2022
User: TCL
Spectrometer: QEP01345
Trigger mode: 4
Integration Time (sec): 7.000000E0
Scans to average: 10
Electric dark correction enabled: true
Nonlinearity correction enabled: false
Boxcar width: 0
XAxis mode: Raman Shifts
Number of Pixels in Spectrum: 1044
>>>>>Begin Spectral Data<<<<<
46.04893	-0.35
50.45542	0.95
54.85868	-0.95
59.25871	-1.05
63.6555	56.45
68.04907	58.35
72.43941	64.55
76.82654	64.35
81.21044	68.95
85.59113	70.05
89.96862	72.75
94.34289	76.75
98.71396	80.65
103.08183	77.95
107.4465	87.75
111.80798	84.15
116.16626	85.15
120.52136	93.45
124.87327	91.95
129.222	94.75
133.56755	97.65
137.90993	106.35
142.24913	112.35
146.58517	128.75
150.91804	149.75
155.24774	169.15
159.57429	208.65
163.89768	266.45
168.21792	349.35
172.53501	464.05
176.84895	644.85
181.15975	903.25
185.46741	1260.15
189.77193	1739.75
194.07331	2326.15
198.37157	2989.45
202.6667	3705.85
206.9587	4410.55
211.24758	5105.95
215.53334	5813.55
219.81599	6551.45
224.09553	7371.05
228.37195	8275.85
232.64527	9275.25
236.91549	10290.25
241.18261	11356.25
245.44663	12354.85
249.70755	13198.45
253.96539	13965.35
258.22014	14575.95
262.4718	15114.55
266.72039	15464.75
270.96589	15617.25
275.20832	15572.95
279.44768	15452.65
283.68397	15212.45
287.91719	15058.35
292.14735	14893.15
296.37445	14862.15
300.59849	14881.05
304.81948	14996.05
309.03742	15022.15
313.25231	15018.05
317.46415	14855.45
321.67296	14617.05
325.87872	14383.65
330.08145	14275.15
334.28114	14310.35
338.47781	14396.25
342.67145	14538.05
346.86207	14791.35
351.04966	15109.85
355.23424	15382.15
359.4158	15711.75
363.59435	15944.25
367.76989	16040.55
371.94243	16130.35
376.11196	16170.35
380.27849	16253.75
384.44203	16322.15
388.60257	16439.85
392.76012	16590.45
396.91468	16780.35
401.06626	17047.75
405.21485	17171.95
409.36047	17128.55
413.50311	16906.85
417.64277	16875.95
421.77947	16938.35
425.9132	17029.75
430.04396	17102.85
434.17176	17149.85
438.2966	17224.65
442.41849	17464.65
446.53742	17886.15
450.6534	18344.75
454.76644	18620.15
458.87653	18648.55
462.98368	18480.95
467.08789	18249.45
471.18916	17931.25
475.2875	17595.95
479.38291	17318.85
483.4754	17143.45
487.56496	17041.25
491.6516	16921.25
495.73531	16926.45
499.81612	16967.35
503.89401	17138.55
507.96899	17182.25
512.04106	17164.75
516.11023	17070.65
520.1765	17012.95
524.23987	16947.05
528.30034	16864.25
532.35792	16733.55
536.41261	16553.55
540.46441	16340.35
544.51333	16248.35
548.55936	16324.45
552.60252	16577.45
556.64279	16939.15
560.6802	17179.35
564.71473	17238.05
568.7464	17318.35
572.7752	17557.35
576.80114	17918.95
580.82422	18394.45
584.84444	19170.85
588.86181	20233.15
592.87633	21211.65
596.888	21296.15
600.89682	20376.25
604.9028	20009.15
608.90594	21241.55
612.90624	22952.05
616.90371	21993.25
620.89834	18864.45
624.89015	17393.75
628.87913	17158.45
632.86528	17163.25
636.84862	17097.15
640.82913	16808.05
644.80683	16456.15
648.78172	16224.95
652.75379	16274.45
656.72306	16500.15
660.68952	16751.55
664.65319	16693.25
668.61405	16379.55
672.57211	16333.65
676.52738	16449.25
680.47986	16428.15
684.42955	16295.95
688.37646	16201.45
692.32058	16298.45
696.26192	16581.45
700.20048	16856.65
704.13626	16965.85
708.06928	16854.55
711.99952	16771.65
715.927	16769.35
719.85171	16853.55
723.77365	16801.15
727.69284	16591.95
731.60928	16340.55
735.52295	16259.65
739.43388	16262.75
743.34206	16362.15
747.24749	16465.25
751.15017	16575.55
755.05012	16779.75
758.94733	17123.05
762.8418	17773.35
766.73354	18815.45
770.62254	19874.45
774.50882	20212.95
778.39237	19654.45
782.27321	18602.35
786.15132	17656.05
790.02671	17057.45
793.89938	16751.65
797.76935	16637.85
801.6366	16555.25
805.50115	16524.45
809.36299	16437.75
813.22213	16315.95
817.07857	16212.35
820.93231	16107.55
824.78336	16079.95
828.63172	16094.45
832.47738	16087.85
836.32036	16128.55
840.16066	16254.15
843.99827	16318.45
847.8332	16275.65
851.66546	16192.95
855.49504	16189.15
859.32195	16169.45
863.1462	16152.95
866.96777	16085.25
870.78668	16065.55
874.60293	16061.95
878.41652	16068.05
882.22745	16184.95
886.03573	16238.15
889.84136	16262.75
893.64433	16191.35
897.44466	16123.85
901.24235	16040.45
905.0374	15979.35
908.8298	15982.15
912.61957	15955.05
916.40671	16072.05
920.19121	16251.95
923.97308	16481.35
927.75233	16637.35
931.52895	16652.35
935.30295	16450.95
939.07433	16272.65
942.84309	16050.15
946.60924	15984.25
950.37278	15918.45
954.13371	15924.65
957.89203	15838.25
961.64774	15813.95
965.40086	15807.45
969.15137	15769.95
972.89929	15762.05
976.64461	15819.65
980.38733	15909.15
984.12747	16009.35
987.86502	16102.95
991.59999	16288.35
995.33237	16512.95
999.06217	16949.65
1002.78939	17495.85
1006.51404	17861.85
1010.23611	18091.65
1013.95561	18194.05
1017.67255	18149.05
1021.38692	17960.75
1025.09872	17690.85
1028.80796	17812.05
1032.51465	18261.35
1036.21877	18830.35
1039.92035	18949.85
1043.61937	18783.65
1047.31584	18352.75
1051.00976	17855.85
1054.70114	17577.65
1058.38998	17477.15
1062.07627	17498.55
1065.76003	17567.85
1069.44126	17695.05
1073.11995	17975.45
1076.79611	18302.65
1080.46974	18494.55
1084.14085	18569.75
1087.80943	18728.75
1091.47549	18795.55
1095.13903	18752.05
1098.80005	18516.75
1102.45857	18098.25
1106.11456	17812.55
1109.76805	17657.85
1113.41903	17671.15
1117.06751	17679.55
1120.71348	17775.55
1124.35696	17887.45
1127.99793	18080.85
1131.63641	18215.95
1135.2724	18129.65
1138.90589	18044.75
1142.5369	18021.55
1146.16542	18040.45
1149.79145	18070.85
1153.415	18088.15
1157.03607	18168.05
1160.65467	18542.35
1164.27079	19205.95
1167.88443	20100.85
1171.49561	21023.55
1175.10432	22269.75
1178.71056	23813.15
1182.31434	25464.05
1185.91565	26309.15
1189.51451	26207.55
1193.11091	25563.75
1196.70485	24726.55
1200.29634	23904.75
1203.88538	23287.35
1207.47197	22893.35
1211.05612	22505.75
1214.63782	22069.85
1218.21708	21595.65
1221.79391	21251.95
1225.36829	21031.55
1228.94024	20785.15
1232.50976	20550.15
1236.07685	20184.45
1239.6415	19947.65
1243.20374	19942.65
1246.76355	20077.85
1250.32093	20442.25
1253.8759	20932.35
1257.42845	21504.15
1260.97859	22128.25
1264.52631	22842.45
1268.07163	23502.65
1271.61453	24198.05
1275.15503	24873.85
1278.69312	25507.35
1282.22882	26023.75
1285.76211	26598.15
1289.29301	27304.65
1292.82151	28223.95
1296.34761	29379.25
1299.87133	30998.65
1303.39266	32846.05
1306.9116	34607.85
1310.42815	35965.45
1313.94233	36502.85
1317.45412	35941.55
1320.96354	34779.55
1324.47058	33672.75
1327.97525	32755.65
1331.47754	32141.55
1334.97747	31746.25
1338.47502	31310.55
1341.97022	30784.75
1345.46305	30291.15
1348.95352	30241.45
1352.44163	30751.35
1355.92738	32050.15
1359.41078	34076.05
1362.89183	35755.85
1366.37053	35590.45
1369.84688	33005.85
1373.32088	29309.25
1376.79254	26598.55
1380.26186	25423.95
1383.72883	25169.95
1387.19347	25090.65
1390.65578	24678.15
1394.11575	24323.05
1397.57339	24317.55
1401.0287	24599.35
1404.48168	24819.35
1407.93234	24886.05
1411.38068	24678.35
1414.82669	24250.55
1418.27039	23687.25
1421.71177	23086.65
1425.15083	22559.05
1428.58758	22369.05
1432.02203	22602.75
1435.45416	23223.45
1438.88399	23814.25
1442.31151	24161.35
1445.73673	24240.85
1449.15965	24156.05
1452.58027	24030.55
1455.9986	23756.05
1459.41463	23780.75
1462.82837	24104.05
1466.23982	24678.65
1469.64898	25178.05
1473.05586	25540.55
1476.46045	25739.15
1479.86276	25707.45
1483.26279	25559.95
1486.66054	25456.95
1490.05602	25589.65
1493.44922	25833.35
1496.84016	26099.45
1500.22882	26405.35
1503.61521	26963.95
1506.99934	27634.65
1510.38121	28251.55
1513.76081	28425.55
1517.13816	27906.95
1520.51324	26948.35
1523.88607	26130.45
1527.25665	25743.05
1530.62498	25607.15
1533.99105	25398.05
1537.35488	25064.35
1540.71647	24642.85
1544.07581	24197.05
1547.4329	23791.45
1550.78776	23383.35
1554.14038	23096.85
1557.49077	22936.15
1560.83892	22789.05
1564.18484	22671.15
1567.52853	22677.35
1570.86999	22826.95
1574.20922	23115.15
1577.54624	23363.05
1580.88103	23447.55
1584.2136	23579.15
1587.54395	24238.75
1590.87208	25633.95
1594.19801	27398.55
1597.52172	29064.85
1600.84321	29567.95
1604.16251	28357.85
1607.47959	26102.55
1610.79447	23667.35
1614.10715	21662.95
1617.41763	20168.45
1620.7259	19243.85
1624.03199	18847.55
1627.33587	18902.05
1630.63757	19464.35
1633.93707	20484.25
1637.23439	22235.75
1640.52951	24807.05
1643.82246	27939.25
1647.11321	30421.55
1650.40179	30743.45
1653.68819	28358.35
1656.97241	24584.65
1660.25446	21158.35
1663.53433	18807.55
1666.81203	17450.45
1670.08756	16632.05
1673.36092	16110.15
1676.63211	15807.05
1679.90115	15540.05
1683.16801	15376.55
1686.43272	15249.65
1689.69527	15137.75
1692.95567	15046.45
1696.2139	14966.55
1699.46999	14866.05
1702.72392	14843.45
1705.97571	14846.85
1709.22535	14871.75
1712.47284	14899.25
1715.71819	14913.25
1718.96139	14868.85
1722.20246	14849.85
1725.44139	14792.25
1728.67818	14708.85
1731.91284	14652.95
1735.14537	14554.95
1738.37576	14555.65
1741.60403	14502.65
1744.83017	14426.55
1748.05418	14396.35
1751.27607	14363.15
1754.49584	14311.65
1757.71349	14298.95
1760.92903	14305.85
1764.14244	14267.15
1767.35375	14254.65
1770.56294	14265.15
1773.77002	14242.05
1776.97499	14212.95
1780.17785	14237.65
1783.37861	14249.35
1786.57727	14239.15
1789.77382	14208.45
1792.96828	14185.95
1796.16064	14155.55
1799.3509	14132.75
1802.53907	14112.95
1805.72514	14086.15
1808.90913	14090.65
1812.09102	14047.95
1815.27083	14033.45
1818.44856	14024.65
1821.6242	13986.95
1824.79776	14004.15
1827.96924	13996.25
1831.13864	13982.35
1834.30597	13992.25
1837.47122	13966.85
1840.6344	14004.65
1843.7955	13990.55
1846.95454	13989.05
1850.11151	14022.15
1853.26642	14013.45
1856.41926	13994.95
1859.57004	13989.85
1862.71876	13980.75
1865.86542	13965.55
1869.01003	13978.05
1872.15258	13947.35
1875.29308	13925.75
1878.43152	13917.45
1881.56792	13880.45
1884.70227	13886.15
1887.83457	13863.05
1890.96482	13836.95
1894.09304	13818.85
1897.21921	13823.45
1900.34335	13798.65
1903.46544	13787.85
1906.58551	13769.85
1909.70353	13764.15
1912.81953	13715.45
1915.93349	13743.65
1919.04543	13696.15
1922.15534	13655.55
1925.26322	13630.75
1928.36908	13616.05
1931.47292	13601.45
1934.57473	13552.85
1937.67453	13509.65
1940.77232	13498.75
1943.86808	13477.15
1946.96184	13464.65
1950.05358	13395.95
1953.14331	13355.65
1956.23103	13346.55
1959.31675	13315.25
1962.40046	13285.65
1965.48217	13273.55
1968.56188	13187.05
1971.63959	13168.15
1974.7153	13158.75
1977.78901	13107.25
1980.86073	13090.85
1983.93046	13047.75
1986.99819	12972.05
1990.06394	12970.55
1993.1277	12910.75
1996.18947	12915.85
1999.24925	12876.95
2002.30706	12832.85
2005.36288	12788.75
2008.41672	12788.45
2011.46859	12749.85
2014.51848	12717.75
2017.56639	12648.85
2020.61233	12649.65
2023.6563	12638.05
2026.6983	12606.95
2029.73833	12579.75
2032.7764	12572.95
2035.8125	12546.05
2038.84664	12533.65
2041.87881	12527.65
2044.90903	12502.75
2047.93729	12461.45
2050.96359	12462.95
2053.98794	12427.65
2057.01034	12429.25
2060.03078	12431.05
2063.04927	12425.55
2066.06582	12424.45
2069.08042	12421.25
2072.09307	12410.45
2075.10378	12381.85
2078.11255	12409.75
2081.11938	12399.65
2084.12426	12418.15
2087.12722	12419.75
2090.12824	12406.45
2093.12732	12401.85
2096.12447	12406.35
2099.11969	12389.25
2102.11299	12408.95
2105.10435	12429.35
2108.09379	12431.45
2111.08131	12428.45
2114.0669	12444.05
2117.05057	12436.65
2120.03233	12443.45
2123.01216	12450.05
2125.99008	12481.35
2128.96609	12464.45
2131.94018	12493.25
2134.91236	12503.65
2137.88263	12536.85
2140.851	12525.75
2143.81746	12531.65
2146.78201	12562.75
2149.74466	12551.05
2152.7054	12560.55
2155.66425	12577.95
2158.6212	12525.65
2161.57625	12529.55
2164.52941	12597.75
2167.48067	12525.25
2170.43004	12546.85
2173.37752	12558.15
2176.32311	12528.35
2179.26681	12573.15
2182.20863	12558.95
2185.14856	12579.95
2188.08661	12579.65
2191.02278	12589.15
2193.95707	12572.45
2196.88948	12576.85
2199.82001	12566.95
2202.74867	12574.05
2205.67545	12589.55
2208.60037	12545.05
2211.52341	12534.85
2214.44458	12541.05
2217.36388	12489.05
2220.28132	12464.55
2223.1969	12465.65
2226.11061	12454.05
2229.02246	12458.45
2231.93245	12444.45
2234.84058	12425.25
2237.74686	12414.25
2240.65128	12398.65
2243.55385	12361.55
2246.45456	12362.95
2249.35343	12350.35
2252.25044	12322.75
2255.14561	12285.35
2258.03893	12301.25
2260.93041	12284.95
2263.82004	12228.75
2266.70783	12228.85
2269.59378	12211.55
2272.4779	12175.35
2275.36017	12161.25
2278.24061	12154.15
2281.11922	12119.75
2283.996	12135.85
2286.87094	12098.65
2289.74405	12094.95
2292.61534	12082.95
2295.4848	12109.15
2298.35243	12124.15
2301.21824	12099.85
2304.08223	12111.35
2306.94439	12120.55
2309.80474	12119.55
2312.66327	12143.85
2315.51999	12086.35
2318.37489	12133.35
2321.22797	12113.45
2324.07925	12106.35
2326.92871	12057.55
2329.77637	12060.65
2332.62222	12065.25
2335.46626	12053.85
2338.3085	12039.65
2341.14893	12066.85
2343.98756	12074.05
2346.8244	12021.85
2349.65943	12052.35
2352.49267	12007.55
2355.32411	12002.45
2358.15376	12012.05
2360.98161	12019.35
2363.80768	11992.05
2366.63195	11971.55
2369.45444	11976.55
2372.27514	11955.75
2375.09405	11939.45
2377.91118	11904.95
2380.72652	11867.25
2383.54009	11900.45
2386.35187	11885.85
2389.16188	11832.85
2391.97011	11817.85
2394.77657	11815.65
2397.58125	11787.65
2400.38416	11771.45
2403.18529	11755.65
2405.98466	11742.15
2408.78226	11734.45
2411.57809	11704.15
2414.37216	11681.55
2417.16446	11692.25
2419.955	11674.55
2422.74378	11684.85
2425.5308	11659.65
2428.31606	11665.25
2431.09956	11667.15
2433.88131	11647.85
2436.6613	11645.95
2439.43954	11642.25
2442.21603	11651.35
2444.99077	11653.35
2447.76377	11630.75
2450.53501	11647.85
2453.30451	11644.45
2456.07226	11631.25
2458.83827	11629.25
2461.60254	11648.55
2464.36507	11639.85
2467.12586	11627.15
2469.88492	11610.45
2472.64224	11634.15
2475.39782	11658.25
2478.15167	11636.85
2480.90379	11631.25
2483.65417	11660.65
2486.40283	11632.15
2489.14976	11660.55
2491.89497	11644.75
2494.63845	11644.75
2497.3802	11632.15
2500.12024	11625.05
2502.85855	11619.65
2505.59514	11621.85
2508.33002	11625.45
2511.06318	11597.35
2513.79462	11607.45
2516.52435	11601.35
2519.25237	11593.45
2521.97867	11585.05
2524.70327	11575.35
2527.42616	11564.65
2530.14734	11559.25
2532.86681	11560.25
2535.58458	11546.85
2538.30065	11567.65
2541.01501	11562.35
2543.72768	11524.25
2546.43864	11528.55
2549.14791	11541.55
2551.85548	11516.95
2554.56136	11497.45
2557.26554	11473.15
2559.96803	11463.75
2562.66883	11468.75
2565.36794	11476.45
2568.06536	11486.85
2570.7611	11444.85
2573.45514	11449.45
2576.14751	11474.65
2578.83819	11433.25
2581.52719	11422.15
2584.21451	11409.45
2586.90015	11422.05
2589.58411	11402.55
2592.2664	11393.35
2594.94701	11376.85
2597.62594	11372.55
2600.30321	11367.95
2602.9788	11376.05
2605.65273	11334.35
2608.32498	11315.45
2610.99557	11314.95
2613.66449	11330.75
2616.33175	11306.65
2618.99734	11335.85
2621.66128	11292.35
2624.32355	11288.55
2626.98416	11304.15
2629.64311	11276.05
2632.30041	11299.05
2634.95605	11266.05
2637.61004	11223.55
2640.26238	11221.55
2642.91306	11245.35
2645.56209	11223.45
2648.20948	11212.55
2650.85521	11219.25
2653.4993	11217.55
2656.14175	11243.35
2658.78255	11248.35
2661.42171	11251.25
2664.05923	11288.35
2666.6951	11291.85
2669.32934	11301.45
2671.96194	11284.05
2674.59291	11305.25
2677.22224	11269.35
2679.84993	11294.85
2682.476	11262.65
2685.10043	11254.15
2687.72324	11240.05
2690.34441	11235.45
2692.96396	11262.75
2695.58188	11236.55
2698.19818	11238.65
2700.81285	11244.85
2703.4259	11220.55
2706.03733	11230.55
2708.64714	11219.45
2711.25533	11228.25
2713.86191	11271.85
2716.46687	11278.25
2719.07021	11290.85
2721.67194	11310.35
2724.27206	11279.75
2726.87057	11322.55
2729.46747	11301.55
2732.06276	11310.65
2734.65644	11283.55
2737.24852	11307.65
2739.83899	11299.05
2742.42786	11293.85
2745.01513	11283.75
2747.60079	11269.85
2750.18486	11289.95
2752.76733	11273.05
2755.3482	11253.95
2757.92747	11274.35
2760.50515	11269.25
2763.08123	11257.05
2765.65573	11232.35
2768.22863	11249.75
2770.79994	11221.75
2773.36967	11243.45
2775.9378	11254.95
2778.50435	11251.35
2781.06932	11210.35
2783.6327	11235.85
2786.1945	11247.65
2788.75471	11200.55
2791.31335	11192.65
2793.87041	11183.65
2796.42589	11160.25
2798.97979	11154.45
2801.53212	11124.15
2804.08288	11147.85
2806.63206	11101.25
2809.17967	11084.35
2811.72571	11063.65
2814.27018	11042.55
2816.81308	11020.15
2819.35442	11014.25
2821.89419	10974.35
2824.43239	10979.15
2826.96904	10982.55
2829.50412	10988.55
2832.03763	10967.05
2834.56959	10978.45
2837.1	10985.85
2839.62884	10979.05
2842.15613	10946.15
2844.68186	10992.75
2847.20604	11017.35
2849.72867	10988.35
2852.24974	10959.75
2854.76927	10983.35
2857.28724	10944.95
2859.80367	10956.05
2862.31855	10945.85
2864.83189	10949.55
2867.34368	10949.95
2869.85393	10941.35
2872.36264	10921.45
2874.8698	10933.85
2877.37543	10909.85
2879.87952	10922.55
2882.38207	10942.35
2884.88308	10944.65
2887.38256	10952.75
2889.88051	10950.75
2892.37692	10944.65
2894.8718	10985.35
2897.36515	10989.05
2899.85698	10987.65
2902.34727	10990.85
2904.83604	11001.05
2907.32328	11031.45
2909.809	11010.25
2912.29319	11043.65
2914.77587	11027.05
2917.25702	11000.65
2919.73665	11004.55
2922.21476	11009.65
2924.69136	10979.05
2927.16644	10987.85
2929.64	10984.85
2932.11205	10976.95
2934.58258	10941.75
2937.05161	10937.55
2939.51912	10948.65
2941.98513	10928.55
2944.44962	10915.55
2946.91261	10893.95
2949.37409	10892.15
2951.83407	10873.55
2954.29254	10858.35
2956.74951	10851.65
2959.20498	10843.65
2961.65895	10852.75
2964.11142	10831.85
2966.56239	10845.95
2969.01186	10826.45
2971.45984	10798.25
2973.90632	10774.35
2976.35131	10782.65
2978.7948	10743.15
2981.23681	10689.45
2983.67732	10713.05
2986.11635	10697.25
2988.55388	10640.85
2990.98993	10620.45
2993.4245	10584.35
2995.85758	10578.15
2998.28917	10554.45
3000.71928	10530.45
3003.14791	10521.65
3005.57506	10509.35
3008.00073	10508.15
3010.42493	10514.55
3012.84764	10478.45
3015.26888	10465.55
3017.68865	10450.75
3020.10694	10440.55
3022.52376	10432.35
3024.9391	10427.35
3027.35298	10415.25
3029.76539	10393.95
3032.17632	10376.35
3034.5858	10376.65
3036.9938	10372.95
3039.40034	10362.95
3041.80542	10381.05
3044.20903	10352.25
3046.61118	10357.25
3049.01187	10331.85
3051.4111	10314.25
3053.80888	10290.05
3056.20519	10290.85
3058.60005	10273.85
3060.99345	10248.15
3063.3854	10218.75
3065.7759	10208.65
3068.16494	10196.25
3070.55254	10172.95
3072.93868	10154.75
3075.32338	10132.85
3077.70662	10133.25
3080.08842	10090.15
3082.46878	10103.25
3084.84769	10092.65
3087.22515	10085.95
3089.60118	10087.85
3091.97576	10099.55
3094.3489	10097.95
3096.72061	10098.65
3099.09087	10113.45
3101.4597	10090.55
3103.82709	10092.85
3106.19305	10042.95
3108.55757	10067.35
3110.92066	10039.65
3113.28232	10036.65
3115.64255	9994.05
3118.00134	10007.95
3120.35871	9980.95
3122.71466	9977.15
3125.06917	9975.55
3127.42226	9959.15
3129.77393	9929.45
3132.12417	9924.35
3134.47299	9933.95
3136.82039	9933.95
3139.16636	9929.65
3141.51092	9947.45
3143.85406	9940.65
3146.19579	9968.55
3148.53609	9955.95
3150.87499	9990.05
3153.21246	9965.55
3155.54853	9969.75
3157.88318	9975.55
3160.21642	9981.05
3162.54826	9968.15
3164.87868	9941.55
3167.2077	9968.35
3169.5353	9980.35
3171.86151	9984.65
3174.18631	9972.95
3176.5097	9980.05
3178.83169	9951.35
3181.15228	9959.05
3183.47147	9926.35
3185.78926	9910.65
3188.10565	9925.35
3190.42065	9907.35
3192.73424	9906.55
3195.04645	9879.95
3197.35725	9912.65
3199.66667	9904.75
3201.97469	9913.85
3204.28132	9914.05
3206.58656	9896.25
3208.8904	9929.35
3211.19287	9922.65
3213.49394	9938.25
3215.79363	9938.35
3218.09193	9946.35
3220.38884	9934.95
3222.68438	9927.95
3224.97853	9902.15
3227.2713	9924.35
3229.56269	9887.75
3231.8527	9918.15
3234.14133	9896.85
3236.42858	9861.35
3238.71446	9873.25
3240.99896	9843.35
3243.28209	9852.15
3245.56384	9830.85
3247.84423	9812.25
3250.12324	9815.55
3252.40088	9798.85
3254.67715	9801.85
3256.95205	9780.65
3259.22558	9791.15
3261.49775	9809.25
3263.76855	9771.95
3266.03799	9736.15
3268.30606	9770.95
3270.57277	9750.85
3272.83812	9724.05
3275.10211	9700.35
3277.36474	9663.95
3279.62601	9689.45
3281.88593	9627.85
3284.14448	9669.55
3286.40168	9688.95
3288.65753	9704.65
3290.91202	9664.75
3293.16516	9632.35
3295.41695	9638.45
3297.66738	9564.85
3299.91647	9548.55
3302.16421	9469.15
3304.4106	9445.25
3306.65564	9367.15
3308.89933	9350.45
3311.14169	9281.25
3313.38269	9195.15
3315.62236	9129.55
3317.86068	9058.15
3320.09766	8992.15
3322.3333	8942.75
3324.5676	8945.55
3326.80056	8796.35
3329.03219	8725.45
3331.26248	1.95
3333.49143	-0.25
3335.71905	-0.75
