Data from AgNPs_FTO_APTES_UA_1uM_CRN_200uM_R6G_10uM_NaF_0.1M_Addition_RamanShift__13__17-20-09-830.txt Node

Date: Thu Jan 27 17:20:09 GMT 2022
User: TCL
Spectrometer: QEP01345
Trigger mode: 4
Integration Time (sec): 7.000000E0
Scans to average: 10
Electric dark correction enabled: true
Nonlinearity correction enabled: false
Boxcar width: 0
XAxis mode: Raman Shifts
Number of Pixels in Spectrum: 1044
>>>>>Begin Spectral Data<<<<<
46.04893	0.75
50.45542	1.05
54.85868	-1.45
59.25871	-0.95
63.6555	38.85
68.04907	43.35
72.43941	46.05
76.82654	47.75
81.21044	49.55
85.59113	50.65
89.96862	51.75
94.34289	54.95
98.71396	57.25
103.08183	59.05
107.4465	62.65
111.80798	61.25
116.16626	61.75
120.52136	65.95
124.87327	69.25
129.222	70.45
133.56755	67.95
137.90993	70.85
142.24913	76.65
146.58517	86.65
150.91804	96.15
155.24774	109.15
159.57429	133.95
163.89768	164.15
168.21792	212.85
172.53501	286.65
176.84895	398.25
181.15975	551.25
185.46741	771.25
189.77193	1055.25
194.07331	1425.75
198.37157	1857.65
202.6667	2305.25
206.9587	2752.35
211.24758	3178.15
215.53334	3621.25
219.81599	4076.45
224.09553	4553.55
228.37195	5094.25
232.64527	5687.25
236.91549	6327.35
241.18261	6982.15
245.44663	7587.05
249.70755	8189.05
253.96539	8706.05
258.22014	9132.05
262.4718	9464.95
266.72039	9688.45
270.96589	9789.15
275.20832	9799.45
279.44768	9738.35
283.68397	9604.95
287.91719	9462.25
292.14735	9367.55
296.37445	9265.25
300.59849	9264.15
304.81948	9233.05
309.03742	9219.85
313.25231	9159.65
317.46415	9020.55
321.67296	8873.85
325.87872	8762.25
330.08145	8694.45
334.28114	8718.85
338.47781	8776.55
342.67145	8879.85
346.86207	9027.25
351.04966	9159.25
355.23424	9307.85
359.4158	9418.95
363.59435	9538.45
367.76989	9612.75
371.94243	9713.35
376.11196	9764.85
380.27849	9822.25
384.44203	9876.95
388.60257	9917.75
392.76012	9998.95
396.91468	10059.15
401.06626	10197.55
405.21485	10289.65
409.36047	10283.35
413.50311	10205.85
417.64277	10108.35
421.77947	10064.55
425.9132	10105.95
430.04396	10081.25
434.17176	10155.15
438.2966	10210.95
442.41849	10300.15
446.53742	10381.05
450.6534	10472.75
454.76644	10580.65
458.87653	10598.75
462.98368	10664.75
467.08789	10636.75
471.18916	10562.65
475.2875	10528.25
479.38291	10494.25
483.4754	10428.85
487.56496	10385.15
491.6516	10349.65
495.73531	10346.45
499.81612	10352.65
503.89401	10414.55
507.96899	10439.85
512.04106	10469.55
516.11023	10489.05
520.1765	10505.35
524.23987	10453.05
528.30034	10384.25
532.35792	10357.45
536.41261	10270.15
540.46441	10249.45
544.51333	10221.55
548.55936	10262.25
552.60252	10357.85
556.64279	10472.55
560.6802	10481.25
564.71473	10519.05
568.7464	10563.55
572.7752	10616.85
576.80114	10721.85
580.82422	10840.15
584.84444	10998.45
588.86181	11148.35
592.87633	11226.25
596.888	11201.05
600.89682	11124.65
604.9028	11268.65
608.90594	11861.25
612.90624	12652.15
616.90371	12377.95
620.89834	11138.85
624.89015	10536.75
628.87913	10426.25
632.86528	10482.75
636.84862	10581.25
640.82913	10555.95
644.80683	10417.25
648.78172	10320.65
652.75379	10301.85
656.72306	10381.55
660.68952	10493.25
664.65319	10495.35
668.61405	10427.35
672.57211	10393.35
676.52738	10436.75
680.47986	10475.45
684.42955	10456.85
688.37646	10445.95
692.32058	10411.05
696.26192	10420.05
700.20048	10464.35
704.13626	10504.15
708.06928	10500.35
711.99952	10495.55
715.927	10468.25
719.85171	10459.65
723.77365	10442.85
727.69284	10389.25
731.60928	10349.55
735.52295	10324.25
739.43388	10324.15
743.34206	10326.15
747.24749	10363.55
751.15017	10400.65
755.05012	10441.85
758.94733	10587.25
762.8418	10838.45
766.73354	11259.95
770.62254	11792.15
774.50882	12030.95
778.39237	11833.35
782.27321	11340.25
786.15132	10881.85
790.02671	10558.85
793.89938	10380.25
797.76935	10345.55
801.6366	10286.85
805.50115	10258.05
809.36299	10220.15
813.22213	10201.35
817.07857	10199.15
820.93231	10176.65
824.78336	10181.85
828.63172	10189.35
832.47738	10185.15
836.32036	10190.65
840.16066	10175.95
843.99827	10174.25
847.8332	10144.65
851.66546	10150.15
855.49504	10166.35
859.32195	10169.65
863.1462	10147.85
866.96777	10187.75
870.78668	10157.75
874.60293	10188.85
878.41652	10162.45
882.22745	10192.95
886.03573	10209.15
889.84136	10236.25
893.64433	10258.45
897.44466	10217.85
901.24235	10169.75
905.0374	10116.05
908.8298	10135.25
912.61957	10141.95
916.40671	10146.35
920.19121	10189.05
923.97308	10212.25
927.75233	10256.75
931.52895	10254.55
935.30295	10191.05
939.07433	10089.35
942.84309	10000.05
946.60924	9940.55
950.37278	9901.45
954.13371	9861.85
957.89203	9845.25
961.64774	9818.45
965.40086	9813.25
969.15137	9791.35
972.89929	9748.65
976.64461	9745.95
980.38733	9730.05
984.12747	9710.15
987.86502	9731.45
991.59999	9738.65
995.33237	9757.35
999.06217	9815.25
1002.78939	9858.05
1006.51404	9931.95
1010.23611	9997.95
1013.95561	10055.45
1017.67255	10074.45
1021.38692	10054.05
1025.09872	10006.15
1028.80796	9949.65
1032.51465	9919.15
1036.21877	9895.15
1039.92035	9929.25
1043.61937	9956.15
1047.31584	9989.85
1051.00976	10030.35
1054.70114	10056.75
1058.38998	10058.95
1062.07627	10106.55
1065.76003	10179.35
1069.44126	10237.15
1073.11995	10337.65
1076.79611	10426.35
1080.46974	10477.25
1084.14085	10456.85
1087.80943	10451.95
1091.47549	10447.95
1095.13903	10508.05
1098.80005	10454.15
1102.45857	10378.85
1106.11456	10236.85
1109.76805	10169.45
1113.41903	10135.65
1117.06751	10182.65
1120.71348	10245.95
1124.35696	10322.75
1127.99793	10447.25
1131.63641	10524.75
1135.2724	10408.95
1138.90589	10285.35
1142.5369	10195.35
1146.16542	10174.45
1149.79145	10157.15
1153.415	10120.85
1157.03607	10120.15
1160.65467	10216.05
1164.27079	10340.15
1167.88443	10551.25
1171.49561	10821.85
1175.10432	11190.15
1178.71056	11675.35
1182.31434	12140.55
1185.91565	12401.85
1189.51451	12466.25
1193.11091	12310.45
1196.70485	12065.35
1200.29634	11747.65
1203.88538	11478.85
1207.47197	11217.85
1211.05612	10998.55
1214.63782	10850.85
1218.21708	10697.55
1221.79391	10586.15
1225.36829	10526.05
1228.94024	10472.25
1232.50976	10475.15
1236.07685	10481.45
1239.6415	10466.25
1243.20374	10472.65
1246.76355	10475.05
1250.32093	10538.15
1253.8759	10590.95
1257.42845	10678.05
1260.97859	10815.05
1264.52631	10964.15
1268.07163	11067.85
1271.61453	11158.95
1275.15503	11299.45
1278.69312	11419.45
1282.22882	11488.85
1285.76211	11617.15
1289.29301	11728.85
1292.82151	11945.15
1296.34761	12176.75
1299.87133	12480.05
1303.39266	12807.95
1306.9116	13216.85
1310.42815	13640.35
1313.94233	13876.55
1317.45412	13798.15
1320.96354	13561.05
1324.47058	13332.95
1327.97525	13117.15
1331.47754	12958.55
1334.97747	12876.35
1338.47502	12896.75
1341.97022	12966.65
1345.46305	13119.55
1348.95352	13319.85
1352.44163	13548.65
1355.92738	13873.15
1359.41078	14310.35
1362.89183	14721.15
1366.37053	14649.95
1369.84688	13813.85
1373.32088	12797.45
1376.79254	11961.45
1380.26186	11500.15
1383.72883	11213.95
1387.19347	11058.25
1390.65578	10849.05
1394.11575	10735.35
1397.57339	10642.45
1401.0287	10637.25
1404.48168	10655.35
1407.93234	10643.95
1411.38068	10594.15
1414.82669	10518.55
1418.27039	10429.45
1421.71177	10295.25
1425.15083	10150.45
1428.58758	10073.25
1432.02203	10053.45
1435.45416	10079.95
1438.88399	10124.65
1442.31151	10134.65
1445.73673	10172.05
1449.15965	10182.05
1452.58027	10258.65
1455.9986	10259.45
1459.41463	10296.45
1462.82837	10367.85
1466.23982	10481.85
1469.64898	10620.25
1473.05586	10712.95
1476.46045	10818.85
1479.86276	10864.55
1483.26279	10917.95
1486.66054	11021.65
1490.05602	11174.75
1493.44922	11378.35
1496.84016	11719.85
1500.22882	12170.95
1503.61521	12799.65
1506.99934	13405.85
1510.38121	13841.95
1513.76081	13827.75
1517.13816	13407.05
1520.51324	12748.45
1523.88607	12145.95
1527.25665	11790.95
1530.62498	11546.55
1533.99105	11398.65
1537.35488	11236.95
1540.71647	11094.95
1544.07581	10987.15
1547.4329	10903.05
1550.78776	10786.15
1554.14038	10720.95
1557.49077	10713.55
1560.83892	10712.75
1564.18484	10767.95
1567.52853	10851.35
1570.86999	10983.75
1574.20922	11074.75
1577.54624	11091.85
1580.88103	10954.55
1584.2136	10751.15
1587.54395	10624.55
1590.87208	10652.95
1594.19801	10833.95
1597.52172	11125.15
1600.84321	11282.65
1604.16251	11180.05
1607.47959	10907.65
1610.79447	10610.95
1614.10715	10251.85
1617.41763	9899.65
1620.7259	9639.25
1624.03199	9454.75
1627.33587	9375.15
1630.63757	9391.55
1633.93707	9516.65
1637.23439	9775.05
1640.52951	10214.95
1643.82246	10841.75
1647.11321	11560.65
1650.40179	12023.45
1653.68819	11893.15
1656.97241	11224.85
1660.25446	10355.85
1663.53433	9666.15
1666.81203	9231.75
1670.08756	8924.65
1673.36092	8752.75
1676.63211	8651.45
1679.90115	8587.65
1683.16801	8510.95
1686.43272	8450.25
1689.69527	8404.25
1692.95567	8363.45
1696.2139	8305.95
1699.46999	8249.65
1702.72392	8240.95
1705.97571	8255.85
1709.22535	8254.65
1712.47284	8273.55
1715.71819	8295.65
1718.96139	8291.85
1722.20246	8277.55
1725.44139	8272.05
1728.67818	8237.65
1731.91284	8202.15
1735.14537	8190.95
1738.37576	8144.65
1741.60403	8112.65
1744.83017	8088.35
1748.05418	8092.05
1751.27607	8054.45
1754.49584	8039.45
1757.71349	8032.45
1760.92903	8019.75
1764.14244	8017.05
1767.35375	8025.25
1770.56294	7983.65
1773.77002	7971.75
1776.97499	7968.15
1780.17785	7962.35
1783.37861	7942.55
1786.57727	7961.15
1789.77382	7950.75
1792.96828	7911.55
1796.16064	7916.35
1799.3509	7868.95
1802.53907	7890.25
1805.72514	7840.75
1808.90913	7824.45
1812.09102	7807.05
1815.27083	7788.15
1818.44856	7796.85
1821.6242	7776.95
1824.79776	7744.25
1827.96924	7751.45
1831.13864	7739.65
1834.30597	7736.05
1837.47122	7723.15
1840.6344	7699.95
1843.7955	7713.15
1846.95454	7663.75
1850.11151	7707.55
1853.26642	7694.55
1856.41926	7683.55
1859.57004	7700.75
1862.71876	7664.25
1865.86542	7658.85
1869.01003	7659.75
1872.15258	7632.15
1875.29308	7634.75
1878.43152	7625.65
1881.56792	7595.85
1884.70227	7601.45
1887.83457	7556.15
1890.96482	7571.85
1894.09304	7554.85
1897.21921	7537.35
1900.34335	7520.75
1903.46544	7512.05
1906.58551	7505.35
1909.70353	7479.95
1912.81953	7460.45
1915.93349	7484.45
1919.04543	7447.25
1922.15534	7443.75
1925.26322	7443.15
1928.36908	7439.85
1931.47292	7390.05
1934.57473	7384.05
1937.67453	7378.85
1940.77232	7359.35
1943.86808	7316.35
1946.96184	7296.35
1950.05358	7264.85
1953.14331	7259.05
1956.23103	7218.45
1959.31675	7218.55
1962.40046	7211.85
1965.48217	7184.15
1968.56188	7160.75
1971.63959	7127.95
1974.7153	7097.45
1977.78901	7090.65
1980.86073	7067.55
1983.93046	7048.35
1986.99819	7033.25
1990.06394	7003.65
1993.1277	6961.05
1996.18947	6947.55
1999.24925	6951.25
2002.30706	6922.85
2005.36288	6888.85
2008.41672	6868.35
2011.46859	6864.15
2014.51848	6821.35
2017.56639	6814.15
2020.61233	6799.25
2023.6563	6759.95
2026.6983	6749.05
2029.73833	6734.65
2032.7764	6735.55
2035.8125	6683.85
2038.84664	6665.55
2041.87881	6686.85
2044.90903	6645.15
2047.93729	6634.55
2050.96359	6622.75
2053.98794	6602.95
2057.01034	6617.15
2060.03078	6609.05
2063.04927	6585.95
2066.06582	6584.45
2069.08042	6597.35
2072.09307	6587.45
2075.10378	6585.15
2078.11255	6574.65
2081.11938	6547.15
2084.12426	6555.25
2087.12722	6560.95
2090.12824	6551.95
2093.12732	6550.05
2096.12447	6551.05
2099.11969	6548.15
2102.11299	6570.35
2105.10435	6558.05
2108.09379	6551.35
2111.08131	6550.25
2114.0669	6555.85
2117.05057	6569.15
2120.03233	6570.25
2123.01216	6572.65
2125.99008	6575.55
2128.96609	6583.45
2131.94018	6582.15
2134.91236	6572.75
2137.88263	6590.55
2140.851	6555.15
2143.81746	6596.05
2146.78201	6585.85
2149.74466	6564.55
2152.7054	6597.55
2155.66425	6588.95
2158.6212	6569.65
2161.57625	6571.45
2164.52941	6570.85
2167.48067	6571.75
2170.43004	6556.85
2173.37752	6584.15
2176.32311	6580.25
2179.26681	6560.75
2182.20863	6538.05
2185.14856	6525.05
2188.08661	6540.85
2191.02278	6536.35
2193.95707	6529.65
2196.88948	6530.15
2199.82001	6511.75
2202.74867	6498.75
2205.67545	6504.05
2208.60037	6505.45
2211.52341	6476.25
2214.44458	6465.25
2217.36388	6456.65
2220.28132	6449.65
2223.1969	6431.85
2226.11061	6416.45
2229.02246	6394.95
2231.93245	6394.05
2234.84058	6390.35
2237.74686	6354.35
2240.65128	6336.55
2243.55385	6344.85
2246.45456	6323.05
2249.35343	6311.15
2252.25044	6317.95
2255.14561	6304.35
2258.03893	6308.95
2260.93041	6275.05
2263.82004	6273.05
2266.70783	6252.85
2269.59378	6232.35
2272.4779	6226.75
2275.36017	6215.35
2278.24061	6200.85
2281.11922	6192.45
2283.996	6165.75
2286.87094	6153.05
2289.74405	6137.25
2292.61534	6134.35
2295.4848	6116.25
2298.35243	6136.55
2301.21824	6116.85
2304.08223	6125.35
2306.94439	6090.45
2309.80474	6092.05
2312.66327	6087.75
2315.51999	6063.95
2318.37489	6077.75
2321.22797	6070.95
2324.07925	6050.05
2326.92871	6056.65
2329.77637	6036.05
2332.62222	6013.75
2335.46626	6006.25
2338.3085	5987.65
2341.14893	6004.85
2343.98756	5982.85
2346.8244	5972.25
2349.65943	5970.65
2352.49267	5953.95
2355.32411	5952.45
2358.15376	5953.15
2360.98161	5951.45
2363.80768	5941.05
2366.63195	5950.05
2369.45444	5949.45
2372.27514	5925.25
2375.09405	5917.65
2377.91118	5903.25
2380.72652	5906.45
2383.54009	5870.45
2386.35187	5860.05
2389.16188	5830.55
2391.97011	5843.55
2394.77657	5826.25
2397.58125	5806.25
2400.38416	5794.75
2403.18529	5795.85
2405.98466	5786.05
2408.78226	5773.55
2411.57809	5751.15
2414.37216	5739.85
2417.16446	5739.55
2419.955	5723.05
2422.74378	5743.35
2425.5308	5740.65
2428.31606	5727.15
2431.09956	5737.05
2433.88131	5727.25
2436.6613	5700.25
2439.43954	5693.05
2442.21603	5698.25
2444.99077	5690.05
2447.76377	5678.35
2450.53501	5664.05
2453.30451	5673.25
2456.07226	5663.85
2458.83827	5650.75
2461.60254	5657.55
2464.36507	5639.75
2467.12586	5620.85
2469.88492	5622.65
2472.64224	5617.85
2475.39782	5609.65
2478.15167	5588.35
2480.90379	5585.35
2483.65417	5606.95
2486.40283	5592.65
2489.14976	5589.95
2491.89497	5571.25
2494.63845	5570.85
2497.3802	5554.55
2500.12024	5561.55
2502.85855	5555.25
2505.59514	5539.65
2508.33002	5538.65
2511.06318	5542.25
2513.79462	5539.15
2516.52435	5511.65
2519.25237	5509.95
2521.97867	5509.35
2524.70327	5481.05
2527.42616	5480.25
2530.14734	5462.45
2532.86681	5468.25
2535.58458	5445.95
2538.30065	5424.95
2541.01501	5430.15
2543.72768	5418.65
2546.43864	5410.35
2549.14791	5404.75
2551.85548	5396.75
2554.56136	5386.35
2557.26554	5368.25
2559.96803	5356.55
2562.66883	5362.65
2565.36794	5349.35
2568.06536	5330.95
2570.7611	5327.15
2573.45514	5310.95
2576.14751	5310.05
2578.83819	5290.75
2581.52719	5283.25
2584.21451	5268.65
2586.90015	5260.55
2589.58411	5248.55
2592.2664	5237.05
2594.94701	5222.45
2597.62594	5214.75
2600.30321	5214.25
2602.9788	5190.25
2605.65273	5178.85
2608.32498	5189.15
2610.99557	5167.65
2613.66449	5162.35
2616.33175	5136.95
2618.99734	5143.25
2621.66128	5146.15
2624.32355	5122.05
2626.98416	5125.25
2629.64311	5113.65
2632.30041	5093.15
2634.95605	5087.85
2637.61004	5065.35
2640.26238	5080.35
2642.91306	5067.75
2645.56209	5046.15
2648.20948	5045.55
2650.85521	5049.25
2653.4993	5063.95
2656.14175	5047.55
2658.78255	5064.65
2661.42171	5031.85
2664.05923	5060.55
2666.6951	5046.55
2669.32934	5062.75
2671.96194	5040.75
2674.59291	5025.05
2677.22224	5033.85
2679.84993	5020.65
2682.476	5041.25
2685.10043	5019.65
2687.72324	5027.95
2690.34441	5020.85
2692.96396	5023.45
2695.58188	5023.35
2698.19818	5001.95
2700.81285	5024.05
2703.4259	4999.25
2706.03733	4996.35
2708.64714	4993.35
2711.25533	5012.65
2713.86191	4993.15
2716.46687	5015.65
2719.07021	5009.65
2721.67194	5013.15
2724.27206	5015.85
2726.87057	5021.75
2729.46747	5005.55
2732.06276	4999.35
2734.65644	4983.65
2737.24852	4981.05
2739.83899	4963.45
2742.42786	4987.45
2745.01513	4966.55
2747.60079	4959.75
2750.18486	4955.05
2752.76733	4952.05
2755.3482	4919.35
2757.92747	4930.05
2760.50515	4915.05
2763.08123	4913.45
2765.65573	4903.35
2768.22863	4907.85
2770.79994	4900.25
2773.36967	4882.65
2775.9378	4872.65
2778.50435	4885.15
2781.06932	4864.75
2783.6327	4862.55
2786.1945	4842.25
2788.75471	4832.05
2791.31335	4806.65
2793.87041	4824.05
2796.42589	4826.95
2798.97979	4808.55
2801.53212	4800.65
2804.08288	4795.05
2806.63206	4785.75
2809.17967	4766.35
2811.72571	4742.85
2814.27018	4738.75
2816.81308	4744.85
2819.35442	4711.15
2821.89419	4714.15
2824.43239	4719.65
2826.96904	4693.05
2829.50412	4703.05
2832.03763	4719.45
2834.56959	4705.15
2837.1	4695.85
2839.62884	4706.35
2842.15613	4721.95
2844.68186	4736.05
2847.20604	4740.25
2849.72867	4770.95
2852.24974	4749.95
2854.76927	4738.95
2857.28724	4713.05
2859.80367	4718.95
2862.31855	4714.55
2864.83189	4700.95
2867.34368	4700.35
2869.85393	4698.15
2872.36264	4696.35
2874.8698	4682.05
2877.37543	4674.65
2879.87952	4684.65
2882.38207	4682.05
2884.88308	4675.15
2887.38256	4678.95
2889.88051	4668.25
2892.37692	4644.65
2894.8718	4645.75
2897.36515	4673.35
2899.85698	4654.45
2902.34727	4689.55
2904.83604	4674.15
2907.32328	4675.15
2909.809	4669.55
2912.29319	4676.95
2914.77587	4676.65
2917.25702	4677.35
2919.73665	4667.05
2922.21476	4672.55
2924.69136	4656.85
2927.16644	4663.85
2929.64	4664.55
2932.11205	4657.65
2934.58258	4637.45
2937.05161	4652.15
2939.51912	4664.75
2941.98513	4646.75
2944.44962	4619.95
2946.91261	4612.05
2949.37409	4613.15
2951.83407	4600.75
2954.29254	4581.15
2956.74951	4587.75
2959.20498	4599.55
2961.65895	4585.05
2964.11142	4575.75
2966.56239	4552.15
2969.01186	4553.45
2971.45984	4537.25
2973.90632	4531.45
2976.35131	4513.85
2978.7948	4532.35
2981.23681	4503.75
2983.67732	4505.25
2986.11635	4504.05
2988.55388	4466.45
2990.98993	4473.75
2993.4245	4460.85
2995.85758	4446.25
2998.28917	4442.85
3000.71928	4429.95
3003.14791	4425.05
3005.57506	4413.75
3008.00073	4412.85
3010.42493	4387.15
3012.84764	4403.75
3015.26888	4396.95
3017.68865	4401.35
3020.10694	4377.45
3022.52376	4363.65
3024.9391	4384.35
3027.35298	4378.45
3029.76539	4360.95
3032.17632	4342.45
3034.5858	4358.45
3036.9938	4351.25
3039.40034	4350.65
3041.80542	4326.35
3044.20903	4334.55
3046.61118	4326.05
3049.01187	4312.15
3051.4111	4318.15
3053.80888	4305.75
3056.20519	4303.15
3058.60005	4296.25
3060.99345	4292.85
3063.3854	4275.85
3065.7759	4279.05
3068.16494	4284.25
3070.55254	4273.45
3072.93868	4258.75
3075.32338	4256.75
3077.70662	4249.05
3080.08842	4242.65
3082.46878	4249.65
3084.84769	4245.35
3087.22515	4244.85
3089.60118	4237.65
3091.97576	4228.45
3094.3489	4251.05
3096.72061	4249.65
3099.09087	4244.15
3101.4597	4230.55
3103.82709	4259.15
3106.19305	4254.25
3108.55757	4247.75
3110.92066	4252.25
3113.28232	4235.35
3115.64255	4230.75
3118.00134	4234.65
3120.35871	4228.45
3122.71466	4226.65
3125.06917	4223.65
3127.42226	4206.65
3129.77393	4224.15
3132.12417	4212.05
3134.47299	4217.05
3136.82039	4223.45
3139.16636	4233.85
3141.51092	4228.35
3143.85406	4222.85
3146.19579	4230.85
3148.53609	4253.15
3150.87499	4279.75
3153.21246	4266.95
3155.54853	4275.75
3157.88318	4283.55
3160.21642	4289.25
3162.54826	4280.95
3164.87868	4288.35
3167.2077	4285.65
3169.5353	4296.55
3171.86151	4291.95
3174.18631	4288.55
3176.5097	4287.35
3178.83169	4274.55
3181.15228	4274.65
3183.47147	4293.85
3185.78926	4281.85
3188.10565	4272.65
3190.42065	4287.85
3192.73424	4280.25
3195.04645	4288.35
3197.35725	4290.45
3199.66667	4292.45
3201.97469	4287.15
3204.28132	4266.65
3206.58656	4291.85
3208.8904	4309.85
3211.19287	4288.85
3213.49394	4305.85
3215.79363	4308.85
3218.09193	4303.55
3220.38884	4306.55
3222.68438	4313.75
3224.97853	4300.45
3227.2713	4306.95
3229.56269	4291.65
3231.8527	4319.15
3234.14133	4293.15
3236.42858	4298.15
3238.71446	4289.25
3240.99896	4277.75
3243.28209	4266.35
3245.56384	4270.55
3247.84423	4277.55
3250.12324	4250.05
3252.40088	4260.05
3254.67715	4267.05
3256.95205	4272.25
3259.22558	4281.15
3261.49775	4256.85
3263.76855	4252.15
3266.03799	4237.85
3268.30606	4227.85
3270.57277	4232.15
3272.83812	4215.55
3275.10211	4209.15
3277.36474	4190.55
3279.62601	4205.65
3281.88593	4183.65
3284.14448	4197.35
3286.40168	4188.15
3288.65753	4201.95
3290.91202	4207.75
3293.16516	4183.15
3295.41695	4175.95
3297.66738	4136.75
3299.91647	4128.75
3302.16421	4088.35
3304.4106	4084.75
3306.65564	4076.45
3308.89933	4057.75
3311.14169	4012.45
3313.38269	3998.75
3315.62236	3958.05
3317.86068	3941.65
3320.09766	3920.35
3322.3333	3872.75
3324.5676	3864.75
3326.80056	3795.25
3329.03219	3775.85
3331.26248	1.55
3333.49143	-0.65
3335.71905	-0.55
