Data from AgNPs_FTO_APTES_UA_1uM_CRN_0uM_R6G_10uM_NaF_0.1M_Addition_RamanShift__40__11-52-19-455.txt Node

Date: Thu Jan 27 11:52:19 GMT 2022
User: TCL
Spectrometer: QEP01345
Trigger mode: 4
Integration Time (sec): 7.000000E0
Scans to average: 10
Electric dark correction enabled: true
Nonlinearity correction enabled: false
Boxcar width: 0
XAxis mode: Raman Shifts
Number of Pixels in Spectrum: 1044
>>>>>Begin Spectral Data<<<<<
46.04893	0.35
50.45542	-0.15
54.85868	-0.15
59.25871	-1.75
63.6555	47.55
68.04907	51.35
72.43941	53.75
76.82654	56.15
81.21044	58.25
85.59113	60.25
89.96862	62.35
94.34289	65.15
98.71396	67.35
103.08183	67.65
107.4465	71.05
111.80798	72.05
116.16626	72.65
120.52136	78.95
124.87327	79.55
129.222	79.85
133.56755	83.45
137.90993	90.95
142.24913	100.15
146.58517	107.75
150.91804	127.95
155.24774	143.85
159.57429	179.05
163.89768	224.25
168.21792	300.75
172.53501	402.75
176.84895	547.45
181.15975	771.05
185.46741	1079.35
189.77193	1478.55
194.07331	1982.95
198.37157	2538.25
202.6667	3141.65
206.9587	3743.65
211.24758	4327.15
215.53334	4918.45
219.81599	5560.75
224.09553	6260.55
228.37195	7058.95
232.64527	7897.65
236.91549	8815.05
241.18261	9692.55
245.44663	10513.75
249.70755	11194.85
253.96539	11814.65
258.22014	12315.95
262.4718	12750.55
266.72039	13077.45
270.96589	13238.05
275.20832	13240.15
279.44768	13098.75
283.68397	12968.05
287.91719	12843.65
292.14735	12778.95
296.37445	12773.15
300.59849	12886.55
304.81948	13026.25
309.03742	13114.65
313.25231	13034.85
317.46415	12740.55
321.67296	12289.25
325.87872	11923.85
330.08145	11727.75
334.28114	11691.45
338.47781	11778.35
342.67145	11948.55
346.86207	12163.05
351.04966	12472.75
355.23424	12835.65
359.4158	13129.85
363.59435	13340.75
367.76989	13453.25
371.94243	13541.95
376.11196	13604.05
380.27849	13654.65
384.44203	13723.25
388.60257	13776.15
392.76012	13851.55
396.91468	14036.55
401.06626	14256.85
405.21485	14432.95
409.36047	14355.95
413.50311	14025.75
417.64277	13823.75
421.77947	13755.85
425.9132	13769.45
430.04396	13814.85
434.17176	13854.65
438.2966	13973.15
442.41849	14204.65
446.53742	14574.25
450.6534	15021.15
454.76644	15340.75
458.87653	15431.55
462.98368	15311.35
467.08789	15075.45
471.18916	14808.45
475.2875	14544.45
479.38291	14375.95
483.4754	14281.55
487.56496	14166.65
491.6516	13983.85
495.73531	13853.75
499.81612	13845.55
503.89401	13956.75
507.96899	14036.35
512.04106	14035.05
516.11023	13947.35
520.1765	13889.25
524.23987	13792.55
528.30034	13638.25
532.35792	13495.25
536.41261	13282.35
540.46441	13053.65
544.51333	12991.35
548.55936	13149.95
552.60252	13436.35
556.64279	13787.25
560.6802	13993.25
564.71473	14074.45
568.7464	14269.75
572.7752	14598.45
576.80114	14891.45
580.82422	15106.05
584.84444	15436.85
588.86181	15760.35
592.87633	16044.85
596.888	16146.25
600.89682	16035.45
604.9028	16544.75
608.90594	18362.05
612.90624	20529.85
616.90371	19554.15
620.89834	15893.85
624.89015	14146.35
628.87913	13952.55
632.86528	13970.55
636.84862	13850.65
640.82913	13570.45
644.80683	13188.95
648.78172	12878.65
652.75379	12771.85
656.72306	13004.35
660.68952	13281.85
664.65319	13251.25
668.61405	12924.05
672.57211	12811.45
676.52738	12830.35
680.47986	12808.25
684.42955	12709.85
688.37646	12636.55
692.32058	12677.45
696.26192	12830.95
700.20048	12988.35
704.13626	13092.35
708.06928	13045.45
711.99952	12955.95
715.927	12899.95
719.85171	12955.25
723.77365	12923.45
727.69284	12819.05
731.60928	12658.65
735.52295	12572.75
739.43388	12615.85
743.34206	12677.85
747.24749	12718.55
751.15017	12850.35
755.05012	13090.85
758.94733	13468.05
762.8418	14233.25
766.73354	15544.35
770.62254	16936.85
774.50882	17432.55
778.39237	16683.35
782.27321	15252.35
786.15132	14062.05
790.02671	13354.25
793.89938	13015.25
797.76935	12870.95
801.6366	12806.35
805.50115	12785.45
809.36299	12693.45
813.22213	12536.15
817.07857	12443.55
820.93231	12379.55
824.78336	12330.35
828.63172	12363.85
832.47738	12376.05
836.32036	12396.65
840.16066	12467.05
843.99827	12515.45
847.8332	12526.45
851.66546	12402.55
855.49504	12368.85
859.32195	12355.05
863.1462	12305.15
866.96777	12248.45
870.78668	12202.05
874.60293	12222.65
878.41652	12227.45
882.22745	12282.95
886.03573	12348.25
889.84136	12351.35
893.64433	12310.25
897.44466	12243.05
901.24235	12193.15
905.0374	12121.15
908.8298	12075.15
912.61957	12090.75
916.40671	12223.85
920.19121	12399.95
923.97308	12621.95
927.75233	12743.45
931.52895	12766.65
935.30295	12624.05
939.07433	12346.05
942.84309	12058.75
946.60924	11951.95
950.37278	11967.95
954.13371	11868.95
957.89203	11790.55
961.64774	11720.35
965.40086	11671.55
969.15137	11659.45
972.89929	11583.65
976.64461	11573.85
980.38733	11573.35
984.12747	11652.95
987.86502	11772.05
991.59999	11961.55
995.33237	12285.45
999.06217	12793.15
1002.78939	13361.25
1006.51404	13653.45
1010.23611	13796.15
1013.95561	13897.25
1017.67255	13872.35
1021.38692	13677.75
1025.09872	13538.95
1028.80796	13698.95
1032.51465	14244.65
1036.21877	14774.45
1039.92035	14858.85
1043.61937	14514.95
1047.31584	13989.35
1051.00976	13484.35
1054.70114	13202.65
1058.38998	13126.75
1062.07627	13151.25
1065.76003	13170.35
1069.44126	13222.35
1073.11995	13397.25
1076.79611	13654.95
1080.46974	13810.25
1084.14085	13948.45
1087.80943	14129.55
1091.47549	14204.25
1095.13903	14180.65
1098.80005	13901.25
1102.45857	13572.05
1106.11456	13285.55
1109.76805	13196.85
1113.41903	13277.85
1117.06751	13378.75
1120.71348	13531.95
1124.35696	13721.05
1127.99793	13946.35
1131.63641	14083.35
1135.2724	13987.95
1138.90589	13803.25
1142.5369	13700.25
1146.16542	13624.25
1149.79145	13610.95
1153.415	13692.45
1157.03607	13789.85
1160.65467	14147.75
1164.27079	14716.15
1167.88443	15588.25
1171.49561	16704.25
1175.10432	18229.65
1178.71056	20131.25
1182.31434	22071.05
1185.91565	23089.95
1189.51451	22983.95
1193.11091	22057.25
1196.70485	20801.05
1200.29634	19595.95
1203.88538	18688.55
1207.47197	17997.65
1211.05612	17438.05
1214.63782	17045.55
1218.21708	16885.75
1221.79391	16854.95
1225.36829	16939.05
1228.94024	16861.25
1232.50976	16511.15
1236.07685	16133.75
1239.6415	15907.15
1243.20374	15768.35
1246.76355	15801.25
1250.32093	16053.15
1253.8759	16449.45
1257.42845	17008.85
1260.97859	17585.05
1264.52631	18153.85
1268.07163	18785.65
1271.61453	19482.65
1275.15503	20195.35
1278.69312	20931.55
1282.22882	21508.95
1285.76211	21940.55
1289.29301	22404.25
1292.82151	23051.35
1296.34761	23947.25
1299.87133	25296.45
1303.39266	27039.15
1306.9116	29171.25
1310.42815	31381.05
1313.94233	32878.65
1317.45412	32942.75
1320.96354	31956.85
1324.47058	30690.45
1327.97525	29505.15
1331.47754	28615.15
1334.97747	28045.35
1338.47502	27615.15
1341.97022	27318.85
1345.46305	27007.65
1348.95352	26768.15
1352.44163	26876.25
1355.92738	27767.25
1359.41078	29606.65
1362.89183	31459.75
1366.37053	31409.45
1369.84688	28720.65
1373.32088	25107.45
1376.79254	22482.75
1380.26186	21226.25
1383.72883	20861.85
1387.19347	20687.05
1390.65578	20265.95
1394.11575	20099.15
1397.57339	20219.05
1401.0287	20656.85
1404.48168	21030.45
1407.93234	21145.05
1411.38068	20991.25
1414.82669	20495.25
1418.27039	19775.05
1421.71177	19034.15
1425.15083	18380.35
1428.58758	18034.15
1432.02203	18076.15
1435.45416	18475.75
1438.88399	18977.35
1442.31151	19364.45
1445.73673	19638.05
1449.15965	19858.45
1452.58027	19926.15
1455.9986	19892.15
1459.41463	20027.65
1462.82837	20337.95
1466.23982	20909.75
1469.64898	21394.65
1473.05586	21722.45
1476.46045	21792.15
1479.86276	21689.65
1483.26279	21464.75
1486.66054	21394.55
1490.05602	21381.15
1493.44922	21606.85
1496.84016	21855.35
1500.22882	22453.45
1503.61521	23379.35
1506.99934	24538.95
1510.38121	25639.55
1513.76081	26095.45
1517.13816	25404.55
1520.51324	23977.55
1523.88607	22490.05
1527.25665	21538.35
1530.62498	21030.05
1533.99105	20730.45
1537.35488	20539.25
1540.71647	20314.25
1544.07581	20038.65
1547.4329	19662.35
1550.78776	19347.35
1554.14038	19105.55
1557.49077	19012.25
1560.83892	18973.65
1564.18484	18955.15
1567.52853	19101.25
1570.86999	19274.75
1574.20922	19534.45
1577.54624	19735.05
1580.88103	19631.55
1584.2136	19497.45
1587.54395	19863.05
1590.87208	20894.45
1594.19801	22501.45
1597.52172	24274.75
1600.84321	24978.85
1604.16251	23927.35
1607.47959	21814.65
1610.79447	19618.05
1614.10715	17704.05
1617.41763	16238.95
1620.7259	15224.95
1624.03199	14749.15
1627.33587	14736.85
1630.63757	15220.75
1633.93707	16206.55
1637.23439	17831.25
1640.52951	20149.45
1643.82246	22762.95
1647.11321	24818.65
1650.40179	25296.15
1653.68819	23670.35
1656.97241	20450.55
1660.25446	17291.25
1663.53433	14925.85
1666.81203	13439.75
1670.08756	12582.45
1673.36092	12041.55
1676.63211	11677.85
1679.90115	11446.55
1683.16801	11262.95
1686.43272	11120.15
1689.69527	11006.45
1692.95567	10912.95
1696.2139	10821.75
1699.46999	10723.55
1702.72392	10675.55
1705.97571	10687.05
1709.22535	10711.35
1712.47284	10730.65
1715.71819	10752.45
1718.96139	10727.15
1722.20246	10671.65
1725.44139	10639.65
1728.67818	10610.75
1731.91284	10503.15
1735.14537	10446.15
1738.37576	10380.55
1741.60403	10365.85
1744.83017	10314.85
1748.05418	10261.85
1751.27607	10232.05
1754.49584	10205.05
1757.71349	10191.45
1760.92903	10172.15
1764.14244	10115.85
1767.35375	10109.35
1770.56294	10110.95
1773.77002	10077.15
1776.97499	10109.05
1780.17785	10120.25
1783.37861	10100.75
1786.57727	10131.25
1789.77382	10105.35
1792.96828	10092.75
1796.16064	10054.35
1799.3509	10040.15
1802.53907	10044.85
1805.72514	9981.45
1808.90913	9986.45
1812.09102	9954.85
1815.27083	9917.45
1818.44856	9907.95
1821.6242	9893.65
1824.79776	9910.85
1827.96924	9867.65
1831.13864	9870.85
1834.30597	9904.65
1837.47122	9897.65
1840.6344	9888.95
1843.7955	9907.05
1846.95454	9924.15
1850.11151	9927.25
1853.26642	9915.85
1856.41926	9906.35
1859.57004	9923.95
1862.71876	9904.65
1865.86542	9913.65
1869.01003	9905.95
1872.15258	9898.65
1875.29308	9927.75
1878.43152	9882.95
1881.56792	9915.35
1884.70227	9899.95
1887.83457	9892.45
1890.96482	9906.05
1894.09304	9896.05
1897.21921	9883.05
1900.34335	9901.65
1903.46544	9874.05
1906.58551	9870.45
1909.70353	9861.75
1912.81953	9877.95
1915.93349	9832.15
1919.04543	9798.05
1922.15534	9792.05
1925.26322	9741.65
1928.36908	9718.95
1931.47292	9694.15
1934.57473	9657.95
1937.67453	9623.95
1940.77232	9601.25
1943.86808	9561.85
1946.96184	9511.35
1950.05358	9475.75
1953.14331	9429.65
1956.23103	9386.65
1959.31675	9393.75
1962.40046	9362.45
1965.48217	9328.35
1968.56188	9312.85
1971.63959	9266.55
1974.7153	9268.25
1977.78901	9235.55
1980.86073	9202.65
1983.93046	9199.05
1986.99819	9124.95
1990.06394	9094.55
1993.1277	9087.25
1996.18947	9054.45
1999.24925	9041.75
2002.30706	8999.75
2005.36288	8956.65
2008.41672	8966.05
2011.46859	8947.55
2014.51848	8921.65
2017.56639	8883.95
2020.61233	8872.55
2023.6563	8859.25
2026.6983	8851.15
2029.73833	8800.15
2032.7764	8826.75
2035.8125	8807.85
2038.84664	8807.35
2041.87881	8794.15
2044.90903	8764.35
2047.93729	8756.65
2050.96359	8729.95
2053.98794	8714.45
2057.01034	8741.15
2060.03078	8720.55
2063.04927	8714.05
2066.06582	8729.05
2069.08042	8708.55
2072.09307	8672.55
2075.10378	8691.65
2078.11255	8695.55
2081.11938	8681.65
2084.12426	8671.95
2087.12722	8692.85
2090.12824	8679.45
2093.12732	8677.35
2096.12447	8667.35
2099.11969	8662.75
2102.11299	8657.75
2105.10435	8687.45
2108.09379	8675.35
2111.08131	8683.35
2114.0669	8696.45
2117.05057	8698.15
2120.03233	8692.35
2123.01216	8703.05
2125.99008	8703.85
2128.96609	8710.95
2131.94018	8701.55
2134.91236	8719.65
2137.88263	8724.25
2140.851	8723.55
2143.81746	8764.65
2146.78201	8756.75
2149.74466	8749.85
2152.7054	8753.75
2155.66425	8750.25
2158.6212	8764.75
2161.57625	8751.35
2164.52941	8732.85
2167.48067	8738.05
2170.43004	8728.15
2173.37752	8739.45
2176.32311	8752.15
2179.26681	8740.95
2182.20863	8760.15
2185.14856	8779.65
2188.08661	8763.35
2191.02278	8749.85
2193.95707	8748.95
2196.88948	8758.05
2199.82001	8763.15
2202.74867	8758.95
2205.67545	8766.35
2208.60037	8732.65
2211.52341	8754.35
2214.44458	8753.95
2217.36388	8738.25
2220.28132	8728.25
2223.1969	8702.15
2226.11061	8684.25
2229.02246	8695.75
2231.93245	8667.15
2234.84058	8661.45
2237.74686	8627.65
2240.65128	8603.15
2243.55385	8589.85
2246.45456	8583.05
2249.35343	8599.85
2252.25044	8584.95
2255.14561	8576.55
2258.03893	8579.65
2260.93041	8542.55
2263.82004	8527.25
2266.70783	8486.45
2269.59378	8482.45
2272.4779	8465.85
2275.36017	8456.35
2278.24061	8412.25
2281.11922	8421.55
2283.996	8400.65
2286.87094	8408.05
2289.74405	8396.75
2292.61534	8393.25
2295.4848	8382.95
2298.35243	8393.95
2301.21824	8385.45
2304.08223	8395.95
2306.94439	8427.25
2309.80474	8418.85
2312.66327	8431.25
2315.51999	8422.25
2318.37489	8433.75
2321.22797	8441.05
2324.07925	8439.35
2326.92871	8429.15
2329.77637	8441.15
2332.62222	8400.75
2335.46626	8410.45
2338.3085	8390.95
2341.14893	8426.55
2343.98756	8442.15
2346.8244	8420.35
2349.65943	8429.45
2352.49267	8444.75
2355.32411	8446.45
2358.15376	8435.15
2360.98161	8423.45
2363.80768	8423.85
2366.63195	8426.65
2369.45444	8386.45
2372.27514	8397.75
2375.09405	8351.85
2377.91118	8316.35
2380.72652	8299.25
2383.54009	8291.55
2386.35187	8271.35
2389.16188	8258.15
2391.97011	8228.75
2394.77657	8227.45
2397.58125	8215.55
2400.38416	8209.25
2403.18529	8192.95
2405.98466	8178.05
2408.78226	8190.55
2411.57809	8146.95
2414.37216	8131.45
2417.16446	8129.35
2419.955	8117.45
2422.74378	8110.85
2425.5308	8105.35
2428.31606	8097.65
2431.09956	8098.15
2433.88131	8095.35
2436.6613	8078.15
2439.43954	8091.15
2442.21603	8107.85
2444.99077	8087.55
2447.76377	8101.75
2450.53501	8092.15
2453.30451	8104.35
2456.07226	8101.55
2458.83827	8087.05
2461.60254	8077.85
2464.36507	8094.05
2467.12586	8060.45
2469.88492	8094.25
2472.64224	8116.25
2475.39782	8104.25
2478.15167	8119.75
2480.90379	8095.25
2483.65417	8113.85
2486.40283	8117.15
2489.14976	8133.65
2491.89497	8156.95
2494.63845	8144.55
2497.3802	8139.45
2500.12024	8159.55
2502.85855	8164.05
2505.59514	8119.75
2508.33002	8124.85
2511.06318	8109.55
2513.79462	8089.55
2516.52435	8059.65
2519.25237	8080.25
2521.97867	8050.65
2524.70327	8060.95
2527.42616	8044.95
2530.14734	8044.25
2532.86681	8058.95
2535.58458	8053.55
2538.30065	8063.65
2541.01501	8060.65
2543.72768	8045.15
2546.43864	8051.05
2549.14791	8021.55
2551.85548	8027.95
2554.56136	8034.65
2557.26554	8007.95
2559.96803	8018.35
2562.66883	8018.05
2565.36794	8004.45
2568.06536	8007.55
2570.7611	7996.35
2573.45514	7999.75
2576.14751	7968.45
2578.83819	7992.15
2581.52719	7983.65
2584.21451	7972.65
2586.90015	7987.95
2589.58411	7983.75
2592.2664	7975.55
2594.94701	7968.45
2597.62594	7979.35
2600.30321	7950.65
2602.9788	7942.65
2605.65273	7934.05
2608.32498	7955.35
2610.99557	7937.45
2613.66449	7957.15
2616.33175	7950.55
2618.99734	7959.25
2621.66128	7931.15
2624.32355	7937.15
2626.98416	7945.75
2629.64311	7945.15
2632.30041	7964.15
2634.95605	7971.15
2637.61004	7938.75
2640.26238	7908.95
2642.91306	7898.45
2645.56209	7889.75
2648.20948	7905.15
2650.85521	7902.05
2653.4993	7879.45
2656.14175	7888.25
2658.78255	7900.65
2661.42171	7900.85
2664.05923	7935.45
2666.6951	7933.55
2669.32934	7939.05
2671.96194	7929.05
2674.59291	7924.85
2677.22224	7929.55
2679.84993	7945.15
2682.476	7933.15
2685.10043	7909.05
2687.72324	7874.85
2690.34441	7874.45
2692.96396	7872.05
2695.58188	7877.05
2698.19818	7861.55
2700.81285	7870.75
2703.4259	7850.55
2706.03733	7816.15
2708.64714	7814.45
2711.25533	7853.15
2713.86191	7861.55
2716.46687	7893.15
2719.07021	7873.45
2721.67194	7907.15
2724.27206	7912.25
2726.87057	7905.45
2729.46747	7904.45
2732.06276	7926.65
2734.65644	7899.85
2737.24852	7910.25
2739.83899	7873.85
2742.42786	7906.15
2745.01513	7882.45
2747.60079	7883.85
2750.18486	7879.85
2752.76733	7859.45
2755.3482	7863.55
2757.92747	7891.35
2760.50515	7864.65
2763.08123	7847.95
2765.65573	7853.85
2768.22863	7868.55
2770.79994	7857.05
2773.36967	7856.35
2775.9378	7872.75
2778.50435	7882.55
2781.06932	7852.95
2783.6327	7842.05
2786.1945	7852.15
2788.75471	7866.55
2791.31335	7862.45
2793.87041	7844.75
2796.42589	7819.15
2798.97979	7840.05
2801.53212	7819.45
2804.08288	7831.65
2806.63206	7796.35
2809.17967	7758.65
2811.72571	7747.65
2814.27018	7738.45
2816.81308	7735.75
2819.35442	7726.15
2821.89419	7714.05
2824.43239	7727.75
2826.96904	7709.65
2829.50412	7717.35
2832.03763	7693.75
2834.56959	7698.15
2837.1	7712.85
2839.62884	7693.95
2842.15613	7686.35
2844.68186	7719.95
2847.20604	7729.65
2849.72867	7717.15
2852.24974	7735.75
2854.76927	7724.55
2857.28724	7714.75
2859.80367	7696.05
2862.31855	7687.75
2864.83189	7681.35
2867.34368	7683.75
2869.85393	7696.55
2872.36264	7685.45
2874.8698	7701.65
2877.37543	7695.65
2879.87952	7714.35
2882.38207	7712.35
2884.88308	7702.75
2887.38256	7709.05
2889.88051	7709.65
2892.37692	7730.85
2894.8718	7737.45
2897.36515	7739.05
2899.85698	7751.35
2902.34727	7753.35
2904.83604	7780.95
2907.32328	7777.35
2909.809	7783.75
2912.29319	7789.75
2914.77587	7790.05
2917.25702	7801.35
2919.73665	7786.75
2922.21476	7788.55
2924.69136	7760.35
2927.16644	7762.25
2929.64	7751.75
2932.11205	7732.55
2934.58258	7718.35
2937.05161	7690.85
2939.51912	7734.25
2941.98513	7733.25
2944.44962	7685.15
2946.91261	7661.25
2949.37409	7661.95
2951.83407	7666.95
2954.29254	7653.25
2956.74951	7644.55
2959.20498	7645.35
2961.65895	7607.05
2964.11142	7616.65
2966.56239	7585.05
2969.01186	7594.45
2971.45984	7573.25
2973.90632	7547.05
2976.35131	7528.85
2978.7948	7514.75
2981.23681	7488.85
2983.67732	7497.55
2986.11635	7473.75
2988.55388	7442.35
2990.98993	7420.95
2993.4245	7384.85
2995.85758	7372.75
2998.28917	7374.25
3000.71928	7352.55
3003.14791	7336.15
3005.57506	7333.05
3008.00073	7320.65
3010.42493	7309.85
3012.84764	7320.95
3015.26888	7330.25
3017.68865	7276.05
3020.10694	7294.55
3022.52376	7258.45
3024.9391	7268.35
3027.35298	7237.05
3029.76539	7260.75
3032.17632	7259.05
3034.5858	7245.95
3036.9938	7248.15
3039.40034	7250.55
3041.80542	7227.45
3044.20903	7231.75
3046.61118	7225.55
3049.01187	7179.55
3051.4111	7217.65
3053.80888	7193.55
3056.20519	7197.45
3058.60005	7186.55
3060.99345	7148.35
3063.3854	7143.25
3065.7759	7111.45
3068.16494	7104.45
3070.55254	7103.75
3072.93868	7083.85
3075.32338	7061.85
3077.70662	7060.55
3080.08842	7068.05
3082.46878	7063.05
3084.84769	7047.85
3087.22515	7037.45
3089.60118	7035.95
3091.97576	7029.45
3094.3489	7038.35
3096.72061	7036.95
3099.09087	7049.15
3101.4597	7043.75
3103.82709	7042.25
3106.19305	7033.35
3108.55757	7037.95
3110.92066	7036.55
3113.28232	7015.95
3115.64255	7010.45
3118.00134	6983.55
3120.35871	6990.05
3122.71466	6971.85
3125.06917	6968.45
3127.42226	6959.35
3129.77393	6948.95
3132.12417	6958.15
3134.47299	6945.05
3136.82039	6935.35
3139.16636	6949.85
3141.51092	6962.25
3143.85406	6972.75
3146.19579	6970.55
3148.53609	6986.05
3150.87499	6990.25
3153.21246	6988.25
3155.54853	6988.45
3157.88318	6994.65
3160.21642	7010.05
3162.54826	7002.35
3164.87868	6998.65
3167.2077	6988.15
3169.5353	7015.45
3171.86151	7003.05
3174.18631	7005.75
3176.5097	7011.75
3178.83169	6981.65
3181.15228	6994.55
3183.47147	6979.45
3185.78926	6991.05
3188.10565	6987.05
3190.42065	6973.35
3192.73424	6985.25
3195.04645	6973.95
3197.35725	7003.95
3199.66667	7006.05
3201.97469	6997.75
3204.28132	7003.25
3206.58656	7003.15
3208.8904	7027.95
3211.19287	7036.05
3213.49394	7036.55
3215.79363	7031.65
3218.09193	7027.55
3220.38884	7038.65
3222.68438	7001.35
3224.97853	7011.45
3227.2713	7011.15
3229.56269	7014.35
3231.8527	7024.05
3234.14133	7036.15
3236.42858	7010.55
3238.71446	6993.25
3240.99896	6985.25
3243.28209	6979.35
3245.56384	6981.65
3247.84423	6977.25
3250.12324	6961.15
3252.40088	6959.65
3254.67715	6966.95
3256.95205	6963.35
3259.22558	6961.05
3261.49775	6956.65
3263.76855	6959.15
3266.03799	6926.05
3268.30606	6935.15
3270.57277	6942.85
3272.83812	6903.75
3275.10211	6885.75
3277.36474	6874.25
3279.62601	6889.55
3281.88593	6859.85
3284.14448	6892.05
3286.40168	6881.95
3288.65753	6894.95
3290.91202	6880.15
3293.16516	6852.05
3295.41695	6839.85
3297.66738	6800.85
3299.91647	6779.65
3302.16421	6726.15
3304.4106	6705.15
3306.65564	6683.95
3308.89933	6635.65
3311.14169	6616.45
3313.38269	6544.45
3315.62236	6513.15
3317.86068	6463.75
3320.09766	6411.65
3322.3333	6376.35
3324.5676	6369.25
3326.80056	6264.95
3329.03219	6224.35
3331.26248	2.25
3333.49143	0.55
3335.71905	-1.45
