Data from AgNPs_FTO_APTES_UA_1uM_CRN_200uM_R6G_10uM_NaF_0.1M_Addition_RamanShift__28__17-37-39-850.txt Node

Date: Thu Jan 27 17:37:39 GMT 2022
User: TCL
Spectrometer: QEP01345
Trigger mode: 4
Integration Time (sec): 7.000000E0
Scans to average: 10
Electric dark correction enabled: true
Nonlinearity correction enabled: false
Boxcar width: 0
XAxis mode: Raman Shifts
Number of Pixels in Spectrum: 1044
>>>>>Begin Spectral Data<<<<<
46.04893	0.425
50.45542	-0.075
54.85868	-1.875
59.25871	-1.075
63.6555	40.825
68.04907	43.225
72.43941	49.525
76.82654	53.725
81.21044	50.725
85.59113	53.825
89.96862	57.625
94.34289	61.525
98.71396	62.425
103.08183	59.325
107.4465	64.025
111.80798	67.525
116.16626	65.725
120.52136	71.325
124.87327	69.525
129.222	67.325
133.56755	71.525
137.90993	74.325
142.24913	80.525
146.58517	88.525
150.91804	96.225
155.24774	108.825
159.57429	130.825
163.89768	161.025
168.21792	211.525
172.53501	282.825
176.84895	379.825
181.15975	523.925
185.46741	727.725
189.77193	1017.825
194.07331	1349.125
198.37157	1746.625
202.6667	2163.325
206.9587	2568.625
211.24758	2979.325
215.53334	3401.525
219.81599	3858.525
224.09553	4362.025
228.37195	4915.725
232.64527	5545.325
236.91549	6159.725
241.18261	6753.025
245.44663	7296.425
249.70755	7741.225
253.96539	8130.925
258.22014	8478.325
262.4718	8749.925
266.72039	8971.125
270.96589	9053.625
275.20832	9085.325
279.44768	8994.725
283.68397	8850.725
287.91719	8731.225
292.14735	8713.225
296.37445	8809.525
300.59849	9034.525
304.81948	9299.825
309.03742	9487.125
313.25231	9435.025
317.46415	9100.125
321.67296	8565.825
325.87872	8131.225
330.08145	7929.325
334.28114	7919.025
338.47781	8042.625
342.67145	8205.925
346.86207	8499.525
351.04966	8875.925
355.23424	9329.825
359.4158	9681.525
363.59435	9865.425
367.76989	9959.925
371.94243	9961.225
376.11196	9974.125
380.27849	9978.825
384.44203	9925.425
388.60257	9865.225
392.76012	9800.625
396.91468	9886.225
401.06626	10074.125
405.21485	10290.725
409.36047	10180.925
413.50311	9784.925
417.64277	9429.125
421.77947	9200.325
425.9132	9129.825
430.04396	9109.525
434.17176	9175.625
438.2966	9307.925
442.41849	9512.725
446.53742	9751.225
450.6534	10009.025
454.76644	10198.225
458.87653	10220.725
462.98368	10170.025
467.08789	10041.825
471.18916	9845.025
475.2875	9690.625
479.38291	9553.425
483.4754	9439.825
487.56496	9330.025
491.6516	9225.625
495.73531	9188.325
499.81612	9162.325
503.89401	9257.425
507.96899	9316.225
512.04106	9427.925
516.11023	9558.025
520.1765	9664.225
524.23987	9641.725
528.30034	9512.325
532.35792	9357.625
536.41261	9210.125
540.46441	9071.225
544.51333	8993.125
548.55936	9010.225
552.60252	9147.725
556.64279	9342.525
560.6802	9453.125
564.71473	9537.225
568.7464	9803.525
572.7752	10008.325
576.80114	9849.125
580.82422	9621.725
584.84444	9524.725
588.86181	9589.625
592.87633	9722.025
596.888	9830.325
600.89682	10022.725
604.9028	10708.725
608.90594	12678.825
612.90624	15481.725
616.90371	15241.825
620.89834	11606.125
624.89015	9799.025
628.87913	9417.325
632.86528	9416.425
636.84862	9461.825
640.82913	9399.825
644.80683	9118.025
648.78172	8939.825
652.75379	8941.725
656.72306	9181.625
660.68952	9531.225
664.65319	9522.525
668.61405	9187.025
672.57211	9028.425
676.52738	9027.325
680.47986	9051.625
684.42955	9014.025
688.37646	8995.625
692.32058	8998.225
696.26192	9062.825
700.20048	9117.825
704.13626	9192.125
708.06928	9142.025
711.99952	9073.625
715.927	9029.925
719.85171	9055.625
723.77365	9047.725
727.69284	9011.225
731.60928	8977.625
735.52295	8971.325
739.43388	9024.025
743.34206	9025.025
747.24749	9043.325
751.15017	9109.625
755.05012	9221.125
758.94733	9494.125
762.8418	10128.325
766.73354	11210.725
770.62254	12528.825
774.50882	13310.225
778.39237	12920.825
782.27321	11590.225
786.15132	10264.125
790.02671	9510.625
793.89938	9177.225
797.76935	9061.325
801.6366	9004.825
805.50115	8950.825
809.36299	8909.125
813.22213	8902.925
817.07857	8886.525
820.93231	8907.125
824.78336	8917.925
828.63172	8940.325
832.47738	8985.825
836.32036	8962.825
840.16066	8957.025
843.99827	8926.725
847.8332	8914.625
851.66546	8883.025
855.49504	8921.325
859.32195	8882.825
863.1462	8917.025
866.96777	8837.925
870.78668	8853.125
874.60293	8847.725
878.41652	8859.125
882.22745	8899.025
886.03573	8917.725
889.84136	8939.525
893.64433	8878.525
897.44466	8860.825
901.24235	8830.525
905.0374	8804.125
908.8298	8781.925
912.61957	8766.025
916.40671	8789.325
920.19121	8857.125
923.97308	8961.025
927.75233	8997.225
931.52895	9095.225
935.30295	9068.525
939.07433	8877.225
942.84309	8705.025
946.60924	8594.325
950.37278	8528.125
954.13371	8484.125
957.89203	8451.925
961.64774	8422.325
965.40086	8384.225
969.15137	8357.325
972.89929	8334.625
976.64461	8315.025
980.38733	8322.525
984.12747	8337.025
987.86502	8377.125
991.59999	8440.225
995.33237	8550.525
999.06217	8704.025
1002.78939	8897.125
1006.51404	9022.625
1010.23611	9112.025
1013.95561	9206.625
1017.67255	9242.225
1021.38692	9112.025
1025.09872	9042.925
1028.80796	9016.325
1032.51465	9113.425
1036.21877	9231.925
1039.92035	9281.525
1043.61937	9256.125
1047.31584	9159.525
1051.00976	9085.525
1054.70114	9008.625
1058.38998	9007.025
1062.07627	9029.925
1065.76003	9071.925
1069.44126	9079.325
1073.11995	9126.325
1076.79611	9221.925
1080.46974	9318.825
1084.14085	9448.525
1087.80943	9581.525
1091.47549	9632.825
1095.13903	9528.125
1098.80005	9321.025
1102.45857	9118.325
1106.11456	9024.725
1109.76805	9092.625
1113.41903	9215.325
1117.06751	9421.125
1120.71348	9699.425
1124.35696	10008.325
1127.99793	10235.125
1131.63641	10241.225
1135.2724	9914.225
1138.90589	9559.525
1142.5369	9327.725
1146.16542	9166.925
1149.79145	9100.125
1153.415	9096.625
1157.03607	9155.125
1160.65467	9270.525
1164.27079	9472.525
1167.88443	9832.525
1171.49561	10419.525
1175.10432	11392.825
1178.71056	12637.025
1182.31434	13560.125
1185.91565	13857.525
1189.51451	13578.025
1193.11091	12864.625
1196.70485	12045.925
1200.29634	11429.325
1203.88538	10991.825
1207.47197	10530.225
1211.05612	10138.525
1214.63782	9915.925
1218.21708	9855.525
1221.79391	9919.025
1225.36829	9945.825
1228.94024	9975.325
1232.50976	9922.225
1236.07685	9904.825
1239.6415	9880.825
1243.20374	9910.425
1246.76355	9937.225
1250.32093	10047.125
1253.8759	10187.525
1257.42845	10412.025
1260.97859	10642.225
1264.52631	10895.325
1268.07163	11125.725
1271.61453	11356.525
1275.15503	11533.025
1278.69312	11697.425
1282.22882	11784.725
1285.76211	11903.625
1289.29301	12205.225
1292.82151	12557.225
1296.34761	12909.425
1299.87133	13431.125
1303.39266	14278.025
1306.9116	15480.125
1310.42815	16925.225
1313.94233	17859.625
1317.45412	17629.025
1320.96354	16715.625
1324.47058	15580.325
1327.97525	14611.825
1331.47754	14047.125
1334.97747	13827.525
1338.47502	13864.225
1341.97022	14059.225
1345.46305	14383.925
1348.95352	14782.225
1352.44163	15522.725
1355.92738	16654.925
1359.41078	18493.125
1362.89183	20344.625
1366.37053	20091.225
1369.84688	17576.625
1373.32088	14928.625
1376.79254	13229.725
1380.26186	12346.225
1383.72883	11981.125
1387.19347	11692.625
1390.65578	11412.025
1394.11575	11172.525
1397.57339	11078.225
1401.0287	11153.725
1404.48168	11295.325
1407.93234	11433.725
1411.38068	11495.825
1414.82669	11520.425
1418.27039	11332.325
1421.71177	11112.225
1425.15083	10905.825
1428.58758	10804.925
1432.02203	10840.725
1435.45416	10901.225
1438.88399	11002.125
1442.31151	11009.725
1445.73673	11042.325
1449.15965	11108.825
1452.58027	11096.325
1455.9986	11040.525
1459.41463	10971.425
1462.82837	11047.125
1466.23982	11215.725
1469.64898	11397.825
1473.05586	11562.325
1476.46045	11632.325
1479.86276	11764.725
1483.26279	11908.125
1486.66054	12091.025
1490.05602	12332.625
1493.44922	12700.325
1496.84016	13190.925
1500.22882	13960.625
1503.61521	15091.025
1506.99934	16393.925
1510.38121	17822.825
1513.76081	18541.025
1517.13816	17855.225
1520.51324	16105.725
1523.88607	14309.525
1527.25665	13067.725
1530.62498	12382.825
1533.99105	11996.525
1537.35488	11759.425
1540.71647	11636.725
1544.07581	11568.625
1547.4329	11565.525
1550.78776	11513.225
1554.14038	11507.425
1557.49077	11558.425
1560.83892	11690.625
1564.18484	11855.225
1567.52853	12072.625
1570.86999	12293.825
1574.20922	12427.525
1577.54624	12411.925
1580.88103	12068.025
1584.2136	11549.525
1587.54395	11306.725
1590.87208	11449.825
1594.19801	11961.525
1597.52172	12707.925
1600.84321	13124.225
1604.16251	12879.425
1607.47959	12182.025
1610.79447	11375.725
1614.10715	10608.825
1617.41763	9997.225
1620.7259	9600.925
1624.03199	9434.625
1627.33587	9451.525
1630.63757	9595.125
1633.93707	9938.025
1637.23439	10479.925
1640.52951	11258.725
1643.82246	12251.725
1647.11321	13387.525
1650.40179	14151.625
1653.68819	13846.025
1656.97241	12402.825
1660.25446	10800.525
1663.53433	9664.825
1666.81203	8982.225
1670.08756	8610.025
1673.36092	8379.125
1676.63211	8218.325
1679.90115	8089.625
1683.16801	8031.825
1686.43272	7951.225
1689.69527	7885.125
1692.95567	7839.325
1696.2139	7786.525
1699.46999	7739.325
1702.72392	7726.725
1705.97571	7721.225
1709.22535	7755.325
1712.47284	7799.025
1715.71819	7798.725
1718.96139	7813.425
1722.20246	7816.025
1725.44139	7795.625
1728.67818	7771.925
1731.91284	7717.525
1735.14537	7677.125
1738.37576	7650.325
1741.60403	7624.625
1744.83017	7612.125
1748.05418	7597.725
1751.27607	7558.625
1754.49584	7544.225
1757.71349	7526.225
1760.92903	7485.425
1764.14244	7470.925
1767.35375	7486.525
1770.56294	7453.825
1773.77002	7419.025
1776.97499	7453.925
1780.17785	7455.425
1783.37861	7437.825
1786.57727	7443.525
1789.77382	7430.725
1792.96828	7429.625
1796.16064	7425.125
1799.3509	7403.525
1802.53907	7408.625
1805.72514	7388.525
1808.90913	7391.925
1812.09102	7356.625
1815.27083	7347.825
1818.44856	7329.225
1821.6242	7320.225
1824.79776	7286.925
1827.96924	7298.625
1831.13864	7289.725
1834.30597	7273.125
1837.47122	7286.825
1840.6344	7281.325
1843.7955	7257.825
1846.95454	7264.325
1850.11151	7265.125
1853.26642	7258.425
1856.41926	7280.625
1859.57004	7277.825
1862.71876	7261.425
1865.86542	7270.325
1869.01003	7263.225
1872.15258	7277.125
1875.29308	7273.825
1878.43152	7262.825
1881.56792	7268.925
1884.70227	7233.025
1887.83457	7254.225
1890.96482	7235.425
1894.09304	7234.225
1897.21921	7206.325
1900.34335	7204.825
1903.46544	7226.725
1906.58551	7239.825
1909.70353	7226.225
1912.81953	7224.925
1915.93349	7214.325
1919.04543	7211.025
1922.15534	7209.825
1925.26322	7196.825
1928.36908	7193.725
1931.47292	7159.825
1934.57473	7131.025
1937.67453	7116.125
1940.77232	7092.825
1943.86808	7061.325
1946.96184	7047.125
1950.05358	7037.025
1953.14331	7018.925
1956.23103	6977.025
1959.31675	6963.225
1962.40046	6943.825
1965.48217	6942.025
1968.56188	6909.725
1971.63959	6891.825
1974.7153	6881.825
1977.78901	6867.225
1980.86073	6838.125
1983.93046	6818.425
1986.99819	6795.925
1990.06394	6778.825
1993.1277	6743.825
1996.18947	6728.825
1999.24925	6718.525
2002.30706	6700.125
2005.36288	6683.325
2008.41672	6665.925
2011.46859	6634.025
2014.51848	6626.425
2017.56639	6599.925
2020.61233	6614.625
2023.6563	6565.625
2026.6983	6559.325
2029.73833	6554.825
2032.7764	6532.325
2035.8125	6530.025
2038.84664	6505.325
2041.87881	6517.825
2044.90903	6496.025
2047.93729	6475.025
2050.96359	6475.125
2053.98794	6440.525
2057.01034	6455.225
2060.03078	6471.325
2063.04927	6434.225
2066.06582	6465.425
2069.08042	6443.525
2072.09307	6428.825
2075.10378	6429.625
2078.11255	6426.125
2081.11938	6432.125
2084.12426	6424.025
2087.12722	6425.125
2090.12824	6422.225
2093.12732	6410.725
2096.12447	6423.025
2099.11969	6410.725
2102.11299	6397.825
2105.10435	6409.725
2108.09379	6425.625
2111.08131	6423.725
2114.0669	6426.825
2117.05057	6453.125
2120.03233	6446.025
2123.01216	6451.725
2125.99008	6472.625
2128.96609	6457.925
2131.94018	6478.225
2134.91236	6458.625
2137.88263	6488.225
2140.851	6478.625
2143.81746	6491.125
2146.78201	6469.325
2149.74466	6484.425
2152.7054	6484.125
2155.66425	6464.625
2158.6212	6477.725
2161.57625	6466.625
2164.52941	6464.625
2167.48067	6460.125
2170.43004	6468.725
2173.37752	6484.625
2176.32311	6467.125
2179.26681	6474.825
2182.20863	6473.725
2185.14856	6485.725
2188.08661	6472.625
2191.02278	6465.725
2193.95707	6465.725
2196.88948	6467.325
2199.82001	6450.925
2202.74867	6428.525
2205.67545	6454.625
2208.60037	6433.225
2211.52341	6416.625
2214.44458	6418.025
2217.36388	6407.525
2220.28132	6401.025
2223.1969	6383.425
2226.11061	6374.625
2229.02246	6373.625
2231.93245	6354.525
2234.84058	6341.625
2237.74686	6330.025
2240.65128	6317.225
2243.55385	6319.225
2246.45456	6307.925
2249.35343	6310.925
2252.25044	6289.225
2255.14561	6286.925
2258.03893	6291.125
2260.93041	6282.025
2263.82004	6274.725
2266.70783	6262.825
2269.59378	6233.825
2272.4779	6221.125
2275.36017	6222.225
2278.24061	6199.125
2281.11922	6190.825
2283.996	6181.825
2286.87094	6180.725
2289.74405	6160.225
2292.61534	6153.425
2295.4848	6148.125
2298.35243	6145.225
2301.21824	6133.325
2304.08223	6163.825
2306.94439	6128.525
2309.80474	6135.825
2312.66327	6145.925
2315.51999	6133.925
2318.37489	6139.125
2321.22797	6128.725
2324.07925	6118.225
2326.92871	6100.725
2329.77637	6106.825
2332.62222	6085.225
2335.46626	6071.325
2338.3085	6086.525
2341.14893	6087.525
2343.98756	6091.425
2346.8244	6083.825
2349.65943	6074.825
2352.49267	6098.525
2355.32411	6087.425
2358.15376	6069.525
2360.98161	6087.125
2363.80768	6089.525
2366.63195	6069.425
2369.45444	6084.725
2372.27514	6049.025
2375.09405	6076.325
2377.91118	6043.725
2380.72652	6029.925
2383.54009	6006.725
2386.35187	6000.825
2389.16188	5967.625
2391.97011	5944.325
2394.77657	5943.125
2397.58125	5930.725
2400.38416	5929.525
2403.18529	5919.125
2405.98466	5891.425
2408.78226	5885.525
2411.57809	5888.325
2414.37216	5867.725
2417.16446	5877.425
2419.955	5873.225
2422.74378	5858.925
2425.5308	5869.525
2428.31606	5864.325
2431.09956	5854.325
2433.88131	5855.225
2436.6613	5842.225
2439.43954	5859.625
2442.21603	5835.225
2444.99077	5824.125
2447.76377	5828.125
2450.53501	5841.525
2453.30451	5828.725
2456.07226	5846.625
2458.83827	5827.225
2461.60254	5822.325
2464.36507	5819.625
2467.12586	5812.925
2469.88492	5793.325
2472.64224	5791.525
2475.39782	5782.625
2478.15167	5804.825
2480.90379	5793.925
2483.65417	5800.025
2486.40283	5816.925
2489.14976	5801.025
2491.89497	5812.125
2494.63845	5807.025
2497.3802	5802.725
2500.12024	5794.325
2502.85855	5798.425
2505.59514	5783.225
2508.33002	5780.125
2511.06318	5766.425
2513.79462	5757.625
2516.52435	5738.525
2519.25237	5734.025
2521.97867	5724.125
2524.70327	5716.725
2527.42616	5709.725
2530.14734	5680.525
2532.86681	5674.925
2535.58458	5680.525
2538.30065	5680.525
2541.01501	5682.025
2543.72768	5672.825
2546.43864	5680.325
2549.14791	5678.425
2551.85548	5646.425
2554.56136	5650.725
2557.26554	5647.625
2559.96803	5636.125
2562.66883	5628.525
2565.36794	5620.425
2568.06536	5616.025
2570.7611	5614.325
2573.45514	5596.725
2576.14751	5587.125
2578.83819	5580.925
2581.52719	5572.825
2584.21451	5572.725
2586.90015	5562.225
2589.58411	5546.925
2592.2664	5557.025
2594.94701	5552.125
2597.62594	5539.325
2600.30321	5527.125
2602.9788	5538.525
2605.65273	5512.125
2608.32498	5518.525
2610.99557	5524.125
2613.66449	5524.025
2616.33175	5515.725
2618.99734	5506.225
2621.66128	5521.925
2624.32355	5495.625
2626.98416	5501.725
2629.64311	5499.425
2632.30041	5485.725
2634.95605	5471.725
2637.61004	5450.725
2640.26238	5449.625
2642.91306	5459.225
2645.56209	5443.325
2648.20948	5425.125
2650.85521	5425.525
2653.4993	5429.625
2656.14175	5445.525
2658.78255	5453.825
2661.42171	5460.025
2664.05923	5448.425
2666.6951	5436.725
2669.32934	5467.425
2671.96194	5457.425
2674.59291	5431.225
2677.22224	5447.925
2679.84993	5445.925
2682.476	5436.725
2685.10043	5462.225
2687.72324	5447.725
2690.34441	5463.825
2692.96396	5436.225
2695.58188	5444.225
2698.19818	5452.025
2700.81285	5448.225
2703.4259	5453.625
2706.03733	5434.925
2708.64714	5424.525
2711.25533	5443.225
2713.86191	5465.425
2716.46687	5468.225
2719.07021	5461.325
2721.67194	5466.225
2724.27206	5466.025
2726.87057	5472.725
2729.46747	5473.125
2732.06276	5459.225
2734.65644	5460.625
2737.24852	5461.325
2739.83899	5455.725
2742.42786	5442.825
2745.01513	5428.925
2747.60079	5422.325
2750.18486	5424.125
2752.76733	5430.425
2755.3482	5413.425
2757.92747	5436.925
2760.50515	5395.725
2763.08123	5390.925
2765.65573	5396.825
2768.22863	5406.825
2770.79994	5398.225
2773.36967	5371.825
2775.9378	5381.725
2778.50435	5386.725
2781.06932	5364.725
2783.6327	5370.225
2786.1945	5368.525
2788.75471	5355.425
2791.31335	5360.125
2793.87041	5358.325
2796.42589	5335.025
2798.97979	5352.325
2801.53212	5337.825
2804.08288	5327.125
2806.63206	5318.325
2809.17967	5305.825
2811.72571	5307.125
2814.27018	5307.625
2816.81308	5301.025
2819.35442	5302.925
2821.89419	5308.825
2824.43239	5300.925
2826.96904	5320.125
2829.50412	5306.525
2832.03763	5303.625
2834.56959	5323.025
2837.1	5317.425
2839.62884	5331.625
2842.15613	5370.525
2844.68186	5418.325
2847.20604	5452.825
2849.72867	5488.425
2852.24974	5511.725
2854.76927	5503.525
2857.28724	5484.225
2859.80367	5462.925
2862.31855	5466.125
2864.83189	5443.625
2867.34368	5436.025
2869.85393	5420.525
2872.36264	5442.325
2874.8698	5432.025
2877.37543	5425.725
2879.87952	5428.025
2882.38207	5436.825
2884.88308	5417.125
2887.38256	5415.725
2889.88051	5410.125
2892.37692	5419.225
2894.8718	5415.525
2897.36515	5447.725
2899.85698	5444.425
2902.34727	5443.725
2904.83604	5443.425
2907.32328	5449.725
2909.809	5448.625
2912.29319	5457.525
2914.77587	5459.025
2917.25702	5451.625
2919.73665	5440.325
2922.21476	5439.925
2924.69136	5433.025
2927.16644	5440.025
2929.64	5422.825
2932.11205	5418.425
2934.58258	5413.325
2937.05161	5412.825
2939.51912	5388.725
2941.98513	5381.225
2944.44962	5341.625
2946.91261	5287.925
2949.37409	5279.125
2951.83407	5287.125
2954.29254	5262.525
2956.74951	5230.725
2959.20498	5261.325
2961.65895	5233.525
2964.11142	5222.625
2966.56239	5209.325
2969.01186	5199.525
2971.45984	5176.825
2973.90632	5162.725
2976.35131	5160.925
2978.7948	5150.125
2981.23681	5138.725
2983.67732	5124.825
2986.11635	5115.925
2988.55388	5104.325
2990.98993	5084.925
2993.4245	5080.525
2995.85758	5086.325
2998.28917	5068.925
3000.71928	5047.525
3003.14791	5043.425
3005.57506	5036.625
3008.00073	5022.225
3010.42493	5019.625
3012.84764	5018.425
3015.26888	5014.725
3017.68865	5014.125
3020.10694	5020.825
3022.52376	4974.125
3024.9391	4992.625
3027.35298	4989.425
3029.76539	4972.925
3032.17632	4971.225
3034.5858	4955.725
3036.9938	4974.925
3039.40034	4970.725
3041.80542	4968.425
3044.20903	4953.525
3046.61118	4938.125
3049.01187	4932.525
3051.4111	4939.525
3053.80888	4916.925
3056.20519	4904.925
3058.60005	4910.125
3060.99345	4894.925
3063.3854	4884.625
3065.7759	4881.425
3068.16494	4867.525
3070.55254	4864.025
3072.93868	4868.125
3075.32338	4857.125
3077.70662	4841.625
3080.08842	4828.825
3082.46878	4839.625
3084.84769	4824.325
3087.22515	4818.825
3089.60118	4832.025
3091.97576	4822.825
3094.3489	4832.025
3096.72061	4835.125
3099.09087	4850.525
3101.4597	4831.025
3103.82709	4826.225
3106.19305	4843.925
3108.55757	4838.725
3110.92066	4825.825
3113.28232	4827.525
3115.64255	4806.725
3118.00134	4814.925
3120.35871	4826.425
3122.71466	4804.025
3125.06917	4801.425
3127.42226	4797.625
3129.77393	4794.225
3132.12417	4798.925
3134.47299	4792.925
3136.82039	4804.125
3139.16636	4821.025
3141.51092	4816.925
3143.85406	4810.725
3146.19579	4821.325
3148.53609	4821.525
3150.87499	4841.525
3153.21246	4858.025
3155.54853	4856.725
3157.88318	4859.625
3160.21642	4862.625
3162.54826	4871.625
3164.87868	4880.725
3167.2077	4869.325
3169.5353	4874.125
3171.86151	4889.725
3174.18631	4863.825
3176.5097	4883.625
3178.83169	4877.725
3181.15228	4883.125
3183.47147	4888.525
3185.78926	4879.825
3188.10565	4882.525
3190.42065	4870.525
3192.73424	4885.825
3195.04645	4886.825
3197.35725	4893.525
3199.66667	4880.825
3201.97469	4902.825
3204.28132	4905.325
3206.58656	4909.625
3208.8904	4898.825
3211.19287	4904.225
3213.49394	4922.925
3215.79363	4924.625
3218.09193	4933.825
3220.38884	4926.325
3222.68438	4923.125
3224.97853	4895.925
3227.2713	4933.125
3229.56269	4923.925
3231.8527	4935.025
3234.14133	4922.625
3236.42858	4907.125
3238.71446	4909.325
3240.99896	4893.225
3243.28209	4908.125
3245.56384	4903.725
3247.84423	4894.825
3250.12324	4873.025
3252.40088	4895.325
3254.67715	4871.225
3256.95205	4892.625
3259.22558	4886.725
3261.49775	4872.425
3263.76855	4872.725
3266.03799	4847.525
3268.30606	4890.025
3270.57277	4865.725
3272.83812	4843.425
3275.10211	4830.825
3277.36474	4816.825
3279.62601	4826.425
3281.88593	4817.525
3284.14448	4839.325
3286.40168	4832.525
3288.65753	4821.325
3290.91202	4810.925
3293.16516	4809.225
3295.41695	4804.425
3297.66738	4762.825
3299.91647	4764.125
3302.16421	4717.625
3304.4106	4708.025
3306.65564	4674.125
3308.89933	4677.725
3311.14169	4634.125
3313.38269	4601.425
3315.62236	4573.125
3317.86068	4528.425
3320.09766	4511.025
3322.3333	4474.525
3324.5676	4472.225
3326.80056	4383.825
3329.03219	4384.925
3331.26248	2.225
3333.49143	-0.175
3335.71905	-0.075
