Data from AgNPs_FTO_APTES_UA_1uM_CRN_10uM_R6G_50uM_NaF_0.1M_Addition_RamanShift__2__15-43-19-720.txt Node

Date: Thu Jan 27 15:43:19 GMT 2022
User: TCL
Spectrometer: QEP01345
Trigger mode: 4
Integration Time (sec): 7.000000E0
Scans to average: 10
Electric dark correction enabled: true
Nonlinearity correction enabled: false
Boxcar width: 0
XAxis mode: Raman Shifts
Number of Pixels in Spectrum: 1044
>>>>>Begin Spectral Data<<<<<
46.04893	1.65
50.45542	0.05
54.85868	-0.75
59.25871	-0.95
63.6555	45.05
68.04907	49.15
72.43941	52.15
76.82654	57.75
81.21044	59.55
85.59113	58.45
89.96862	61.05
94.34289	62.45
98.71396	68.55
103.08183	65.45
107.4465	70.25
111.80798	69.55
116.16626	71.25
120.52136	76.45
124.87327	75.45
129.222	77.65
133.56755	81.95
137.90993	86.15
142.24913	94.65
146.58517	102.15
150.91804	116.45
155.24774	134.95
159.57429	162.05
163.89768	211.45
168.21792	273.65
172.53501	372.55
176.84895	504.15
181.15975	710.75
185.46741	994.95
189.77193	1364.35
194.07331	1831.95
198.37157	2363.55
202.6667	2918.35
206.9587	3460.55
211.24758	4003.55
215.53334	4550.55
219.81599	5103.35
224.09553	5740.15
228.37195	6429.75
232.64527	7154.25
236.91549	7971.65
241.18261	8780.15
245.44663	9531.75
249.70755	10213.15
253.96539	10810.05
258.22014	11357.15
262.4718	11774.35
266.72039	12052.45
270.96589	12206.75
275.20832	12225.85
279.44768	12170.05
283.68397	12047.55
287.91719	11937.95
292.14735	11899.85
296.37445	11859.35
300.59849	11889.95
304.81948	11943.35
309.03742	11958.75
313.25231	11892.55
317.46415	11717.45
321.67296	11454.15
325.87872	11264.55
330.08145	11140.05
334.28114	11112.35
338.47781	11205.35
342.67145	11312.25
346.86207	11468.45
351.04966	11668.65
355.23424	11921.85
359.4158	12060.55
363.59435	12201.85
367.76989	12331.35
371.94243	12395.15
376.11196	12424.75
380.27849	12514.15
384.44203	12583.25
388.60257	12644.05
392.76012	12771.85
396.91468	12937.65
401.06626	13106.75
405.21485	13204.65
409.36047	13193.15
413.50311	13045.45
417.64277	12958.05
421.77947	12973.95
425.9132	13014.45
430.04396	13078.65
434.17176	13160.15
438.2966	13233.85
442.41849	13382.65
446.53742	13709.65
450.6534	14056.95
454.76644	14291.25
458.87653	14406.65
462.98368	14304.75
467.08789	14171.05
471.18916	14000.65
475.2875	13821.35
479.38291	13719.05
483.4754	13647.55
487.56496	13495.85
491.6516	13322.95
495.73531	13242.55
499.81612	13152.65
503.89401	13206.95
507.96899	13256.15
512.04106	13211.55
516.11023	13155.15
520.1765	13072.95
524.23987	12967.15
528.30034	12861.15
532.35792	12772.85
536.41261	12649.55
540.46441	12547.45
544.51333	12525.05
548.55936	12614.75
552.60252	12855.25
556.64279	13096.45
560.6802	13304.85
564.71473	13384.15
568.7464	13524.55
572.7752	13800.75
576.80114	14079.95
580.82422	14429.85
584.84444	14830.45
588.86181	15294.75
592.87633	15674.15
596.888	15624.65
600.89682	15219.55
604.9028	15175.05
608.90594	15984.15
612.90624	16974.85
616.90371	16117.35
620.89834	14021.05
624.89015	13068.55
628.87913	12950.45
632.86528	12997.05
636.84862	12962.25
640.82913	12776.55
644.80683	12533.05
648.78172	12375.35
652.75379	12338.65
656.72306	12480.75
660.68952	12631.55
664.65319	12583.15
668.61405	12379.45
672.57211	12371.45
676.52738	12422.45
680.47986	12407.65
684.42955	12338.05
688.37646	12299.25
692.32058	12318.45
696.26192	12468.55
700.20048	12657.95
704.13626	12746.95
708.06928	12714.85
711.99952	12652.55
715.927	12642.25
719.85171	12686.55
723.77365	12658.15
727.69284	12507.25
731.60928	12374.65
735.52295	12320.45
739.43388	12324.45
743.34206	12356.35
747.24749	12417.35
751.15017	12502.35
755.05012	12711.15
758.94733	12991.35
762.8418	13485.35
766.73354	14249.25
770.62254	14972.65
774.50882	15072.55
778.39237	14577.65
782.27321	13788.95
786.15132	13080.75
790.02671	12660.75
793.89938	12481.55
797.76935	12408.95
801.6366	12368.65
805.50115	12334.95
809.36299	12268.95
813.22213	12182.45
817.07857	12163.45
820.93231	12113.95
824.78336	12063.75
828.63172	12038.85
832.47738	12042.85
836.32036	12057.75
840.16066	12136.65
843.99827	12156.75
847.8332	12146.05
851.66546	12082.65
855.49504	12056.05
859.32195	12074.85
863.1462	12022.15
866.96777	12017.55
870.78668	11967.25
874.60293	11985.55
878.41652	12001.35
882.22745	12003.75
886.03573	12042.75
889.84136	12080.25
893.64433	12012.05
897.44466	11967.95
901.24235	11926.05
905.0374	11903.65
908.8298	11864.05
912.61957	11885.15
916.40671	11960.25
920.19121	12095.75
923.97308	12276.15
927.75233	12288.85
931.52895	12258.55
935.30295	12092.85
939.07433	11907.05
942.84309	11794.35
946.60924	11737.45
950.37278	11694.85
954.13371	11668.35
957.89203	11608.95
961.64774	11612.45
965.40086	11605.45
969.15137	11579.05
972.89929	11525.55
976.64461	11518.85
980.38733	11527.55
984.12747	11574.75
987.86502	11629.55
991.59999	11750.75
995.33237	11929.15
999.06217	12191.45
1002.78939	12489.35
1006.51404	12667.85
1010.23611	12796.55
1013.95561	12861.15
1017.67255	12868.35
1021.38692	12773.15
1025.09872	12634.85
1028.80796	12669.65
1032.51465	12942.45
1036.21877	13284.95
1039.92035	13372.45
1043.61937	13244.15
1047.31584	13022.35
1051.00976	12735.05
1054.70114	12602.15
1058.38998	12555.35
1062.07627	12581.15
1065.76003	12683.35
1069.44126	12776.75
1073.11995	12912.55
1076.79611	13047.35
1080.46974	13140.65
1084.14085	13209.55
1087.80943	13288.85
1091.47549	13380.25
1095.13903	13366.75
1098.80005	13226.15
1102.45857	13021.05
1106.11456	12809.85
1109.76805	12749.05
1113.41903	12728.55
1117.06751	12771.55
1120.71348	12860.25
1124.35696	12950.35
1127.99793	13095.65
1131.63641	13174.55
1135.2724	13133.45
1138.90589	13042.65
1142.5369	13056.35
1146.16542	13080.65
1149.79145	13160.25
1153.415	13239.45
1157.03607	13368.05
1160.65467	13679.75
1164.27079	14186.45
1167.88443	14828.75
1171.49561	15514.45
1175.10432	16378.15
1178.71056	17514.75
1182.31434	18537.85
1185.91565	19085.05
1189.51451	19091.05
1193.11091	18616.85
1196.70485	18024.05
1200.29634	17429.75
1203.88538	16991.25
1207.47197	16772.65
1211.05612	16521.55
1214.63782	16201.15
1218.21708	15852.05
1221.79391	15548.35
1225.36829	15323.85
1228.94024	15153.95
1232.50976	14926.75
1236.07685	14720.85
1239.6415	14593.95
1243.20374	14607.55
1246.76355	14739.15
1250.32093	14941.65
1253.8759	15204.85
1257.42845	15556.45
1260.97859	15954.95
1264.52631	16312.05
1268.07163	16701.35
1271.61453	17192.15
1275.15503	17637.25
1278.69312	18119.85
1282.22882	18530.35
1285.76211	18968.25
1289.29301	19520.15
1292.82151	20237.65
1296.34761	21210.85
1299.87133	22338.35
1303.39266	23629.35
1306.9116	24842.75
1310.42815	25754.45
1313.94233	26129.25
1317.45412	25830.45
1320.96354	25222.05
1324.47058	24696.65
1327.97525	24240.65
1331.47754	23951.45
1334.97747	23766.25
1338.47502	23608.45
1341.97022	23322.65
1345.46305	23009.15
1348.95352	22832.85
1352.44163	22888.35
1355.92738	23410.85
1359.41078	24361.95
1362.89183	25144.95
1366.37053	24791.55
1369.84688	23017.45
1373.32088	20783.85
1376.79254	19149.55
1380.26186	18541.85
1383.72883	18521.15
1387.19347	18566.05
1390.65578	18352.45
1394.11575	18222.55
1397.57339	18356.75
1401.0287	18598.75
1404.48168	18833.55
1407.93234	18813.05
1411.38068	18585.25
1414.82669	18101.35
1418.27039	17477.05
1421.71177	16880.95
1425.15083	16365.25
1428.58758	16086.85
1432.02203	16185.95
1435.45416	16532.65
1438.88399	16967.35
1442.31151	17316.65
1445.73673	17538.35
1449.15965	17683.35
1452.58027	17707.75
1455.9986	17651.65
1459.41463	17658.75
1462.82837	17824.75
1466.23982	18170.35
1469.64898	18455.45
1473.05586	18687.05
1476.46045	18804.75
1479.86276	18735.95
1483.26279	18550.75
1486.66054	18532.75
1490.05602	18541.75
1493.44922	18687.65
1496.84016	18907.15
1500.22882	19133.85
1503.61521	19595.85
1506.99934	20081.85
1510.38121	20544.85
1513.76081	20668.45
1517.13816	20302.65
1520.51324	19693.65
1523.88607	19187.25
1527.25665	18931.65
1530.62498	18922.05
1533.99105	18861.55
1537.35488	18686.95
1540.71647	18388.35
1544.07581	18016.35
1547.4329	17595.85
1550.78776	17233.55
1554.14038	16996.75
1557.49077	16862.35
1560.83892	16736.15
1564.18484	16737.85
1567.52853	16775.55
1570.86999	16902.65
1574.20922	17161.45
1577.54624	17399.35
1580.88103	17495.25
1584.2136	17631.85
1587.54395	18069.95
1590.87208	18910.05
1594.19801	19961.95
1597.52172	20934.25
1600.84321	21223.95
1604.16251	20389.25
1607.47959	18948.45
1610.79447	17451.15
1614.10715	16052.05
1617.41763	14980.85
1620.7259	14280.85
1624.03199	13925.05
1627.33587	13938.45
1630.63757	14274.25
1633.93707	14970.45
1637.23439	16144.75
1640.52951	17833.85
1643.82246	19953.95
1647.11321	21645.45
1650.40179	22012.05
1653.68819	20608.65
1656.97241	18205.45
1660.25446	15837.15
1663.53433	14096.95
1666.81203	12975.95
1670.08756	12284.75
1673.36092	11863.65
1676.63211	11594.65
1679.90115	11425.95
1683.16801	11240.35
1686.43272	11137.15
1689.69527	11051.95
1692.95567	10971.85
1696.2139	10886.35
1699.46999	10850.05
1702.72392	10794.95
1705.97571	10800.95
1709.22535	10809.85
1712.47284	10832.75
1715.71819	10817.35
1718.96139	10800.95
1722.20246	10784.45
1725.44139	10747.45
1728.67818	10695.95
1731.91284	10661.85
1735.14537	10596.55
1738.37576	10555.45
1741.60403	10515.75
1744.83017	10480.75
1748.05418	10456.25
1751.27607	10450.65
1754.49584	10422.95
1757.71349	10399.85
1760.92903	10372.35
1764.14244	10376.75
1767.35375	10367.85
1770.56294	10340.05
1773.77002	10344.35
1776.97499	10337.55
1780.17785	10316.25
1783.37861	10346.05
1786.57727	10330.25
1789.77382	10310.65
1792.96828	10309.45
1796.16064	10264.85
1799.3509	10272.35
1802.53907	10256.45
1805.72514	10223.25
1808.90913	10193.55
1812.09102	10203.75
1815.27083	10163.55
1818.44856	10173.45
1821.6242	10156.75
1824.79776	10113.15
1827.96924	10122.85
1831.13864	10114.65
1834.30597	10113.65
1837.47122	10112.95
1840.6344	10106.95
1843.7955	10083.95
1846.95454	10104.55
1850.11151	10095.15
1853.26642	10080.15
1856.41926	10089.15
1859.57004	10099.75
1862.71876	10094.35
1865.86542	10051.35
1869.01003	10066.85
1872.15258	10058.75
1875.29308	10043.75
1878.43152	10036.75
1881.56792	10030.95
1884.70227	10015.55
1887.83457	10001.95
1890.96482	10007.35
1894.09304	9984.25
1897.21921	9966.95
1900.34335	9955.45
1903.46544	9941.95
1906.58551	9962.25
1909.70353	9931.75
1912.81953	9926.55
1915.93349	9917.65
1919.04543	9904.35
1922.15534	9880.85
1925.26322	9874.75
1928.36908	9848.35
1931.47292	9840.35
1934.57473	9807.05
1937.67453	9794.55
1940.77232	9782.65
1943.86808	9735.25
1946.96184	9699.65
1950.05358	9673.85
1953.14331	9648.45
1956.23103	9617.65
1959.31675	9621.05
1962.40046	9571.95
1965.48217	9578.35
1968.56188	9553.55
1971.63959	9511.05
1974.7153	9501.85
1977.78901	9473.05
1980.86073	9445.75
1983.93046	9422.65
1986.99819	9401.15
1990.06394	9355.05
1993.1277	9357.35
1996.18947	9302.25
1999.24925	9304.45
2002.30706	9253.25
2005.36288	9247.15
2008.41672	9245.55
2011.46859	9185.25
2014.51848	9168.55
2017.56639	9148.15
2020.61233	9136.55
2023.6563	9128.55
2026.6983	9102.95
2029.73833	9079.35
2032.7764	9052.65
2035.8125	9051.45
2038.84664	9036.15
2041.87881	9037.25
2044.90903	8998.55
2047.93729	9004.05
2050.96359	8993.85
2053.98794	8966.75
2057.01034	8977.35
2060.03078	8963.45
2063.04927	8961.65
2066.06582	8966.05
2069.08042	8947.95
2072.09307	8959.55
2075.10378	8938.75
2078.11255	8948.45
2081.11938	8951.35
2084.12426	8937.15
2087.12722	8928.75
2090.12824	8936.55
2093.12732	8941.95
2096.12447	8929.55
2099.11969	8917.05
2102.11299	8933.65
2105.10435	8943.55
2108.09379	8947.05
2111.08131	8976.45
2114.0669	8952.05
2117.05057	8976.35
2120.03233	8971.55
2123.01216	8969.95
2125.99008	8981.25
2128.96609	9000.65
2131.94018	9007.25
2134.91236	9001.85
2137.88263	9034.35
2140.851	9044.75
2143.81746	9016.15
2146.78201	9022.95
2149.74466	9022.95
2152.7054	9037.85
2155.66425	9028.85
2158.6212	9026.85
2161.57625	9037.55
2164.52941	9045.65
2167.48067	9050.05
2170.43004	9030.55
2173.37752	9059.95
2176.32311	9038.35
2179.26681	9041.25
2182.20863	9053.45
2185.14856	9027.15
2188.08661	9050.35
2191.02278	9064.35
2193.95707	9039.85
2196.88948	9043.95
2199.82001	9042.05
2202.74867	9029.35
2205.67545	9039.95
2208.60037	9015.65
2211.52341	9015.95
2214.44458	9002.45
2217.36388	8971.75
2220.28132	8988.85
2223.1969	8958.25
2226.11061	8947.35
2229.02246	8936.15
2231.93245	8920.25
2234.84058	8903.45
2237.74686	8912.75
2240.65128	8877.35
2243.55385	8851.85
2246.45456	8871.35
2249.35343	8842.75
2252.25044	8851.55
2255.14561	8818.75
2258.03893	8815.85
2260.93041	8798.55
2263.82004	8768.25
2266.70783	8752.55
2269.59378	8745.05
2272.4779	8721.55
2275.36017	8697.05
2278.24061	8700.45
2281.11922	8682.65
2283.996	8694.45
2286.87094	8685.15
2289.74405	8676.15
2292.61534	8665.75
2295.4848	8638.45
2298.35243	8663.55
2301.21824	8661.35
2304.08223	8670.85
2306.94439	8671.55
2309.80474	8690.15
2312.66327	8666.95
2315.51999	8660.65
2318.37489	8648.25
2321.22797	8639.65
2324.07925	8649.85
2326.92871	8621.85
2329.77637	8616.95
2332.62222	8621.75
2335.46626	8622.35
2338.3085	8609.15
2341.14893	8615.75
2343.98756	8622.75
2346.8244	8586.75
2349.65943	8596.15
2352.49267	8576.45
2355.32411	8597.15
2358.15376	8555.85
2360.98161	8597.05
2363.80768	8587.35
2366.63195	8572.85
2369.45444	8543.95
2372.27514	8554.75
2375.09405	8536.95
2377.91118	8526.15
2380.72652	8504.65
2383.54009	8468.85
2386.35187	8499.65
2389.16188	8461.45
2391.97011	8452.05
2394.77657	8448.05
2397.58125	8428.65
2400.38416	8435.15
2403.18529	8406.85
2405.98466	8383.45
2408.78226	8388.85
2411.57809	8394.65
2414.37216	8389.65
2417.16446	8362.45
2419.955	8349.35
2422.74378	8347.85
2425.5308	8349.45
2428.31606	8360.05
2431.09956	8342.15
2433.88131	8323.25
2436.6613	8334.55
2439.43954	8331.95
2442.21603	8322.55
2444.99077	8314.15
2447.76377	8311.25
2450.53501	8336.85
2453.30451	8328.35
2456.07226	8303.25
2458.83827	8286.85
2461.60254	8327.05
2464.36507	8304.85
2467.12586	8321.15
2469.88492	8280.45
2472.64224	8306.65
2475.39782	8284.55
2478.15167	8307.05
2480.90379	8300.15
2483.65417	8347.05
2486.40283	8310.95
2489.14976	8336.85
2491.89497	8324.15
2494.63845	8318.95
2497.3802	8318.05
2500.12024	8313.55
2502.85855	8300.85
2505.59514	8298.55
2508.33002	8292.55
2511.06318	8295.05
2513.79462	8284.65
2516.52435	8274.85
2519.25237	8285.55
2521.97867	8281.35
2524.70327	8274.65
2527.42616	8273.55
2530.14734	8257.45
2532.86681	8262.95
2535.58458	8260.65
2538.30065	8243.55
2541.01501	8246.75
2543.72768	8257.85
2546.43864	8227.25
2549.14791	8204.75
2551.85548	8196.85
2554.56136	8197.05
2557.26554	8205.15
2559.96803	8189.45
2562.66883	8195.15
2565.36794	8191.95
2568.06536	8189.95
2570.7611	8170.05
2573.45514	8155.85
2576.14751	8157.35
2578.83819	8153.75
2581.52719	8170.95
2584.21451	8132.35
2586.90015	8115.85
2589.58411	8111.75
2592.2664	8144.35
2594.94701	8144.65
2597.62594	8128.55
2600.30321	8100.85
2602.9788	8117.45
2605.65273	8094.65
2608.32498	8112.45
2610.99557	8106.65
2613.66449	8110.55
2616.33175	8099.55
2618.99734	8106.25
2621.66128	8106.45
2624.32355	8079.15
2626.98416	8085.55
2629.64311	8089.65
2632.30041	8085.65
2634.95605	8072.95
2637.61004	8064.25
2640.26238	8034.45
2642.91306	8019.45
2645.56209	8060.95
2648.20948	8040.55
2650.85521	8020.85
2653.4993	8030.75
2656.14175	8056.65
2658.78255	8047.55
2661.42171	8053.35
2664.05923	8067.15
2666.6951	8068.85
2669.32934	8097.45
2671.96194	8048.05
2674.59291	8078.65
2677.22224	8068.45
2679.84993	8069.35
2682.476	8047.85
2685.10043	8041.15
2687.72324	8040.05
2690.34441	8050.45
2692.96396	8048.55
2695.58188	8060.05
2698.19818	8050.65
2700.81285	8074.35
2703.4259	8051.55
2706.03733	8062.35
2708.64714	8061.75
2711.25533	8058.85
2713.86191	8053.05
2716.46687	8099.35
2719.07021	8074.75
2721.67194	8082.95
2724.27206	8084.65
2726.87057	8101.95
2729.46747	8102.95
2732.06276	8106.05
2734.65644	8091.95
2737.24852	8108.45
2739.83899	8095.15
2742.42786	8093.95
2745.01513	8081.45
2747.60079	8108.75
2750.18486	8084.35
2752.76733	8088.15
2755.3482	8094.05
2757.92747	8087.05
2760.50515	8076.25
2763.08123	8079.85
2765.65573	8073.65
2768.22863	8070.65
2770.79994	8047.35
2773.36967	8074.15
2775.9378	8060.25
2778.50435	8059.25
2781.06932	8041.35
2783.6327	8065.25
2786.1945	8048.95
2788.75471	8041.75
2791.31335	8014.15
2793.87041	8032.95
2796.42589	8000.75
2798.97979	7988.45
2801.53212	7974.65
2804.08288	7986.85
2806.63206	7977.25
2809.17967	7958.95
2811.72571	7923.05
2814.27018	7921.05
2816.81308	7895.35
2819.35442	7914.05
2821.89419	7891.05
2824.43239	7913.45
2826.96904	7877.55
2829.50412	7881.85
2832.03763	7876.85
2834.56959	7883.55
2837.1	7866.45
2839.62884	7891.25
2842.15613	7855.05
2844.68186	7898.85
2847.20604	7883.25
2849.72867	7892.55
2852.24974	7886.15
2854.76927	7910.45
2857.28724	7867.95
2859.80367	7885.25
2862.31855	7865.95
2864.83189	7879.75
2867.34368	7858.85
2869.85393	7854.95
2872.36264	7841.65
2874.8698	7835.55
2877.37543	7842.65
2879.87952	7871.05
2882.38207	7832.45
2884.88308	7840.95
2887.38256	7834.65
2889.88051	7838.95
2892.37692	7841.05
2894.8718	7836.85
2897.36515	7860.25
2899.85698	7844.95
2902.34727	7860.45
2904.83604	7873.25
2907.32328	7896.45
2909.809	7872.75
2912.29319	7906.25
2914.77587	7910.95
2917.25702	7893.85
2919.73665	7877.95
2922.21476	7893.05
2924.69136	7878.55
2927.16644	7899.65
2929.64	7892.05
2932.11205	7880.55
2934.58258	7861.35
2937.05161	7871.55
2939.51912	7860.45
2941.98513	7857.65
2944.44962	7825.85
2946.91261	7788.05
2949.37409	7831.25
2951.83407	7836.85
2954.29254	7837.95
2956.74951	7814.35
2959.20498	7811.55
2961.65895	7816.35
2964.11142	7829.65
2966.56239	7800.65
2969.01186	7779.45
2971.45984	7787.85
2973.90632	7763.35
2976.35131	7770.65
2978.7948	7757.05
2981.23681	7756.35
2983.67732	7744.35
2986.11635	7703.45
2988.55388	7708.05
2990.98993	7719.35
2993.4245	7684.25
2995.85758	7676.65
2998.28917	7661.65
3000.71928	7645.35
3003.14791	7635.75
3005.57506	7628.75
3008.00073	7614.75
3010.42493	7603.65
3012.84764	7601.65
3015.26888	7604.15
3017.68865	7592.65
3020.10694	7564.35
3022.52376	7549.45
3024.9391	7545.15
3027.35298	7559.85
3029.76539	7549.65
3032.17632	7538.15
3034.5858	7539.45
3036.9938	7523.95
3039.40034	7523.15
3041.80542	7520.75
3044.20903	7523.15
3046.61118	7519.65
3049.01187	7498.65
3051.4111	7521.35
3053.80888	7486.85
3056.20519	7488.65
3058.60005	7465.25
3060.99345	7456.75
3063.3854	7424.15
3065.7759	7398.65
3068.16494	7416.15
3070.55254	7415.15
3072.93868	7406.35
3075.32338	7390.25
3077.70662	7378.45
3080.08842	7358.25
3082.46878	7359.35
3084.84769	7338.65
3087.22515	7349.25
3089.60118	7359.35
3091.97576	7345.65
3094.3489	7351.35
3096.72061	7361.55
3099.09087	7376.45
3101.4597	7343.05
3103.82709	7374.05
3106.19305	7346.05
3108.55757	7355.95
3110.92066	7339.05
3113.28232	7320.65
3115.64255	7327.05
3118.00134	7296.15
3120.35871	7316.75
3122.71466	7309.75
3125.06917	7302.65
3127.42226	7268.65
3129.77393	7282.05
3132.12417	7284.45
3134.47299	7279.25
3136.82039	7270.45
3139.16636	7279.95
3141.51092	7268.45
3143.85406	7300.65
3146.19579	7301.95
3148.53609	7282.35
3150.87499	7313.55
3153.21246	7334.35
3155.54853	7347.45
3157.88318	7298.15
3160.21642	7336.75
3162.54826	7327.55
3164.87868	7342.15
3167.2077	7333.25
3169.5353	7350.65
3171.86151	7395.35
3174.18631	7351.15
3176.5097	7348.55
3178.83169	7342.75
3181.15228	7325.05
3183.47147	7329.75
3185.78926	7315.25
3188.10565	7332.35
3190.42065	7322.05
3192.73424	7320.05
3195.04645	7306.25
3197.35725	7311.75
3199.66667	7308.75
3201.97469	7324.75
3204.28132	7332.75
3206.58656	7318.05
3208.8904	7346.75
3211.19287	7347.55
3213.49394	7355.15
3215.79363	7358.45
3218.09193	7367.45
3220.38884	7350.65
3222.68438	7351.35
3224.97853	7356.55
3227.2713	7342.65
3229.56269	7339.45
3231.8527	7346.55
3234.14133	7340.85
3236.42858	7318.95
3238.71446	7311.45
3240.99896	7284.15
3243.28209	7317.25
3245.56384	7306.55
3247.84423	7290.15
3250.12324	7278.85
3252.40088	7269.55
3254.67715	7273.25
3256.95205	7259.75
3259.22558	7288.45
3261.49775	7254.25
3263.76855	7270.15
3266.03799	7251.95
3268.30606	7255.65
3270.57277	7225.45
3272.83812	7205.05
3275.10211	7194.15
3277.36474	7163.25
3279.62601	7193.75
3281.88593	7180.55
3284.14448	7175.05
3286.40168	7193.95
3288.65753	7193.35
3290.91202	7204.65
3293.16516	7169.95
3295.41695	7152.25
3297.66738	7102.75
3299.91647	7083.35
3302.16421	7033.95
3304.4106	7016.35
3306.65564	6987.85
3308.89933	6935.15
3311.14169	6895.35
3313.38269	6869.85
3315.62236	6795.95
3317.86068	6743.65
3320.09766	6714.15
3322.3333	6661.35
3324.5676	6650.75
3326.80056	6555.65
3329.03219	6502.95
3331.26248	1.95
3333.49143	-1.15
3335.71905	-1.25
