Data from AgNPs_FTO_APTES_UA_1uM_CRN_100uM_R6G_10uM_NaF_0.1M_Addition_RamanShift__1__16-21-49-764.txt Node

Date: Thu Jan 27 16:21:49 GMT 2022
User: TCL
Spectrometer: QEP01345
Trigger mode: 4
Integration Time (sec): 7.000000E0
Scans to average: 10
Electric dark correction enabled: true
Nonlinearity correction enabled: false
Boxcar width: 0
XAxis mode: Raman Shifts
Number of Pixels in Spectrum: 1044
>>>>>Begin Spectral Data<<<<<
46.04893	1.05
50.45542	0.35
54.85868	-1.75
59.25871	-1.55
63.6555	44.45
68.04907	50.05
72.43941	49.55
76.82654	54.75
81.21044	54.35
85.59113	53.05
89.96862	57.95
94.34289	61.55
98.71396	64.35
103.08183	63.15
107.4465	66.45
111.80798	70.95
116.16626	67.85
120.52136	76.55
124.87327	74.65
129.222	73.95
133.56755	78.55
137.90993	87.55
142.24913	91.45
146.58517	97.35
150.91804	113.45
155.24774	128.25
159.57429	159.65
163.89768	195.95
168.21792	256.45
172.53501	348.35
176.84895	479.25
181.15975	663.05
185.46741	931.75
189.77193	1291.45
194.07331	1716.15
198.37157	2216.55
202.6667	2743.95
206.9587	3258.25
211.24758	3777.85
215.53334	4273.15
219.81599	4828.15
224.09553	5419.65
228.37195	6052.65
232.64527	6764.05
236.91549	7505.65
241.18261	8259.55
245.44663	9004.05
249.70755	9641.05
253.96539	10210.85
258.22014	10719.25
262.4718	11097.05
266.72039	11386.75
270.96589	11554.35
275.20832	11580.85
279.44768	11542.05
283.68397	11419.75
287.91719	11339.05
292.14735	11246.55
296.37445	11244.45
300.59849	11240.35
304.81948	11330.55
309.03742	11305.25
313.25231	11232.25
317.46415	11066.85
321.67296	10804.75
325.87872	10609.85
330.08145	10492.25
334.28114	10503.15
338.47781	10571.05
342.67145	10685.65
346.86207	10847.55
351.04966	11028.35
355.23424	11230.05
359.4158	11406.45
363.59435	11563.05
367.76989	11681.85
371.94243	11737.65
376.11196	11778.75
380.27849	11832.35
384.44203	11904.65
388.60257	11965.65
392.76012	12081.95
396.91468	12215.95
401.06626	12392.65
405.21485	12504.85
409.36047	12485.35
413.50311	12334.75
417.64277	12212.15
421.77947	12218.55
425.9132	12206.25
430.04396	12270.25
434.17176	12326.75
438.2966	12395.45
442.41849	12565.05
446.53742	12843.95
450.6534	13168.05
454.76644	13376.25
458.87653	13473.25
462.98368	13412.75
467.08789	13332.55
471.18916	13225.95
475.2875	13118.65
479.38291	13029.45
483.4754	12993.45
487.56496	12849.35
491.6516	12732.95
495.73531	12528.35
499.81612	12442.85
503.89401	12474.15
507.96899	12503.25
512.04106	12528.55
516.11023	12453.85
520.1765	12372.45
524.23987	12287.35
528.30034	12233.15
532.35792	12164.05
536.41261	12049.55
540.46441	11931.85
544.51333	11904.35
548.55936	12014.75
552.60252	12216.45
556.64279	12459.05
560.6802	12633.55
564.71473	12771.35
568.7464	12888.05
572.7752	13186.95
576.80114	13414.55
580.82422	13685.15
584.84444	13974.75
588.86181	14373.95
592.87633	14726.15
596.888	14660.25
600.89682	14245.75
604.9028	14177.65
608.90594	14965.05
612.90624	15925.05
616.90371	15248.15
620.89834	13290.25
624.89015	12357.55
628.87913	12277.25
632.86528	12329.65
636.84862	12339.75
640.82913	12187.75
644.80683	11991.35
648.78172	11870.35
652.75379	11823.55
656.72306	11956.75
660.68952	12093.05
664.65319	12046.45
668.61405	11875.25
672.57211	11831.45
676.52738	11864.65
680.47986	11870.75
684.42955	11857.05
688.37646	11810.85
692.32058	11844.95
696.26192	11942.35
700.20048	12070.45
704.13626	12179.45
708.06928	12164.45
711.99952	12160.15
715.927	12142.75
719.85171	12156.25
723.77365	12135.35
727.69284	12010.15
731.60928	11913.75
735.52295	11846.15
739.43388	11854.65
743.34206	11868.45
747.24749	11906.95
751.15017	12013.75
755.05012	12140.45
758.94733	12417.45
762.8418	12881.55
766.73354	13568.25
770.62254	14250.95
774.50882	14428.25
778.39237	14006.95
782.27321	13275.95
786.15132	12614.35
790.02671	12190.85
793.89938	11981.85
797.76935	11877.95
801.6366	11843.65
805.50115	11832.65
809.36299	11787.45
813.22213	11722.45
817.07857	11702.65
820.93231	11688.35
824.78336	11655.45
828.63172	11597.95
832.47738	11619.35
836.32036	11607.15
840.16066	11635.05
843.99827	11665.45
847.8332	11625.95
851.66546	11621.75
855.49504	11602.05
859.32195	11623.75
863.1462	11599.85
866.96777	11587.05
870.78668	11545.55
874.60293	11586.65
878.41652	11557.25
882.22745	11585.35
886.03573	11627.45
889.84136	11633.75
893.64433	11599.45
897.44466	11566.45
901.24235	11541.65
905.0374	11503.35
908.8298	11489.85
912.61957	11496.55
916.40671	11571.25
920.19121	11684.45
923.97308	11779.65
927.75233	11800.35
931.52895	11745.25
935.30295	11637.95
939.07433	11454.15
942.84309	11336.25
946.60924	11269.15
950.37278	11237.85
954.13371	11224.65
957.89203	11224.95
961.64774	11215.75
965.40086	11182.05
969.15137	11167.65
972.89929	11120.25
976.64461	11102.65
980.38733	11113.55
984.12747	11124.95
987.86502	11166.15
991.59999	11228.75
995.33237	11362.75
999.06217	11511.75
1002.78939	11684.35
1006.51404	11812.45
1010.23611	11969.45
1013.95561	12080.65
1017.67255	12059.35
1021.38692	12002.05
1025.09872	11887.95
1028.80796	11826.15
1032.51465	11909.35
1036.21877	12069.25
1039.92035	12126.25
1043.61937	12112.55
1047.31584	12006.85
1051.00976	11915.95
1054.70114	11882.35
1058.38998	11942.55
1062.07627	11991.85
1065.76003	12082.65
1069.44126	12213.45
1073.11995	12337.15
1076.79611	12438.75
1080.46974	12489.05
1084.14085	12521.15
1087.80943	12590.75
1091.47549	12710.45
1095.13903	12709.85
1098.80005	12635.55
1102.45857	12413.35
1106.11456	12227.95
1109.76805	12135.35
1113.41903	12140.25
1117.06751	12170.45
1120.71348	12279.15
1124.35696	12389.95
1127.99793	12522.65
1131.63641	12607.85
1135.2724	12543.25
1138.90589	12440.25
1142.5369	12421.55
1146.16542	12495.85
1149.79145	12546.55
1153.415	12620.75
1157.03607	12725.65
1160.65467	13010.75
1164.27079	13451.85
1167.88443	13987.25
1171.49561	14573.05
1175.10432	15308.55
1178.71056	16230.75
1182.31434	17106.15
1185.91565	17477.75
1189.51451	17422.05
1193.11091	17030.95
1196.70485	16602.35
1200.29634	16137.15
1203.88538	15807.45
1207.47197	15579.95
1211.05612	15359.35
1214.63782	15117.35
1218.21708	14802.05
1221.79391	14445.85
1225.36829	14249.05
1228.94024	14122.85
1232.50976	13960.25
1236.07685	13827.95
1239.6415	13725.15
1243.20374	13766.75
1246.76355	13836.55
1250.32093	13988.05
1253.8759	14220.05
1257.42845	14477.85
1260.97859	14795.55
1264.52631	15072.55
1268.07163	15366.05
1271.61453	15676.25
1275.15503	16042.05
1278.69312	16411.25
1282.22882	16785.45
1285.76211	17206.75
1289.29301	17742.75
1292.82151	18475.25
1296.34761	19302.35
1299.87133	20294.45
1303.39266	21233.35
1306.9116	22169.15
1310.42815	22904.85
1313.94233	23240.55
1317.45412	23085.45
1320.96354	22645.65
1324.47058	22286.45
1327.97525	21932.55
1331.47754	21638.55
1334.97747	21490.95
1338.47502	21333.75
1341.97022	21117.45
1345.46305	20891.95
1348.95352	20811.05
1352.44163	20893.35
1355.92738	21305.85
1359.41078	22114.75
1362.89183	22809.35
1366.37053	22563.45
1369.84688	21017.75
1373.32088	19058.55
1376.79254	17618.15
1380.26186	17137.65
1383.72883	17104.75
1387.19347	17133.35
1390.65578	17026.45
1394.11575	16914.65
1397.57339	16980.85
1401.0287	17165.25
1404.48168	17352.45
1407.93234	17258.25
1411.38068	16977.95
1414.82669	16527.15
1418.27039	15970.95
1421.71177	15445.85
1425.15083	15004.15
1428.58758	14736.35
1432.02203	14790.45
1435.45416	15053.25
1438.88399	15446.25
1442.31151	15693.25
1445.73673	15831.25
1449.15965	15989.05
1452.58027	16074.45
1455.9986	16055.05
1459.41463	16086.75
1462.82837	16196.35
1466.23982	16407.55
1469.64898	16622.15
1473.05586	16824.85
1476.46045	16872.65
1479.86276	16858.15
1483.26279	16758.45
1486.66054	16725.55
1490.05602	16769.65
1493.44922	16965.25
1496.84016	17191.15
1500.22882	17528.35
1503.61521	17997.05
1506.99934	18630.95
1510.38121	19148.25
1513.76081	19352.45
1517.13816	19042.65
1520.51324	18436.15
1523.88607	17888.65
1527.25665	17600.65
1530.62498	17509.35
1533.99105	17394.65
1537.35488	17220.65
1540.71647	16876.85
1544.07581	16477.85
1547.4329	16115.45
1550.78776	15797.15
1554.14038	15591.25
1557.49077	15518.15
1560.83892	15467.25
1564.18484	15489.15
1567.52853	15581.05
1570.86999	15739.05
1574.20922	16034.65
1577.54624	16262.55
1580.88103	16375.35
1584.2136	16377.55
1587.54395	16680.75
1590.87208	17272.75
1594.19801	17987.15
1597.52172	18676.45
1600.84321	18814.25
1604.16251	18155.35
1607.47959	17053.55
1610.79447	15826.65
1614.10715	14778.45
1617.41763	13914.05
1620.7259	13347.05
1624.03199	13061.55
1627.33587	13052.45
1630.63757	13293.65
1633.93707	13897.35
1637.23439	14842.35
1640.52951	16296.15
1643.82246	18074.45
1647.11321	19625.75
1650.40179	20118.65
1653.68819	19077.25
1656.97241	17038.55
1660.25446	14922.95
1663.53433	13373.95
1666.81203	12389.55
1670.08756	11761.45
1673.36092	11367.45
1676.63211	11122.85
1679.90115	10941.65
1683.16801	10834.25
1686.43272	10695.55
1689.69527	10636.85
1692.95567	10551.35
1696.2139	10478.55
1699.46999	10410.55
1702.72392	10349.05
1705.97571	10405.65
1709.22535	10411.25
1712.47284	10432.85
1715.71819	10429.05
1718.96139	10430.75
1722.20246	10434.45
1725.44139	10377.35
1728.67818	10341.45
1731.91284	10277.15
1735.14537	10251.65
1738.37576	10197.35
1741.60403	10151.95
1744.83017	10136.65
1748.05418	10113.05
1751.27607	10115.85
1754.49584	10058.45
1757.71349	10038.35
1760.92903	10034.95
1764.14244	10010.05
1767.35375	10016.45
1770.56294	9992.15
1773.77002	9960.75
1776.97499	10013.55
1780.17785	10003.95
1783.37861	10013.05
1786.57727	9971.25
1789.77382	9968.25
1792.96828	9946.45
1796.16064	9936.25
1799.3509	9908.25
1802.53907	9935.95
1805.72514	9903.95
1808.90913	9891.65
1812.09102	9850.95
1815.27083	9833.75
1818.44856	9838.25
1821.6242	9811.45
1824.79776	9795.75
1827.96924	9786.35
1831.13864	9762.55
1834.30597	9794.55
1837.47122	9782.85
1840.6344	9756.75
1843.7955	9780.45
1846.95454	9743.95
1850.11151	9759.35
1853.26642	9731.15
1856.41926	9743.15
1859.57004	9741.25
1862.71876	9744.35
1865.86542	9714.35
1869.01003	9732.25
1872.15258	9716.55
1875.29308	9698.65
1878.43152	9719.15
1881.56792	9690.55
1884.70227	9668.05
1887.83457	9674.85
1890.96482	9637.65
1894.09304	9646.25
1897.21921	9625.95
1900.34335	9620.15
1903.46544	9614.55
1906.58551	9592.75
1909.70353	9583.55
1912.81953	9572.35
1915.93349	9564.65
1919.04543	9548.85
1922.15534	9525.05
1925.26322	9518.25
1928.36908	9490.65
1931.47292	9474.55
1934.57473	9449.75
1937.67453	9470.95
1940.77232	9415.55
1943.86808	9402.65
1946.96184	9342.75
1950.05358	9353.25
1953.14331	9307.05
1956.23103	9307.15
1959.31675	9280.25
1962.40046	9258.55
1965.48217	9233.25
1968.56188	9213.75
1971.63959	9176.55
1974.7153	9160.45
1977.78901	9141.35
1980.86073	9141.95
1983.93046	9100.55
1986.99819	9071.15
1990.06394	9041.25
1993.1277	9018.75
1996.18947	8963.55
1999.24925	8946.05
2002.30706	8924.55
2005.36288	8927.85
2008.41672	8891.95
2011.46859	8862.05
2014.51848	8845.55
2017.56639	8826.55
2020.61233	8815.95
2023.6563	8781.95
2026.6983	8771.55
2029.73833	8753.45
2032.7764	8728.35
2035.8125	8717.65
2038.84664	8672.75
2041.87881	8693.65
2044.90903	8660.75
2047.93729	8651.95
2050.96359	8628.85
2053.98794	8617.45
2057.01034	8631.95
2060.03078	8645.75
2063.04927	8631.35
2066.06582	8610.85
2069.08042	8626.35
2072.09307	8605.55
2075.10378	8614.35
2078.11255	8597.75
2081.11938	8600.05
2084.12426	8595.75
2087.12722	8601.85
2090.12824	8579.65
2093.12732	8594.85
2096.12447	8581.25
2099.11969	8576.75
2102.11299	8611.75
2105.10435	8589.45
2108.09379	8595.15
2111.08131	8615.75
2114.0669	8618.95
2117.05057	8632.65
2120.03233	8619.95
2123.01216	8637.05
2125.99008	8645.55
2128.96609	8634.15
2131.94018	8664.05
2134.91236	8675.35
2137.88263	8687.25
2140.851	8686.25
2143.81746	8691.15
2146.78201	8682.85
2149.74466	8689.85
2152.7054	8714.25
2155.66425	8677.65
2158.6212	8693.35
2161.57625	8672.75
2164.52941	8680.55
2167.48067	8660.15
2170.43004	8670.85
2173.37752	8704.45
2176.32311	8676.05
2179.26681	8675.25
2182.20863	8672.05
2185.14856	8678.35
2188.08661	8694.75
2191.02278	8675.35
2193.95707	8663.85
2196.88948	8683.55
2199.82001	8665.25
2202.74867	8655.65
2205.67545	8658.75
2208.60037	8660.75
2211.52341	8624.05
2214.44458	8625.55
2217.36388	8605.65
2220.28132	8600.85
2223.1969	8584.65
2226.11061	8581.75
2229.02246	8558.35
2231.93245	8548.15
2234.84058	8553.95
2237.74686	8522.55
2240.65128	8532.45
2243.55385	8521.05
2246.45456	8502.45
2249.35343	8484.65
2252.25044	8474.25
2255.14561	8466.95
2258.03893	8448.45
2260.93041	8441.25
2263.82004	8421.95
2266.70783	8392.85
2269.59378	8378.25
2272.4779	8344.35
2275.36017	8338.15
2278.24061	8344.65
2281.11922	8326.45
2283.996	8314.25
2286.87094	8295.25
2289.74405	8258.55
2292.61534	8284.15
2295.4848	8284.75
2298.35243	8287.85
2301.21824	8275.35
2304.08223	8288.55
2306.94439	8275.85
2309.80474	8280.95
2312.66327	8259.05
2315.51999	8260.35
2318.37489	8240.65
2321.22797	8257.55
2324.07925	8227.05
2326.92871	8234.15
2329.77637	8232.25
2332.62222	8179.05
2335.46626	8203.85
2338.3085	8167.35
2341.14893	8190.55
2343.98756	8182.55
2346.8244	8166.45
2349.65943	8162.65
2352.49267	8149.55
2355.32411	8183.25
2358.15376	8140.35
2360.98161	8151.15
2363.80768	8148.95
2366.63195	8156.15
2369.45444	8138.55
2372.27514	8146.55
2375.09405	8142.75
2377.91118	8122.95
2380.72652	8106.95
2383.54009	8078.85
2386.35187	8053.15
2389.16188	8066.95
2391.97011	8038.75
2394.77657	8023.55
2397.58125	8011.25
2400.38416	7998.75
2403.18529	7999.55
2405.98466	7999.05
2408.78226	7960.15
2411.57809	7953.35
2414.37216	7959.45
2417.16446	7950.75
2419.955	7941.75
2422.74378	7932.55
2425.5308	7938.45
2428.31606	7928.15
2431.09956	7928.25
2433.88131	7908.75
2436.6613	7911.65
2439.43954	7919.75
2442.21603	7915.35
2444.99077	7907.75
2447.76377	7893.65
2450.53501	7893.85
2453.30451	7887.55
2456.07226	7885.95
2458.83827	7871.95
2461.60254	7872.75
2464.36507	7889.15
2467.12586	7859.35
2469.88492	7859.45
2472.64224	7853.65
2475.39782	7842.85
2478.15167	7841.15
2480.90379	7862.05
2483.65417	7857.65
2486.40283	7859.05
2489.14976	7865.25
2491.89497	7848.85
2494.63845	7849.85
2497.3802	7832.05
2500.12024	7837.15
2502.85855	7817.75
2505.59514	7827.05
2508.33002	7821.75
2511.06318	7816.45
2513.79462	7824.45
2516.52435	7808.55
2519.25237	7816.25
2521.97867	7791.55
2524.70327	7787.45
2527.42616	7792.15
2530.14734	7778.95
2532.86681	7753.85
2535.58458	7748.45
2538.30065	7733.65
2541.01501	7742.95
2543.72768	7721.85
2546.43864	7732.35
2549.14791	7706.75
2551.85548	7716.75
2554.56136	7691.45
2557.26554	7691.25
2559.96803	7690.25
2562.66883	7706.15
2565.36794	7688.55
2568.06536	7666.75
2570.7611	7662.95
2573.45514	7636.35
2576.14751	7628.35
2578.83819	7619.95
2581.52719	7608.35
2584.21451	7611.35
2586.90015	7618.05
2589.58411	7590.45
2592.2664	7612.75
2594.94701	7556.65
2597.62594	7561.35
2600.30321	7569.05
2602.9788	7560.65
2605.65273	7562.75
2608.32498	7571.15
2610.99557	7543.65
2613.66449	7529.95
2616.33175	7520.95
2618.99734	7523.15
2621.66128	7527.85
2624.32355	7518.65
2626.98416	7517.85
2629.64311	7504.95
2632.30041	7499.35
2634.95605	7488.55
2637.61004	7459.65
2640.26238	7475.35
2642.91306	7455.05
2645.56209	7456.35
2648.20948	7462.85
2650.85521	7445.25
2653.4993	7436.25
2656.14175	7455.65
2658.78255	7460.25
2661.42171	7487.15
2664.05923	7493.05
2666.6951	7465.85
2669.32934	7486.05
2671.96194	7471.35
2674.59291	7494.95
2677.22224	7472.65
2679.84993	7466.75
2682.476	7472.95
2685.10043	7482.55
2687.72324	7449.25
2690.34441	7454.85
2692.96396	7464.95
2695.58188	7466.35
2698.19818	7463.35
2700.81285	7450.65
2703.4259	7441.05
2706.03733	7434.25
2708.64714	7443.25
2711.25533	7481.65
2713.86191	7442.95
2716.46687	7487.65
2719.07021	7482.35
2721.67194	7506.45
2724.27206	7485.35
2726.87057	7502.25
2729.46747	7497.75
2732.06276	7512.65
2734.65644	7488.95
2737.24852	7519.25
2739.83899	7478.65
2742.42786	7497.45
2745.01513	7462.45
2747.60079	7479.95
2750.18486	7477.75
2752.76733	7458.25
2755.3482	7473.25
2757.92747	7444.35
2760.50515	7437.35
2763.08123	7445.15
2765.65573	7443.25
2768.22863	7430.55
2770.79994	7437.25
2773.36967	7441.45
2775.9378	7424.95
2778.50435	7419.15
2781.06932	7417.05
2783.6327	7397.45
2786.1945	7401.25
2788.75471	7391.35
2791.31335	7379.25
2793.87041	7362.35
2796.42589	7345.25
2798.97979	7343.55
2801.53212	7353.05
2804.08288	7339.75
2806.63206	7296.15
2809.17967	7311.45
2811.72571	7274.65
2814.27018	7280.95
2816.81308	7258.25
2819.35442	7237.85
2821.89419	7229.35
2824.43239	7228.45
2826.96904	7224.05
2829.50412	7232.35
2832.03763	7212.15
2834.56959	7245.75
2837.1	7218.05
2839.62884	7228.85
2842.15613	7219.35
2844.68186	7227.85
2847.20604	7227.55
2849.72867	7231.15
2852.24974	7237.25
2854.76927	7241.55
2857.28724	7221.35
2859.80367	7213.45
2862.31855	7215.85
2864.83189	7202.05
2867.34368	7192.55
2869.85393	7176.05
2872.36264	7186.25
2874.8698	7178.75
2877.37543	7161.05
2879.87952	7157.15
2882.38207	7168.75
2884.88308	7155.15
2887.38256	7169.25
2889.88051	7176.05
2892.37692	7181.25
2894.8718	7178.35
2897.36515	7175.05
2899.85698	7171.85
2902.34727	7176.95
2904.83604	7215.05
2907.32328	7206.15
2909.809	7203.15
2912.29319	7206.65
2914.77587	7219.55
2917.25702	7205.95
2919.73665	7188.75
2922.21476	7198.05
2924.69136	7187.05
2927.16644	7195.15
2929.64	7184.55
2932.11205	7186.75
2934.58258	7153.45
2937.05161	7163.85
2939.51912	7179.65
2941.98513	7170.35
2944.44962	7136.25
2946.91261	7118.25
2949.37409	7122.25
2951.83407	7136.45
2954.29254	7105.75
2956.74951	7105.95
2959.20498	7128.95
2961.65895	7103.95
2964.11142	7117.05
2966.56239	7090.75
2969.01186	7085.05
2971.45984	7086.05
2973.90632	7083.55
2976.35131	7064.25
2978.7948	7069.25
2981.23681	7066.65
2983.67732	7042.45
2986.11635	7037.25
2988.55388	7006.55
2990.98993	7004.35
2993.4245	7005.85
2995.85758	6984.85
2998.28917	6982.95
3000.71928	6969.95
3003.14791	6954.95
3005.57506	6948.15
3008.00073	6911.75
3010.42493	6921.05
3012.84764	6910.95
3015.26888	6918.05
3017.68865	6895.05
3020.10694	6910.55
3022.52376	6871.85
3024.9391	6880.75
3027.35298	6865.85
3029.76539	6846.85
3032.17632	6853.35
3034.5858	6845.55
3036.9938	6869.55
3039.40034	6847.35
3041.80542	6855.25
3044.20903	6808.85
3046.61118	6827.15
3049.01187	6818.55
3051.4111	6826.25
3053.80888	6813.55
3056.20519	6798.15
3058.60005	6771.45
3060.99345	6764.75
3063.3854	6739.35
3065.7759	6715.15
3068.16494	6740.55
3070.55254	6711.45
3072.93868	6704.75
3075.32338	6696.15
3077.70662	6683.15
3080.08842	6663.15
3082.46878	6675.45
3084.84769	6675.55
3087.22515	6669.95
3089.60118	6658.05
3091.97576	6666.85
3094.3489	6669.95
3096.72061	6666.55
3099.09087	6683.05
3101.4597	6667.15
3103.82709	6669.95
3106.19305	6659.85
3108.55757	6655.15
3110.92066	6664.25
3113.28232	6649.95
3115.64255	6620.85
3118.00134	6613.55
3120.35871	6600.15
3122.71466	6619.75
3125.06917	6585.25
3127.42226	6586.75
3129.77393	6597.15
3132.12417	6584.95
3134.47299	6578.15
3136.82039	6587.05
3139.16636	6590.15
3141.51092	6588.85
3143.85406	6593.05
3146.19579	6607.75
3148.53609	6611.65
3150.87499	6617.15
3153.21246	6639.75
3155.54853	6632.45
3157.88318	6626.35
3160.21642	6620.05
3162.54826	6653.65
3164.87868	6623.75
3167.2077	6625.65
3169.5353	6648.35
3171.86151	6638.65
3174.18631	6643.65
3176.5097	6636.55
3178.83169	6626.55
3181.15228	6640.05
3183.47147	6621.75
3185.78926	6627.65
3188.10565	6596.45
3190.42065	6621.15
3192.73424	6615.15
3195.04645	6596.75
3197.35725	6628.95
3199.66667	6609.25
3201.97469	6595.05
3204.28132	6604.85
3206.58656	6602.25
3208.8904	6623.55
3211.19287	6623.85
3213.49394	6622.45
3215.79363	6638.35
3218.09193	6643.35
3220.38884	6630.45
3222.68438	6634.35
3224.97853	6631.25
3227.2713	6643.35
3229.56269	6625.05
3231.8527	6621.15
3234.14133	6623.25
3236.42858	6598.55
3238.71446	6581.45
3240.99896	6585.15
3243.28209	6570.95
3245.56384	6571.15
3247.84423	6572.65
3250.12324	6560.15
3252.40088	6548.15
3254.67715	6549.75
3256.95205	6556.25
3259.22558	6565.85
3261.49775	6562.65
3263.76855	6543.65
3266.03799	6520.95
3268.30606	6516.45
3270.57277	6513.25
3272.83812	6474.15
3275.10211	6478.65
3277.36474	6470.05
3279.62601	6469.65
3281.88593	6462.35
3284.14448	6472.05
3286.40168	6480.25
3288.65753	6474.45
3290.91202	6441.85
3293.16516	6452.15
3295.41695	6439.75
3297.66738	6387.15
3299.91647	6370.95
3302.16421	6317.25
3304.4106	6314.85
3306.65564	6281.75
3308.89933	6228.65
3311.14169	6208.85
3313.38269	6143.85
3315.62236	6098.65
3317.86068	6057.25
3320.09766	6013.25
3322.3333	5987.15
3324.5676	5978.95
3326.80056	5861.05
3329.03219	5823.85
3331.26248	2.45
3333.49143	0.35
3335.71905	-1.25
