Data from AgNPs_FTO_APTES_UA_1uM_CRN_1uM_R6G_10uM_NaF_0.1M_Addition_RamanShift__14__12-28-29-497.txt Node

Date: Thu Jan 27 12:28:29 GMT 2022
User: TCL
Spectrometer: QEP01345
Trigger mode: 4
Integration Time (sec): 7.000000E0
Scans to average: 10
Electric dark correction enabled: true
Nonlinearity correction enabled: false
Boxcar width: 0
XAxis mode: Raman Shifts
Number of Pixels in Spectrum: 1044
>>>>>Begin Spectral Data<<<<<
46.04893	0.85
50.45542	0.75
54.85868	-2.15
59.25871	-1.25
63.6555	64.85
68.04907	70.05
72.43941	71.75
76.82654	74.95
81.21044	78.75
85.59113	82.15
89.96862	83.35
94.34289	85.75
98.71396	92.35
103.08183	93.05
107.4465	97.25
111.80798	99.35
116.16626	100.35
120.52136	108.05
124.87327	111.25
129.222	112.45
133.56755	119.35
137.90993	128.05
142.24913	141.25
146.58517	158.35
150.91804	185.65
155.24774	218.85
159.57429	267.25
163.89768	337.15
168.21792	450.05
172.53501	609.35
176.84895	854.25
181.15975	1189.25
185.46741	1672.85
189.77193	2319.85
194.07331	3111.55
198.37157	4037.75
202.6667	5021.75
206.9587	5988.55
211.24758	6938.55
215.53334	7879.85
219.81599	8888.25
224.09553	9945.55
228.37195	11145.15
232.64527	12466.15
236.91549	13898.55
241.18261	15354.75
245.44663	16748.55
249.70755	18048.85
253.96539	19146.85
258.22014	20114.25
262.4718	20856.65
266.72039	21334.55
270.96589	21597.05
275.20832	21547.35
279.44768	21346.55
283.68397	21093.15
287.91719	20792.85
292.14735	20555.95
296.37445	20371.45
300.59849	20318.55
304.81948	20305.75
309.03742	20264.75
313.25231	20200.95
317.46415	19993.25
321.67296	19647.75
325.87872	19409.65
330.08145	19328.55
334.28114	19373.95
338.47781	19507.55
342.67145	19751.75
346.86207	20012.45
351.04966	20363.35
355.23424	20746.55
359.4158	21115.45
363.59435	21337.15
367.76989	21588.35
371.94243	21757.95
376.11196	21815.25
380.27849	21896.55
384.44203	21954.85
388.60257	22077.25
392.76012	22287.75
396.91468	22522.95
401.06626	22787.85
405.21485	22967.45
409.36047	22929.15
413.50311	22717.95
417.64277	22487.95
421.77947	22497.65
425.9132	22550.65
430.04396	22608.25
434.17176	22728.85
438.2966	22870.95
442.41849	23037.25
446.53742	23304.75
450.6534	23618.35
454.76644	23823.95
458.87653	23962.25
462.98368	24006.45
467.08789	23908.05
471.18916	23816.55
475.2875	23623.15
479.38291	23473.15
483.4754	23351.35
487.56496	23263.55
491.6516	23192.85
495.73531	23106.95
499.81612	23077.45
503.89401	23262.75
507.96899	23349.75
512.04106	23425.55
516.11023	23470.15
520.1765	23401.25
524.23987	23297.65
528.30034	23191.15
532.35792	23065.55
536.41261	22982.35
540.46441	22855.05
544.51333	22800.25
548.55936	22955.55
552.60252	23160.55
556.64279	23425.45
560.6802	23592.15
564.71473	23679.25
568.7464	23719.75
572.7752	23919.85
576.80114	24153.75
580.82422	24385.65
584.84444	24770.85
588.86181	25213.45
592.87633	25574.35
596.888	25630.25
600.89682	25370.55
604.9028	25576.35
608.90594	27035.55
612.90624	28869.35
616.90371	28075.75
620.89834	25101.25
624.89015	23676.45
628.87913	23453.05
632.86528	23594.15
636.84862	23750.45
640.82913	23635.15
644.80683	23294.95
648.78172	23034.25
652.75379	22993.75
656.72306	23214.35
660.68952	23521.75
664.65319	23533.05
668.61405	23301.15
672.57211	23241.05
676.52738	23322.75
680.47986	23298.65
684.42955	23207.45
688.37646	23122.95
692.32058	23152.65
696.26192	23297.45
700.20048	23495.95
704.13626	23571.45
708.06928	23603.65
711.99952	23541.75
715.927	23528.25
719.85171	23475.15
723.77365	23442.25
727.69284	23308.85
731.60928	23146.95
735.52295	23076.55
739.43388	23071.45
743.34206	23121.35
747.24749	23193.65
751.15017	23262.35
755.05012	23434.65
758.94733	23752.55
762.8418	24337.35
766.73354	25356.95
770.62254	26463.55
774.50882	26894.25
778.39237	26473.45
782.27321	25540.75
786.15132	24613.45
790.02671	23934.85
793.89938	23545.15
797.76935	23341.45
801.6366	23200.55
805.50115	23109.05
809.36299	23073.25
813.22213	22968.85
817.07857	22945.85
820.93231	22885.05
824.78336	22896.75
828.63172	22916.15
832.47738	22924.25
836.32036	22917.55
840.16066	22887.95
843.99827	22906.45
847.8332	22870.45
851.66546	22854.95
855.49504	22908.75
859.32195	22945.05
863.1462	22935.35
866.96777	22936.35
870.78668	22961.65
874.60293	23002.65
878.41652	23018.35
882.22745	23035.05
886.03573	23160.05
889.84136	23130.25
893.64433	23115.05
897.44466	23101.35
901.24235	23072.45
905.0374	23050.15
908.8298	22985.95
912.61957	22966.05
916.40671	23088.15
920.19121	23165.95
923.97308	23242.15
927.75233	23255.15
931.52895	23241.15
935.30295	23093.65
939.07433	22915.95
942.84309	22715.75
946.60924	22624.05
950.37278	22533.85
954.13371	22518.55
957.89203	22470.35
961.64774	22461.05
965.40086	22393.65
969.15137	22369.25
972.89929	22292.45
976.64461	22257.35
980.38733	22227.55
984.12747	22236.85
987.86502	22279.85
991.59999	22346.85
995.33237	22358.95
999.06217	22498.45
1002.78939	22724.35
1006.51404	22957.75
1010.23611	23183.15
1013.95561	23366.25
1017.67255	23393.65
1021.38692	23304.25
1025.09872	23124.45
1028.80796	22981.15
1032.51465	22799.95
1036.21877	22798.15
1039.92035	22828.75
1043.61937	22915.45
1047.31584	22953.95
1051.00976	23067.55
1054.70114	23121.65
1058.38998	23183.45
1062.07627	23297.25
1065.76003	23399.35
1069.44126	23586.25
1073.11995	23838.45
1076.79611	24173.65
1080.46974	24337.65
1084.14085	24373.25
1087.80943	24374.65
1091.47549	24485.55
1095.13903	24565.55
1098.80005	24464.25
1102.45857	24231.85
1106.11456	24009.45
1109.76805	23779.75
1113.41903	23688.45
1117.06751	23678.15
1120.71348	23782.95
1124.35696	23866.05
1127.99793	24040.15
1131.63641	24164.35
1135.2724	24044.95
1138.90589	23868.65
1142.5369	23749.95
1146.16542	23681.65
1149.79145	23696.65
1153.415	23656.05
1157.03607	23682.85
1160.65467	23838.85
1164.27079	24240.45
1167.88443	24757.55
1171.49561	25483.05
1175.10432	26376.35
1178.71056	27513.05
1182.31434	28617.35
1185.91565	29358.65
1189.51451	29554.65
1193.11091	29389.55
1196.70485	28913.15
1200.29634	28219.45
1203.88538	27583.65
1207.47197	26951.75
1211.05612	26518.65
1214.63782	26105.05
1218.21708	25735.05
1221.79391	25362.75
1225.36829	25127.85
1228.94024	25011.35
1232.50976	24937.35
1236.07685	24938.85
1239.6415	24886.05
1243.20374	24893.65
1246.76355	24969.25
1250.32093	25113.35
1253.8759	25331.95
1257.42845	25623.85
1260.97859	26074.35
1264.52631	26483.25
1268.07163	26874.65
1271.61453	27220.55
1275.15503	27522.75
1278.69312	27835.15
1282.22882	28123.15
1285.76211	28446.65
1289.29301	28856.05
1292.82151	29363.25
1296.34761	29905.95
1299.87133	30617.45
1303.39266	31384.95
1306.9116	32314.95
1310.42815	33139.85
1313.94233	33747.25
1317.45412	33803.75
1320.96354	33480.75
1324.47058	33097.75
1327.97525	32699.35
1331.47754	32378.35
1334.97747	32188.75
1338.47502	32158.75
1341.97022	32413.55
1345.46305	32811.25
1348.95352	33321.75
1352.44163	33678.65
1355.92738	34081.35
1359.41078	34698.05
1362.89183	35390.45
1366.37053	35038.05
1369.84688	33193.25
1373.32088	30817.55
1376.79254	28936.25
1380.26186	27925.85
1383.72883	27501.95
1387.19347	27138.55
1390.65578	26763.95
1394.11575	26394.25
1397.57339	26161.95
1401.0287	26259.15
1404.48168	26279.25
1407.93234	26271.85
1411.38068	26180.55
1414.82669	25897.05
1418.27039	25587.55
1421.71177	25199.25
1425.15083	24987.65
1428.58758	24807.75
1432.02203	24799.05
1435.45416	24988.45
1438.88399	25153.35
1442.31151	25250.05
1445.73673	25366.55
1449.15965	25402.05
1452.58027	25447.95
1455.9986	25453.95
1459.41463	25565.15
1462.82837	25861.35
1466.23982	26181.45
1469.64898	26496.95
1473.05586	26692.25
1476.46045	26856.65
1479.86276	26898.95
1483.26279	26888.65
1486.66054	27018.55
1490.05602	27181.35
1493.44922	27642.75
1496.84016	28215.25
1500.22882	29086.45
1503.61521	30113.35
1506.99934	31229.25
1510.38121	32065.75
1513.76081	32119.55
1517.13816	31461.55
1520.51324	30364.75
1523.88607	29258.25
1527.25665	28502.15
1530.62498	28033.35
1533.99105	27657.55
1537.35488	27309.15
1540.71647	26946.55
1544.07581	26597.65
1547.4329	26247.55
1550.78776	25999.75
1554.14038	25854.45
1557.49077	25865.65
1560.83892	25912.15
1564.18484	26076.95
1567.52853	26239.65
1570.86999	26392.55
1574.20922	26623.65
1577.54624	26721.95
1580.88103	26494.35
1584.2136	26181.85
1587.54395	26141.35
1590.87208	26448.25
1594.19801	27104.95
1597.52172	27848.55
1600.84321	28197.85
1604.16251	27779.35
1607.47959	26884.55
1610.79447	25821.85
1614.10715	24767.65
1617.41763	23802.85
1620.7259	23089.85
1624.03199	22691.65
1627.33587	22519.35
1630.63757	22701.65
1633.93707	23193.15
1637.23439	24212.15
1640.52951	25749.25
1643.82246	27651.05
1647.11321	29328.25
1650.40179	30000.85
1653.68819	29065.85
1656.97241	26924.25
1660.25446	24596.65
1663.53433	22886.35
1666.81203	21752.35
1670.08756	21064.25
1673.36092	20660.15
1676.63211	20405.15
1679.90115	20181.15
1683.16801	20024.45
1686.43272	19884.45
1689.69527	19745.15
1692.95567	19672.95
1696.2139	19617.55
1699.46999	19470.65
1702.72392	19482.55
1705.97571	19497.05
1709.22535	19515.35
1712.47284	19514.95
1715.71819	19528.15
1718.96139	19502.75
1722.20246	19455.95
1725.44139	19393.35
1728.67818	19343.55
1731.91284	19263.95
1735.14537	19205.55
1738.37576	19155.55
1741.60403	19088.75
1744.83017	19000.75
1748.05418	19006.85
1751.27607	18942.35
1754.49584	18859.15
1757.71349	18865.25
1760.92903	18848.35
1764.14244	18822.05
1767.35375	18804.75
1770.56294	18759.75
1773.77002	18746.85
1776.97499	18741.95
1780.17785	18760.25
1783.37861	18721.25
1786.57727	18735.85
1789.77382	18687.45
1792.96828	18690.35
1796.16064	18616.25
1799.3509	18581.35
1802.53907	18568.85
1805.72514	18497.55
1808.90913	18500.35
1812.09102	18460.35
1815.27083	18446.85
1818.44856	18374.85
1821.6242	18388.05
1824.79776	18337.05
1827.96924	18313.35
1831.13864	18310.05
1834.30597	18314.65
1837.47122	18304.95
1840.6344	18289.15
1843.7955	18303.05
1846.95454	18299.25
1850.11151	18276.05
1853.26642	18293.25
1856.41926	18253.55
1859.57004	18239.65
1862.71876	18236.75
1865.86542	18221.45
1869.01003	18207.85
1872.15258	18152.25
1875.29308	18129.75
1878.43152	18071.25
1881.56792	18032.55
1884.70227	18008.35
1887.83457	17975.55
1890.96482	17891.45
1894.09304	17898.15
1897.21921	17890.35
1900.34335	17853.15
1903.46544	17862.45
1906.58551	17820.95
1909.70353	17814.75
1912.81953	17731.45
1915.93349	17758.35
1919.04543	17701.55
1922.15534	17619.05
1925.26322	17615.75
1928.36908	17562.25
1931.47292	17549.55
1934.57473	17484.65
1937.67453	17411.95
1940.77232	17388.25
1943.86808	17349.75
1946.96184	17294.35
1950.05358	17267.65
1953.14331	17214.65
1956.23103	17104.75
1959.31675	17074.75
1962.40046	17080.95
1965.48217	16990.65
1968.56188	16918.25
1971.63959	16902.35
1974.7153	16853.45
1977.78901	16786.15
1980.86073	16734.55
1983.93046	16687.15
1986.99819	16608.05
1990.06394	16572.05
1993.1277	16510.55
1996.18947	16431.45
1999.24925	16426.35
2002.30706	16357.55
2005.36288	16296.65
2008.41672	16282.65
2011.46859	16216.05
2014.51848	16176.25
2017.56639	16115.45
2020.61233	16063.85
2023.6563	16045.35
2026.6983	16001.95
2029.73833	15906.25
2032.7764	15889.15
2035.8125	15875.85
2038.84664	15800.35
2041.87881	15760.25
2044.90903	15729.75
2047.93729	15712.05
2050.96359	15689.55
2053.98794	15652.15
2057.01034	15656.35
2060.03078	15626.65
2063.04927	15638.55
2066.06582	15656.55
2069.08042	15615.25
2072.09307	15614.55
2075.10378	15614.05
2078.11255	15608.75
2081.11938	15612.45
2084.12426	15602.05
2087.12722	15576.25
2090.12824	15555.05
2093.12732	15588.75
2096.12447	15565.15
2099.11969	15537.65
2102.11299	15588.75
2105.10435	15559.35
2108.09379	15547.75
2111.08131	15561.35
2114.0669	15547.15
2117.05057	15562.85
2120.03233	15575.05
2123.01216	15571.55
2125.99008	15584.25
2128.96609	15587.45
2131.94018	15577.85
2134.91236	15584.55
2137.88263	15581.55
2140.851	15603.25
2143.81746	15614.95
2146.78201	15618.35
2149.74466	15627.25
2152.7054	15599.35
2155.66425	15574.95
2158.6212	15573.95
2161.57625	15566.25
2164.52941	15573.25
2167.48067	15522.35
2170.43004	15544.95
2173.37752	15546.35
2176.32311	15523.45
2179.26681	15540.75
2182.20863	15520.35
2185.14856	15526.05
2188.08661	15511.55
2191.02278	15504.05
2193.95707	15493.25
2196.88948	15478.95
2199.82001	15448.55
2202.74867	15437.35
2205.67545	15435.05
2208.60037	15370.95
2211.52341	15358.35
2214.44458	15336.25
2217.36388	15305.25
2220.28132	15249.45
2223.1969	15212.75
2226.11061	15188.45
2229.02246	15170.65
2231.93245	15172.35
2234.84058	15153.45
2237.74686	15102.05
2240.65128	15099.85
2243.55385	15035.35
2246.45456	15077.15
2249.35343	15020.15
2252.25044	15002.15
2255.14561	14958.95
2258.03893	14925.85
2260.93041	14907.75
2263.82004	14861.95
2266.70783	14852.15
2269.59378	14795.35
2272.4779	14793.55
2275.36017	14728.55
2278.24061	14714.65
2281.11922	14708.65
2283.996	14646.65
2286.87094	14622.45
2289.74405	14593.85
2292.61534	14563.65
2295.4848	14539.25
2298.35243	14536.05
2301.21824	14507.25
2304.08223	14488.55
2306.94439	14485.05
2309.80474	14440.45
2312.66327	14438.05
2315.51999	14424.85
2318.37489	14421.25
2321.22797	14387.75
2324.07925	14350.55
2326.92871	14357.95
2329.77637	14325.65
2332.62222	14286.75
2335.46626	14261.25
2338.3085	14210.35
2341.14893	14216.45
2343.98756	14172.95
2346.8244	14198.25
2349.65943	14160.55
2352.49267	14138.95
2355.32411	14128.95
2358.15376	14137.05
2360.98161	14119.75
2363.80768	14102.85
2366.63195	14102.45
2369.45444	14097.35
2372.27514	14091.45
2375.09405	14054.25
2377.91118	14018.55
2380.72652	14008.75
2383.54009	13983.85
2386.35187	13954.85
2389.16188	13921.45
2391.97011	13849.35
2394.77657	13829.55
2397.58125	13770.25
2400.38416	13785.85
2403.18529	13773.75
2405.98466	13731.45
2408.78226	13685.05
2411.57809	13707.95
2414.37216	13665.35
2417.16446	13667.15
2419.955	13662.35
2422.74378	13661.15
2425.5308	13631.95
2428.31606	13624.45
2431.09956	13568.45
2433.88131	13572.55
2436.6613	13571.35
2439.43954	13574.75
2442.21603	13542.45
2444.99077	13517.55
2447.76377	13515.05
2450.53501	13515.25
2453.30451	13490.15
2456.07226	13458.75
2458.83827	13413.95
2461.60254	13414.85
2464.36507	13394.55
2467.12586	13395.75
2469.88492	13376.15
2472.64224	13364.85
2475.39782	13383.85
2478.15167	13370.45
2480.90379	13324.55
2483.65417	13333.55
2486.40283	13313.15
2489.14976	13308.85
2491.89497	13283.85
2494.63845	13279.05
2497.3802	13262.15
2500.12024	13249.55
2502.85855	13227.25
2505.59514	13216.65
2508.33002	13187.95
2511.06318	13186.25
2513.79462	13142.25
2516.52435	13130.65
2519.25237	13136.65
2521.97867	13117.45
2524.70327	13110.55
2527.42616	13048.75
2530.14734	13025.65
2532.86681	13029.05
2535.58458	13008.95
2538.30065	12987.35
2541.01501	13011.65
2543.72768	12964.55
2546.43864	12936.85
2549.14791	12915.35
2551.85548	12874.35
2554.56136	12867.65
2557.26554	12808.65
2559.96803	12791.95
2562.66883	12782.85
2565.36794	12769.35
2568.06536	12763.35
2570.7611	12718.05
2573.45514	12682.45
2576.14751	12670.15
2578.83819	12621.75
2581.52719	12629.15
2584.21451	12610.85
2586.90015	12591.95
2589.58411	12533.85
2592.2664	12522.95
2594.94701	12498.35
2597.62594	12451.35
2600.30321	12448.55
2602.9788	12419.35
2605.65273	12378.75
2608.32498	12379.75
2610.99557	12381.85
2613.66449	12322.25
2616.33175	12331.35
2618.99734	12309.65
2621.66128	12295.55
2624.32355	12257.75
2626.98416	12208.45
2629.64311	12222.05
2632.30041	12226.75
2634.95605	12165.65
2637.61004	12176.95
2640.26238	12137.25
2642.91306	12139.75
2645.56209	12145.95
2648.20948	12123.05
2650.85521	12118.35
2653.4993	12120.15
2656.14175	12076.35
2658.78255	12116.15
2661.42171	12141.15
2664.05923	12132.55
2666.6951	12120.55
2669.32934	12097.35
2671.96194	12084.75
2674.59291	12087.25
2677.22224	12079.95
2679.84993	12103.15
2682.476	12081.35
2685.10043	12071.95
2687.72324	12073.85
2690.34441	12030.85
2692.96396	12058.45
2695.58188	12047.15
2698.19818	12030.05
2700.81285	12047.95
2703.4259	12025.95
2706.03733	11996.75
2708.64714	12014.45
2711.25533	12002.25
2713.86191	12006.35
2716.46687	12032.95
2719.07021	12005.35
2721.67194	12008.75
2724.27206	12040.85
2726.87057	12020.45
2729.46747	12040.25
2732.06276	11985.35
2734.65644	11968.15
2737.24852	11955.05
2739.83899	11939.95
2742.42786	11935.35
2745.01513	11900.15
2747.60079	11879.15
2750.18486	11875.95
2752.76733	11860.05
2755.3482	11832.75
2757.92747	11835.05
2760.50515	11825.15
2763.08123	11820.55
2765.65573	11783.95
2768.22863	11768.55
2770.79994	11744.35
2773.36967	11742.85
2775.9378	11765.75
2778.50435	11698.05
2781.06932	11680.45
2783.6327	11660.75
2786.1945	11662.55
2788.75471	11655.75
2791.31335	11577.35
2793.87041	11576.95
2796.42589	11567.35
2798.97979	11573.55
2801.53212	11528.75
2804.08288	11501.95
2806.63206	11465.75
2809.17967	11441.15
2811.72571	11416.85
2814.27018	11380.85
2816.81308	11372.15
2819.35442	11328.95
2821.89419	11298.35
2824.43239	11317.35
2826.96904	11275.55
2829.50412	11295.35
2832.03763	11255.25
2834.56959	11281.35
2837.1	11275.45
2839.62884	11241.85
2842.15613	11230.05
2844.68186	11248.55
2847.20604	11250.05
2849.72867	11234.55
2852.24974	11187.35
2854.76927	11170.65
2857.28724	11169.45
2859.80367	11137.25
2862.31855	11107.55
2864.83189	11091.45
2867.34368	11090.35
2869.85393	11060.45
2872.36264	11070.55
2874.8698	11069.25
2877.37543	11055.15
2879.87952	11054.25
2882.38207	11043.75
2884.88308	11030.95
2887.38256	11051.95
2889.88051	11020.05
2892.37692	11035.65
2894.8718	10994.55
2897.36515	11031.45
2899.85698	11039.45
2902.34727	11024.05
2904.83604	11051.35
2907.32328	11055.25
2909.809	11005.35
2912.29319	11011.55
2914.77587	11002.35
2917.25702	10981.15
2919.73665	10976.65
2922.21476	10986.45
2924.69136	10981.95
2927.16644	10961.05
2929.64	10951.05
2932.11205	10959.95
2934.58258	10903.35
2937.05161	10909.45
2939.51912	10910.05
2941.98513	10917.55
2944.44962	10857.85
2946.91261	10836.45
2949.37409	10847.95
2951.83407	10812.55
2954.29254	10809.45
2956.74951	10796.65
2959.20498	10787.25
2961.65895	10799.05
2964.11142	10808.35
2966.56239	10761.35
2969.01186	10764.95
2971.45984	10713.95
2973.90632	10729.45
2976.35131	10698.35
2978.7948	10670.15
2981.23681	10640.55
2983.67732	10657.15
2986.11635	10602.55
2988.55388	10573.15
2990.98993	10542.45
2993.4245	10488.95
2995.85758	10487.05
2998.28917	10473.95
3000.71928	10460.85
3003.14791	10432.65
3005.57506	10421.95
3008.00073	10386.65
3010.42493	10381.95
3012.84764	10372.65
3015.26888	10352.75
3017.68865	10327.85
3020.10694	10314.15
3022.52376	10279.75
3024.9391	10284.15
3027.35298	10256.35
3029.76539	10241.25
3032.17632	10259.15
3034.5858	10206.65
3036.9938	10192.05
3039.40034	10169.85
3041.80542	10190.45
3044.20903	10131.35
3046.61118	10136.55
3049.01187	10099.95
3051.4111	10096.65
3053.80888	10107.65
3056.20519	10079.15
3058.60005	10048.45
3060.99345	10021.45
3063.3854	9984.15
3065.7759	9962.55
3068.16494	9954.15
3070.55254	9907.65
3072.93868	9909.45
3075.32338	9866.45
3077.70662	9869.65
3080.08842	9835.85
3082.46878	9841.15
3084.84769	9812.25
3087.22515	9808.65
3089.60118	9817.85
3091.97576	9802.35
3094.3489	9832.05
3096.72061	9819.15
3099.09087	9806.25
3101.4597	9781.85
3103.82709	9780.05
3106.19305	9773.45
3108.55757	9764.95
3110.92066	9732.65
3113.28232	9730.35
3115.64255	9697.55
3118.00134	9664.35
3120.35871	9673.85
3122.71466	9649.25
3125.06917	9638.85
3127.42226	9609.85
3129.77393	9615.35
3132.12417	9585.25
3134.47299	9577.05
3136.82039	9558.35
3139.16636	9579.75
3141.51092	9570.25
3143.85406	9573.45
3146.19579	9593.45
3148.53609	9591.85
3150.87499	9614.45
3153.21246	9617.25
3155.54853	9597.35
3157.88318	9593.55
3160.21642	9604.75
3162.54826	9569.15
3164.87868	9566.95
3167.2077	9563.25
3169.5353	9548.55
3171.86151	9576.35
3174.18631	9550.15
3176.5097	9548.95
3178.83169	9512.45
3181.15228	9512.05
3183.47147	9467.35
3185.78926	9467.15
3188.10565	9448.75
3190.42065	9442.75
3192.73424	9459.95
3195.04645	9445.35
3197.35725	9447.45
3199.66667	9427.15
3201.97469	9437.55
3204.28132	9432.95
3206.58656	9452.65
3208.8904	9431.35
3211.19287	9445.35
3213.49394	9447.65
3215.79363	9423.25
3218.09193	9431.15
3220.38884	9428.55
3222.68438	9431.85
3224.97853	9396.45
3227.2713	9381.25
3229.56269	9368.25
3231.8527	9369.05
3234.14133	9343.35
3236.42858	9338.15
3238.71446	9320.15
3240.99896	9322.75
3243.28209	9295.95
3245.56384	9271.15
3247.84423	9260.15
3250.12324	9262.45
3252.40088	9275.15
3254.67715	9245.65
3256.95205	9241.45
3259.22558	9248.55
3261.49775	9227.95
3263.76855	9221.15
3266.03799	9172.25
3268.30606	9184.05
3270.57277	9170.95
3272.83812	9137.45
3275.10211	9125.25
3277.36474	9087.75
3279.62601	9090.55
3281.88593	9037.75
3284.14448	9082.35
3286.40168	9107.85
3288.65753	9067.95
3290.91202	9054.95
3293.16516	9014.55
3295.41695	9001.15
3297.66738	8932.15
3299.91647	8912.25
3302.16421	8840.95
3304.4106	8804.65
3306.65564	8762.25
3308.89933	8736.55
3311.14169	8657.55
3313.38269	8575.55
3315.62236	8523.45
3317.86068	8457.75
3320.09766	8403.05
3322.3333	8336.05
3324.5676	8316.55
3326.80056	8182.85
3329.03219	8143.05
3331.26248	2.05
3333.49143	-0.15
3335.71905	-0.55
