Data from AgNPs_FTO_APTES_UA_1uM_CRN_0uM_R6G_10uM_NaF_0.1M_Addition_RamanShift__20__11-28-59-428.txt Node

Date: Thu Jan 27 11:28:59 GMT 2022
User: TCL
Spectrometer: QEP01345
Trigger mode: 4
Integration Time (sec): 7.000000E0
Scans to average: 10
Electric dark correction enabled: true
Nonlinearity correction enabled: false
Boxcar width: 0
XAxis mode: Raman Shifts
Number of Pixels in Spectrum: 1044
>>>>>Begin Spectral Data<<<<<
46.04893	1.05
50.45542	1.65
54.85868	-0.45
59.25871	-0.85
63.6555	30.85
68.04907	32.55
72.43941	31.55
76.82654	37.55
81.21044	36.65
85.59113	37.15
89.96862	38.55
94.34289	45.45
98.71396	45.75
103.08183	43.55
107.4465	48.15
111.80798	46.35
116.16626	46.25
120.52136	51.05
124.87327	47.65
129.222	44.35
133.56755	49.25
137.90993	50.15
142.24913	52.65
146.58517	55.25
150.91804	64.25
155.24774	65.55
159.57429	75.95
163.89768	95.95
168.21792	122.45
172.53501	158.75
176.84895	207.65
181.15975	287.55
185.46741	395.35
189.77193	539.05
194.07331	721.25
198.37157	923.65
202.6667	1149.45
206.9587	1355.05
211.24758	1561.75
215.53334	1777.85
219.81599	1997.45
224.09553	2236.75
228.37195	2497.55
232.64527	2791.95
236.91549	3093.15
241.18261	3413.35
245.44663	3692.85
249.70755	3935.05
253.96539	4165.35
258.22014	4355.75
262.4718	4496.45
266.72039	4605.85
270.96589	4652.05
275.20832	4646.75
279.44768	4583.65
283.68397	4492.65
287.91719	4396.75
292.14735	4360.85
296.37445	4350.15
300.59849	4382.15
304.81948	4461.75
309.03742	4494.15
313.25231	4480.55
317.46415	4359.75
321.67296	4232.75
325.87872	4115.15
330.08145	4069.85
334.28114	4053.45
338.47781	4104.05
342.67145	4157.75
346.86207	4228.85
351.04966	4344.15
355.23424	4474.85
359.4158	4612.85
363.59435	4709.75
367.76989	4760.15
371.94243	4809.75
376.11196	4835.85
380.27849	4846.25
384.44203	4844.75
388.60257	4822.35
392.76012	4802.35
396.91468	4809.55
401.06626	4861.55
405.21485	4917.65
409.36047	4903.95
413.50311	4781.45
417.64277	4655.35
421.77947	4577.95
425.9132	4544.95
430.04396	4546.35
434.17176	4573.05
438.2966	4657.55
442.41849	4761.45
446.53742	4918.85
450.6534	5055.55
454.76644	5148.15
458.87653	5183.05
462.98368	5114.75
467.08789	5014.55
471.18916	4929.25
475.2875	4829.45
479.38291	4758.65
483.4754	4700.25
487.56496	4673.75
491.6516	4661.65
495.73531	4659.45
499.81612	4662.35
503.89401	4711.45
507.96899	4742.05
512.04106	4763.35
516.11023	4790.15
520.1765	4868.15
524.23987	4868.15
528.30034	4841.45
532.35792	4795.75
536.41261	4743.45
540.46441	4671.55
544.51333	4639.35
548.55936	4655.15
552.60252	4694.35
556.64279	4760.35
560.6802	4786.95
564.71473	4762.65
568.7464	4758.95
572.7752	4781.75
576.80114	4725.95
580.82422	4664.45
584.84444	4651.55
588.86181	4747.75
592.87633	4887.95
596.888	5026.15
600.89682	5058.95
604.9028	5243.65
608.90594	5905.85
612.90624	6876.85
616.90371	6820.05
620.89834	5578.95
624.89015	4896.95
628.87913	4779.55
632.86528	4760.85
636.84862	4758.95
640.82913	4730.45
644.80683	4625.95
648.78172	4559.55
652.75379	4546.25
656.72306	4652.35
660.68952	4809.85
664.65319	4766.35
668.61405	4643.85
672.57211	4577.15
676.52738	4581.55
680.47986	4592.25
684.42955	4529.95
688.37646	4522.65
692.32058	4528.25
696.26192	4578.95
700.20048	4616.55
704.13626	4636.95
708.06928	4582.55
711.99952	4555.45
715.927	4555.65
719.85171	4585.45
723.77365	4610.85
727.69284	4584.45
731.60928	4570.35
735.52295	4555.85
739.43388	4565.75
743.34206	4578.15
747.24749	4590.45
751.15017	4594.25
755.05012	4632.25
758.94733	4700.55
762.8418	4881.05
766.73354	5247.45
770.62254	5734.25
774.50882	6077.15
778.39237	6005.35
782.27321	5549.05
786.15132	5075.45
790.02671	4788.05
793.89938	4660.15
797.76935	4623.05
801.6366	4588.25
805.50115	4568.65
809.36299	4557.35
813.22213	4545.15
817.07857	4535.55
820.93231	4520.05
824.78336	4533.15
828.63172	4523.35
832.47738	4519.85
836.32036	4526.75
840.16066	4538.45
843.99827	4531.55
847.8332	4500.05
851.66546	4515.85
855.49504	4508.45
859.32195	4489.15
863.1462	4476.85
866.96777	4426.65
870.78668	4441.75
874.60293	4446.25
878.41652	4443.85
882.22745	4446.75
886.03573	4481.85
889.84136	4490.45
893.64433	4465.85
897.44466	4450.05
901.24235	4467.75
905.0374	4447.35
908.8298	4425.15
912.61957	4413.95
916.40671	4432.05
920.19121	4460.35
923.97308	4501.85
927.75233	4520.35
931.52895	4548.05
935.30295	4543.75
939.07433	4481.65
942.84309	4415.65
946.60924	4366.65
950.37278	4340.75
954.13371	4320.75
957.89203	4284.85
961.64774	4264.65
965.40086	4234.85
969.15137	4211.95
972.89929	4201.05
976.64461	4194.55
980.38733	4212.75
984.12747	4205.25
987.86502	4222.85
991.59999	4257.25
995.33237	4299.15
999.06217	4362.05
1002.78939	4434.35
1006.51404	4452.35
1010.23611	4471.45
1013.95561	4524.65
1017.67255	4512.75
1021.38692	4484.15
1025.09872	4449.75
1028.80796	4456.85
1032.51465	4488.05
1036.21877	4547.65
1039.92035	4595.15
1043.61937	4577.05
1047.31584	4534.55
1051.00976	4493.05
1054.70114	4446.05
1058.38998	4426.85
1062.07627	4425.15
1065.76003	4409.55
1069.44126	4395.65
1073.11995	4385.35
1076.79611	4459.25
1080.46974	4507.45
1084.14085	4556.55
1087.80943	4594.05
1091.47549	4607.35
1095.13903	4546.35
1098.80005	4451.05
1102.45857	4352.55
1106.11456	4328.95
1109.76805	4365.55
1113.41903	4420.65
1117.06751	4475.95
1120.71348	4575.85
1124.35696	4647.45
1127.99793	4736.15
1131.63641	4770.55
1135.2724	4658.85
1138.90589	4510.25
1142.5369	4399.25
1146.16542	4337.25
1149.79145	4276.65
1153.415	4245.15
1157.03607	4244.85
1160.65467	4266.45
1164.27079	4342.25
1167.88443	4477.05
1171.49561	4716.85
1175.10432	5075.85
1178.71056	5566.05
1182.31434	6057.25
1185.91565	6320.55
1189.51451	6245.35
1193.11091	5977.15
1196.70485	5606.95
1200.29634	5291.75
1203.88538	5037.95
1207.47197	4783.55
1211.05612	4592.35
1214.63782	4482.45
1218.21708	4476.25
1221.79391	4498.65
1225.36829	4544.65
1228.94024	4526.25
1232.50976	4486.65
1236.07685	4449.35
1239.6415	4419.85
1243.20374	4398.45
1246.76355	4442.65
1250.32093	4471.35
1253.8759	4507.65
1257.42845	4611.65
1260.97859	4714.65
1264.52631	4817.25
1268.07163	4941.95
1271.61453	5022.15
1275.15503	5079.95
1278.69312	5106.25
1282.22882	5129.55
1285.76211	5193.65
1289.29301	5276.85
1292.82151	5424.25
1296.34761	5566.15
1299.87133	5751.55
1303.39266	6057.65
1306.9116	6495.35
1310.42815	7049.95
1313.94233	7417.05
1317.45412	7363.95
1320.96354	6933.05
1324.47058	6437.65
1327.97525	5944.35
1331.47754	5630.55
1334.97747	5515.45
1338.47502	5534.45
1341.97022	5600.15
1345.46305	5672.85
1348.95352	5916.35
1352.44163	6349.55
1355.92738	6969.85
1359.41078	7767.65
1362.89183	8606.85
1366.37053	8711.15
1369.84688	7782.95
1373.32088	6634.75
1376.79254	5799.35
1380.26186	5389.55
1383.72883	5231.05
1387.19347	5078.15
1390.65578	4890.95
1394.11575	4702.25
1397.57339	4619.25
1401.0287	4583.05
1404.48168	4579.45
1407.93234	4591.45
1411.38068	4603.65
1414.82669	4637.65
1418.27039	4619.65
1421.71177	4571.95
1425.15083	4540.15
1428.58758	4524.55
1432.02203	4551.95
1435.45416	4632.95
1438.88399	4674.05
1442.31151	4669.05
1445.73673	4624.55
1449.15965	4633.45
1452.58027	4591.25
1455.9986	4511.65
1459.41463	4446.65
1462.82837	4447.15
1466.23982	4508.25
1469.64898	4601.55
1473.05586	4673.45
1476.46045	4746.95
1479.86276	4831.75
1483.26279	4888.15
1486.66054	4943.95
1490.05602	5009.15
1493.44922	5102.65
1496.84016	5238.15
1500.22882	5502.85
1503.61521	5932.35
1506.99934	6483.45
1510.38121	7024.65
1513.76081	7290.45
1517.13816	7009.55
1520.51324	6344.85
1523.88607	5688.15
1527.25665	5217.45
1530.62498	4999.75
1533.99105	4884.65
1537.35488	4823.95
1540.71647	4768.85
1544.07581	4738.65
1547.4329	4716.85
1550.78776	4674.25
1554.14038	4661.75
1557.49077	4635.45
1560.83892	4650.55
1564.18484	4683.45
1567.52853	4759.25
1570.86999	4916.55
1574.20922	5032.45
1577.54624	5094.95
1580.88103	4967.55
1584.2136	4726.25
1587.54395	4579.15
1590.87208	4576.55
1594.19801	4762.95
1597.52172	5105.05
1600.84321	5331.05
1604.16251	5295.45
1607.47959	5061.45
1610.79447	4718.55
1614.10715	4383.65
1617.41763	4147.65
1620.7259	4002.65
1624.03199	3928.85
1627.33587	3907.45
1630.63757	3952.85
1633.93707	4051.05
1637.23439	4215.85
1640.52951	4488.45
1643.82246	4907.75
1647.11321	5351.85
1650.40179	5664.15
1653.68819	5543.25
1656.97241	4975.95
1660.25446	4362.15
1663.53433	3924.65
1666.81203	3691.55
1670.08756	3555.75
1673.36092	3478.35
1676.63211	3430.35
1679.90115	3394.65
1683.16801	3346.85
1686.43272	3317.85
1689.69527	3300.25
1692.95567	3255.15
1696.2139	3209.45
1699.46999	3153.45
1702.72392	3115.65
1705.97571	3145.25
1709.22535	3192.25
1712.47284	3207.85
1715.71819	3246.15
1718.96139	3233.65
1722.20246	3237.85
1725.44139	3230.35
1728.67818	3207.25
1731.91284	3169.55
1735.14537	3159.45
1738.37576	3138.65
1741.60403	3125.65
1744.83017	3118.25
1748.05418	3091.15
1751.27607	3077.45
1754.49584	3057.35
1757.71349	3026.35
1760.92903	3010.35
1764.14244	3012.45
1767.35375	3002.65
1770.56294	2980.85
1773.77002	2996.25
1776.97499	2997.65
1780.17785	3020.65
1783.37861	3020.45
1786.57727	3035.55
1789.77382	3029.95
1792.96828	3018.65
1796.16064	3029.65
1799.3509	3007.15
1802.53907	3003.55
1805.72514	2997.35
1808.90913	3000.25
1812.09102	2974.65
1815.27083	2971.85
1818.44856	2981.55
1821.6242	2957.85
1824.79776	2960.05
1827.96924	2947.65
1831.13864	2953.85
1834.30597	2941.15
1837.47122	2945.05
1840.6344	2928.95
1843.7955	2933.65
1846.95454	2920.85
1850.11151	2924.25
1853.26642	2928.65
1856.41926	2921.25
1859.57004	2921.95
1862.71876	2922.55
1865.86542	2903.05
1869.01003	2910.55
1872.15258	2912.25
1875.29308	2903.95
1878.43152	2892.45
1881.56792	2879.45
1884.70227	2893.55
1887.83457	2885.15
1890.96482	2874.45
1894.09304	2882.55
1897.21921	2869.95
1900.34335	2873.95
1903.46544	2873.15
1906.58551	2868.15
1909.70353	2852.95
1912.81953	2857.15
1915.93349	2843.95
1919.04543	2848.75
1922.15534	2846.55
1925.26322	2848.45
1928.36908	2818.85
1931.47292	2812.15
1934.57473	2813.65
1937.67453	2816.45
1940.77232	2804.05
1943.86808	2798.15
1946.96184	2790.35
1950.05358	2772.95
1953.14331	2770.85
1956.23103	2764.05
1959.31675	2758.65
1962.40046	2741.05
1965.48217	2737.55
1968.56188	2735.75
1971.63959	2720.85
1974.7153	2714.65
1977.78901	2708.85
1980.86073	2700.95
1983.93046	2686.15
1986.99819	2669.85
1990.06394	2655.65
1993.1277	2657.85
1996.18947	2646.75
1999.24925	2638.65
2002.30706	2620.75
2005.36288	2622.95
2008.41672	2607.95
2011.46859	2608.35
2014.51848	2600.35
2017.56639	2598.65
2020.61233	2589.35
2023.6563	2574.75
2026.6983	2565.55
2029.73833	2567.75
2032.7764	2562.85
2035.8125	2551.65
2038.84664	2546.05
2041.87881	2543.35
2044.90903	2538.65
2047.93729	2533.55
2050.96359	2531.85
2053.98794	2531.45
2057.01034	2525.65
2060.03078	2522.45
2063.04927	2524.15
2066.06582	2517.05
2069.08042	2515.45
2072.09307	2507.05
2075.10378	2514.35
2078.11255	2512.45
2081.11938	2522.95
2084.12426	2511.65
2087.12722	2514.25
2090.12824	2506.95
2093.12732	2521.85
2096.12447	2508.35
2099.11969	2503.65
2102.11299	2509.55
2105.10435	2507.75
2108.09379	2504.75
2111.08131	2506.15
2114.0669	2511.45
2117.05057	2500.15
2120.03233	2502.45
2123.01216	2502.85
2125.99008	2509.45
2128.96609	2508.55
2131.94018	2510.15
2134.91236	2510.75
2137.88263	2508.75
2140.851	2511.55
2143.81746	2518.95
2146.78201	2504.15
2149.74466	2512.05
2152.7054	2509.15
2155.66425	2496.45
2158.6212	2496.75
2161.57625	2505.05
2164.52941	2505.35
2167.48067	2499.15
2170.43004	2499.45
2173.37752	2495.95
2176.32311	2486.05
2179.26681	2487.85
2182.20863	2495.15
2185.14856	2496.35
2188.08661	2500.35
2191.02278	2491.55
2193.95707	2484.65
2196.88948	2484.55
2199.82001	2490.35
2202.74867	2472.55
2205.67545	2471.65
2208.60037	2474.45
2211.52341	2481.05
2214.44458	2464.95
2217.36388	2453.75
2220.28132	2450.35
2223.1969	2444.75
2226.11061	2444.25
2229.02246	2436.15
2231.93245	2432.85
2234.84058	2421.75
2237.74686	2416.45
2240.65128	2422.75
2243.55385	2416.85
2246.45456	2407.55
2249.35343	2420.45
2252.25044	2414.85
2255.14561	2399.15
2258.03893	2402.75
2260.93041	2388.95
2263.82004	2386.55
2266.70783	2387.35
2269.59378	2380.45
2272.4779	2366.15
2275.36017	2376.25
2278.24061	2371.45
2281.11922	2364.05
2283.996	2357.55
2286.87094	2357.35
2289.74405	2341.75
2292.61534	2345.25
2295.4848	2334.55
2298.35243	2339.15
2301.21824	2328.15
2304.08223	2326.85
2306.94439	2330.05
2309.80474	2332.85
2312.66327	2321.15
2315.51999	2319.05
2318.37489	2314.25
2321.22797	2320.55
2324.07925	2317.55
2326.92871	2314.25
2329.77637	2315.85
2332.62222	2311.75
2335.46626	2302.85
2338.3085	2299.15
2341.14893	2287.55
2343.98756	2287.35
2346.8244	2279.05
2349.65943	2292.65
2352.49267	2281.65
2355.32411	2279.35
2358.15376	2287.75
2360.98161	2285.65
2363.80768	2282.85
2366.63195	2286.95
2369.45444	2298.35
2372.27514	2287.55
2375.09405	2286.25
2377.91118	2266.35
2380.72652	2270.35
2383.54009	2257.05
2386.35187	2246.55
2389.16188	2243.45
2391.97011	2239.35
2394.77657	2230.25
2397.58125	2240.15
2400.38416	2219.85
2403.18529	2213.95
2405.98466	2210.85
2408.78226	2205.35
2411.57809	2203.95
2414.37216	2194.65
2417.16446	2197.15
2419.955	2194.95
2422.74378	2195.15
2425.5308	2184.35
2428.31606	2193.45
2431.09956	2189.75
2433.88131	2179.75
2436.6613	2183.75
2439.43954	2186.25
2442.21603	2186.95
2444.99077	2189.75
2447.76377	2174.05
2450.53501	2183.25
2453.30451	2178.55
2456.07226	2173.75
2458.83827	2173.45
2461.60254	2174.85
2464.36507	2173.25
2467.12586	2166.35
2469.88492	2165.05
2472.64224	2167.15
2475.39782	2165.15
2478.15167	2151.75
2480.90379	2157.05
2483.65417	2155.65
2486.40283	2165.65
2489.14976	2162.05
2491.89497	2169.75
2494.63845	2169.45
2497.3802	2147.85
2500.12024	2150.95
2502.85855	2154.85
2505.59514	2148.85
2508.33002	2144.95
2511.06318	2131.55
2513.79462	2138.55
2516.52435	2131.65
2519.25237	2121.05
2521.97867	2118.85
2524.70327	2118.55
2527.42616	2103.95
2530.14734	2108.75
2532.86681	2097.65
2535.58458	2105.45
2538.30065	2098.55
2541.01501	2106.65
2543.72768	2101.95
2546.43864	2086.95
2549.14791	2092.95
2551.85548	2088.25
2554.56136	2080.75
2557.26554	2082.25
2559.96803	2070.35
2562.66883	2068.95
2565.36794	2073.95
2568.06536	2068.75
2570.7611	2069.45
2573.45514	2067.65
2576.14751	2068.35
2578.83819	2072.05
2581.52719	2067.35
2584.21451	2046.65
2586.90015	2062.05
2589.58411	2047.95
2592.2664	2041.05
2594.94701	2040.75
2597.62594	2046.85
2600.30321	2036.25
2602.9788	2024.95
2605.65273	2025.55
2608.32498	2024.35
2610.99557	2024.05
2613.66449	2034.55
2616.33175	2037.95
2618.99734	2032.55
2621.66128	2016.15
2624.32355	2011.15
2626.98416	2008.45
2629.64311	2015.45
2632.30041	2015.55
2634.95605	1999.45
2637.61004	1995.35
2640.26238	2006.45
2642.91306	1996.55
2645.56209	1992.55
2648.20948	1986.65
2650.85521	1997.95
2653.4993	2002.35
2656.14175	2003.85
2658.78255	2001.65
2661.42171	1993.95
2664.05923	1996.95
2666.6951	1997.95
2669.32934	2002.95
2671.96194	2007.25
2674.59291	2012.75
2677.22224	1992.35
2679.84993	2019.55
2682.476	2003.15
2685.10043	2005.75
2687.72324	1999.05
2690.34441	1993.75
2692.96396	1994.05
2695.58188	2012.45
2698.19818	2018.25
2700.81285	2007.85
2703.4259	2011.55
2706.03733	1986.45
2708.64714	1995.65
2711.25533	2003.95
2713.86191	2012.55
2716.46687	2037.25
2719.07021	2025.05
2721.67194	2045.85
2724.27206	2048.25
2726.87057	2057.15
2729.46747	2054.85
2732.06276	2056.15
2734.65644	2044.35
2737.24852	2054.85
2739.83899	2051.95
2742.42786	2051.75
2745.01513	2040.75
2747.60079	2049.05
2750.18486	2043.85
2752.76733	2042.55
2755.3482	2037.95
2757.92747	2056.65
2760.50515	2044.15
2763.08123	2043.65
2765.65573	2053.95
2768.22863	2061.35
2770.79994	2049.65
2773.36967	2047.35
2775.9378	2054.15
2778.50435	2059.25
2781.06932	2065.05
2783.6327	2059.35
2786.1945	2075.45
2788.75471	2060.35
2791.31335	2079.75
2793.87041	2074.45
2796.42589	2086.05
2798.97979	2092.75
2801.53212	2081.35
2804.08288	2099.55
2806.63206	2105.05
2809.17967	2092.55
2811.72571	2105.65
2814.27018	2084.15
2816.81308	2096.35
2819.35442	2103.55
2821.89419	2099.35
2824.43239	2101.15
2826.96904	2104.45
2829.50412	2109.75
2832.03763	2104.25
2834.56959	2119.95
2837.1	2118.05
2839.62884	2132.55
2842.15613	2145.65
2844.68186	2200.45
2847.20604	2246.25
2849.72867	2279.65
2852.24974	2290.55
2854.76927	2302.35
2857.28724	2288.75
2859.80367	2271.65
2862.31855	2264.45
2864.83189	2271.65
2867.34368	2266.85
2869.85393	2269.95
2872.36264	2288.55
2874.8698	2331.05
2877.37543	2266.85
2879.87952	2266.55
2882.38207	2270.85
2884.88308	2268.65
2887.38256	2263.95
2889.88051	2269.05
2892.37692	2253.25
2894.8718	2271.45
2897.36515	2258.25
2899.85698	2272.15
2902.34727	2262.45
2904.83604	2280.35
2907.32328	2262.15
2909.809	2265.35
2912.29319	2263.85
2914.77587	2263.05
2917.25702	2267.25
2919.73665	2263.55
2922.21476	2267.15
2924.69136	2270.25
2927.16644	2268.45
2929.64	2254.85
2932.11205	2247.85
2934.58258	2237.55
2937.05161	2224.45
2939.51912	2215.65
2941.98513	2182.75
2944.44962	2141.55
2946.91261	2117.95
2949.37409	2096.15
2951.83407	2065.35
2954.29254	2048.45
2956.74951	2033.65
2959.20498	2025.85
2961.65895	1998.05
2964.11142	1991.85
2966.56239	1980.45
2969.01186	1967.75
2971.45984	1959.15
2973.90632	1943.15
2976.35131	1938.75
2978.7948	1910.05
2981.23681	1914.45
2983.67732	1915.15
2986.11635	1900.95
2988.55388	1891.25
2990.98993	1878.05
2993.4245	1870.95
2995.85758	1864.25
2998.28917	1864.65
3000.71928	1848.95
3003.14791	1850.95
3005.57506	1853.05
3008.00073	1844.95
3010.42493	1845.85
3012.84764	1848.35
3015.26888	1850.95
3017.68865	1844.35
3020.10694	1838.15
3022.52376	1828.75
3024.9391	1827.45
3027.35298	1838.15
3029.76539	1832.75
3032.17632	1841.55
3034.5858	1834.05
3036.9938	1845.15
3039.40034	1833.75
3041.80542	1837.35
3044.20903	1822.15
3046.61118	1837.65
3049.01187	1839.35
3051.4111	1849.95
3053.80888	1837.25
3056.20519	1848.45
3058.60005	1846.35
3060.99345	1845.75
3063.3854	1845.95
3065.7759	1841.95
3068.16494	1843.25
3070.55254	1838.45
3072.93868	1845.75
3075.32338	1842.45
3077.70662	1847.45
3080.08842	1839.45
3082.46878	1833.05
3084.84769	1846.45
3087.22515	1829.15
3089.60118	1837.55
3091.97576	1828.65
3094.3489	1834.05
3096.72061	1843.95
3099.09087	1843.15
3101.4597	1838.75
3103.82709	1840.35
3106.19305	1848.35
3108.55757	1851.45
3110.92066	1847.95
3113.28232	1850.65
3115.64255	1847.15
3118.00134	1857.15
3120.35871	1849.55
3122.71466	1850.95
3125.06917	1854.35
3127.42226	1854.35
3129.77393	1856.45
3132.12417	1855.25
3134.47299	1870.15
3136.82039	1865.25
3139.16636	1889.05
3141.51092	1894.05
3143.85406	1893.75
3146.19579	1902.05
3148.53609	1906.15
3150.87499	1910.05
3153.21246	1930.85
3155.54853	1923.15
3157.88318	1940.15
3160.21642	1937.65
3162.54826	1938.55
3164.87868	1944.05
3167.2077	1953.35
3169.5353	1950.35
3171.86151	1961.85
3174.18631	1966.15
3176.5097	1952.55
3178.83169	1967.35
3181.15228	1967.95
3183.47147	1973.85
3185.78926	1973.55
3188.10565	1975.05
3190.42065	1988.35
3192.73424	1986.45
3195.04645	1986.65
3197.35725	2000.65
3199.66667	1999.85
3201.97469	1999.55
3204.28132	2001.85
3206.58656	2016.75
3208.8904	2019.95
3211.19287	2017.65
3213.49394	2024.85
3215.79363	2031.45
3218.09193	2031.35
3220.38884	2029.95
3222.68438	2022.35
3224.97853	2028.45
3227.2713	2023.65
3229.56269	2031.65
3231.8527	2048.95
3234.14133	2045.05
3236.42858	2041.35
3238.71446	2040.85
3240.99896	2042.35
3243.28209	2036.85
3245.56384	2042.95
3247.84423	2045.55
3250.12324	2040.45
3252.40088	2041.95
3254.67715	2043.45
3256.95205	2047.35
3259.22558	2042.75
3261.49775	2046.85
3263.76855	2044.15
3266.03799	2041.05
3268.30606	2059.65
3270.57277	2052.15
3272.83812	2050.05
3275.10211	2041.75
3277.36474	2047.85
3279.62601	2041.05
3281.88593	2035.95
3284.14448	2035.95
3286.40168	2039.55
3288.65753	2039.35
3290.91202	2031.95
3293.16516	2023.65
3295.41695	2022.05
3297.66738	2015.25
3299.91647	1998.45
3302.16421	1992.35
3304.4106	1990.95
3306.65564	1969.35
3308.89933	1956.45
3311.14169	1961.45
3313.38269	1938.35
3315.62236	1924.15
3317.86068	1920.15
3320.09766	1888.85
3322.3333	1878.05
3324.5676	1885.55
3326.80056	1855.65
3329.03219	1840.85
3331.26248	0.45
3333.49143	-0.85
3335.71905	-1.15
