Data from AgNPs_FTO_APTES_UA_1uM_CRN_10uM_R6G_20uM_NaF_0.1M_Addition_RamanShift__11__15-10-39-683.txt Node

Date: Thu Jan 27 15:10:39 GMT 2022
User: TCL
Spectrometer: QEP01345
Trigger mode: 4
Integration Time (sec): 7.000000E0
Scans to average: 10
Electric dark correction enabled: true
Nonlinearity correction enabled: false
Boxcar width: 0
XAxis mode: Raman Shifts
Number of Pixels in Spectrum: 1044
>>>>>Begin Spectral Data<<<<<
46.04893	0.75
50.45542	0.85
54.85868	-1.05
59.25871	-1.85
63.6555	48.95
68.04907	49.65
72.43941	53.55
76.82654	58.95
81.21044	62.45
85.59113	60.15
89.96862	64.35
94.34289	64.65
98.71396	64.45
103.08183	66.75
107.4465	70.35
111.80798	75.45
116.16626	72.65
120.52136	77.45
124.87327	81.45
129.222	79.25
133.56755	85.55
137.90993	85.65
142.24913	98.35
146.58517	111.85
150.91804	126.45
155.24774	145.75
159.57429	173.75
163.89768	220.75
168.21792	289.25
172.53501	395.05
176.84895	541.95
181.15975	764.95
185.46741	1056.05
189.77193	1470.15
194.07331	1975.65
198.37157	2555.45
202.6667	3153.15
206.9587	3751.65
211.24758	4334.45
215.53334	4928.25
219.81599	5525.35
224.09553	6170.65
228.37195	6907.95
232.64527	7703.65
236.91549	8561.85
241.18261	9460.45
245.44663	10291.35
249.70755	11065.35
253.96539	11774.85
258.22014	12371.35
262.4718	12820.75
266.72039	13153.15
270.96589	13344.25
275.20832	13339.95
279.44768	13272.95
283.68397	13189.75
287.91719	13061.75
292.14735	13016.45
296.37445	12955.45
300.59849	12909.15
304.81948	12965.15
309.03742	12906.45
313.25231	12856.15
317.46415	12669.85
321.67296	12464.85
325.87872	12264.05
330.08145	12218.95
334.28114	12219.65
338.47781	12299.25
342.67145	12406.05
346.86207	12569.95
351.04966	12763.35
355.23424	12908.15
359.4158	13079.45
363.59435	13214.95
367.76989	13327.95
371.94243	13411.25
376.11196	13461.85
380.27849	13536.65
384.44203	13595.55
388.60257	13667.35
392.76012	13750.75
396.91468	13950.05
401.06626	14119.05
405.21485	14257.75
409.36047	14259.25
413.50311	14147.55
417.64277	14078.35
421.77947	14073.75
425.9132	14166.35
430.04396	14232.45
434.17176	14307.95
438.2966	14343.95
442.41849	14471.85
446.53742	14682.95
450.6534	14905.65
454.76644	15057.05
458.87653	15137.05
462.98368	15183.65
467.08789	15145.55
471.18916	15068.35
475.2875	14982.95
479.38291	14893.85
483.4754	14864.95
487.56496	14777.55
491.6516	14634.45
495.73531	14530.15
499.81612	14444.95
503.89401	14497.45
507.96899	14544.05
512.04106	14582.25
516.11023	14554.55
520.1765	14506.15
524.23987	14343.25
528.30034	14270.75
532.35792	14182.35
536.41261	14065.85
540.46441	13990.75
544.51333	14015.45
548.55936	14104.05
552.60252	14280.05
556.64279	14482.85
560.6802	14637.25
564.71473	14741.25
568.7464	14887.05
572.7752	15158.75
576.80114	15566.35
580.82422	15907.95
584.84444	16229.15
588.86181	16529.75
592.87633	16831.35
596.888	16778.15
600.89682	16443.45
604.9028	16338.25
608.90594	16780.65
612.90624	17437.95
616.90371	16723.05
620.89834	15162.45
624.89015	14401.15
628.87913	14368.75
632.86528	14485.95
636.84862	14544.65
640.82913	14392.95
644.80683	14203.65
648.78172	14040.55
652.75379	14011.15
656.72306	14067.25
660.68952	14228.95
664.65319	14249.55
668.61405	14120.15
672.57211	14087.75
676.52738	14109.85
680.47986	14104.35
684.42955	14086.15
688.37646	14020.85
692.32058	14062.75
696.26192	14145.55
700.20048	14253.95
704.13626	14353.55
708.06928	14412.05
711.99952	14398.15
715.927	14378.45
719.85171	14339.55
723.77365	14295.65
727.69284	14175.65
731.60928	14002.55
735.52295	13957.35
739.43388	13937.75
743.34206	13976.75
747.24749	14035.65
751.15017	14117.65
755.05012	14249.45
758.94733	14504.45
762.8418	14916.65
766.73354	15578.75
770.62254	16196.65
774.50882	16279.55
778.39237	15856.55
782.27321	15198.75
786.15132	14637.55
790.02671	14322.85
793.89938	14093.85
797.76935	14009.05
801.6366	13928.45
805.50115	13865.65
809.36299	13853.45
813.22213	13793.85
817.07857	13783.65
820.93231	13746.95
824.78336	13747.25
828.63172	13707.75
832.47738	13700.75
836.32036	13673.05
840.16066	13640.55
843.99827	13634.85
847.8332	13654.55
851.66546	13658.25
855.49504	13690.05
859.32195	13680.35
863.1462	13662.15
866.96777	13638.75
870.78668	13630.35
874.60293	13667.05
878.41652	13654.75
882.22745	13685.05
886.03573	13718.75
889.84136	13740.65
893.64433	13669.25
897.44466	13673.95
901.24235	13651.45
905.0374	13630.85
908.8298	13620.85
912.61957	13596.25
916.40671	13714.35
920.19121	13808.25
923.97308	13925.25
927.75233	13875.65
931.52895	13774.45
935.30295	13647.95
939.07433	13490.95
942.84309	13400.15
946.60924	13290.15
950.37278	13243.55
954.13371	13265.05
957.89203	13231.35
961.64774	13207.25
965.40086	13217.15
969.15137	13165.65
972.89929	13150.65
976.64461	13071.15
980.38733	13046.25
984.12747	13060.95
987.86502	13074.35
991.59999	13083.65
995.33237	13156.75
999.06217	13236.55
1002.78939	13369.55
1006.51404	13503.65
1010.23611	13649.45
1013.95561	13775.55
1017.67255	13773.55
1021.38692	13728.65
1025.09872	13632.45
1028.80796	13484.75
1032.51465	13430.45
1036.21877	13437.65
1039.92035	13448.65
1043.61937	13519.65
1047.31584	13560.15
1051.00976	13590.95
1054.70114	13684.55
1058.38998	13731.85
1062.07627	13829.35
1065.76003	13941.15
1069.44126	14117.15
1073.11995	14290.15
1076.79611	14435.35
1080.46974	14482.35
1084.14085	14485.25
1087.80943	14508.05
1091.47549	14624.85
1095.13903	14638.95
1098.80005	14599.85
1102.45857	14385.55
1106.11456	14175.95
1109.76805	14001.05
1113.41903	13992.15
1117.06751	13985.35
1120.71348	14036.85
1124.35696	14139.25
1127.99793	14248.25
1131.63641	14365.45
1135.2724	14273.35
1138.90589	14247.65
1142.5369	14256.65
1146.16542	14271.65
1149.79145	14343.55
1153.415	14409.45
1157.03607	14503.65
1160.65467	14689.95
1164.27079	15064.25
1167.88443	15503.15
1171.49561	16001.55
1175.10432	16617.45
1178.71056	17338.35
1182.31434	18040.75
1185.91565	18447.15
1189.51451	18639.25
1193.11091	18516.75
1196.70485	18207.65
1200.29634	17753.35
1203.88538	17384.35
1207.47197	17168.45
1211.05612	17007.45
1214.63782	16780.55
1218.21708	16471.35
1221.79391	16082.15
1225.36829	15784.55
1228.94024	15611.85
1232.50976	15513.05
1236.07685	15463.55
1239.6415	15429.45
1243.20374	15472.25
1246.76355	15500.55
1250.32093	15653.95
1253.8759	15793.65
1257.42845	16050.95
1260.97859	16363.85
1264.52631	16657.85
1268.07163	16928.05
1271.61453	17225.55
1275.15503	17490.75
1278.69312	17800.05
1282.22882	18108.85
1285.76211	18459.65
1289.29301	18931.95
1292.82151	19509.25
1296.34761	20068.65
1299.87133	20834.95
1303.39266	21556.95
1306.9116	22130.35
1310.42815	22616.75
1313.94233	22818.95
1317.45412	22701.45
1320.96354	22544.05
1324.47058	22438.55
1327.97525	22399.25
1331.47754	22381.85
1334.97747	22398.05
1338.47502	22439.55
1341.97022	22567.85
1345.46305	22628.85
1348.95352	22646.25
1352.44163	22562.55
1355.92738	22462.75
1359.41078	22636.85
1362.89183	22821.25
1366.37053	22491.55
1369.84688	21376.55
1373.32088	19901.25
1376.79254	18763.85
1380.26186	18295.25
1383.72883	18147.95
1387.19347	18144.95
1390.65578	17965.75
1394.11575	17849.15
1397.57339	17842.85
1401.0287	17903.85
1404.48168	17963.25
1407.93234	17899.55
1411.38068	17661.75
1414.82669	17274.85
1418.27039	16798.55
1421.71177	16346.95
1425.15083	16014.65
1428.58758	15834.05
1432.02203	15861.15
1435.45416	16081.85
1438.88399	16355.15
1442.31151	16583.95
1445.73673	16723.15
1449.15965	16868.25
1452.58027	16962.75
1455.9986	17037.95
1459.41463	17159.45
1462.82837	17271.55
1466.23982	17527.55
1469.64898	17725.25
1473.05586	17852.75
1476.46045	17884.35
1479.86276	17842.25
1483.26279	17771.75
1486.66054	17770.05
1490.05602	17810.45
1493.44922	18063.35
1496.84016	18349.45
1500.22882	18742.05
1503.61521	19260.25
1506.99934	19755.65
1510.38121	20118.05
1513.76081	20173.85
1517.13816	19914.95
1520.51324	19563.35
1523.88607	19293.85
1527.25665	19104.55
1530.62498	19009.05
1533.99105	18891.05
1537.35488	18590.75
1540.71647	18240.15
1544.07581	17835.45
1547.4329	17481.15
1550.78776	17163.65
1554.14038	16901.45
1557.49077	16851.25
1560.83892	16829.45
1564.18484	16816.85
1567.52853	16845.25
1570.86999	16972.25
1574.20922	17185.75
1577.54624	17381.55
1580.88103	17426.45
1584.2136	17466.45
1587.54395	17582.85
1590.87208	17969.55
1594.19801	18545.75
1597.52172	19128.45
1600.84321	19236.35
1604.16251	18728.75
1607.47959	17834.75
1610.79447	16897.35
1614.10715	15996.45
1617.41763	15230.85
1620.7259	14655.25
1624.03199	14297.15
1627.33587	14197.55
1630.63757	14397.65
1633.93707	14900.85
1637.23439	15763.85
1640.52951	17119.15
1643.82246	18708.95
1647.11321	20111.05
1650.40179	20580.95
1653.68819	19691.65
1656.97241	17932.25
1660.25446	16095.85
1663.53433	14659.45
1666.81203	13631.05
1670.08756	12989.35
1673.36092	12606.85
1676.63211	12351.65
1679.90115	12162.45
1683.16801	12008.05
1686.43272	11914.25
1689.69527	11814.35
1692.95567	11732.25
1696.2139	11684.65
1699.46999	11601.25
1702.72392	11547.25
1705.97571	11533.35
1709.22535	11543.35
1712.47284	11562.75
1715.71819	11590.25
1718.96139	11517.15
1722.20246	11506.95
1725.44139	11484.85
1728.67818	11439.55
1731.91284	11388.35
1735.14537	11360.65
1738.37576	11297.35
1741.60403	11276.45
1744.83017	11215.75
1748.05418	11182.75
1751.27607	11160.75
1754.49584	11106.95
1757.71349	11080.45
1760.92903	11069.95
1764.14244	11037.35
1767.35375	11054.25
1770.56294	11001.15
1773.77002	11017.75
1776.97499	11026.25
1780.17785	11013.05
1783.37861	11019.65
1786.57727	11003.35
1789.77382	10976.75
1792.96828	10978.45
1796.16064	10936.65
1799.3509	10930.95
1802.53907	10925.15
1805.72514	10877.55
1808.90913	10848.55
1812.09102	10849.35
1815.27083	10838.15
1818.44856	10781.25
1821.6242	10759.75
1824.79776	10748.85
1827.96924	10743.45
1831.13864	10705.75
1834.30597	10713.15
1837.47122	10726.45
1840.6344	10704.95
1843.7955	10714.95
1846.95454	10668.15
1850.11151	10705.35
1853.26642	10702.35
1856.41926	10685.45
1859.57004	10707.25
1862.71876	10661.35
1865.86542	10659.45
1869.01003	10656.95
1872.15258	10614.05
1875.29308	10585.05
1878.43152	10546.65
1881.56792	10552.85
1884.70227	10525.65
1887.83457	10529.25
1890.96482	10502.05
1894.09304	10489.55
1897.21921	10469.25
1900.34335	10458.35
1903.46544	10441.05
1906.58551	10425.05
1909.70353	10399.45
1912.81953	10410.85
1915.93349	10371.35
1919.04543	10352.75
1922.15534	10324.25
1925.26322	10317.15
1928.36908	10293.45
1931.47292	10280.65
1934.57473	10229.55
1937.67453	10206.85
1940.77232	10200.75
1943.86808	10157.55
1946.96184	10153.35
1950.05358	10099.95
1953.14331	10085.65
1956.23103	10041.65
1959.31675	9993.25
1962.40046	9979.45
1965.48217	9955.75
1968.56188	9956.85
1971.63959	9907.95
1974.7153	9859.15
1977.78901	9837.85
1980.86073	9803.85
1983.93046	9790.25
1986.99819	9750.45
1990.06394	9703.35
1993.1277	9675.35
1996.18947	9648.05
1999.24925	9631.65
2002.30706	9558.15
2005.36288	9564.95
2008.41672	9542.35
2011.46859	9486.25
2014.51848	9471.55
2017.56639	9444.05
2020.61233	9420.05
2023.6563	9403.35
2026.6983	9366.35
2029.73833	9357.25
2032.7764	9314.85
2035.8125	9322.85
2038.84664	9253.45
2041.87881	9265.65
2044.90903	9233.85
2047.93729	9204.45
2050.96359	9217.75
2053.98794	9187.55
2057.01034	9169.85
2060.03078	9169.35
2063.04927	9182.55
2066.06582	9167.85
2069.08042	9146.45
2072.09307	9155.85
2075.10378	9135.05
2078.11255	9127.05
2081.11938	9139.45
2084.12426	9138.75
2087.12722	9103.25
2090.12824	9082.95
2093.12732	9107.35
2096.12447	9108.55
2099.11969	9103.25
2102.11299	9091.95
2105.10435	9109.35
2108.09379	9130.55
2111.08131	9121.45
2114.0669	9118.65
2117.05057	9122.85
2120.03233	9139.55
2123.01216	9126.55
2125.99008	9139.55
2128.96609	9140.55
2131.94018	9138.75
2134.91236	9139.15
2137.88263	9145.75
2140.851	9140.15
2143.81746	9138.55
2146.78201	9152.75
2149.74466	9148.25
2152.7054	9144.85
2155.66425	9148.85
2158.6212	9132.05
2161.57625	9134.05
2164.52941	9118.75
2167.48067	9125.25
2170.43004	9131.25
2173.37752	9126.25
2176.32311	9107.05
2179.26681	9110.05
2182.20863	9089.65
2185.14856	9087.95
2188.08661	9116.65
2191.02278	9118.85
2193.95707	9095.45
2196.88948	9089.55
2199.82001	9060.95
2202.74867	9052.65
2205.67545	9060.45
2208.60037	9016.85
2211.52341	8999.85
2214.44458	8989.05
2217.36388	8965.85
2220.28132	8961.95
2223.1969	8938.55
2226.11061	8907.65
2229.02246	8909.65
2231.93245	8894.35
2234.84058	8894.45
2237.74686	8855.15
2240.65128	8855.25
2243.55385	8848.45
2246.45456	8787.25
2249.35343	8808.85
2252.25044	8791.65
2255.14561	8777.95
2258.03893	8755.55
2260.93041	8751.55
2263.82004	8713.15
2266.70783	8685.25
2269.59378	8666.35
2272.4779	8652.25
2275.36017	8620.35
2278.24061	8606.95
2281.11922	8601.55
2283.996	8596.25
2286.87094	8572.05
2289.74405	8550.05
2292.61534	8520.65
2295.4848	8498.95
2298.35243	8506.35
2301.21824	8488.35
2304.08223	8498.65
2306.94439	8498.55
2309.80474	8473.75
2312.66327	8469.25
2315.51999	8440.65
2318.37489	8470.55
2321.22797	8431.35
2324.07925	8412.25
2326.92871	8397.95
2329.77637	8391.75
2332.62222	8379.45
2335.46626	8342.85
2338.3085	8326.35
2341.14893	8336.45
2343.98756	8335.05
2346.8244	8298.35
2349.65943	8316.95
2352.49267	8293.85
2355.32411	8291.95
2358.15376	8278.55
2360.98161	8290.15
2363.80768	8269.55
2366.63195	8263.05
2369.45444	8280.25
2372.27514	8262.95
2375.09405	8239.55
2377.91118	8228.45
2380.72652	8196.25
2383.54009	8183.45
2386.35187	8185.25
2389.16188	8161.75
2391.97011	8125.55
2394.77657	8125.05
2397.58125	8113.05
2400.38416	8098.05
2403.18529	8087.05
2405.98466	8083.45
2408.78226	8072.35
2411.57809	8040.35
2414.37216	8050.85
2417.16446	8028.25
2419.955	8007.15
2422.74378	8027.65
2425.5308	7999.25
2428.31606	8003.15
2431.09956	7991.15
2433.88131	7979.45
2436.6613	7964.25
2439.43954	7956.85
2442.21603	7950.45
2444.99077	7949.75
2447.76377	7948.35
2450.53501	7933.15
2453.30451	7920.45
2456.07226	7911.95
2458.83827	7884.85
2461.60254	7893.55
2464.36507	7898.85
2467.12586	7871.15
2469.88492	7857.95
2472.64224	7857.25
2475.39782	7849.95
2478.15167	7832.95
2480.90379	7826.15
2483.65417	7826.75
2486.40283	7829.25
2489.14976	7814.25
2491.89497	7824.95
2494.63845	7841.95
2497.3802	7808.35
2500.12024	7800.75
2502.85855	7801.75
2505.59514	7816.45
2508.33002	7786.45
2511.06318	7763.05
2513.79462	7763.85
2516.52435	7747.45
2519.25237	7745.25
2521.97867	7733.85
2524.70327	7733.15
2527.42616	7720.95
2530.14734	7693.35
2532.86681	7702.05
2535.58458	7684.15
2538.30065	7662.65
2541.01501	7662.45
2543.72768	7640.05
2546.43864	7643.95
2549.14791	7618.45
2551.85548	7618.65
2554.56136	7596.95
2557.26554	7579.05
2559.96803	7572.35
2562.66883	7576.85
2565.36794	7570.65
2568.06536	7541.05
2570.7611	7525.35
2573.45514	7502.95
2576.14751	7501.35
2578.83819	7501.55
2581.52719	7486.35
2584.21451	7485.85
2586.90015	7445.95
2589.58411	7429.75
2592.2664	7438.65
2594.94701	7411.55
2597.62594	7428.35
2600.30321	7381.95
2602.9788	7371.35
2605.65273	7372.45
2608.32498	7368.55
2610.99557	7352.55
2613.66449	7355.65
2616.33175	7352.25
2618.99734	7328.95
2621.66128	7342.25
2624.32355	7313.75
2626.98416	7312.85
2629.64311	7286.85
2632.30041	7293.15
2634.95605	7285.85
2637.61004	7261.55
2640.26238	7251.55
2642.91306	7250.55
2645.56209	7255.45
2648.20948	7264.25
2650.85521	7232.25
2653.4993	7268.65
2656.14175	7250.75
2658.78255	7241.75
2661.42171	7241.55
2664.05923	7251.85
2666.6951	7224.55
2669.32934	7229.95
2671.96194	7231.25
2674.59291	7249.25
2677.22224	7236.55
2679.84993	7216.05
2682.476	7214.55
2685.10043	7230.35
2687.72324	7211.05
2690.34441	7208.55
2692.96396	7211.25
2695.58188	7209.95
2698.19818	7179.95
2700.81285	7203.15
2703.4259	7186.15
2706.03733	7178.55
2708.64714	7163.45
2711.25533	7207.25
2713.86191	7199.65
2716.46687	7208.15
2719.07021	7191.45
2721.67194	7205.65
2724.27206	7205.75
2726.87057	7216.45
2729.46747	7212.35
2732.06276	7207.25
2734.65644	7198.65
2737.24852	7200.75
2739.83899	7165.55
2742.42786	7199.15
2745.01513	7154.15
2747.60079	7149.45
2750.18486	7147.25
2752.76733	7142.55
2755.3482	7118.45
2757.92747	7142.65
2760.50515	7102.35
2763.08123	7103.35
2765.65573	7103.15
2768.22863	7085.45
2770.79994	7095.65
2773.36967	7062.65
2775.9378	7070.05
2778.50435	7075.65
2781.06932	7036.05
2783.6327	7030.35
2786.1945	7020.95
2788.75471	7010.15
2791.31335	6995.05
2793.87041	6996.25
2796.42589	6975.25
2798.97979	6979.15
2801.53212	6949.15
2804.08288	6940.45
2806.63206	6897.85
2809.17967	6899.85
2811.72571	6866.85
2814.27018	6883.05
2816.81308	6842.75
2819.35442	6853.45
2821.89419	6838.55
2824.43239	6851.05
2826.96904	6827.55
2829.50412	6834.85
2832.03763	6818.45
2834.56959	6820.55
2837.1	6792.75
2839.62884	6791.45
2842.15613	6786.35
2844.68186	6800.55
2847.20604	6799.25
2849.72867	6773.25
2852.24974	6767.75
2854.76927	6789.45
2857.28724	6758.55
2859.80367	6750.35
2862.31855	6752.15
2864.83189	6752.45
2867.34368	6723.85
2869.85393	6718.75
2872.36264	6703.85
2874.8698	6698.35
2877.37543	6701.55
2879.87952	6678.75
2882.38207	6676.55
2884.88308	6669.55
2887.38256	6674.15
2889.88051	6694.05
2892.37692	6670.15
2894.8718	6666.85
2897.36515	6676.65
2899.85698	6660.35
2902.34727	6693.15
2904.83604	6654.05
2907.32328	6680.85
2909.809	6668.15
2912.29319	6668.55
2914.77587	6673.05
2917.25702	6664.85
2919.73665	6664.55
2922.21476	6664.95
2924.69136	6654.85
2927.16644	6659.95
2929.64	6657.55
2932.11205	6649.45
2934.58258	6627.55
2937.05161	6645.65
2939.51912	6642.55
2941.98513	6603.85
2944.44962	6591.45
2946.91261	6566.65
2949.37409	6587.55
2951.83407	6556.35
2954.29254	6579.35
2956.74951	6552.75
2959.20498	6559.25
2961.65895	6533.25
2964.11142	6543.55
2966.56239	6531.45
2969.01186	6524.45
2971.45984	6517.65
2973.90632	6522.95
2976.35131	6486.45
2978.7948	6489.35
2981.23681	6474.35
2983.67732	6463.85
2986.11635	6450.45
2988.55388	6411.55
2990.98993	6417.75
2993.4245	6400.25
2995.85758	6387.85
2998.28917	6375.65
3000.71928	6364.35
3003.14791	6366.75
3005.57506	6335.35
3008.00073	6328.25
3010.42493	6320.85
3012.84764	6311.35
3015.26888	6320.65
3017.68865	6305.95
3020.10694	6291.05
3022.52376	6260.85
3024.9391	6263.25
3027.35298	6260.05
3029.76539	6259.65
3032.17632	6238.55
3034.5858	6226.75
3036.9938	6227.85
3039.40034	6224.15
3041.80542	6218.45
3044.20903	6202.55
3046.61118	6198.15
3049.01187	6172.85
3051.4111	6179.65
3053.80888	6156.75
3056.20519	6155.85
3058.60005	6135.45
3060.99345	6116.45
3063.3854	6104.25
3065.7759	6086.55
3068.16494	6095.45
3070.55254	6067.75
3072.93868	6058.85
3075.32338	6041.65
3077.70662	6059.35
3080.08842	6001.65
3082.46878	6022.05
3084.84769	6002.45
3087.22515	5999.05
3089.60118	5996.95
3091.97576	5985.75
3094.3489	5996.55
3096.72061	6009.15
3099.09087	6005.85
3101.4597	5992.25
3103.82709	5998.95
3106.19305	5983.85
3108.55757	5991.75
3110.92066	5967.15
3113.28232	5959.35
3115.64255	5940.15
3118.00134	5959.55
3120.35871	5931.85
3122.71466	5928.75
3125.06917	5906.45
3127.42226	5885.65
3129.77393	5916.45
3132.12417	5889.65
3134.47299	5882.55
3136.82039	5884.45
3139.16636	5896.95
3141.51092	5879.15
3143.85406	5885.25
3146.19579	5889.55
3148.53609	5901.25
3150.87499	5919.75
3153.21246	5911.95
3155.54853	5923.15
3157.88318	5929.05
3160.21642	5895.95
3162.54826	5914.95
3164.87868	5905.65
3167.2077	5919.95
3169.5353	5920.25
3171.86151	5912.75
3174.18631	5905.65
3176.5097	5904.15
3178.83169	5879.95
3181.15228	5888.05
3183.47147	5880.35
3185.78926	5872.25
3188.10565	5863.75
3190.42065	5864.45
3192.73424	5856.85
3195.04645	5855.85
3197.35725	5858.95
3199.66667	5863.65
3201.97469	5860.25
3204.28132	5848.45
3206.58656	5861.55
3208.8904	5860.55
3211.19287	5853.35
3213.49394	5872.35
3215.79363	5869.15
3218.09193	5860.85
3220.38884	5864.15
3222.68438	5881.75
3224.97853	5862.85
3227.2713	5852.95
3229.56269	5841.15
3231.8527	5829.55
3234.14133	5830.85
3236.42858	5795.85
3238.71446	5790.05
3240.99896	5794.75
3243.28209	5795.65
3245.56384	5783.15
3247.84423	5762.95
3250.12324	5768.15
3252.40088	5772.95
3254.67715	5771.15
3256.95205	5767.15
3259.22558	5758.85
3261.49775	5759.15
3263.76855	5752.45
3266.03799	5732.15
3268.30606	5740.05
3270.57277	5715.95
3272.83812	5682.15
3275.10211	5680.85
3277.36474	5659.35
3279.62601	5656.35
3281.88593	5646.15
3284.14448	5658.15
3286.40168	5666.95
3288.65753	5654.55
3290.91202	5663.85
3293.16516	5629.35
3295.41695	5613.95
3297.66738	5574.35
3299.91647	5540.95
3302.16421	5520.85
3304.4106	5494.35
3306.65564	5457.85
3308.89933	5441.65
3311.14169	5400.75
3313.38269	5367.25
3315.62236	5315.75
3317.86068	5280.55
3320.09766	5242.55
3322.3333	5200.25
3324.5676	5194.85
3326.80056	5116.05
3329.03219	5047.95
3331.26248	2.45
3333.49143	0.25
3335.71905	-0.55
