Data from AgNPs_FTO_APTES_UA_1uM_CRN_500uM_R6G_10uM_NaF_0.1M_Addition_RamanShift__2__17-46-59-859.txt Node

Date: Thu Jan 27 17:46:59 GMT 2022
User: TCL
Spectrometer: QEP01345
Trigger mode: 4
Integration Time (sec): 7.000000E0
Scans to average: 10
Electric dark correction enabled: true
Nonlinearity correction enabled: false
Boxcar width: 0
XAxis mode: Raman Shifts
Number of Pixels in Spectrum: 1044
>>>>>Begin Spectral Data<<<<<
46.04893	-0.75
50.45542	0.25
54.85868	-1.55
59.25871	-0.65
63.6555	41.85
68.04907	42.75
72.43941	43.75
76.82654	48.95
81.21044	49.45
85.59113	50.85
89.96862	52.65
94.34289	55.55
98.71396	57.95
103.08183	57.65
107.4465	61.85
111.80798	64.65
116.16626	62.15
120.52136	68.55
124.87327	66.85
129.222	66.65
133.56755	71.25
137.90993	74.65
142.24913	76.45
146.58517	85.85
150.91804	95.05
155.24774	111.85
159.57429	130.65
163.89768	162.55
168.21792	208.95
172.53501	281.65
176.84895	385.05
181.15975	539.75
185.46741	749.65
189.77193	1035.15
194.07331	1379.05
198.37157	1787.05
202.6667	2192.85
206.9587	2631.05
211.24758	3034.75
215.53334	3442.55
219.81599	3880.25
224.09553	4343.45
228.37195	4864.15
232.64527	5452.85
236.91549	6074.25
241.18261	6652.65
245.44663	7259.15
249.70755	7781.45
253.96539	8240.95
258.22014	8552.05
262.4718	8886.75
266.72039	9050.95
270.96589	9142.35
275.20832	9123.95
279.44768	9032.95
283.68397	8901.55
287.91719	8753.15
292.14735	8669.75
296.37445	8628.15
300.59849	8628.05
304.81948	8697.95
309.03742	8706.55
313.25231	8671.85
317.46415	8526.05
321.67296	8349.95
325.87872	8210.25
330.08145	8109.85
334.28114	8121.15
338.47781	8175.05
342.67145	8271.95
346.86207	8398.25
351.04966	8584.35
355.23424	8722.05
359.4158	8849.75
363.59435	8956.55
367.76989	9015.05
371.94243	9057.35
376.11196	9105.35
380.27849	9180.65
384.44203	9225.45
388.60257	9299.75
392.76012	9357.05
396.91468	9474.15
401.06626	9603.65
405.21485	9708.05
409.36047	9711.25
413.50311	9573.15
417.64277	9502.75
421.77947	9474.25
425.9132	9482.95
430.04396	9501.75
434.17176	9522.75
438.2966	9575.05
442.41849	9674.95
446.53742	9891.55
450.6534	10113.15
454.76644	10209.15
458.87653	10218.95
462.98368	10124.25
467.08789	10003.85
471.18916	9876.95
475.2875	9728.35
479.38291	9605.45
483.4754	9545.15
487.56496	9476.15
491.6516	9429.25
495.73531	9411.45
499.81612	9406.35
503.89401	9437.75
507.96899	9493.75
512.04106	9474.45
516.11023	9448.15
520.1765	9408.85
524.23987	9407.35
528.30034	9367.15
532.35792	9288.85
536.41261	9198.85
540.46441	9088.15
544.51333	9030.15
548.55936	9101.25
552.60252	9235.35
556.64279	9447.05
560.6802	9550.55
564.71473	9575.45
568.7464	9622.05
572.7752	9734.35
576.80114	9906.25
580.82422	10121.35
584.84444	10505.75
588.86181	11012.45
592.87633	11429.95
596.888	11439.85
600.89682	10965.75
604.9028	10845.15
608.90594	11527.25
612.90624	12522.25
616.90371	12096.85
620.89834	10311.45
624.89015	9438.45
628.87913	9303.35
632.86528	9345.65
636.84862	9343.95
640.82913	9283.25
644.80683	9090.75
648.78172	8984.45
652.75379	8977.95
656.72306	9051.85
660.68952	9159.55
664.65319	9122.65
668.61405	9001.95
672.57211	8932.85
676.52738	9010.45
680.47986	9052.45
684.42955	9019.55
688.37646	8945.75
692.32058	8926.25
696.26192	9004.95
700.20048	9110.35
704.13626	9148.25
708.06928	9138.65
711.99952	9101.65
715.927	9108.25
719.85171	9129.65
723.77365	9152.85
727.69284	9052.15
731.60928	8948.65
735.52295	8932.75
739.43388	8950.35
743.34206	8960.75
747.24749	9015.25
751.15017	9059.95
755.05012	9167.65
758.94733	9328.15
762.8418	9675.25
766.73354	10276.85
770.62254	10970.75
774.50882	11308.75
778.39237	11015.65
782.27321	10314.45
786.15132	9672.75
790.02671	9245.15
793.89938	9062.75
797.76935	9000.85
801.6366	8969.15
805.50115	8910.35
809.36299	8886.55
813.22213	8807.15
817.07857	8760.85
820.93231	8731.35
824.78336	8718.45
828.63172	8729.45
832.47738	8730.95
836.32036	8729.95
840.16066	8771.25
843.99827	8783.75
847.8332	8765.75
851.66546	8728.65
855.49504	8692.65
859.32195	8711.05
863.1462	8722.75
866.96777	8706.95
870.78668	8677.75
874.60293	8690.55
878.41652	8682.15
882.22745	8702.65
886.03573	8769.45
889.84136	8769.85
893.64433	8768.45
897.44466	8703.45
901.24235	8674.35
905.0374	8624.45
908.8298	8594.55
912.61957	8602.35
916.40671	8647.95
920.19121	8724.05
923.97308	8811.95
927.75233	8864.05
931.52895	8910.45
935.30295	8809.35
939.07433	8658.65
942.84309	8539.25
946.60924	8458.05
950.37278	8404.05
954.13371	8376.15
957.89203	8348.05
961.64774	8312.05
965.40086	8318.25
969.15137	8281.65
972.89929	8258.65
976.64461	8242.95
980.38733	8229.95
984.12747	8261.25
987.86502	8295.05
991.59999	8384.35
995.33237	8449.95
999.06217	8620.35
1002.78939	8792.65
1006.51404	8885.35
1010.23611	8959.75
1013.95561	9047.55
1017.67255	9098.15
1021.38692	9037.65
1025.09872	8948.25
1028.80796	8916.95
1032.51465	8997.15
1036.21877	9193.05
1039.92035	9261.85
1043.61937	9220.45
1047.31584	9113.95
1051.00976	9001.85
1054.70114	8940.95
1058.38998	8916.95
1062.07627	8951.25
1065.76003	8988.45
1069.44126	9059.85
1073.11995	9190.15
1076.79611	9305.55
1080.46974	9349.75
1084.14085	9320.15
1087.80943	9343.05
1091.47549	9375.05
1095.13903	9394.45
1098.80005	9291.85
1102.45857	9117.65
1106.11456	8973.45
1109.76805	8943.15
1113.41903	8944.95
1117.06751	9024.85
1120.71348	9104.25
1124.35696	9237.35
1127.99793	9394.55
1131.63641	9507.45
1135.2724	9387.75
1138.90589	9254.55
1142.5369	9183.35
1146.16542	9174.65
1149.79145	9142.55
1153.415	9163.45
1157.03607	9211.65
1160.65467	9405.05
1164.27079	9736.65
1167.88443	10165.75
1171.49561	10648.45
1175.10432	11322.55
1178.71056	12191.75
1182.31434	13041.15
1185.91565	13452.95
1189.51451	13286.85
1193.11091	12781.75
1196.70485	12194.15
1200.29634	11658.55
1203.88538	11275.65
1207.47197	10972.95
1211.05612	10730.25
1214.63782	10532.65
1218.21708	10379.05
1221.79391	10272.25
1225.36829	10238.45
1228.94024	10210.05
1232.50976	10126.95
1236.07685	9971.35
1239.6415	9858.55
1243.20374	9864.65
1246.76355	9871.35
1250.32093	9955.95
1253.8759	10105.95
1257.42845	10312.75
1260.97859	10555.85
1264.52631	10798.35
1268.07163	11063.45
1271.61453	11325.55
1275.15503	11619.75
1278.69312	11892.85
1282.22882	12160.95
1285.76211	12491.55
1289.29301	12876.15
1292.82151	13348.65
1296.34761	13922.05
1299.87133	14641.65
1303.39266	15526.25
1306.9116	16452.85
1310.42815	17289.25
1313.94233	17738.35
1317.45412	17533.45
1320.96354	16882.05
1324.47058	16112.45
1327.97525	15464.95
1331.47754	15020.45
1334.97747	14751.95
1338.47502	14496.55
1341.97022	14280.95
1345.46305	14156.75
1348.95352	14307.45
1352.44163	14848.75
1355.92738	15823.15
1359.41078	16965.45
1362.89183	17936.15
1366.37053	17910.15
1369.84688	16469.25
1373.32088	14500.85
1376.79254	13010.35
1380.26186	12344.15
1383.72883	12091.65
1387.19347	11863.05
1390.65578	11569.55
1394.11575	11441.95
1397.57339	11520.55
1401.0287	11719.55
1404.48168	11885.85
1407.93234	11921.65
1411.38068	11795.75
1414.82669	11562.55
1418.27039	11348.55
1421.71177	11066.05
1425.15083	10758.75
1428.58758	10635.55
1432.02203	10670.35
1435.45416	10858.95
1438.88399	11063.45
1442.31151	11162.15
1445.73673	11194.85
1449.15965	11237.55
1452.58027	11191.95
1455.9986	11112.15
1459.41463	11109.75
1462.82837	11208.95
1466.23982	11433.95
1469.64898	11681.85
1473.05586	11864.25
1476.46045	11965.15
1479.86276	12047.45
1483.26279	12091.05
1486.66054	12163.55
1490.05602	12284.75
1493.44922	12534.05
1496.84016	12784.05
1500.22882	13150.95
1503.61521	13739.95
1506.99934	14421.25
1510.38121	14954.45
1513.76081	15046.45
1517.13816	14529.05
1520.51324	13706.55
1523.88607	12991.65
1527.25665	12576.85
1530.62498	12318.35
1533.99105	12160.95
1537.35488	11999.15
1540.71647	11814.25
1544.07581	11584.15
1547.4329	11392.65
1550.78776	11221.15
1554.14038	11045.95
1557.49077	10936.45
1560.83892	10933.25
1564.18484	10910.15
1567.52853	11011.55
1570.86999	11178.85
1574.20922	11371.75
1577.54624	11502.15
1580.88103	11431.05
1584.2136	11308.45
1587.54395	11384.65
1590.87208	11756.65
1594.19801	12386.75
1597.52172	13094.65
1600.84321	13542.65
1604.16251	13217.15
1607.47959	12412.75
1610.79447	11376.95
1614.10715	10450.25
1617.41763	9753.25
1620.7259	9345.75
1624.03199	9142.15
1627.33587	9091.25
1630.63757	9268.05
1633.93707	9661.35
1637.23439	10319.65
1640.52951	11433.45
1643.82246	12936.35
1647.11321	14334.55
1650.40179	14872.25
1653.68819	14053.65
1656.97241	12363.95
1660.25446	10665.15
1663.53433	9502.15
1666.81203	8803.25
1670.08756	8386.85
1673.36092	8125.25
1676.63211	7978.15
1679.90115	7875.75
1683.16801	7752.45
1686.43272	7685.15
1689.69527	7635.65
1692.95567	7575.45
1696.2139	7523.65
1699.46999	7463.35
1702.72392	7432.15
1705.97571	7467.95
1709.22535	7471.25
1712.47284	7488.35
1715.71819	7481.95
1718.96139	7484.75
1722.20246	7494.75
1725.44139	7455.85
1728.67818	7435.85
1731.91284	7378.05
1735.14537	7352.75
1738.37576	7351.95
1741.60403	7344.35
1744.83017	7289.85
1748.05418	7282.15
1751.27607	7291.05
1754.49584	7263.55
1757.71349	7251.25
1760.92903	7226.15
1764.14244	7209.35
1767.35375	7194.75
1770.56294	7158.65
1773.77002	7153.35
1776.97499	7157.85
1780.17785	7177.75
1783.37861	7183.95
1786.57727	7177.35
1789.77382	7143.55
1792.96828	7141.45
1796.16064	7126.05
1799.3509	7099.75
1802.53907	7101.45
1805.72514	7090.35
1808.90913	7069.05
1812.09102	7066.45
1815.27083	7035.65
1818.44856	7026.45
1821.6242	7015.85
1824.79776	7006.25
1827.96924	7013.75
1831.13864	7008.65
1834.30597	6994.85
1837.47122	6994.15
1840.6344	7000.35
1843.7955	6994.55
1846.95454	6991.45
1850.11151	6977.25
1853.26642	6986.75
1856.41926	6980.65
1859.57004	6994.35
1862.71876	6964.05
1865.86542	6969.15
1869.01003	6970.15
1872.15258	6959.55
1875.29308	6958.25
1878.43152	6937.65
1881.56792	6930.15
1884.70227	6945.25
1887.83457	6917.05
1890.96482	6903.85
1894.09304	6896.15
1897.21921	6900.45
1900.34335	6876.35
1903.46544	6893.45
1906.58551	6854.65
1909.70353	6847.85
1912.81953	6850.85
1915.93349	6849.45
1919.04543	6831.15
1922.15534	6821.85
1925.26322	6803.45
1928.36908	6790.55
1931.47292	6761.15
1934.57473	6747.05
1937.67453	6737.95
1940.77232	6738.55
1943.86808	6713.55
1946.96184	6680.05
1950.05358	6674.15
1953.14331	6667.45
1956.23103	6627.05
1959.31675	6620.15
1962.40046	6614.25
1965.48217	6605.85
1968.56188	6574.55
1971.63959	6549.45
1974.7153	6536.55
1977.78901	6539.45
1980.86073	6494.55
1983.93046	6497.35
1986.99819	6454.95
1990.06394	6449.15
1993.1277	6421.25
1996.18947	6399.25
1999.24925	6395.65
2002.30706	6389.75
2005.36288	6367.15
2008.41672	6332.05
2011.46859	6329.25
2014.51848	6333.55
2017.56639	6311.45
2020.61233	6279.65
2023.6563	6272.55
2026.6983	6262.25
2029.73833	6255.75
2032.7764	6240.55
2035.8125	6196.55
2038.84664	6201.95
2041.87881	6193.85
2044.90903	6173.25
2047.93729	6185.45
2050.96359	6164.15
2053.98794	6163.25
2057.01034	6144.35
2060.03078	6148.55
2063.04927	6149.25
2066.06582	6141.75
2069.08042	6134.05
2072.09307	6154.15
2075.10378	6141.25
2078.11255	6123.65
2081.11938	6114.25
2084.12426	6126.05
2087.12722	6116.45
2090.12824	6123.15
2093.12732	6138.35
2096.12447	6117.75
2099.11969	6137.65
2102.11299	6123.45
2105.10435	6155.15
2108.09379	6129.75
2111.08131	6145.55
2114.0669	6128.95
2117.05057	6152.45
2120.03233	6154.45
2123.01216	6149.45
2125.99008	6171.35
2128.96609	6154.95
2131.94018	6181.45
2134.91236	6181.35
2137.88263	6187.15
2140.851	6195.65
2143.81746	6182.05
2146.78201	6211.15
2149.74466	6197.15
2152.7054	6185.35
2155.66425	6194.35
2158.6212	6191.45
2161.57625	6180.45
2164.52941	6181.35
2167.48067	6184.55
2170.43004	6171.65
2173.37752	6172.35
2176.32311	6184.65
2179.26681	6178.25
2182.20863	6183.25
2185.14856	6189.85
2188.08661	6191.35
2191.02278	6175.65
2193.95707	6189.95
2196.88948	6186.75
2199.82001	6165.15
2202.74867	6157.35
2205.67545	6163.85
2208.60037	6153.55
2211.52341	6153.55
2214.44458	6125.95
2217.36388	6126.75
2220.28132	6138.75
2223.1969	6118.85
2226.11061	6115.35
2229.02246	6095.55
2231.93245	6091.35
2234.84058	6080.55
2237.74686	6071.05
2240.65128	6058.75
2243.55385	6069.15
2246.45456	6050.35
2249.35343	6048.15
2252.25044	6026.35
2255.14561	6022.25
2258.03893	6006.75
2260.93041	6004.25
2263.82004	5991.05
2266.70783	5974.35
2269.59378	5963.75
2272.4779	5966.15
2275.36017	5951.25
2278.24061	5945.15
2281.11922	5931.95
2283.996	5926.95
2286.87094	5921.45
2289.74405	5901.85
2292.61534	5901.25
2295.4848	5880.95
2298.35243	5884.85
2301.21824	5881.25
2304.08223	5887.35
2306.94439	5892.75
2309.80474	5896.65
2312.66327	5880.05
2315.51999	5857.35
2318.37489	5882.75
2321.22797	5875.45
2324.07925	5874.65
2326.92871	5871.45
2329.77637	5861.55
2332.62222	5826.55
2335.46626	5837.25
2338.3085	5821.65
2341.14893	5823.55
2343.98756	5828.55
2346.8244	5812.95
2349.65943	5802.25
2352.49267	5820.05
2355.32411	5819.15
2358.15376	5795.95
2360.98161	5819.15
2363.80768	5812.35
2366.63195	5810.75
2369.45444	5802.55
2372.27514	5800.45
2375.09405	5784.15
2377.91118	5765.45
2380.72652	5786.15
2383.54009	5748.65
2386.35187	5753.95
2389.16188	5746.35
2391.97011	5745.95
2394.77657	5712.05
2397.58125	5689.15
2400.38416	5703.35
2403.18529	5694.05
2405.98466	5675.45
2408.78226	5661.85
2411.57809	5666.75
2414.37216	5650.55
2417.16446	5645.85
2419.955	5640.55
2422.74378	5643.85
2425.5308	5630.75
2428.31606	5638.35
2431.09956	5625.85
2433.88131	5620.05
2436.6613	5633.45
2439.43954	5647.75
2442.21603	5641.45
2444.99077	5614.55
2447.76377	5612.75
2450.53501	5610.05
2453.30451	5632.55
2456.07226	5616.45
2458.83827	5620.45
2461.60254	5616.35
2464.36507	5609.05
2467.12586	5604.85
2469.88492	5588.05
2472.64224	5604.25
2475.39782	5589.75
2478.15167	5593.75
2480.90379	5585.35
2483.65417	5586.75
2486.40283	5589.15
2489.14976	5600.55
2491.89497	5603.05
2494.63845	5591.45
2497.3802	5574.15
2500.12024	5586.05
2502.85855	5582.25
2505.59514	5584.85
2508.33002	5580.35
2511.06318	5568.75
2513.79462	5557.75
2516.52435	5552.95
2519.25237	5533.65
2521.97867	5527.25
2524.70327	5529.05
2527.42616	5512.25
2530.14734	5520.55
2532.86681	5521.35
2535.58458	5521.35
2538.30065	5509.25
2541.01501	5499.75
2543.72768	5502.25
2546.43864	5487.95
2549.14791	5473.05
2551.85548	5475.95
2554.56136	5478.45
2557.26554	5466.65
2559.96803	5468.05
2562.66883	5474.75
2565.36794	5450.05
2568.06536	5454.55
2570.7611	5445.65
2573.45514	5446.65
2576.14751	5439.35
2578.83819	5419.35
2581.52719	5428.95
2584.21451	5418.75
2586.90015	5425.35
2589.58411	5412.85
2592.2664	5399.65
2594.94701	5386.95
2597.62594	5393.95
2600.30321	5376.75
2602.9788	5376.55
2605.65273	5374.65
2608.32498	5358.55
2610.99557	5350.95
2613.66449	5348.35
2616.33175	5341.95
2618.99734	5358.35
2621.66128	5346.15
2624.32355	5342.95
2626.98416	5332.05
2629.64311	5347.95
2632.30041	5314.15
2634.95605	5314.15
2637.61004	5299.65
2640.26238	5299.35
2642.91306	5290.35
2645.56209	5295.95
2648.20948	5284.65
2650.85521	5284.05
2653.4993	5306.95
2656.14175	5301.25
2658.78255	5311.95
2661.42171	5306.35
2664.05923	5321.65
2666.6951	5318.15
2669.32934	5309.25
2671.96194	5299.05
2674.59291	5311.45
2677.22224	5298.15
2679.84993	5305.35
2682.476	5293.35
2685.10043	5308.95
2687.72324	5303.05
2690.34441	5291.85
2692.96396	5309.35
2695.58188	5306.15
2698.19818	5306.05
2700.81285	5304.05
2703.4259	5320.15
2706.03733	5297.55
2708.64714	5293.35
2711.25533	5313.15
2713.86191	5294.45
2716.46687	5320.05
2719.07021	5322.95
2721.67194	5335.35
2724.27206	5315.25
2726.87057	5323.15
2729.46747	5343.95
2732.06276	5338.25
2734.65644	5319.75
2737.24852	5323.55
2739.83899	5321.15
2742.42786	5310.45
2745.01513	5296.45
2747.60079	5284.15
2750.18486	5305.15
2752.76733	5287.05
2755.3482	5298.15
2757.92747	5291.65
2760.50515	5291.15
2763.08123	5297.45
2765.65573	5295.45
2768.22863	5289.55
2770.79994	5281.25
2773.36967	5260.55
2775.9378	5276.75
2778.50435	5283.65
2781.06932	5267.25
2783.6327	5255.15
2786.1945	5249.75
2788.75471	5254.05
2791.31335	5243.55
2793.87041	5230.45
2796.42589	5236.75
2798.97979	5255.25
2801.53212	5231.55
2804.08288	5222.45
2806.63206	5194.05
2809.17967	5204.75
2811.72571	5188.25
2814.27018	5183.55
2816.81308	5171.85
2819.35442	5164.55
2821.89419	5159.85
2824.43239	5163.95
2826.96904	5153.25
2829.50412	5172.55
2832.03763	5158.25
2834.56959	5156.75
2837.1	5166.05
2839.62884	5189.05
2842.15613	5184.15
2844.68186	5231.05
2847.20604	5248.35
2849.72867	5268.65
2852.24974	5279.15
2854.76927	5270.05
2857.28724	5258.65
2859.80367	5250.35
2862.31855	5235.55
2864.83189	5235.55
2867.34368	5235.55
2869.85393	5240.45
2872.36264	5246.05
2874.8698	5235.55
2877.37543	5225.85
2879.87952	5239.95
2882.38207	5235.55
2884.88308	5229.85
2887.38256	5226.55
2889.88051	5220.75
2892.37692	5231.55
2894.8718	5234.95
2897.36515	5246.35
2899.85698	5258.65
2902.34727	5278.45
2904.83604	5277.65
2907.32328	5295.95
2909.809	5275.85
2912.29319	5289.85
2914.77587	5289.05
2917.25702	5291.05
2919.73665	5280.55
2922.21476	5282.95
2924.69136	5280.85
2927.16644	5287.05
2929.64	5290.05
2932.11205	5288.25
2934.58258	5278.55
2937.05161	5274.35
2939.51912	5285.15
2941.98513	5271.35
2944.44962	5250.45
2946.91261	5217.75
2949.37409	5209.25
2951.83407	5213.55
2954.29254	5194.15
2956.74951	5192.45
2959.20498	5197.45
2961.65895	5197.85
2964.11142	5166.85
2966.56239	5170.95
2969.01186	5177.85
2971.45984	5153.25
2973.90632	5139.95
2976.35131	5121.55
2978.7948	5111.75
2981.23681	5107.15
2983.67732	5107.95
2986.11635	5080.95
2988.55388	5070.45
2990.98993	5061.25
2993.4245	5062.25
2995.85758	5039.25
2998.28917	5035.75
3000.71928	5035.95
3003.14791	5023.65
3005.57506	5031.15
3008.00073	5013.45
3010.42493	5003.85
3012.84764	5010.35
3015.26888	5014.05
3017.68865	4997.75
3020.10694	4988.65
3022.52376	4984.95
3024.9391	4987.55
3027.35298	4978.15
3029.76539	4972.05
3032.17632	4970.25
3034.5858	4962.55
3036.9938	4963.45
3039.40034	4943.95
3041.80542	4952.85
3044.20903	4951.95
3046.61118	4940.65
3049.01187	4929.95
3051.4111	4943.15
3053.80888	4938.65
3056.20519	4914.05
3058.60005	4929.85
3060.99345	4913.95
3063.3854	4920.55
3065.7759	4901.75
3068.16494	4897.15
3070.55254	4885.25
3072.93868	4879.85
3075.32338	4873.75
3077.70662	4879.05
3080.08842	4854.35
3082.46878	4880.65
3084.84769	4862.15
3087.22515	4858.45
3089.60118	4862.15
3091.97576	4872.65
3094.3489	4880.35
3096.72061	4871.05
3099.09087	4885.95
3101.4597	4874.75
3103.82709	4901.05
3106.19305	4884.85
3108.55757	4889.05
3110.92066	4882.75
3113.28232	4866.35
3115.64255	4869.15
3118.00134	4881.35
3120.35871	4878.55
3122.71466	4849.35
3125.06917	4862.45
3127.42226	4851.35
3129.77393	4862.35
3132.12417	4857.75
3134.47299	4865.35
3136.82039	4872.55
3139.16636	4886.25
3141.51092	4872.95
3143.85406	4894.45
3146.19579	4900.35
3148.53609	4905.45
3150.87499	4908.75
3153.21246	4914.75
3155.54853	4925.05
3157.88318	4940.95
3160.21642	4947.35
3162.54826	4963.65
3164.87868	4941.55
3167.2077	4966.15
3169.5353	4965.55
3171.86151	4961.15
3174.18631	4959.45
3176.5097	4961.15
3178.83169	4963.65
3181.15228	4958.75
3183.47147	4964.95
3185.78926	4966.25
3188.10565	4950.75
3190.42065	4960.95
3192.73424	4951.75
3195.04645	4948.45
3197.35725	4960.35
3199.66667	4970.95
3201.97469	4950.65
3204.28132	4971.15
3206.58656	4973.15
3208.8904	4989.95
3211.19287	5008.15
3213.49394	5003.25
3215.79363	4999.95
3218.09193	5009.75
3220.38884	5018.65
3222.68438	5027.05
3224.97853	4987.65
3227.2713	5011.65
3229.56269	5016.15
3231.8527	5003.85
3234.14133	5002.85
3236.42858	4980.05
3238.71446	4990.85
3240.99896	4976.95
3243.28209	5003.25
3245.56384	4977.55
3247.84423	4977.55
3250.12324	4968.45
3252.40088	4982.05
3254.67715	4973.05
3256.95205	4964.95
3259.22558	4970.95
3261.49775	4960.25
3263.76855	4965.95
3266.03799	4951.75
3268.30606	4930.75
3270.57277	4946.45
3272.83812	4919.85
3275.10211	4913.35
3277.36474	4926.55
3279.62601	4921.45
3281.88593	4915.75
3284.14448	4904.85
3286.40168	4921.75
3288.65753	4922.35
3290.91202	4914.75
3293.16516	4902.75
3295.41695	4893.35
3297.66738	4851.85
3299.91647	4852.05
3302.16421	4831.25
3304.4106	4803.15
3306.65564	4783.65
3308.89933	4766.05
3311.14169	4725.15
3313.38269	4685.15
3315.62236	4670.65
3317.86068	4633.15
3320.09766	4593.35
3322.3333	4575.15
3324.5676	4554.85
3326.80056	4489.75
3329.03219	4465.65
3331.26248	2.85
3333.49143	0.65
3335.71905	-0.45
