Data from AgNPs_FTO_APTES_UA_1uM_CRN_1000uM_R6G_10uM_NaF_0.1M_Addition_RamanShift__16__18-52-19-935.txt Node

Date: Thu Jan 27 18:52:19 GMT 2022
User: TCL
Spectrometer: QEP01345
Trigger mode: 4
Integration Time (sec): 7.000000E0
Scans to average: 10
Electric dark correction enabled: true
Nonlinearity correction enabled: false
Boxcar width: 0
XAxis mode: Raman Shifts
Number of Pixels in Spectrum: 1044
>>>>>Begin Spectral Data<<<<<
46.04893	0.85
50.45542	0.65
54.85868	-1.35
59.25871	-1.05
63.6555	44.25
68.04907	45.35
72.43941	49.25
76.82654	52.55
81.21044	53.85
85.59113	51.55
89.96862	57.35
94.34289	56.65
98.71396	61.85
103.08183	60.75
107.4465	65.95
111.80798	70.25
116.16626	67.45
120.52136	75.85
124.87327	73.75
129.222	71.15
133.56755	79.25
137.90993	81.45
142.24913	86.25
146.58517	100.15
150.91804	111.75
155.24774	133.05
159.57429	157.05
163.89768	199.75
168.21792	259.75
172.53501	351.05
176.84895	485.25
181.15975	676.05
185.46741	947.05
189.77193	1299.65
194.07331	1738.45
198.37157	2267.45
202.6667	2819.45
206.9587	3366.25
211.24758	3899.55
215.53334	4473.25
219.81599	5020.25
224.09553	5630.95
228.37195	6312.15
232.64527	7053.35
236.91549	7805.55
241.18261	8572.95
245.44663	9267.45
249.70755	9870.95
253.96539	10396.95
258.22014	10803.15
262.4718	11151.75
266.72039	11361.95
270.96589	11501.15
275.20832	11477.45
279.44768	11351.05
283.68397	11219.15
287.91719	11088.85
292.14735	10963.35
296.37445	10951.95
300.59849	10998.55
304.81948	11048.35
309.03742	11085.85
313.25231	10956.45
317.46415	10700.75
321.67296	10364.45
325.87872	10101.85
330.08145	9943.85
334.28114	9957.15
338.47781	10048.25
342.67145	10154.35
346.86207	10340.65
351.04966	10565.05
355.23424	10765.45
359.4158	11015.15
363.59435	11169.15
367.76989	11256.35
371.94243	11344.65
376.11196	11380.05
380.27849	11492.65
384.44203	11519.75
388.60257	11574.95
392.76012	11602.05
396.91468	11697.85
401.06626	11849.45
405.21485	11965.65
409.36047	11940.75
413.50311	11732.55
417.64277	11527.85
421.77947	11474.25
425.9132	11498.85
430.04396	11514.75
434.17176	11590.65
438.2966	11658.65
442.41849	11808.35
446.53742	12052.05
450.6534	12284.35
454.76644	12459.35
458.87653	12523.45
462.98368	12507.15
467.08789	12419.05
471.18916	12305.85
475.2875	12131.85
479.38291	12087.95
483.4754	11999.35
487.56496	11856.05
491.6516	11755.05
495.73531	11668.55
499.81612	11655.95
503.89401	11726.75
507.96899	11763.65
512.04106	11790.35
516.11023	11807.15
520.1765	11800.15
524.23987	11690.35
528.30034	11599.05
532.35792	11471.85
536.41261	11381.55
540.46441	11236.45
544.51333	11215.25
548.55936	11286.35
552.60252	11436.25
556.64279	11657.15
560.6802	11786.05
564.71473	11849.65
568.7464	12013.95
572.7752	12280.75
576.80114	12422.45
580.82422	12545.55
584.84444	12689.25
588.86181	12858.05
592.87633	13029.85
596.888	13020.15
600.89682	12929.05
604.9028	13176.35
608.90594	14299.35
612.90624	15793.65
616.90371	15261.55
620.89834	12827.05
624.89015	11617.75
628.87913	11433.45
632.86528	11501.45
636.84862	11584.65
640.82913	11538.15
644.80683	11332.55
648.78172	11178.65
652.75379	11133.75
656.72306	11198.05
660.68952	11383.15
664.65319	11404.35
668.61405	11284.95
672.57211	11316.45
676.52738	11511.45
680.47986	11631.75
684.42955	11609.45
688.37646	11453.25
692.32058	11291.15
696.26192	11253.15
700.20048	11262.55
704.13626	11316.85
708.06928	11279.15
711.99952	11222.35
715.927	11162.35
719.85171	11151.35
723.77365	11142.95
727.69284	11081.45
731.60928	11025.95
735.52295	11007.65
739.43388	10974.15
743.34206	10968.05
747.24749	10990.95
751.15017	11081.85
755.05012	11174.45
758.94733	11407.35
762.8418	11879.35
766.73354	12686.45
770.62254	13633.85
774.50882	14106.05
778.39237	13692.45
782.27321	12690.15
786.15132	11763.15
790.02671	11210.35
793.89938	10961.85
797.76935	10845.25
801.6366	10798.05
805.50115	10769.95
809.36299	10692.45
813.22213	10626.15
817.07857	10572.05
820.93231	10541.05
824.78336	10521.75
828.63172	10502.25
832.47738	10480.25
836.32036	10486.85
840.16066	10488.85
843.99827	10459.35
847.8332	10435.85
851.66546	10428.35
855.49504	10441.65
859.32195	10463.25
863.1462	10500.65
866.96777	10511.85
870.78668	10490.45
874.60293	10473.85
878.41652	10449.65
882.22745	10480.25
886.03573	10504.75
889.84136	10510.75
893.64433	10480.65
897.44466	10450.75
901.24235	10381.95
905.0374	10309.65
908.8298	10265.15
912.61957	10269.75
916.40671	10297.25
920.19121	10357.35
923.97308	10481.25
927.75233	10536.25
931.52895	10538.15
935.30295	10473.25
939.07433	10292.15
942.84309	10141.35
946.60924	10014.45
950.37278	9945.05
954.13371	9908.25
957.89203	9866.15
961.64774	9847.95
965.40086	9808.35
969.15137	9765.95
972.89929	9731.85
976.64461	9695.15
980.38733	9691.95
984.12747	9664.15
987.86502	9715.15
991.59999	9763.65
995.33237	9864.65
999.06217	10008.75
1002.78939	10199.65
1006.51404	10274.85
1010.23611	10388.45
1013.95561	10495.75
1017.67255	10530.65
1021.38692	10498.65
1025.09872	10402.65
1028.80796	10311.25
1032.51465	10367.15
1036.21877	10433.45
1039.92035	10505.45
1043.61937	10478.25
1047.31584	10445.75
1051.00976	10396.95
1054.70114	10396.85
1058.38998	10382.95
1062.07627	10438.55
1065.76003	10493.65
1069.44126	10590.45
1073.11995	10717.75
1076.79611	10850.75
1080.46974	10887.85
1084.14085	10854.55
1087.80943	10869.55
1091.47549	10917.05
1095.13903	10876.05
1098.80005	10762.45
1102.45857	10583.25
1106.11456	10437.35
1109.76805	10378.85
1113.41903	10424.95
1117.06751	10529.35
1120.71348	10683.65
1124.35696	10877.35
1127.99793	11079.95
1131.63641	11228.05
1135.2724	11077.35
1138.90589	10881.05
1142.5369	10780.85
1146.16542	10700.55
1149.79145	10667.75
1153.415	10679.45
1157.03607	10770.35
1160.65467	10985.85
1164.27079	11359.45
1167.88443	11834.75
1171.49561	12473.35
1175.10432	13283.05
1178.71056	14342.35
1182.31434	15370.05
1185.91565	15882.85
1189.51451	15781.55
1193.11091	15337.55
1196.70485	14654.85
1200.29634	14002.95
1203.88538	13452.75
1207.47197	13058.45
1211.05612	12682.15
1214.63782	12407.45
1218.21708	12265.25
1221.79391	12189.85
1225.36829	12150.05
1228.94024	12072.25
1232.50976	11920.55
1236.07685	11766.15
1239.6415	11649.55
1243.20374	11621.75
1246.76355	11656.05
1250.32093	11740.55
1253.8759	11919.85
1257.42845	12150.25
1260.97859	12446.45
1264.52631	12735.25
1268.07163	13004.05
1271.61453	13320.75
1275.15503	13613.85
1278.69312	13929.95
1282.22882	14184.85
1285.76211	14439.65
1289.29301	14819.45
1292.82151	15303.85
1296.34761	15948.55
1299.87133	16734.85
1303.39266	17674.65
1306.9116	18779.45
1310.42815	19850.55
1313.94233	20556.75
1317.45412	20493.55
1320.96354	19915.55
1324.47058	19254.75
1327.97525	18655.25
1331.47754	18215.35
1334.97747	18012.25
1338.47502	17945.65
1341.97022	17894.95
1345.46305	17944.15
1348.95352	18060.75
1352.44163	18372.45
1355.92738	18981.15
1359.41078	19997.95
1362.89183	20978.65
1366.37053	20937.05
1369.84688	19196.85
1373.32088	16994.75
1376.79254	15355.45
1380.26186	14613.55
1383.72883	14312.05
1387.19347	14156.05
1390.65578	13986.75
1394.11575	13834.45
1397.57339	13925.05
1401.0287	14152.45
1404.48168	14340.75
1407.93234	14428.95
1411.38068	14292.55
1414.82669	14005.25
1418.27039	13649.65
1421.71177	13236.75
1425.15083	12876.45
1428.58758	12690.45
1432.02203	12641.25
1435.45416	12804.25
1438.88399	13085.75
1442.31151	13296.25
1445.73673	13429.05
1449.15965	13593.05
1452.58027	13730.95
1455.9986	13735.25
1459.41463	13791.85
1462.82837	13939.85
1466.23982	14142.95
1469.64898	14363.45
1473.05586	14474.85
1476.46045	14504.35
1479.86276	14465.15
1483.26279	14405.35
1486.66054	14326.85
1490.05602	14389.65
1493.44922	14517.05
1496.84016	14835.25
1500.22882	15255.45
1503.61521	15991.35
1506.99934	16920.75
1510.38121	17784.75
1513.76081	18090.75
1517.13816	17520.55
1520.51324	16436.85
1523.88607	15410.25
1527.25665	14719.45
1530.62498	14328.45
1533.99105	14164.95
1537.35488	14017.45
1540.71647	13845.85
1544.07581	13680.35
1547.4329	13504.35
1550.78776	13341.65
1554.14038	13228.25
1557.49077	13192.35
1560.83892	13180.95
1564.18484	13240.75
1567.52853	13348.85
1570.86999	13524.05
1574.20922	13798.35
1577.54624	14000.65
1580.88103	13936.85
1584.2136	13729.85
1587.54395	13670.35
1590.87208	13939.25
1594.19801	14513.05
1597.52172	15274.55
1600.84321	15677.75
1604.16251	15360.35
1607.47959	14506.25
1610.79447	13488.85
1614.10715	12471.45
1617.41763	11616.75
1620.7259	10975.85
1624.03199	10649.05
1627.33587	10573.45
1630.63757	10724.65
1633.93707	11174.95
1637.23439	11955.65
1640.52951	13166.35
1643.82246	14684.15
1647.11321	16131.55
1650.40179	16795.85
1653.68819	16078.25
1656.97241	14330.85
1660.25446	12406.95
1663.53433	10974.15
1666.81203	10092.55
1670.08756	9599.35
1673.36092	9269.75
1676.63211	9057.35
1679.90115	8916.35
1683.16801	8818.75
1686.43272	8704.15
1689.69527	8621.65
1692.95567	8573.85
1696.2139	8469.65
1699.46999	8396.55
1702.72392	8331.45
1705.97571	8339.65
1709.22535	8374.95
1712.47284	8348.65
1715.71819	8368.55
1718.96139	8347.75
1722.20246	8316.45
1725.44139	8284.35
1728.67818	8265.65
1731.91284	8203.55
1735.14537	8171.35
1738.37576	8162.75
1741.60403	8161.15
1744.83017	8138.55
1748.05418	8152.25
1751.27607	8162.95
1754.49584	8180.45
1757.71349	8165.95
1760.92903	8112.85
1764.14244	8055.35
1767.35375	8013.15
1770.56294	7951.45
1773.77002	7908.45
1776.97499	7877.65
1780.17785	7854.75
1783.37861	7838.45
1786.57727	7811.55
1789.77382	7784.65
1792.96828	7760.65
1796.16064	7723.25
1799.3509	7692.85
1802.53907	7685.35
1805.72514	7648.85
1808.90913	7653.55
1812.09102	7617.65
1815.27083	7585.55
1818.44856	7570.85
1821.6242	7559.55
1824.79776	7539.45
1827.96924	7546.75
1831.13864	7543.55
1834.30597	7524.45
1837.47122	7501.45
1840.6344	7486.45
1843.7955	7495.55
1846.95454	7501.85
1850.11151	7476.25
1853.26642	7466.85
1856.41926	7483.95
1859.57004	7485.45
1862.71876	7461.05
1865.86542	7466.85
1869.01003	7436.85
1872.15258	7424.55
1875.29308	7425.95
1878.43152	7426.95
1881.56792	7411.45
1884.70227	7389.05
1887.83457	7385.95
1890.96482	7361.35
1894.09304	7357.95
1897.21921	7343.25
1900.34335	7351.55
1903.46544	7334.05
1906.58551	7304.35
1909.70353	7316.85
1912.81953	7300.05
1915.93349	7301.95
1919.04543	7280.85
1922.15534	7258.95
1925.26322	7263.05
1928.36908	7233.05
1931.47292	7213.75
1934.57473	7181.45
1937.67453	7199.45
1940.77232	7154.55
1943.86808	7145.75
1946.96184	7105.05
1950.05358	7089.55
1953.14331	7082.35
1956.23103	7036.85
1959.31675	7051.75
1962.40046	6998.65
1965.48217	6976.15
1968.56188	6980.55
1971.63959	6946.05
1974.7153	6912.35
1977.78901	6900.35
1980.86073	6880.65
1983.93046	6869.55
1986.99819	6839.55
1990.06394	6799.15
1993.1277	6781.95
1996.18947	6771.05
1999.24925	6776.05
2002.30706	6742.65
2005.36288	6718.85
2008.41672	6679.25
2011.46859	6688.45
2014.51848	6672.75
2017.56639	6647.05
2020.61233	6630.05
2023.6563	6614.45
2026.6983	6604.95
2029.73833	6576.85
2032.7764	6579.95
2035.8125	6544.45
2038.84664	6534.35
2041.87881	6513.15
2044.90903	6492.95
2047.93729	6498.15
2050.96359	6498.95
2053.98794	6470.05
2057.01034	6460.65
2060.03078	6467.45
2063.04927	6449.35
2066.06582	6453.65
2069.08042	6460.75
2072.09307	6453.65
2075.10378	6452.85
2078.11255	6414.75
2081.11938	6446.85
2084.12426	6426.05
2087.12722	6410.95
2090.12824	6416.15
2093.12732	6413.55
2096.12447	6423.95
2099.11969	6406.45
2102.11299	6419.35
2105.10435	6426.35
2108.09379	6422.65
2111.08131	6418.65
2114.0669	6422.15
2117.05057	6431.95
2120.03233	6424.25
2123.01216	6433.15
2125.99008	6446.75
2128.96609	6460.55
2131.94018	6456.05
2134.91236	6445.05
2137.88263	6470.85
2140.851	6470.55
2143.81746	6461.75
2146.78201	6449.15
2149.74466	6452.35
2152.7054	6444.75
2155.66425	6437.85
2158.6212	6444.15
2161.57625	6411.85
2164.52941	6422.65
2167.48067	6427.95
2170.43004	6437.25
2173.37752	6451.75
2176.32311	6417.95
2179.26681	6413.55
2182.20863	6427.85
2185.14856	6431.85
2188.08661	6411.25
2191.02278	6410.55
2193.95707	6419.35
2196.88948	6400.25
2199.82001	6393.45
2202.74867	6379.35
2205.67545	6376.85
2208.60037	6374.95
2211.52341	6372.85
2214.44458	6345.75
2217.36388	6338.15
2220.28132	6340.55
2223.1969	6323.35
2226.11061	6321.15
2229.02246	6302.55
2231.93245	6295.15
2234.84058	6263.95
2237.74686	6260.55
2240.65128	6255.85
2243.55385	6238.85
2246.45456	6209.65
2249.35343	6218.35
2252.25044	6217.25
2255.14561	6201.85
2258.03893	6190.65
2260.93041	6178.15
2263.82004	6170.25
2266.70783	6155.05
2269.59378	6128.25
2272.4779	6122.55
2275.36017	6107.35
2278.24061	6093.55
2281.11922	6103.05
2283.996	6081.45
2286.87094	6056.05
2289.74405	6051.55
2292.61534	6032.45
2295.4848	6027.25
2298.35243	6052.25
2301.21824	6026.45
2304.08223	6037.45
2306.94439	6030.45
2309.80474	6023.85
2312.66327	6022.75
2315.51999	6017.25
2318.37489	6005.55
2321.22797	6003.15
2324.07925	6000.05
2326.92871	5987.75
2329.77637	5967.55
2332.62222	5962.55
2335.46626	5974.05
2338.3085	5952.95
2341.14893	5955.25
2343.98756	5946.75
2346.8244	5958.85
2349.65943	5936.05
2352.49267	5940.35
2355.32411	5935.65
2358.15376	5920.05
2360.98161	5936.85
2363.80768	5946.15
2366.63195	5936.05
2369.45444	5924.25
2372.27514	5918.35
2375.09405	5913.95
2377.91118	5914.95
2380.72652	5872.05
2383.54009	5862.45
2386.35187	5856.15
2389.16188	5828.75
2391.97011	5832.85
2394.77657	5819.25
2397.58125	5786.95
2400.38416	5776.55
2403.18529	5775.45
2405.98466	5774.15
2408.78226	5746.55
2411.57809	5750.75
2414.37216	5733.65
2417.16446	5742.15
2419.955	5723.65
2422.74378	5732.95
2425.5308	5729.55
2428.31606	5721.75
2431.09956	5723.85
2433.88131	5691.45
2436.6613	5704.85
2439.43954	5689.25
2442.21603	5678.55
2444.99077	5694.55
2447.76377	5701.15
2450.53501	5686.45
2453.30451	5682.35
2456.07226	5669.55
2458.83827	5651.95
2461.60254	5672.45
2464.36507	5668.85
2467.12586	5653.55
2469.88492	5657.35
2472.64224	5642.75
2475.39782	5651.15
2478.15167	5642.95
2480.90379	5640.45
2483.65417	5642.05
2486.40283	5641.75
2489.14976	5649.55
2491.89497	5628.15
2494.63845	5643.55
2497.3802	5618.65
2500.12024	5644.15
2502.85855	5628.65
2505.59514	5623.05
2508.33002	5615.95
2511.06318	5640.05
2513.79462	5585.65
2516.52435	5595.95
2519.25237	5580.95
2521.97867	5566.45
2524.70327	5551.75
2527.42616	5575.55
2530.14734	5528.05
2532.86681	5540.15
2535.58458	5552.65
2538.30065	5530.75
2541.01501	5545.35
2543.72768	5516.35
2546.43864	5510.45
2549.14791	5490.05
2551.85548	5494.65
2554.56136	5492.85
2557.26554	5483.25
2559.96803	5474.65
2562.66883	5470.25
2565.36794	5476.05
2568.06536	5458.75
2570.7611	5450.45
2573.45514	5452.55
2576.14751	5447.05
2578.83819	5415.65
2581.52719	5418.65
2584.21451	5416.65
2586.90015	5410.15
2589.58411	5383.65
2592.2664	5391.95
2594.94701	5395.75
2597.62594	5373.15
2600.30321	5347.75
2602.9788	5366.45
2605.65273	5367.35
2608.32498	5341.55
2610.99557	5354.75
2613.66449	5349.65
2616.33175	5337.35
2618.99734	5335.65
2621.66128	5354.55
2624.32355	5334.45
2626.98416	5336.15
2629.64311	5326.25
2632.30041	5315.55
2634.95605	5313.15
2637.61004	5308.35
2640.26238	5288.65
2642.91306	5304.95
2645.56209	5285.85
2648.20948	5282.15
2650.85521	5258.85
2653.4993	5273.25
2656.14175	5289.65
2658.78255	5282.35
2661.42171	5297.45
2664.05923	5297.95
2666.6951	5292.75
2669.32934	5292.45
2671.96194	5288.45
2674.59291	5283.45
2677.22224	5288.15
2679.84993	5289.45
2682.476	5287.25
2685.10043	5279.15
2687.72324	5267.85
2690.34441	5264.55
2692.96396	5271.75
2695.58188	5282.65
2698.19818	5264.85
2700.81285	5265.25
2703.4259	5261.65
2706.03733	5237.75
2708.64714	5265.25
2711.25533	5254.55
2713.86191	5278.85
2716.46687	5281.55
2719.07021	5269.65
2721.67194	5288.35
2724.27206	5278.25
2726.87057	5291.85
2729.46747	5288.35
2732.06276	5280.55
2734.65644	5279.75
2737.24852	5278.25
2739.83899	5262.05
2742.42786	5259.65
2745.01513	5252.75
2747.60079	5265.95
2750.18486	5259.75
2752.76733	5233.15
2755.3482	5236.35
2757.92747	5239.25
2760.50515	5225.35
2763.08123	5230.05
2765.65573	5253.45
2768.22863	5243.95
2770.79994	5210.35
2773.36967	5211.85
2775.9378	5213.95
2778.50435	5222.65
2781.06932	5210.05
2783.6327	5199.75
2786.1945	5209.45
2788.75471	5205.95
2791.31335	5201.65
2793.87041	5181.75
2796.42589	5160.05
2798.97979	5171.75
2801.53212	5159.15
2804.08288	5165.75
2806.63206	5148.45
2809.17967	5139.25
2811.72571	5146.35
2814.27018	5136.45
2816.81308	5122.15
2819.35442	5124.95
2821.89419	5120.95
2824.43239	5121.15
2826.96904	5118.05
2829.50412	5124.45
2832.03763	5111.55
2834.56959	5104.55
2837.1	5105.45
2839.62884	5129.05
2842.15613	5148.05
2844.68186	5192.75
2847.20604	5194.45
2849.72867	5244.25
2852.24974	5213.75
2854.76927	5222.55
2857.28724	5194.35
2859.80367	5202.35
2862.31855	5182.95
2864.83189	5173.75
2867.34368	5185.35
2869.85393	5188.75
2872.36264	5187.55
2874.8698	5202.95
2877.37543	5191.45
2879.87952	5186.95
2882.38207	5185.95
2884.88308	5197.45
2887.38256	5194.05
2889.88051	5197.35
2892.37692	5208.95
2894.8718	5211.75
2897.36515	5230.55
2899.85698	5242.35
2902.34727	5254.25
2904.83604	5286.55
2907.32328	5289.35
2909.809	5276.85
2912.29319	5305.45
2914.77587	5294.65
2917.25702	5314.25
2919.73665	5304.15
2922.21476	5327.25
2924.69136	5334.55
2927.16644	5335.65
2929.64	5309.35
2932.11205	5315.45
2934.58258	5318.35
2937.05161	5310.85
2939.51912	5323.15
2941.98513	5305.95
2944.44962	5276.15
2946.91261	5264.45
2949.37409	5252.75
2951.83407	5256.45
2954.29254	5240.05
2956.74951	5218.65
2959.20498	5220.05
2961.65895	5186.45
2964.11142	5193.25
2966.56239	5146.35
2969.01186	5147.75
2971.45984	5121.15
2973.90632	5096.65
2976.35131	5097.95
2978.7948	5045.55
2981.23681	5050.05
2983.67732	5038.55
2986.11635	5018.05
2988.55388	5000.55
2990.98993	4992.55
2993.4245	4972.75
2995.85758	4962.85
2998.28917	4951.65
3000.71928	4957.75
3003.14791	4932.15
3005.57506	4938.55
3008.00073	4918.05
3010.42493	4906.15
3012.84764	4909.25
3015.26888	4909.75
3017.68865	4909.55
3020.10694	4879.75
3022.52376	4865.15
3024.9391	4847.75
3027.35298	4850.35
3029.76539	4853.65
3032.17632	4824.15
3034.5858	4825.25
3036.9938	4830.45
3039.40034	4815.75
3041.80542	4812.45
3044.20903	4803.85
3046.61118	4799.55
3049.01187	4805.65
3051.4111	4791.85
3053.80888	4790.45
3056.20519	4773.35
3058.60005	4757.25
3060.99345	4758.45
3063.3854	4754.45
3065.7759	4739.15
3068.16494	4730.85
3070.55254	4730.85
3072.93868	4713.75
3075.32338	4703.35
3077.70662	4724.65
3080.08842	4708.75
3082.46878	4704.75
3084.84769	4699.75
3087.22515	4697.55
3089.60118	4682.05
3091.97576	4709.75
3094.3489	4704.35
3096.72061	4721.15
3099.09087	4716.45
3101.4597	4704.15
3103.82709	4711.05
3106.19305	4704.85
3108.55757	4729.15
3110.92066	4699.15
3113.28232	4706.05
3115.64255	4685.05
3118.00134	4695.15
3120.35871	4694.05
3122.71466	4681.95
3125.06917	4673.65
3127.42226	4676.85
3129.77393	4690.05
3132.12417	4684.95
3134.47299	4677.05
3136.82039	4703.05
3139.16636	4696.65
3141.51092	4707.65
3143.85406	4691.35
3146.19579	4709.35
3148.53609	4716.15
3150.87499	4724.15
3153.21246	4736.25
3155.54853	4747.35
3157.88318	4750.15
3160.21642	4764.05
3162.54826	4759.75
3164.87868	4769.95
3167.2077	4769.35
3169.5353	4768.15
3171.86151	4788.55
3174.18631	4767.75
3176.5097	4772.45
3178.83169	4770.35
3181.15228	4783.25
3183.47147	4766.55
3185.78926	4765.35
3188.10565	4778.35
3190.42065	4760.95
3192.73424	4791.15
3195.04645	4785.45
3197.35725	4800.05
3199.66667	4782.15
3201.97469	4787.65
3204.28132	4801.35
3206.58656	4824.55
3208.8904	4801.65
3211.19287	4820.75
3213.49394	4819.65
3215.79363	4815.75
3218.09193	4820.55
3220.38884	4832.35
3222.68438	4822.25
3224.97853	4812.55
3227.2713	4832.95
3229.56269	4829.65
3231.8527	4839.85
3234.14133	4840.65
3236.42858	4823.75
3238.71446	4830.75
3240.99896	4794.25
3243.28209	4805.35
3245.56384	4808.05
3247.84423	4796.95
3250.12324	4805.85
3252.40088	4788.95
3254.67715	4794.75
3256.95205	4798.25
3259.22558	4795.05
3261.49775	4781.25
3263.76855	4783.85
3266.03799	4760.85
3268.30606	4769.75
3270.57277	4767.05
3272.83812	4757.65
3275.10211	4759.75
3277.36474	4736.05
3279.62601	4744.95
3281.88593	4740.05
3284.14448	4731.05
3286.40168	4738.85
3288.65753	4749.45
3290.91202	4754.75
3293.16516	4721.35
3295.41695	4727.65
3297.66738	4684.35
3299.91647	4670.45
3302.16421	4649.65
3304.4106	4623.65
3306.65564	4595.65
3308.89933	4577.95
3311.14169	4547.65
3313.38269	4516.15
3315.62236	4494.55
3317.86068	4448.85
3320.09766	4449.15
3322.3333	4403.05
3324.5676	4385.65
3326.80056	4321.05
3329.03219	4307.35
3331.26248	1.95
3333.49143	-0.85
3335.71905	-0.15
