Data from AgNPs_FTO_APTES_UA_1uM_CRN_200uM_R6G_10uM_NaF_0.1M_Addition_RamanShift__17__17-24-49-835.txt Node

Date: Thu Jan 27 17:24:49 GMT 2022
User: TCL
Spectrometer: QEP01345
Trigger mode: 4
Integration Time (sec): 7.000000E0
Scans to average: 10
Electric dark correction enabled: true
Nonlinearity correction enabled: false
Boxcar width: 0
XAxis mode: Raman Shifts
Number of Pixels in Spectrum: 1044
>>>>>Begin Spectral Data<<<<<
46.04893	-0.25
50.45542	1.35
54.85868	-1.15
59.25871	-0.45
63.6555	41.85
68.04907	43.95
72.43941	48.95
76.82654	52.05
81.21044	52.95
85.59113	53.35
89.96862	54.25
94.34289	57.15
98.71396	59.75
103.08183	60.55
107.4465	64.75
111.80798	65.75
116.16626	65.85
120.52136	69.15
124.87327	71.35
129.222	69.95
133.56755	68.35
137.90993	74.75
142.24913	83.25
146.58517	89.85
150.91804	99.75
155.24774	112.65
159.57429	137.15
163.89768	168.55
168.21792	219.25
172.53501	288.35
176.84895	399.25
181.15975	559.75
185.46741	776.55
189.77193	1062.55
194.07331	1444.85
198.37157	1859.65
202.6667	2295.85
206.9587	2742.25
211.24758	3163.85
215.53334	3604.65
219.81599	4076.85
224.09553	4574.75
228.37195	5095.15
232.64527	5712.45
236.91549	6357.65
241.18261	6977.85
245.44663	7560.45
249.70755	8123.65
253.96539	8584.85
258.22014	8966.05
262.4718	9274.65
266.72039	9488.45
270.96589	9596.55
275.20832	9616.25
279.44768	9519.65
283.68397	9383.45
287.91719	9262.35
292.14735	9199.05
296.37445	9155.35
300.59849	9188.85
304.81948	9247.75
309.03742	9238.95
313.25231	9152.85
317.46415	8948.45
321.67296	8693.85
325.87872	8523.85
330.08145	8423.05
334.28114	8429.35
338.47781	8487.05
342.67145	8584.25
346.86207	8706.55
351.04966	8880.15
355.23424	9016.85
359.4158	9185.15
363.59435	9309.65
367.76989	9391.55
371.94243	9450.95
376.11196	9527.35
380.27849	9561.95
384.44203	9638.25
388.60257	9733.25
392.76012	9755.15
396.91468	9860.15
401.06626	9999.05
405.21485	10060.95
409.36047	10059.85
413.50311	9940.95
417.64277	9820.65
421.77947	9770.15
425.9132	9789.35
430.04396	9831.35
434.17176	9861.45
438.2966	9925.85
442.41849	10055.35
446.53742	10243.85
450.6534	10462.05
454.76644	10657.85
458.87653	10711.95
462.98368	10680.35
467.08789	10568.45
471.18916	10468.95
475.2875	10344.35
479.38291	10276.45
483.4754	10231.75
487.56496	10128.35
491.6516	10043.15
495.73531	9992.35
499.81612	9980.55
503.89401	10036.35
507.96899	10055.45
512.04106	10050.35
516.11023	10057.35
520.1765	10016.25
524.23987	9954.55
528.30034	9867.85
532.35792	9789.95
536.41261	9711.55
540.46441	9615.65
544.51333	9602.55
548.55936	9669.35
552.60252	9821.45
556.64279	9995.25
560.6802	10074.75
564.71473	10120.55
568.7464	10232.05
572.7752	10381.35
576.80114	10508.05
580.82422	10648.45
584.84444	10828.35
588.86181	11018.05
592.87633	11201.85
596.888	11249.35
600.89682	11198.75
604.9028	11400.35
608.90594	12195.25
612.90624	13176.85
616.90371	12673.75
620.89834	10894.25
624.89015	10083.45
628.87913	9990.65
632.86528	10053.35
636.84862	10047.15
640.82913	9964.75
644.80683	9768.65
648.78172	9624.95
652.75379	9579.75
656.72306	9645.65
660.68952	9754.85
664.65319	9764.85
668.61405	9637.85
672.57211	9635.85
676.52738	9700.25
680.47986	9763.35
684.42955	9745.35
688.37646	9672.65
692.32058	9622.35
696.26192	9626.15
700.20048	9674.65
704.13626	9710.65
708.06928	9694.25
711.99952	9628.45
715.927	9614.65
719.85171	9648.25
723.77365	9625.85
727.69284	9563.85
731.60928	9532.05
735.52295	9480.35
739.43388	9495.15
743.34206	9502.35
747.24749	9519.35
751.15017	9582.05
755.05012	9683.45
758.94733	9901.75
762.8418	10240.25
766.73354	10889.45
770.62254	11596.05
774.50882	11957.85
778.39237	11593.75
782.27321	10779.95
786.15132	10128.45
790.02671	9730.45
793.89938	9541.75
797.76935	9491.75
801.6366	9456.95
805.50115	9427.35
809.36299	9369.25
813.22213	9328.55
817.07857	9276.15
820.93231	9252.75
824.78336	9230.55
828.63172	9187.85
832.47738	9223.35
836.32036	9257.15
840.16066	9267.85
843.99827	9283.35
847.8332	9283.15
851.66546	9238.35
855.49504	9218.95
859.32195	9235.25
863.1462	9244.15
866.96777	9237.75
870.78668	9202.75
874.60293	9200.85
878.41652	9178.65
882.22745	9203.25
886.03573	9243.45
889.84136	9250.65
893.64433	9243.75
897.44466	9193.65
901.24235	9156.35
905.0374	9127.45
908.8298	9096.95
912.61957	9053.05
916.40671	9137.45
920.19121	9241.55
923.97308	9288.95
927.75233	9373.35
931.52895	9385.05
935.30295	9313.85
939.07433	9167.75
942.84309	9002.15
946.60924	8941.15
950.37278	8893.45
954.13371	8851.65
957.89203	8804.15
961.64774	8788.35
965.40086	8750.95
969.15137	8736.45
972.89929	8681.65
976.64461	8680.65
980.38733	8666.85
984.12747	8670.15
987.86502	8725.05
991.59999	8793.95
995.33237	8904.05
999.06217	9100.35
1002.78939	9328.25
1006.51404	9426.15
1010.23611	9465.55
1013.95561	9514.35
1017.67255	9535.45
1021.38692	9512.65
1025.09872	9428.35
1028.80796	9480.75
1032.51465	9661.45
1036.21877	9875.95
1039.92035	9935.55
1043.61937	9842.55
1047.31584	9665.25
1051.00976	9502.95
1054.70114	9428.05
1058.38998	9399.45
1062.07627	9428.45
1065.76003	9464.55
1069.44126	9514.25
1073.11995	9594.25
1076.79611	9691.85
1080.46974	9753.55
1084.14085	9743.05
1087.80943	9746.45
1091.47549	9769.55
1095.13903	9773.25
1098.80005	9674.85
1102.45857	9534.75
1106.11456	9413.35
1109.76805	9381.45
1113.41903	9421.95
1117.06751	9490.55
1120.71348	9588.25
1124.35696	9718.15
1127.99793	9881.35
1131.63641	9970.45
1135.2724	9871.15
1138.90589	9716.15
1142.5369	9655.25
1146.16542	9603.25
1149.79145	9578.15
1153.415	9611.15
1157.03607	9677.15
1160.65467	9862.85
1164.27079	10150.75
1167.88443	10590.25
1171.49561	11117.35
1175.10432	11841.35
1178.71056	12711.45
1182.31434	13602.65
1185.91565	14020.25
1189.51451	13927.85
1193.11091	13474.75
1196.70485	12894.05
1200.29634	12349.35
1203.88538	11898.35
1207.47197	11568.15
1211.05612	11302.45
1214.63782	11069.05
1218.21708	10994.65
1221.79391	10936.45
1225.36829	10934.15
1228.94024	10891.85
1232.50976	10716.75
1236.07685	10562.55
1239.6415	10453.25
1243.20374	10429.25
1246.76355	10468.15
1250.32093	10574.55
1253.8759	10731.35
1257.42845	10951.85
1260.97859	11197.85
1264.52631	11398.55
1268.07163	11682.45
1271.61453	11970.25
1275.15503	12250.85
1278.69312	12590.25
1282.22882	12884.05
1285.76211	13144.35
1289.29301	13392.15
1292.82151	13811.35
1296.34761	14309.45
1299.87133	14998.75
1303.39266	15833.75
1306.9116	16843.95
1310.42815	17825.65
1313.94233	18421.15
1317.45412	18334.75
1320.96354	17777.95
1324.47058	17141.15
1327.97525	16594.45
1331.47754	16204.45
1334.97747	15951.55
1338.47502	15857.55
1341.97022	15759.95
1345.46305	15714.95
1348.95352	15760.55
1352.44163	16017.75
1355.92738	16574.55
1359.41078	17470.35
1362.89183	18280.05
1366.37053	18181.25
1369.84688	16794.25
1373.32088	14966.95
1376.79254	13619.05
1380.26186	12974.85
1383.72883	12741.85
1387.19347	12661.25
1390.65578	12436.65
1394.11575	12345.15
1397.57339	12432.55
1401.0287	12631.85
1404.48168	12834.95
1407.93234	12886.35
1411.38068	12763.15
1414.82669	12532.75
1418.27039	12198.35
1421.71177	11855.25
1425.15083	11507.85
1428.58758	11330.05
1432.02203	11323.85
1435.45416	11444.65
1438.88399	11737.95
1442.31151	11905.35
1445.73673	12017.35
1449.15965	12141.15
1452.58027	12234.85
1455.9986	12229.55
1459.41463	12252.25
1462.82837	12364.85
1466.23982	12582.55
1469.64898	12807.25
1473.05586	12927.35
1476.46045	13005.05
1479.86276	13042.75
1483.26279	12976.05
1486.66054	12942.75
1490.05602	12958.95
1493.44922	13074.55
1496.84016	13283.45
1500.22882	13602.05
1503.61521	14100.25
1506.99934	14775.05
1510.38121	15391.35
1513.76081	15567.55
1517.13816	15137.65
1520.51324	14388.65
1523.88607	13624.45
1527.25665	13182.05
1530.62498	12906.65
1533.99105	12787.65
1537.35488	12658.05
1540.71647	12510.35
1544.07581	12389.55
1547.4329	12204.25
1550.78776	12091.35
1554.14038	11959.45
1557.49077	11905.25
1560.83892	11867.45
1564.18484	11874.95
1567.52853	11941.15
1570.86999	12067.15
1574.20922	12242.85
1577.54624	12355.05
1580.88103	12339.75
1584.2136	12188.65
1587.54395	12300.65
1590.87208	12616.35
1594.19801	13281.05
1597.52172	14032.25
1600.84321	14446.55
1604.16251	14140.95
1607.47959	13286.65
1610.79447	12337.15
1614.10715	11422.75
1617.41763	10667.35
1620.7259	10135.05
1624.03199	9866.95
1627.33587	9797.05
1630.63757	9976.35
1633.93707	10434.05
1637.23439	11104.25
1640.52951	12134.15
1643.82246	13391.65
1647.11321	14555.15
1650.40179	14980.25
1653.68819	14287.65
1656.97241	12767.75
1660.25446	11174.75
1663.53433	10020.85
1666.81203	9327.05
1670.08756	8873.25
1673.36092	8631.85
1676.63211	8461.05
1679.90115	8336.65
1683.16801	8224.05
1686.43272	8141.85
1689.69527	8097.65
1692.95567	8006.85
1696.2139	7952.65
1699.46999	7892.35
1702.72392	7859.45
1705.97571	7859.55
1709.22535	7883.35
1712.47284	7898.35
1715.71819	7886.45
1718.96139	7887.65
1722.20246	7877.65
1725.44139	7857.05
1728.67818	7837.55
1731.91284	7782.55
1735.14537	7767.65
1738.37576	7744.65
1741.60403	7711.95
1744.83017	7698.25
1748.05418	7704.05
1751.27607	7684.85
1754.49584	7685.75
1757.71349	7681.85
1760.92903	7670.15
1764.14244	7617.35
1767.35375	7591.85
1770.56294	7562.15
1773.77002	7524.85
1776.97499	7535.05
1780.17785	7535.25
1783.37861	7526.25
1786.57727	7507.05
1789.77382	7498.45
1792.96828	7490.05
1796.16064	7482.05
1799.3509	7444.45
1802.53907	7427.45
1805.72514	7414.35
1808.90913	7398.25
1812.09102	7390.25
1815.27083	7373.45
1818.44856	7356.75
1821.6242	7346.15
1824.79776	7327.25
1827.96924	7321.15
1831.13864	7315.45
1834.30597	7328.45
1837.47122	7309.15
1840.6344	7332.75
1843.7955	7292.85
1846.95454	7293.45
1850.11151	7271.55
1853.26642	7289.65
1856.41926	7280.05
1859.57004	7283.85
1862.71876	7272.95
1865.86542	7290.45
1869.01003	7281.75
1872.15258	7281.15
1875.29308	7272.75
1878.43152	7265.25
1881.56792	7281.35
1884.70227	7250.35
1887.83457	7232.75
1890.96482	7231.05
1894.09304	7233.35
1897.21921	7230.85
1900.34335	7205.25
1903.46544	7218.65
1906.58551	7217.25
1909.70353	7183.05
1912.81953	7195.15
1915.93349	7171.65
1919.04543	7159.55
1922.15534	7161.15
1925.26322	7142.75
1928.36908	7120.35
1931.47292	7120.65
1934.57473	7081.05
1937.67453	7097.15
1940.77232	7064.65
1943.86808	7026.45
1946.96184	7035.25
1950.05358	7006.65
1953.14331	6987.35
1956.23103	6966.25
1959.31675	6949.85
1962.40046	6944.35
1965.48217	6927.05
1968.56188	6895.05
1971.63959	6876.75
1974.7153	6855.55
1977.78901	6850.25
1980.86073	6816.95
1983.93046	6813.65
1986.99819	6797.55
1990.06394	6767.95
1993.1277	6746.95
1996.18947	6729.35
1999.24925	6685.95
2002.30706	6679.55
2005.36288	6671.85
2008.41672	6658.15
2011.46859	6630.55
2014.51848	6612.75
2017.56639	6595.45
2020.61233	6579.65
2023.6563	6580.35
2026.6983	6572.15
2029.73833	6581.55
2032.7764	6541.35
2035.8125	6536.15
2038.84664	6503.65
2041.87881	6521.95
2044.90903	6508.55
2047.93729	6481.45
2050.96359	6470.75
2053.98794	6459.35
2057.01034	6467.25
2060.03078	6466.15
2063.04927	6467.15
2066.06582	6458.55
2069.08042	6452.85
2072.09307	6461.95
2075.10378	6464.15
2078.11255	6436.05
2081.11938	6433.15
2084.12426	6446.05
2087.12722	6421.95
2090.12824	6429.45
2093.12732	6439.25
2096.12447	6425.95
2099.11969	6435.95
2102.11299	6428.35
2105.10435	6452.45
2108.09379	6449.65
2111.08131	6451.85
2114.0669	6448.75
2117.05057	6471.75
2120.03233	6472.85
2123.01216	6463.55
2125.99008	6486.95
2128.96609	6474.95
2131.94018	6496.55
2134.91236	6460.15
2137.88263	6510.75
2140.851	6513.35
2143.81746	6517.15
2146.78201	6502.35
2149.74466	6502.85
2152.7054	6520.75
2155.66425	6504.45
2158.6212	6516.25
2161.57625	6490.45
2164.52941	6499.95
2167.48067	6514.55
2170.43004	6502.75
2173.37752	6514.05
2176.32311	6507.15
2179.26681	6508.35
2182.20863	6484.55
2185.14856	6503.85
2188.08661	6519.45
2191.02278	6511.65
2193.95707	6510.15
2196.88948	6519.15
2199.82001	6503.35
2202.74867	6486.55
2205.67545	6493.85
2208.60037	6495.45
2211.52341	6471.65
2214.44458	6463.75
2217.36388	6463.55
2220.28132	6466.65
2223.1969	6430.25
2226.11061	6454.25
2229.02246	6430.95
2231.93245	6412.05
2234.84058	6401.35
2237.74686	6403.25
2240.65128	6378.25
2243.55385	6367.55
2246.45456	6375.85
2249.35343	6346.55
2252.25044	6331.35
2255.14561	6332.75
2258.03893	6346.65
2260.93041	6334.05
2263.82004	6308.25
2266.70783	6300.55
2269.59378	6271.75
2272.4779	6261.85
2275.36017	6243.35
2278.24061	6258.85
2281.11922	6240.35
2283.996	6214.85
2286.87094	6223.75
2289.74405	6211.15
2292.61534	6201.95
2295.4848	6200.45
2298.35243	6212.75
2301.21824	6207.15
2304.08223	6189.65
2306.94439	6217.85
2309.80474	6208.35
2312.66327	6215.15
2315.51999	6208.55
2318.37489	6201.35
2321.22797	6193.75
2324.07925	6184.75
2326.92871	6171.45
2329.77637	6172.75
2332.62222	6185.95
2335.46626	6162.55
2338.3085	6163.35
2341.14893	6163.85
2343.98756	6169.75
2346.8244	6178.85
2349.65943	6170.65
2352.49267	6158.15
2355.32411	6161.85
2358.15376	6158.85
2360.98161	6158.65
2363.80768	6131.95
2366.63195	6143.45
2369.45444	6136.05
2372.27514	6126.75
2375.09405	6135.55
2377.91118	6092.95
2380.72652	6077.95
2383.54009	6071.85
2386.35187	6071.15
2389.16188	6053.15
2391.97011	6049.55
2394.77657	6023.35
2397.58125	6022.95
2400.38416	6014.85
2403.18529	6014.25
2405.98466	6004.65
2408.78226	5990.45
2411.57809	5985.85
2414.37216	5977.25
2417.16446	5977.05
2419.955	5947.95
2422.74378	5952.35
2425.5308	5972.15
2428.31606	5947.85
2431.09956	5947.85
2433.88131	5950.75
2436.6613	5935.45
2439.43954	5946.55
2442.21603	5929.65
2444.99077	5943.35
2447.76377	5938.25
2450.53501	5934.95
2453.30451	5932.85
2456.07226	5932.85
2458.83827	5911.95
2461.60254	5919.75
2464.36507	5912.75
2467.12586	5906.65
2469.88492	5916.25
2472.64224	5902.05
2475.39782	5912.55
2478.15167	5914.85
2480.90379	5899.45
2483.65417	5908.45
2486.40283	5930.85
2489.14976	5928.25
2491.89497	5907.25
2494.63845	5909.55
2497.3802	5914.65
2500.12024	5908.45
2502.85855	5907.55
2505.59514	5918.45
2508.33002	5894.65
2511.06318	5887.25
2513.79462	5877.15
2516.52435	5880.75
2519.25237	5866.95
2521.97867	5856.95
2524.70327	5862.05
2527.42616	5836.15
2530.14734	5852.95
2532.86681	5837.55
2535.58458	5843.85
2538.30065	5830.65
2541.01501	5818.15
2543.72768	5823.35
2546.43864	5827.85
2549.14791	5826.25
2551.85548	5812.55
2554.56136	5804.45
2557.26554	5805.05
2559.96803	5786.65
2562.66883	5771.85
2565.36794	5770.15
2568.06536	5787.95
2570.7611	5776.35
2573.45514	5757.65
2576.14751	5754.25
2578.83819	5746.65
2581.52719	5751.35
2584.21451	5748.55
2586.90015	5728.75
2589.58411	5714.65
2592.2664	5730.45
2594.94701	5713.05
2597.62594	5721.75
2600.30321	5704.75
2602.9788	5715.05
2605.65273	5693.15
2608.32498	5695.05
2610.99557	5686.75
2613.66449	5689.65
2616.33175	5671.85
2618.99734	5685.75
2621.66128	5694.55
2624.32355	5688.95
2626.98416	5697.15
2629.64311	5670.25
2632.30041	5684.45
2634.95605	5671.95
2637.61004	5662.35
2640.26238	5647.95
2642.91306	5657.85
2645.56209	5630.15
2648.20948	5644.85
2650.85521	5638.25
2653.4993	5634.35
2656.14175	5637.35
2658.78255	5649.95
2661.42171	5640.75
2664.05923	5661.95
2666.6951	5647.25
2669.32934	5645.35
2671.96194	5657.95
2674.59291	5635.75
2677.22224	5637.75
2679.84993	5634.15
2682.476	5630.85
2685.10043	5636.15
2687.72324	5619.55
2690.34441	5629.95
2692.96396	5620.75
2695.58188	5621.35
2698.19818	5629.15
2700.81285	5631.65
2703.4259	5640.05
2706.03733	5619.85
2708.64714	5622.65
2711.25533	5633.95
2713.86191	5659.45
2716.46687	5635.05
2719.07021	5653.05
2721.67194	5661.55
2724.27206	5647.65
2726.87057	5654.65
2729.46747	5655.45
2732.06276	5659.75
2734.65644	5642.65
2737.24852	5639.65
2739.83899	5636.15
2742.42786	5641.95
2745.01513	5622.55
2747.60079	5642.15
2750.18486	5642.45
2752.76733	5628.15
2755.3482	5615.95
2757.92747	5623.35
2760.50515	5616.75
2763.08123	5608.05
2765.65573	5620.65
2768.22863	5628.95
2770.79994	5631.15
2773.36967	5606.05
2775.9378	5607.25
2778.50435	5605.05
2781.06932	5604.95
2783.6327	5604.15
2786.1945	5580.35
2788.75471	5600.25
2791.31335	5588.35
2793.87041	5575.65
2796.42589	5559.85
2798.97979	5539.45
2801.53212	5549.95
2804.08288	5567.55
2806.63206	5537.95
2809.17967	5529.95
2811.72571	5516.25
2814.27018	5533.25
2816.81308	5516.35
2819.35442	5498.95
2821.89419	5505.75
2824.43239	5509.75
2826.96904	5511.85
2829.50412	5513.65
2832.03763	5500.15
2834.56959	5500.65
2837.1	5495.15
2839.62884	5520.25
2842.15613	5514.85
2844.68186	5539.25
2847.20604	5559.15
2849.72867	5568.75
2852.24974	5567.45
2854.76927	5573.25
2857.28724	5557.25
2859.80367	5551.75
2862.31855	5541.95
2864.83189	5534.85
2867.34368	5519.85
2869.85393	5526.25
2872.36264	5535.35
2874.8698	5542.75
2877.37543	5542.45
2879.87952	5541.25
2882.38207	5532.55
2884.88308	5548.55
2887.38256	5528.35
2889.88051	5528.95
2892.37692	5551.75
2894.8718	5544.95
2897.36515	5562.55
2899.85698	5577.75
2902.34727	5588.85
2904.83604	5587.55
2907.32328	5614.15
2909.809	5602.35
2912.29319	5609.05
2914.77587	5623.65
2917.25702	5622.05
2919.73665	5620.75
2922.21476	5622.45
2924.69136	5624.75
2927.16644	5635.85
2929.64	5621.25
2932.11205	5632.55
2934.58258	5609.55
2937.05161	5609.95
2939.51912	5613.95
2941.98513	5607.55
2944.44962	5598.85
2946.91261	5575.85
2949.37409	5582.75
2951.83407	5578.35
2954.29254	5543.25
2956.74951	5556.05
2959.20498	5556.25
2961.65895	5554.95
2964.11142	5531.95
2966.56239	5528.65
2969.01186	5498.25
2971.45984	5499.65
2973.90632	5490.25
2976.35131	5488.25
2978.7948	5469.15
2981.23681	5455.65
2983.67732	5439.05
2986.11635	5433.65
2988.55388	5414.45
2990.98993	5422.15
2993.4245	5412.65
2995.85758	5420.65
2998.28917	5387.15
3000.71928	5354.35
3003.14791	5365.85
3005.57506	5354.15
3008.00073	5363.45
3010.42493	5347.05
3012.84764	5351.95
3015.26888	5355.95
3017.68865	5341.05
3020.10694	5338.95
3022.52376	5329.25
3024.9391	5308.15
3027.35298	5297.05
3029.76539	5304.05
3032.17632	5300.05
3034.5858	5301.55
3036.9938	5304.35
3039.40034	5289.05
3041.80542	5284.05
3044.20903	5272.85
3046.61118	5288.05
3049.01187	5276.75
3051.4111	5277.75
3053.80888	5280.15
3056.20519	5272.25
3058.60005	5255.65
3060.99345	5244.15
3063.3854	5261.15
3065.7759	5216.35
3068.16494	5234.85
3070.55254	5224.25
3072.93868	5212.85
3075.32338	5213.55
3077.70662	5197.95
3080.08842	5179.45
3082.46878	5197.85
3084.84769	5201.75
3087.22515	5204.65
3089.60118	5195.85
3091.97576	5212.65
3094.3489	5202.05
3096.72061	5227.55
3099.09087	5229.15
3101.4597	5213.05
3103.82709	5234.25
3106.19305	5218.35
3108.55757	5223.45
3110.92066	5227.95
3113.28232	5215.85
3115.64255	5198.35
3118.00134	5183.45
3120.35871	5223.05
3122.71466	5189.95
3125.06917	5206.75
3127.42226	5195.75
3129.77393	5205.65
3132.12417	5196.45
3134.47299	5205.75
3136.82039	5191.65
3139.16636	5219.25
3141.51092	5214.95
3143.85406	5226.75
3146.19579	5222.85
3148.53609	5231.15
3150.87499	5257.65
3153.21246	5269.05
3155.54853	5282.15
3157.88318	5281.95
3160.21642	5291.05
3162.54826	5294.85
3164.87868	5297.45
3167.2077	5306.45
3169.5353	5317.55
3171.86151	5308.05
3174.18631	5311.35
3176.5097	5309.35
3178.83169	5319.95
3181.15228	5313.45
3183.47147	5317.65
3185.78926	5303.55
3188.10565	5310.85
3190.42065	5315.55
3192.73424	5304.05
3195.04645	5320.85
3197.35725	5338.95
3199.66667	5331.65
3201.97469	5330.65
3204.28132	5339.95
3206.58656	5355.05
3208.8904	5344.75
3211.19287	5357.95
3213.49394	5372.75
3215.79363	5379.45
3218.09193	5370.15
3220.38884	5388.65
3222.68438	5363.25
3224.97853	5375.55
3227.2713	5365.85
3229.56269	5367.55
3231.8527	5371.25
3234.14133	5383.75
3236.42858	5363.15
3238.71446	5372.85
3240.99896	5371.45
3243.28209	5344.35
3245.56384	5353.15
3247.84423	5354.55
3250.12324	5354.25
3252.40088	5372.05
3254.67715	5370.45
3256.95205	5365.15
3259.22558	5361.15
3261.49775	5361.25
3263.76855	5346.35
3266.03799	5318.85
3268.30606	5333.85
3270.57277	5324.95
3272.83812	5317.45
3275.10211	5316.95
3277.36474	5289.55
3279.62601	5309.35
3281.88593	5295.55
3284.14448	5302.55
3286.40168	5304.25
3288.65753	5309.15
3290.91202	5314.85
3293.16516	5300.55
3295.41695	5295.65
3297.66738	5252.35
3299.91647	5253.05
3302.16421	5212.35
3304.4106	5187.95
3306.65564	5156.95
3308.89933	5140.05
3311.14169	5116.05
3313.38269	5067.35
3315.62236	5032.25
3317.86068	5007.05
3320.09766	4971.25
3322.3333	4942.95
3324.5676	4923.45
3326.80056	4856.75
3329.03219	4836.45
3331.26248	2.25
3333.49143	-1.15
3335.71905	-0.55
