Data from AgNPs_UA_0uM_CRN_0uM_R6G_10uM_Q_RamanShift__9__11-28-58-756.txt Node

Date: Wed Jul 13 11:28:58 BST 2022
User: TCL
Spectrometer: QEP01345
Trigger mode: 4
Integration Time (sec): 7.000000E0
Scans to average: 10
Electric dark correction enabled: true
Nonlinearity correction enabled: false
Boxcar width: 0
XAxis mode: Raman Shifts
Number of Pixels in Spectrum: 1044
>>>>>Begin Spectral Data<<<<<
46.04893	-0.65
50.45542	1.15
54.85868	-1.05
59.25871	0.55
63.6555	49.35
68.04907	53.25
72.43941	53.45
76.82654	63.55
81.21044	63.95
85.59113	71.25
89.96862	73.15
94.34289	73.25
98.71396	71.95
103.08183	78.55
107.4465	79.45
111.80798	80.65
116.16626	81.45
120.52136	84.25
124.87327	82.95
129.222	88.35
133.56755	87.95
137.90993	99.45
142.24913	104.85
146.58517	113.45
150.91804	127.65
155.24774	144.75
159.57429	175.05
163.89768	219.85
168.21792	288.65
172.53501	383.25
176.84895	525.85
181.15975	735.05
185.46741	1033.95
189.77193	1427.45
194.07331	1917.05
198.37157	2470.35
202.6667	3057.25
206.9587	3657.55
211.24758	4247.25
215.53334	4861.15
219.81599	5556.15
224.09553	6298.25
228.37195	7086.25
232.64527	7911.05
236.91549	8678.85
241.18261	9352.55
245.44663	9909.15
249.70755	10348.05
253.96539	10760.85
258.22014	11139.05
262.4718	11435.75
266.72039	11626.95
270.96589	11668.95
275.20832	11514.75
279.44768	11286.15
283.68397	11047.35
287.91719	10850.75
292.14735	10859.55
296.37445	11108.15
300.59849	11580.95
304.81948	12218.15
309.03742	12805.75
313.25231	13083.35
317.46415	12724.75
321.67296	11901.65
325.87872	11061.25
330.08145	10563.75
334.28114	10516.75
338.47781	10674.85
342.67145	11005.95
346.86207	11535.85
351.04966	12289.35
355.23424	13018.05
359.4158	13386.95
363.59435	13348.95
367.76989	13130.35
371.94243	12888.25
376.11196	12684.65
380.27849	12497.95
384.44203	12389.85
388.60257	12277.25
392.76012	12326.85
396.91468	12547.25
401.06626	12877.65
405.21485	12968.75
409.36047	12571.95
413.50311	11859.45
417.64277	11240.55
421.77947	10929.45
425.9132	10803.75
430.04396	10729.85
434.17176	10739.25
438.2966	10846.05
442.41849	11092.85
446.53742	11360.85
450.6534	11566.85
454.76644	11662.75
458.87653	11623.95
462.98368	11554.25
467.08789	11390.75
471.18916	11150.95
475.2875	10802.45
479.38291	10517.35
483.4754	10337.95
487.56496	10251.05
491.6516	10202.95
495.73531	10192.25
499.81612	10257.35
503.89401	10426.05
507.96899	10598.55
512.04106	10781.25
516.11023	10970.45
520.1765	11109.05
524.23987	11137.65
528.30034	11105.35
532.35792	11014.65
536.41261	10813.95
540.46441	10581.55
544.51333	10463.65
548.55936	10493.35
552.60252	10697.95
556.64279	10994.25
560.6802	11218.25
564.71473	11550.95
568.7464	12035.85
572.7752	12151.65
576.80114	11645.25
580.82422	11228.75
584.84444	11219.65
588.86181	11420.45
592.87633	11718.25
596.888	11968.25
600.89682	12354.55
604.9028	13985.65
608.90594	18567.05
612.90624	23746.65
616.90371	21684.55
620.89834	14632.65
624.89015	11554.45
628.87913	11056.05
632.86528	11385.35
636.84862	11598.85
640.82913	11148.25
644.80683	10478.25
648.78172	10121.75
652.75379	10214.25
656.72306	10741.95
660.68952	11281.75
664.65319	11024.55
668.61405	10356.15
672.57211	10093.45
676.52738	10111.35
680.47986	10064.85
684.42955	9935.95
688.37646	9846.15
692.32058	9867.75
696.26192	10024.25
700.20048	10171.95
704.13626	10269.55
708.06928	10205.25
711.99952	10129.15
715.927	10110.25
719.85171	10210.85
723.77365	10265.85
727.69284	10159.15
731.60928	10050.05
735.52295	10066.65
739.43388	10116.35
743.34206	10170.45
747.24749	10181.05
751.15017	10211.85
755.05012	10406.65
758.94733	11114.05
762.8418	12915.35
766.73354	15591.65
770.62254	17687.35
774.50882	17937.25
778.39237	16660.55
782.27321	14571.35
786.15132	12497.15
790.02671	11103.35
793.89938	10453.55
797.76935	10136.35
801.6366	10002.35
805.50115	9925.25
809.36299	9828.05
813.22213	9749.95
817.07857	9733.95
820.93231	9722.85
824.78336	9769.75
828.63172	9829.55
832.47738	9834.55
836.32036	9773.75
840.16066	9667.15
843.99827	9646.95
847.8332	9633.55
851.66546	9657.25
855.49504	9650.45
859.32195	9647.75
863.1462	9605.45
866.96777	9606.65
870.78668	9606.15
874.60293	9654.35
878.41652	9706.05
882.22745	9831.15
886.03573	9891.35
889.84136	9910.35
893.64433	9886.65
897.44466	9866.65
901.24235	9924.95
905.0374	9864.65
908.8298	9838.65
912.61957	9757.25
916.40671	9787.35
920.19121	9860.55
923.97308	10007.55
927.75233	10249.25
931.52895	10397.35
935.30295	10223.25
939.07433	9799.15
942.84309	9461.35
946.60924	9286.65
950.37278	9203.45
954.13371	9136.25
957.89203	9093.95
961.64774	9039.65
965.40086	9034.65
969.15137	9011.75
972.89929	8935.05
976.64461	8937.05
980.38733	8906.85
984.12747	8894.35
987.86502	8900.65
991.59999	8932.85
995.33237	9019.95
999.06217	9161.45
1002.78939	9347.05
1006.51404	9616.05
1010.23611	9849.75
1013.95561	9895.65
1017.67255	9812.45
1021.38692	9688.15
1025.09872	9464.85
1028.80796	9295.95
1032.51465	9247.25
1036.21877	9259.95
1039.92035	9304.05
1043.61937	9352.05
1047.31584	9416.45
1051.00976	9464.15
1054.70114	9478.95
1058.38998	9488.55
1062.07627	9499.85
1065.76003	9530.65
1069.44126	9628.75
1073.11995	9807.65
1076.79611	10060.85
1080.46974	10362.95
1084.14085	10800.05
1087.80943	11234.75
1091.47549	11309.65
1095.13903	10946.35
1098.80005	10498.95
1102.45857	10252.85
1106.11456	10153.45
1109.76805	10138.95
1113.41903	10331.95
1117.06751	10681.85
1120.71348	11212.65
1124.35696	11909.25
1127.99793	12544.75
1131.63641	12313.75
1135.2724	11537.05
1138.90589	10844.05
1142.5369	10417.75
1146.16542	10179.95
1149.79145	10041.95
1153.415	9979.55
1157.03607	10050.65
1160.65467	10302.95
1164.27079	10699.45
1167.88443	11394.75
1171.49561	12469.15
1175.10432	14142.05
1178.71056	16427.35
1182.31434	18172.25
1185.91565	18452.35
1189.51451	17643.75
1193.11091	16410.15
1196.70485	15193.75
1200.29634	14277.15
1203.88538	13426.05
1207.47197	12479.25
1211.05612	11662.95
1214.63782	11108.65
1218.21708	10802.15
1221.79391	10665.95
1225.36829	10664.45
1228.94024	10672.05
1232.50976	10633.85
1236.07685	10617.25
1239.6415	10624.15
1243.20374	10651.95
1246.76355	10721.75
1250.32093	10836.75
1253.8759	11052.95
1257.42845	11476.45
1260.97859	12046.95
1264.52631	12664.65
1268.07163	13167.75
1271.61453	13470.95
1275.15503	13573.05
1278.69312	13536.45
1282.22882	13584.95
1285.76211	14028.95
1289.29301	14711.45
1292.82151	15388.25
1296.34761	16064.35
1299.87133	17027.05
1303.39266	18671.85
1306.9116	21333.15
1310.42815	24323.85
1313.94233	25819.45
1317.45412	24549.55
1320.96354	21847.45
1324.47058	19244.95
1327.97525	17237.55
1331.47754	15919.25
1334.97747	15312.85
1338.47502	15264.85
1341.97022	15824.25
1345.46305	17184.05
1348.95352	19155.45
1352.44163	21241.95
1355.92738	23679.15
1359.41078	27485.65
1362.89183	31559.25
1366.37053	31025.05
1369.84688	25325.05
1373.32088	19404.75
1376.79254	16032.85
1380.26186	14518.55
1383.72883	13628.85
1387.19347	12819.95
1390.65578	12122.95
1394.11575	11678.35
1397.57339	11474.95
1401.0287	11376.85
1404.48168	11334.35
1407.93234	11263.15
1411.38068	11243.55
1414.82669	11284.45
1418.27039	11370.45
1421.71177	11324.55
1425.15083	11156.45
1428.58758	11067.05
1432.02203	11240.05
1435.45416	11549.05
1438.88399	11628.25
1442.31151	11573.15
1445.73673	11489.75
1449.15965	11479.05
1452.58027	11362.55
1455.9986	11248.15
1459.41463	11210.55
1462.82837	11312.35
1466.23982	11548.85
1469.64898	11813.95
1473.05586	12028.25
1476.46045	12158.45
1479.86276	12344.15
1483.26279	12652.15
1486.66054	13141.95
1490.05602	13876.75
1493.44922	14957.75
1496.84016	16523.25
1500.22882	18998.85
1503.61521	22301.65
1506.99934	26178.75
1510.38121	29643.85
1513.76081	30701.65
1517.13816	28243.45
1520.51324	23691.95
1523.88607	19473.65
1527.25665	16620.15
1530.62498	14941.25
1533.99105	13939.65
1537.35488	13209.65
1540.71647	12625.15
1544.07581	12253.15
1547.4329	12036.45
1550.78776	11959.35
1554.14038	12024.25
1557.49077	12279.75
1560.83892	12734.35
1564.18484	13416.45
1567.52853	14291.65
1570.86999	14996.85
1574.20922	15364.65
1577.54624	15190.05
1580.88103	14166.35
1584.2136	12743.85
1587.54395	11894.95
1590.87208	11801.55
1594.19801	12349.25
1597.52172	13181.95
1600.84321	13346.55
1604.16251	12752.25
1607.47959	11941.85
1610.79447	11198.95
1614.10715	10484.55
1617.41763	9805.05
1620.7259	9361.95
1624.03199	9151.75
1627.33587	9227.25
1630.63757	9534.55
1633.93707	10180.15
1637.23439	11374.45
1640.52951	13287.45
1643.82246	15956.65
1647.11321	19050.85
1650.40179	21139.75
1653.68819	20506.55
1656.97241	17207.45
1660.25446	13592.75
1663.53433	10938.15
1666.81203	9423.15
1670.08756	8560.45
1673.36092	8066.85
1676.63211	7766.15
1679.90115	7573.15
1683.16801	7430.65
1686.43272	7295.15
1689.69527	7207.15
1692.95567	7146.85
1696.2139	7089.25
1699.46999	7066.05
1702.72392	7024.25
1705.97571	7001.15
1709.22535	7019.35
1712.47284	7005.05
1715.71819	7015.75
1718.96139	7009.45
1722.20246	7010.75
1725.44139	6930.75
1728.67818	6878.75
1731.91284	6833.25
1735.14537	6784.35
1738.37576	6727.75
1741.60403	6697.75
1744.83017	6676.75
1748.05418	6647.15
1751.27607	6616.95
1754.49584	6578.95
1757.71349	6568.75
1760.92903	6538.75
1764.14244	6505.85
1767.35375	6519.15
1770.56294	6459.65
1773.77002	6460.35
1776.97499	6451.85
1780.17785	6442.05
1783.37861	6414.35
1786.57727	6352.15
1789.77382	6342.35
1792.96828	6325.35
1796.16064	6306.95
1799.3509	6310.15
1802.53907	6276.45
1805.72514	6265.45
1808.90913	6231.25
1812.09102	6198.45
1815.27083	6176.85
1818.44856	6143.15
1821.6242	6134.05
1824.79776	6100.25
1827.96924	6093.15
1831.13864	6082.35
1834.30597	6080.85
1837.47122	6036.25
1840.6344	6044.85
1843.7955	6018.35
1846.95454	6011.25
1850.11151	5980.65
1853.26642	6002.15
1856.41926	5959.85
1859.57004	5951.15
1862.71876	5940.25
1865.86542	5950.95
1869.01003	5923.15
1872.15258	5908.25
1875.29308	5895.65
1878.43152	5876.15
1881.56792	5874.15
1884.70227	5850.15
1887.83457	5820.65
1890.96482	5809.55
1894.09304	5789.45
1897.21921	5789.15
1900.34335	5794.35
1903.46544	5767.35
1906.58551	5769.75
1909.70353	5746.55
1912.81953	5737.25
1915.93349	5718.25
1919.04543	5720.45
1922.15534	5671.75
1925.26322	5666.65
1928.36908	5642.15
1931.47292	5611.75
1934.57473	5601.25
1937.67453	5558.25
1940.77232	5522.75
1943.86808	5493.35
1946.96184	5492.65
1950.05358	5496.05
1953.14331	5444.65
1956.23103	5435.35
1959.31675	5432.75
1962.40046	5409.75
1965.48217	5380.65
1968.56188	5375.75
1971.63959	5372.95
1974.7153	5349.55
1977.78901	5342.65
1980.86073	5316.45
1983.93046	5278.95
1986.99819	5235.55
1990.06394	5193.55
1993.1277	5199.45
1996.18947	5179.65
1999.24925	5167.75
2002.30706	5119.85
2005.36288	5108.55
2008.41672	5072.65
2011.46859	5067.15
2014.51848	5033.15
2017.56639	5018.85
2020.61233	5020.45
2023.6563	4977.45
2026.6983	4964.75
2029.73833	4963.35
2032.7764	4934.75
2035.8125	4931.65
2038.84664	4905.85
2041.87881	4898.95
2044.90903	4903.75
2047.93729	4885.95
2050.96359	4877.65
2053.98794	4851.15
2057.01034	4859.05
2060.03078	4853.45
2063.04927	4813.95
2066.06582	4812.35
2069.08042	4804.35
2072.09307	4809.65
2075.10378	4780.65
2078.11255	4797.95
2081.11938	4793.25
2084.12426	4776.15
2087.12722	4776.35
2090.12824	4774.65
2093.12732	4781.25
2096.12447	4779.05
2099.11969	4775.05
2102.11299	4784.25
2105.10435	4774.05
2108.09379	4790.75
2111.08131	4780.75
2114.0669	4784.65
2117.05057	4785.75
2120.03233	4797.65
2123.01216	4789.75
2125.99008	4804.25
2128.96609	4797.55
2131.94018	4795.05
2134.91236	4792.05
2137.88263	4776.45
2140.851	4787.45
2143.81746	4767.35
2146.78201	4749.75
2149.74466	4752.05
2152.7054	4737.75
2155.66425	4728.45
2158.6212	4722.65
2161.57625	4707.45
2164.52941	4702.45
2167.48067	4684.05
2170.43004	4663.05
2173.37752	4677.35
2176.32311	4678.25
2179.26681	4690.35
2182.20863	4680.85
2185.14856	4682.95
2188.08661	4676.55
2191.02278	4650.35
2193.95707	4654.65
2196.88948	4639.25
2199.82001	4630.65
2202.74867	4607.55
2205.67545	4615.95
2208.60037	4589.45
2211.52341	4589.65
2214.44458	4557.95
2217.36388	4551.85
2220.28132	4547.75
2223.1969	4539.35
2226.11061	4512.25
2229.02246	4515.75
2231.93245	4494.15
2234.84058	4478.65
2237.74686	4483.65
2240.65128	4469.25
2243.55385	4469.85
2246.45456	4462.65
2249.35343	4452.25
2252.25044	4452.15
2255.14561	4447.45
2258.03893	4467.45
2260.93041	4467.45
2263.82004	4446.75
2266.70783	4435.55
2269.59378	4403.95
2272.4779	4421.45
2275.36017	4389.25
2278.24061	4385.95
2281.11922	4371.95
2283.996	4367.65
2286.87094	4333.05
2289.74405	4318.05
2292.61534	4309.25
2295.4848	4297.35
2298.35243	4289.05
2301.21824	4277.05
2304.08223	4268.85
2306.94439	4268.75
2309.80474	4260.05
2312.66327	4260.95
2315.51999	4247.45
2318.37489	4246.95
2321.22797	4222.95
2324.07925	4231.15
2326.92871	4228.35
2329.77637	4212.65
2332.62222	4184.05
2335.46626	4195.55
2338.3085	4174.05
2341.14893	4171.15
2343.98756	4168.95
2346.8244	4160.25
2349.65943	4172.45
2352.49267	4178.85
2355.32411	4191.05
2358.15376	4199.95
2360.98161	4205.85
2363.80768	4206.15
2366.63195	4208.25
2369.45444	4195.85
2372.27514	4222.05
2375.09405	4197.15
2377.91118	4177.75
2380.72652	4165.55
2383.54009	4153.05
2386.35187	4119.05
2389.16188	4104.15
2391.97011	4092.95
2394.77657	4069.65
2397.58125	4055.85
2400.38416	4048.25
2403.18529	4026.85
2405.98466	4023.45
2408.78226	4016.65
2411.57809	3987.85
2414.37216	3991.75
2417.16446	3984.05
2419.955	3976.25
2422.74378	3977.65
2425.5308	3983.15
2428.31606	3991.05
2431.09956	3971.95
2433.88131	3961.15
2436.6613	3974.95
2439.43954	3979.15
2442.21603	3968.75
2444.99077	3970.05
2447.76377	3976.35
2450.53501	3971.25
2453.30451	3974.85
2456.07226	3975.55
2458.83827	3969.55
2461.60254	3946.95
2464.36507	3944.15
2467.12586	3950.15
2469.88492	3937.55
2472.64224	3951.35
2475.39782	3954.35
2478.15167	3956.45
2480.90379	3942.45
2483.65417	3944.15
2486.40283	3943.55
2489.14976	3947.45
2491.89497	3966.35
2494.63845	3952.75
2497.3802	3952.05
2500.12024	3942.65
2502.85855	3939.65
2505.59514	3922.95
2508.33002	3917.75
2511.06318	3869.05
2513.79462	3857.25
2516.52435	3827.55
2519.25237	3827.35
2521.97867	3814.85
2524.70327	3814.35
2527.42616	3778.25
2530.14734	3774.75
2532.86681	3767.45
2535.58458	3753.85
2538.30065	3757.75
2541.01501	3751.05
2543.72768	3742.65
2546.43864	3757.95
2549.14791	3747.15
2551.85548	3750.85
2554.56136	3740.15
2557.26554	3750.95
2559.96803	3723.15
2562.66883	3728.75
2565.36794	3723.95
2568.06536	3706.65
2570.7611	3697.15
2573.45514	3697.15
2576.14751	3684.45
2578.83819	3671.45
2581.52719	3658.75
2584.21451	3654.65
2586.90015	3649.75
2589.58411	3630.25
2592.2664	3632.55
2594.94701	3632.35
2597.62594	3621.15
2600.30321	3609.25
2602.9788	3605.05
2605.65273	3589.55
2608.32498	3593.75
2610.99557	3585.65
2613.66449	3579.15
2616.33175	3584.15
2618.99734	3577.65
2621.66128	3577.95
2624.32355	3556.35
2626.98416	3556.25
2629.64311	3559.15
2632.30041	3543.25
2634.95605	3522.85
2637.61004	3528.35
2640.26238	3506.55
2642.91306	3499.25
2645.56209	3491.15
2648.20948	3480.05
2650.85521	3483.15
2653.4993	3467.75
2656.14175	3479.55
2658.78255	3490.55
2661.42171	3487.05
2664.05923	3489.45
2666.6951	3504.75
2669.32934	3494.05
2671.96194	3486.55
2674.59291	3495.95
2677.22224	3501.45
2679.84993	3493.05
2682.476	3490.85
2685.10043	3484.35
2687.72324	3478.45
2690.34441	3466.45
2692.96396	3473.75
2695.58188	3466.45
2698.19818	3458.45
2700.81285	3465.05
2703.4259	3455.95
2706.03733	3438.05
2708.64714	3453.75
2711.25533	3459.95
2713.86191	3463.85
2716.46687	3472.15
2719.07021	3474.15
2721.67194	3475.15
2724.27206	3454.35
2726.87057	3449.15
2729.46747	3454.65
2732.06276	3437.45
2734.65644	3457.05
2737.24852	3451.45
2739.83899	3433.35
2742.42786	3421.85
2745.01513	3410.25
2747.60079	3412.35
2750.18486	3395.75
2752.76733	3379.25
2755.3482	3366.45
2757.92747	3370.75
2760.50515	3356.15
2763.08123	3357.45
2765.65573	3353.15
2768.22863	3329.15
2770.79994	3336.75
2773.36967	3326.95
2775.9378	3323.05
2778.50435	3325.05
2781.06932	3316.05
2783.6327	3320.85
2786.1945	3321.55
2788.75471	3308.05
2791.31335	3296.65
2793.87041	3298.65
2796.42589	3294.45
2798.97979	3290.05
2801.53212	3296.15
2804.08288	3267.85
2806.63206	3266.85
2809.17967	3286.15
2811.72571	3270.15
2814.27018	3286.45
2816.81308	3258.95
2819.35442	3265.65
2821.89419	3266.65
2824.43239	3253.25
2826.96904	3246.45
2829.50412	3269.55
2832.03763	3252.45
2834.56959	3257.75
2837.1	3238.25
2839.62884	3249.45
2842.15613	3241.55
2844.68186	3252.55
2847.20604	3247.05
2849.72867	3246.35
2852.24974	3248.35
2854.76927	3243.15
2857.28724	3245.45
2859.80367	3243.75
2862.31855	3254.25
2864.83189	3243.25
2867.34368	3243.45
2869.85393	3256.25
2872.36264	3257.75
2874.8698	3255.65
2877.37543	3246.75
2879.87952	3246.85
2882.38207	3225.55
2884.88308	3219.15
2887.38256	3212.25
2889.88051	3202.65
2892.37692	3197.75
2894.8718	3197.05
2897.36515	3204.55
2899.85698	3207.15
2902.34727	3199.45
2904.83604	3226.25
2907.32328	3220.45
2909.809	3237.75
2912.29319	3250.25
2914.77587	3235.45
2917.25702	3247.45
2919.73665	3242.75
2922.21476	3238.25
2924.69136	3222.95
2927.16644	3220.35
2929.64	3193.65
2932.11205	3182.85
2934.58258	3173.35
2937.05161	3177.15
2939.51912	3167.75
2941.98513	3164.95
2944.44962	3148.15
2946.91261	3133.45
2949.37409	3132.75
2951.83407	3139.15
2954.29254	3145.55
2956.74951	3137.55
2959.20498	3125.15
2961.65895	3119.15
2964.11142	3104.75
2966.56239	3107.25
2969.01186	3111.65
2971.45984	3098.35
2973.90632	3099.85
2976.35131	3090.25
2978.7948	3078.65
2981.23681	3070.45
2983.67732	3070.85
2986.11635	3059.65
2988.55388	3057.05
2990.98993	3039.45
2993.4245	3046.05
2995.85758	3020.95
2998.28917	3023.45
3000.71928	3020.15
3003.14791	3012.75
3005.57506	3013.15
3008.00073	2995.15
3010.42493	3008.75
3012.84764	2992.95
3015.26888	2992.95
3017.68865	2980.05
3020.10694	2967.35
3022.52376	2972.75
3024.9391	2957.25
3027.35298	2954.35
3029.76539	2961.75
3032.17632	2949.55
3034.5858	2932.55
3036.9938	2921.95
3039.40034	2912.65
3041.80542	2912.75
3044.20903	2898.45
3046.61118	2889.15
3049.01187	2883.85
3051.4111	2883.75
3053.80888	2883.35
3056.20519	2886.75
3058.60005	2868.25
3060.99345	2867.75
3063.3854	2860.55
3065.7759	2860.85
3068.16494	2846.95
3070.55254	2839.55
3072.93868	2830.45
3075.32338	2827.95
3077.70662	2826.75
3080.08842	2824.55
3082.46878	2816.55
3084.84769	2819.95
3087.22515	2805.95
3089.60118	2817.05
3091.97576	2815.75
3094.3489	2820.45
3096.72061	2818.45
3099.09087	2806.45
3101.4597	2798.05
3103.82709	2808.25
3106.19305	2802.65
3108.55757	2804.55
3110.92066	2802.15
3113.28232	2804.95
3115.64255	2792.45
3118.00134	2796.05
3120.35871	2808.45
3122.71466	2794.35
3125.06917	2798.15
3127.42226	2789.85
3129.77393	2795.95
3132.12417	2795.15
3134.47299	2769.55
3136.82039	2769.25
3139.16636	2790.25
3141.51092	2791.15
3143.85406	2793.75
3146.19579	2812.15
3148.53609	2802.15
3150.87499	2819.75
3153.21246	2817.95
3155.54853	2833.55
3157.88318	2824.05
3160.21642	2831.35
3162.54826	2826.35
3164.87868	2835.15
3167.2077	2835.35
3169.5353	2840.75
3171.86151	2837.55
3174.18631	2843.25
3176.5097	2835.95
3178.83169	2831.05
3181.15228	2840.95
3183.47147	2831.35
3185.78926	2837.05
3188.10565	2808.65
3190.42065	2814.85
3192.73424	2812.15
3195.04645	2811.05
3197.35725	2819.45
3199.66667	2822.25
3201.97469	2821.15
3204.28132	2825.65
3206.58656	2838.85
3208.8904	2829.25
3211.19287	2835.45
3213.49394	2837.75
3215.79363	2846.75
3218.09193	2845.35
3220.38884	2836.75
3222.68438	2850.15
3224.97853	2841.55
3227.2713	2853.45
3229.56269	2844.55
3231.8527	2848.85
3234.14133	2830.95
3236.42858	2829.05
3238.71446	2831.25
3240.99896	2813.25
3243.28209	2826.35
3245.56384	2801.95
3247.84423	2809.65
3250.12324	2802.65
3252.40088	2807.25
3254.67715	2790.05
3256.95205	2798.65
3259.22558	2804.95
3261.49775	2800.95
3263.76855	2786.45
3266.03799	2787.45
3268.30606	2784.75
3270.57277	2786.45
3272.83812	2770.65
3275.10211	2777.65
3277.36474	2759.65
3279.62601	2760.65
3281.88593	2756.55
3284.14448	2750.95
3286.40168	2747.45
3288.65753	2762.15
3290.91202	2769.25
3293.16516	2758.45
3295.41695	2764.05
3297.66738	2738.15
3299.91647	2733.65
3302.16421	2726.15
3304.4106	2697.75
3306.65564	2685.15
3308.89933	2676.55
3311.14169	2646.55
3313.38269	2620.25
3315.62236	2618.95
3317.86068	2598.85
3320.09766	2573.65
3322.3333	2541.75
3324.5676	2535.35
3326.80056	2497.85
3329.03219	2495.95
3331.26248	-0.35
3333.49143	0.45
3335.71905	1.25
