Data from AgNPs_UA_1uM_CRN_0uM_R6G_10uM_Q_RamanShift__30__12-45-45-900.txt Node

Date: Wed Jul 13 12:45:45 BST 2022
User: TCL
Spectrometer: QEP01345
Trigger mode: 4
Integration Time (sec): 7.000000E0
Scans to average: 10
Electric dark correction enabled: true
Nonlinearity correction enabled: false
Boxcar width: 0
XAxis mode: Raman Shifts
Number of Pixels in Spectrum: 1044
>>>>>Begin Spectral Data<<<<<
46.04893	-1.65
50.45542	-0.15
54.85868	-0.15
59.25871	0.45
63.6555	66.95
68.04907	70.35
72.43941	76.25
76.82654	78.05
81.21044	85.65
85.59113	83.05
89.96862	87.35
94.34289	93.15
98.71396	92.25
103.08183	94.85
107.4465	102.05
111.80798	99.05
116.16626	100.95
120.52136	103.05
124.87327	107.25
129.222	112.15
133.56755	118.55
137.90993	124.95
142.24913	132.65
146.58517	147.95
150.91804	167.75
155.24774	195.45
159.57429	234.95
163.89768	294.45
168.21792	385.35
172.53501	516.55
176.84895	704.45
181.15975	972.75
185.46741	1361.45
189.77193	1858.35
194.07331	2461.55
198.37157	3162.25
202.6667	3883.55
206.9587	4612.05
211.24758	5317.85
215.53334	6068.15
219.81599	6885.35
224.09553	7791.35
228.37195	8807.75
232.64527	9868.75
236.91549	10991.25
241.18261	12029.15
245.44663	12959.75
249.70755	13763.55
253.96539	14467.25
258.22014	15068.55
262.4718	15569.15
266.72039	15879.55
270.96589	16033.85
275.20832	16050.75
279.44768	15949.25
283.68397	15810.45
287.91719	15728.15
292.14735	15749.25
296.37445	15886.95
300.59849	16107.55
304.81948	16407.85
309.03742	16616.45
313.25231	16515.25
317.46415	15990.85
321.67296	15324.35
325.87872	14805.35
330.08145	14642.45
334.28114	14726.35
338.47781	14932.25
342.67145	15245.65
346.86207	15711.95
351.04966	16315.25
355.23424	16941.35
359.4158	17423.65
363.59435	17682.95
367.76989	17791.35
371.94243	17820.55
376.11196	17848.55
380.27849	17876.35
384.44203	17866.65
388.60257	17842.65
392.76012	17894.85
396.91468	18198.85
401.06626	18605.85
405.21485	18875.35
409.36047	18779.35
413.50311	18405.95
417.64277	18299.95
421.77947	18262.45
425.9132	18065.85
430.04396	18149.05
434.17176	18384.55
438.2966	18792.55
442.41849	19464.65
446.53742	20260.65
450.6534	21042.35
454.76644	21510.35
458.87653	21492.95
462.98368	21075.45
467.08789	20501.55
471.18916	19941.45
475.2875	19431.65
479.38291	19113.95
483.4754	18842.75
487.56496	18562.85
491.6516	18272.05
495.73531	18076.95
499.81612	17990.25
503.89401	18086.05
507.96899	18215.95
512.04106	18248.25
516.11023	18309.35
520.1765	18308.35
524.23987	18289.55
528.30034	18171.55
532.35792	17962.85
536.41261	17694.85
540.46441	17353.75
544.51333	17316.05
548.55936	17521.35
552.60252	17974.85
556.64279	18410.65
560.6802	18711.95
564.71473	19013.25
568.7464	19656.75
572.7752	20115.75
576.80114	20108.25
580.82422	20128.25
584.84444	20432.15
588.86181	21074.45
592.87633	21878.25
596.888	22419.35
600.89682	22694.75
604.9028	23902.75
608.90594	27214.55
612.90624	30085.85
616.90371	27186.15
620.89834	21753.95
624.89015	19945.95
628.87913	19835.05
632.86528	19562.25
636.84862	19071.15
640.82913	18498.75
644.80683	17878.95
648.78172	17542.95
652.75379	17621.95
656.72306	18124.85
660.68952	18617.05
664.65319	18446.05
668.61405	18009.25
672.57211	17827.85
676.52738	17722.35
680.47986	17688.15
684.42955	17603.45
688.37646	17655.45
692.32058	17788.05
696.26192	17956.05
700.20048	18164.65
704.13626	18304.65
708.06928	18218.05
711.99952	18100.95
715.927	18031.35
719.85171	17990.65
723.77365	17908.85
727.69284	17699.25
731.60928	17636.25
735.52295	17788.95
739.43388	17919.35
743.34206	18044.05
747.24749	18222.65
751.15017	18493.95
755.05012	18913.85
758.94733	19695.95
762.8418	21230.45
766.73354	23443.65
770.62254	25326.15
774.50882	25623.95
778.39237	24161.65
782.27321	21901.95
786.15132	19956.65
790.02671	18902.45
793.89938	18437.65
797.76935	18258.75
801.6366	18183.25
805.50115	18070.55
809.36299	17963.05
813.22213	17868.75
817.07857	17867.15
820.93231	17869.95
824.78336	17945.95
828.63172	18039.75
832.47738	18118.35
836.32036	18180.15
840.16066	18307.35
843.99827	18324.55
847.8332	18210.35
851.66546	18084.55
855.49504	18050.15
859.32195	17968.55
863.1462	17834.75
866.96777	17758.95
870.78668	17741.95
874.60293	17739.75
878.41652	17833.25
882.22745	17942.25
886.03573	18005.35
889.84136	17949.85
893.64433	17870.05
897.44466	17809.05
901.24235	17813.65
905.0374	17765.95
908.8298	17749.75
912.61957	17808.75
916.40671	18021.35
920.19121	18332.55
923.97308	18660.35
927.75233	18838.55
931.52895	18905.55
935.30295	18619.75
939.07433	18078.35
942.84309	17769.95
946.60924	17662.55
950.37278	17568.55
954.13371	17406.15
957.89203	17287.35
961.64774	17208.25
965.40086	17158.25
969.15137	17115.35
972.89929	17085.15
976.64461	17075.15
980.38733	17136.25
984.12747	17242.35
987.86502	17434.35
991.59999	17748.15
995.33237	18367.05
999.06217	19391.85
1002.78939	20434.95
1006.51404	20938.45
1010.23611	21105.85
1013.95561	21305.75
1017.67255	21318.95
1021.38692	20921.15
1025.09872	20732.05
1028.80796	21210.35
1032.51465	22280.15
1036.21877	23008.15
1039.92035	22892.35
1043.61937	22207.95
1047.31584	21178.55
1051.00976	20256.05
1054.70114	19826.15
1058.38998	19717.65
1062.07627	19701.55
1065.76003	19655.05
1069.44126	19738.95
1073.11995	19893.35
1076.79611	20111.85
1080.46974	20324.05
1084.14085	20663.35
1087.80943	20912.95
1091.47549	20897.45
1095.13903	20577.75
1098.80005	20069.25
1102.45857	19626.15
1106.11456	19502.65
1109.76805	19603.35
1113.41903	19857.45
1117.06751	20186.75
1120.71348	20672.35
1124.35696	21104.05
1127.99793	21414.25
1131.63641	21297.05
1135.2724	20887.15
1138.90589	20469.35
1142.5369	20278.85
1146.16542	20173.15
1149.79145	20255.25
1153.415	20390.45
1157.03607	20637.95
1160.65467	21040.95
1164.27079	21787.85
1167.88443	22992.15
1171.49561	24879.45
1175.10432	27601.85
1178.71056	30967.45
1182.31434	33658.65
1185.91565	34831.85
1189.51451	34272.95
1193.11091	32433.25
1196.70485	30336.15
1200.29634	28444.05
1203.88538	27010.75
1207.47197	25803.45
1211.05612	25044.55
1214.63782	24863.75
1218.21708	25167.85
1221.79391	25643.85
1225.36829	25947.95
1228.94024	25660.95
1232.50976	24993.65
1236.07685	24488.25
1239.6415	24233.95
1243.20374	24161.95
1246.76355	24314.05
1250.32093	24711.15
1253.8759	25365.55
1257.42845	26250.85
1260.97859	27081.85
1264.52631	27734.95
1268.07163	28427.55
1271.61453	29212.75
1275.15503	30217.15
1278.69312	31259.65
1282.22882	32271.85
1285.76211	33060.05
1289.29301	33878.65
1292.82151	34849.25
1296.34761	36204.55
1299.87133	38213.55
1303.39266	41040.15
1306.9116	44971.65
1310.42815	49184.25
1313.94233	51707.45
1317.45412	51132.45
1320.96354	48648.45
1324.47058	45871.45
1327.97525	43635.75
1331.47754	42242.55
1334.97747	41885.65
1338.47502	42138.25
1341.97022	42557.35
1345.46305	42721.55
1348.95352	42681.25
1352.44163	43172.55
1355.92738	44879.95
1359.41078	48124.55
1362.89183	50784.75
1366.37053	48966.35
1369.84688	43553.55
1373.32088	38260.95
1376.79254	34757.25
1380.26186	33218.05
1383.72883	32503.35
1387.19347	32188.45
1390.65578	31876.55
1394.11575	32016.65
1397.57339	32701.95
1401.0287	33728.95
1404.48168	34629.35
1407.93234	35257.75
1411.38068	35429.35
1414.82669	34784.65
1418.27039	33489.55
1421.71177	31888.75
1425.15083	30717.75
1428.58758	30184.95
1432.02203	30390.15
1435.45416	30829.35
1438.88399	31250.95
1442.31151	31516.25
1445.73673	31779.75
1449.15965	32024.35
1452.58027	32035.35
1455.9986	31784.25
1459.41463	31825.25
1462.82837	32203.75
1466.23982	32838.95
1469.64898	33343.65
1473.05586	33746.55
1476.46045	33945.25
1479.86276	34120.45
1483.26279	34253.25
1486.66054	34493.65
1490.05602	34941.75
1493.44922	35491.75
1496.84016	35953.45
1500.22882	36711.55
1503.61521	37936.95
1506.99934	39622.55
1510.38121	41283.95
1513.76081	41952.75
1517.13816	40871.75
1520.51324	38541.65
1523.88607	36268.75
1527.25665	34810.95
1530.62498	34047.55
1533.99105	33648.65
1537.35488	33417.05
1540.71647	33242.65
1544.07581	32926.85
1547.4329	32487.35
1550.78776	31887.95
1554.14038	31299.65
1557.49077	30919.05
1560.83892	30766.55
1564.18484	30758.65
1567.52853	30724.05
1570.86999	30678.65
1574.20922	30798.55
1577.54624	30846.35
1580.88103	30368.35
1584.2136	30098.85
1587.54395	30905.55
1590.87208	33028.45
1594.19801	36383.55
1597.52172	39932.95
1600.84321	41542.75
1604.16251	40105.05
1607.47959	36446.65
1610.79447	32334.45
1614.10715	28856.75
1617.41763	26395.35
1620.7259	24900.65
1624.03199	24274.35
1627.33587	24444.95
1630.63757	25373.25
1633.93707	27058.35
1637.23439	29606.55
1640.52951	32707.25
1643.82246	36021.15
1647.11321	38458.05
1650.40179	38667.65
1653.68819	35979.55
1656.97241	31371.85
1660.25446	26875.85
1663.53433	23730.45
1666.81203	21708.05
1670.08756	20483.85
1673.36092	19748.85
1676.63211	19236.35
1679.90115	18898.35
1683.16801	18626.35
1686.43272	18447.95
1689.69527	18324.65
1692.95567	18176.25
1696.2139	18162.65
1699.46999	18110.95
1702.72392	18092.95
1705.97571	18060.35
1709.22535	18089.05
1712.47284	18087.65
1715.71819	18072.65
1718.96139	18050.95
1722.20246	17991.65
1725.44139	17919.55
1728.67818	17838.85
1731.91284	17765.95
1735.14537	17678.05
1738.37576	17578.65
1741.60403	17548.45
1744.83017	17495.95
1748.05418	17474.35
1751.27607	17448.95
1754.49584	17427.85
1757.71349	17394.75
1760.92903	17403.85
1764.14244	17377.85
1767.35375	17368.95
1770.56294	17351.25
1773.77002	17375.35
1776.97499	17349.25
1780.17785	17322.75
1783.37861	17332.15
1786.57727	17320.45
1789.77382	17300.85
1792.96828	17266.05
1796.16064	17252.15
1799.3509	17250.65
1802.53907	17243.35
1805.72514	17205.05
1808.90913	17147.35
1812.09102	17134.05
1815.27083	17073.85
1818.44856	17078.05
1821.6242	17046.85
1824.79776	17007.35
1827.96924	17020.85
1831.13864	17022.45
1834.30597	16973.95
1837.47122	16973.25
1840.6344	16970.05
1843.7955	17025.85
1846.95454	17006.05
1850.11151	16994.95
1853.26642	16993.45
1856.41926	16997.75
1859.57004	17013.55
1862.71876	17031.75
1865.86542	17038.25
1869.01003	17042.65
1872.15258	17063.75
1875.29308	17094.55
1878.43152	17068.55
1881.56792	17088.55
1884.70227	17060.75
1887.83457	17092.25
1890.96482	17099.25
1894.09304	17104.55
1897.21921	17102.15
1900.34335	17095.05
1903.46544	17098.55
1906.58551	17086.15
1909.70353	17101.35
1912.81953	17091.45
1915.93349	17105.15
1919.04543	17093.05
1922.15534	17058.45
1925.26322	17012.45
1928.36908	16973.95
1931.47292	16973.35
1934.57473	16896.65
1937.67453	16876.45
1940.77232	16816.65
1943.86808	16754.45
1946.96184	16724.25
1950.05358	16657.35
1953.14331	16622.55
1956.23103	16528.55
1959.31675	16493.15
1962.40046	16414.95
1965.48217	16410.85
1968.56188	16363.75
1971.63959	16320.15
1974.7153	16264.15
1977.78901	16223.55
1980.86073	16175.45
1983.93046	16137.55
1986.99819	16064.65
1990.06394	16041.25
1993.1277	15959.75
1996.18947	15909.75
1999.24925	15903.15
2002.30706	15873.65
2005.36288	15800.35
2008.41672	15784.35
2011.46859	15741.75
2014.51848	15704.55
2017.56639	15649.85
2020.61233	15599.55
2023.6563	15600.15
2026.6983	15561.85
2029.73833	15558.45
2032.7764	15516.35
2035.8125	15496.85
2038.84664	15493.35
2041.87881	15476.75
2044.90903	15462.05
2047.93729	15422.25
2050.96359	15418.95
2053.98794	15406.45
2057.01034	15396.75
2060.03078	15390.45
2063.04927	15365.85
2066.06582	15354.45
2069.08042	15347.55
2072.09307	15296.75
2075.10378	15292.15
2078.11255	15278.45
2081.11938	15272.85
2084.12426	15262.25
2087.12722	15202.95
2090.12824	15195.65
2093.12732	15230.15
2096.12447	15170.75
2099.11969	15223.05
2102.11299	15220.65
2105.10435	15230.85
2108.09379	15217.25
2111.08131	15228.85
2114.0669	15229.45
2117.05057	15263.15
2120.03233	15280.45
2123.01216	15270.65
2125.99008	15289.75
2128.96609	15288.55
2131.94018	15296.15
2134.91236	15310.55
2137.88263	15346.25
2140.851	15359.05
2143.81746	15341.25
2146.78201	15351.55
2149.74466	15363.55
2152.7054	15374.65
2155.66425	15391.75
2158.6212	15368.65
2161.57625	15349.65
2164.52941	15328.85
2167.48067	15352.45
2170.43004	15371.95
2173.37752	15339.55
2176.32311	15345.65
2179.26681	15409.85
2182.20863	15379.75
2185.14856	15431.55
2188.08661	15376.95
2191.02278	15404.45
2193.95707	15396.25
2196.88948	15420.75
2199.82001	15415.75
2202.74867	15434.15
2205.67545	15417.45
2208.60037	15399.35
2211.52341	15396.85
2214.44458	15393.75
2217.36388	15369.95
2220.28132	15365.85
2223.1969	15363.85
2226.11061	15338.35
2229.02246	15310.35
2231.93245	15255.35
2234.84058	15238.65
2237.74686	15182.15
2240.65128	15195.05
2243.55385	15168.75
2246.45456	15162.85
2249.35343	15121.65
2252.25044	15113.65
2255.14561	15074.35
2258.03893	15102.75
2260.93041	15076.65
2263.82004	14997.85
2266.70783	14989.95
2269.59378	14934.45
2272.4779	14911.15
2275.36017	14859.65
2278.24061	14838.15
2281.11922	14794.55
2283.996	14805.15
2286.87094	14783.25
2289.74405	14756.95
2292.61534	14764.45
2295.4848	14739.15
2298.35243	14748.75
2301.21824	14788.85
2304.08223	14771.35
2306.94439	14799.85
2309.80474	14855.25
2312.66327	14882.85
2315.51999	14842.15
2318.37489	14857.85
2321.22797	14844.85
2324.07925	14847.25
2326.92871	14840.45
2329.77637	14821.25
2332.62222	14817.05
2335.46626	14826.05
2338.3085	14829.45
2341.14893	14849.25
2343.98756	14832.05
2346.8244	14897.85
2349.65943	14914.15
2352.49267	14923.15
2355.32411	14921.75
2358.15376	14915.65
2360.98161	14894.85
2363.80768	14837.15
2366.63195	14833.75
2369.45444	14769.25
2372.27514	14760.05
2375.09405	14729.05
2377.91118	14688.25
2380.72652	14646.85
2383.54009	14592.05
2386.35187	14561.95
2389.16188	14558.25
2391.97011	14543.75
2394.77657	14530.55
2397.58125	14498.35
2400.38416	14481.15
2403.18529	14454.05
2405.98466	14421.05
2408.78226	14374.85
2411.57809	14340.15
2414.37216	14306.35
2417.16446	14268.25
2419.955	14266.85
2422.74378	14233.95
2425.5308	14216.75
2428.31606	14240.35
2431.09956	14241.45
2433.88131	14237.55
2436.6613	14233.85
2439.43954	14203.25
2442.21603	14222.25
2444.99077	14215.75
2447.76377	14211.55
2450.53501	14221.35
2453.30451	14216.65
2456.07226	14188.25
2458.83827	14180.05
2461.60254	14141.55
2464.36507	14180.15
2467.12586	14152.45
2469.88492	14177.65
2472.64224	14182.35
2475.39782	14190.65
2478.15167	14188.25
2480.90379	14181.85
2483.65417	14226.55
2486.40283	14247.65
2489.14976	14275.55
2491.89497	14313.95
2494.63845	14307.95
2497.3802	14317.85
2500.12024	14333.55
2502.85855	14285.25
2505.59514	14293.65
2508.33002	14298.65
2511.06318	14249.75
2513.79462	14219.35
2516.52435	14152.95
2519.25237	14147.95
2521.97867	14162.25
2524.70327	14167.85
2527.42616	14167.25
2530.14734	14166.35
2532.86681	14152.15
2535.58458	14173.25
2538.30065	14175.25
2541.01501	14166.75
2543.72768	14135.55
2546.43864	14176.95
2549.14791	14156.15
2551.85548	14128.65
2554.56136	14106.65
2557.26554	14102.35
2559.96803	14077.25
2562.66883	14053.05
2565.36794	14063.85
2568.06536	14035.15
2570.7611	14019.75
2573.45514	14068.55
2576.14751	14054.45
2578.83819	14046.95
2581.52719	14063.85
2584.21451	14042.15
2586.90015	14043.65
2589.58411	14053.15
2592.2664	14048.95
2594.94701	14041.45
2597.62594	14059.15
2600.30321	14040.35
2602.9788	14040.55
2605.65273	14025.95
2608.32498	14036.35
2610.99557	14008.75
2613.66449	14038.15
2616.33175	14058.85
2618.99734	14065.05
2621.66128	14071.95
2624.32355	14149.25
2626.98416	14136.85
2629.64311	14141.05
2632.30041	14168.45
2634.95605	14149.45
2637.61004	14093.45
2640.26238	14045.45
2642.91306	14025.85
2645.56209	13994.85
2648.20948	13953.55
2650.85521	13945.05
2653.4993	13942.45
2656.14175	13932.45
2658.78255	13962.55
2661.42171	13983.95
2664.05923	13991.05
2666.6951	14007.35
2669.32934	14031.55
2671.96194	14023.45
2674.59291	14049.25
2677.22224	14047.95
2679.84993	14052.95
2682.476	14052.55
2685.10043	14030.35
2687.72324	14003.85
2690.34441	13966.15
2692.96396	13999.75
2695.58188	13951.65
2698.19818	13949.65
2700.81285	13940.75
2703.4259	13929.65
2706.03733	13954.05
2708.64714	13952.85
2711.25533	13954.65
2713.86191	13960.85
2716.46687	13958.15
2719.07021	13951.95
2721.67194	14001.15
2724.27206	13961.15
2726.87057	14036.15
2729.46747	14031.35
2732.06276	14037.25
2734.65644	14020.35
2737.24852	14028.45
2739.83899	14024.35
2742.42786	14015.85
2745.01513	13999.85
2747.60079	13990.15
2750.18486	13998.55
2752.76733	13970.35
2755.3482	13955.35
2757.92747	13961.05
2760.50515	13972.85
2763.08123	13975.75
2765.65573	13970.05
2768.22863	13956.25
2770.79994	13962.85
2773.36967	13960.25
2775.9378	13971.35
2778.50435	13978.75
2781.06932	13967.25
2783.6327	13953.45
2786.1945	13956.65
2788.75471	13942.15
2791.31335	13945.95
2793.87041	13908.15
2796.42589	13882.75
2798.97979	13870.25
2801.53212	13838.25
2804.08288	13824.45
2806.63206	13783.15
2809.17967	13756.95
2811.72571	13762.65
2814.27018	13746.95
2816.81308	13737.75
2819.35442	13752.15
2821.89419	13725.15
2824.43239	13717.05
2826.96904	13706.85
2829.50412	13712.35
2832.03763	13693.65
2834.56959	13682.25
2837.1	13690.75
2839.62884	13677.15
2842.15613	13707.55
2844.68186	13733.55
2847.20604	13711.65
2849.72867	13719.35
2852.24974	13689.95
2854.76927	13689.95
2857.28724	13696.95
2859.80367	13671.15
2862.31855	13648.25
2864.83189	13631.85
2867.34368	13640.65
2869.85393	13621.85
2872.36264	13594.95
2874.8698	13593.05
2877.37543	13566.05
2879.87952	13565.05
2882.38207	13580.45
2884.88308	13555.35
2887.38256	13561.25
2889.88051	13556.55
2892.37692	13556.95
2894.8718	13581.95
2897.36515	13636.75
2899.85698	13609.75
2902.34727	13652.85
2904.83604	13631.05
2907.32328	13693.35
2909.809	13689.85
2912.29319	13690.35
2914.77587	13706.65
2917.25702	13685.45
2919.73665	13663.75
2922.21476	13649.85
2924.69136	13610.45
2927.16644	13602.15
2929.64	13563.25
2932.11205	13560.85
2934.58258	13536.75
2937.05161	13549.15
2939.51912	13544.55
2941.98513	13531.85
2944.44962	13508.45
2946.91261	13440.45
2949.37409	13478.15
2951.83407	13469.75
2954.29254	13456.45
2956.74951	13469.35
2959.20498	13459.65
2961.65895	13419.05
2964.11142	13423.85
2966.56239	13396.15
2969.01186	13411.55
2971.45984	13363.55
2973.90632	13337.45
2976.35131	13302.95
2978.7948	13263.75
2981.23681	13244.55
2983.67732	13184.35
2986.11635	13163.85
2988.55388	13118.35
2990.98993	13116.75
2993.4245	13099.05
2995.85758	13055.55
2998.28917	13042.85
3000.71928	12974.15
3003.14791	12957.35
3005.57506	12943.05
3008.00073	12916.35
3010.42493	12889.85
3012.84764	12864.55
3015.26888	12883.85
3017.68865	12783.65
3020.10694	12804.05
3022.52376	12798.05
3024.9391	12754.25
3027.35298	12730.05
3029.76539	12723.15
3032.17632	12728.75
3034.5858	12722.85
3036.9938	12728.55
3039.40034	12709.35
3041.80542	12670.75
3044.20903	12650.45
3046.61118	12664.05
3049.01187	12636.55
3051.4111	12627.65
3053.80888	12620.35
3056.20519	12604.65
3058.60005	12553.75
3060.99345	12513.95
3063.3854	12474.45
3065.7759	12434.35
3068.16494	12403.45
3070.55254	12348.15
3072.93868	12319.25
3075.32338	12278.25
3077.70662	12264.75
3080.08842	12232.75
3082.46878	12205.65
3084.84769	12204.25
3087.22515	12174.15
3089.60118	12195.05
3091.97576	12181.55
3094.3489	12162.45
3096.72061	12133.45
3099.09087	12169.95
3101.4597	12183.55
3103.82709	12164.95
3106.19305	12136.25
3108.55757	12142.15
3110.92066	12086.95
3113.28232	12129.45
3115.64255	12117.35
3118.00134	12099.65
3120.35871	12033.15
3122.71466	12022.05
3125.06917	12004.45
3127.42226	11974.75
3129.77393	12003.55
3132.12417	11924.65
3134.47299	11928.95
3136.82039	11933.75
3139.16636	11927.55
3141.51092	11939.25
3143.85406	11882.75
3146.19579	11894.45
3148.53609	11914.45
3150.87499	11898.45
3153.21246	11902.05
3155.54853	11919.55
3157.88318	11899.75
3160.21642	11952.05
3162.54826	11908.95
3164.87868	11917.95
3167.2077	11907.45
3169.5353	11927.55
3171.86151	11933.95
3174.18631	11913.25
3176.5097	11910.35
3178.83169	11874.85
3181.15228	11879.15
3183.47147	11846.95
3185.78926	11856.85
3188.10565	11846.55
3190.42065	11820.85
3192.73424	11837.85
3195.04645	11842.85
3197.35725	11836.15
3199.66667	11801.95
3201.97469	11824.65
3204.28132	11797.85
3206.58656	11836.95
3208.8904	11832.55
3211.19287	11829.05
3213.49394	11821.65
3215.79363	11802.75
3218.09193	11841.65
3220.38884	11835.15
3222.68438	11865.45
3224.97853	11842.75
3227.2713	11856.75
3229.56269	11822.85
3231.8527	11832.05
3234.14133	11824.75
3236.42858	11780.05
3238.71446	11794.05
3240.99896	11769.75
3243.28209	11764.45
3245.56384	11736.65
3247.84423	11730.45
3250.12324	11715.85
3252.40088	11710.65
3254.67715	11676.05
3256.95205	11663.35
3259.22558	11684.75
3261.49775	11682.85
3263.76855	11674.45
3266.03799	11632.65
3268.30606	11674.95
3270.57277	11634.45
3272.83812	11597.95
3275.10211	11592.05
3277.36474	11562.25
3279.62601	11583.05
3281.88593	11556.35
3284.14448	11548.55
3286.40168	11575.55
3288.65753	11571.25
3290.91202	11561.05
3293.16516	11554.45
3295.41695	11521.65
3297.66738	11450.75
3299.91647	11410.95
3302.16421	11317.35
3304.4106	11325.45
3306.65564	11232.85
3308.89933	11176.55
3311.14169	11096.85
3313.38269	11006.85
3315.62236	10976.35
3317.86068	10870.95
3320.09766	10777.45
3322.3333	10714.45
3324.5676	10676.85
3326.80056	10517.35
3329.03219	10473.75
3331.26248	2.95
3333.49143	0.85
3335.71905	-1.75
