Data from AgNPs_FTO_APTES_UA_2uM_CRN_0uM_R6G_10uM_NaF_0.1M_Addition_RamanShift__36__10-46-24-960.txt Node

Date: Wed Feb 02 10:46:24 GMT 2022
User: TCL
Spectrometer: QEP01345
Trigger mode: 4
Integration Time (sec): 7.000000E0
Scans to average: 10
Electric dark correction enabled: true
Nonlinearity correction enabled: false
Boxcar width: 0
XAxis mode: Raman Shifts
Number of Pixels in Spectrum: 1044
>>>>>Begin Spectral Data<<<<<
46.04893	0.15
50.45542	0.95
54.85868	-1.15
59.25871	-0.25
63.6555	58.85
68.04907	64.85
72.43941	65.85
76.82654	71.65
81.21044	71.65
85.59113	74.05
89.96862	75.95
94.34289	79.95
98.71396	79.45
103.08183	86.85
107.4465	85.45
111.80798	93.65
116.16626	97.35
120.52136	96.85
124.87327	102.85
129.222	109.95
133.56755	115.55
137.90993	124.35
142.24913	137.55
146.58517	155.65
150.91804	186.55
155.24774	223.35
159.57429	278.25
163.89768	365.55
168.21792	494.05
172.53501	667.35
176.84895	924.25
181.15975	1301.65
185.46741	1830.75
189.77193	2524.75
194.07331	3358.25
198.37157	4317.55
202.6667	5340.25
206.9587	6365.05
211.24758	7338.15
215.53334	8308.75
219.81599	9396.45
224.09553	10618.85
228.37195	11963.35
232.64527	13400.15
236.91549	14850.95
241.18261	16268.15
245.44663	17598.45
249.70755	18735.95
253.96539	19670.55
258.22014	20529.75
262.4718	21131.25
266.72039	21545.75
270.96589	21684.25
275.20832	21579.75
279.44768	21348.05
283.68397	21042.45
287.91719	20796.45
292.14735	20677.15
296.37445	20704.65
300.59849	20781.05
304.81948	21000.45
309.03742	21173.05
313.25231	21243.75
317.46415	21063.05
321.67296	20718.85
325.87872	20371.45
330.08145	20195.85
334.28114	20046.35
338.47781	20044.25
342.67145	20257.25
346.86207	20522.05
351.04966	20900.45
355.23424	21237.05
359.4158	21571.05
363.59435	21787.25
367.76989	21882.85
371.94243	21893.75
376.11196	21805.45
380.27849	21730.75
384.44203	21797.25
388.60257	21937.95
392.76012	22192.05
396.91468	22505.25
401.06626	22862.05
405.21485	23095.65
409.36047	23052.45
413.50311	22877.35
417.64277	22993.55
421.77947	23238.25
425.9132	23411.55
430.04396	23487.05
434.17176	23557.35
438.2966	23654.75
442.41849	24070.05
446.53742	24903.75
450.6534	25775.25
454.76644	26185.25
458.87653	26152.05
462.98368	25699.45
467.08789	25141.45
471.18916	24516.65
475.2875	23864.25
479.38291	23460.95
483.4754	23265.15
487.56496	23152.55
491.6516	22830.75
495.73531	22441.95
499.81612	22242.55
503.89401	22390.25
507.96899	22446.55
512.04106	22318.35
516.11023	21989.05
520.1765	21619.15
524.23987	21390.05
528.30034	21277.05
532.35792	21087.45
536.41261	20788.85
540.46441	20403.45
544.51333	20248.85
548.55936	20443.65
552.60252	20985.35
556.64279	21760.35
560.6802	22458.95
564.71473	22806.65
568.7464	23240.65
572.7752	24205.45
576.80114	25365.85
580.82422	26830.25
584.84444	29057.45
588.86181	32248.35
592.87633	35118.75
596.888	34966.95
600.89682	31343.95
604.9028	28494.45
608.90594	28790.65
612.90624	30111.85
616.90371	28118.15
620.89834	23544.75
624.89015	21358.25
628.87913	21112.85
632.86528	21286.05
636.84862	21131.85
640.82913	20458.35
644.80683	19881.15
648.78172	19647.85
652.75379	19796.95
656.72306	20087.55
660.68952	20302.15
664.65319	19963.65
668.61405	19452.55
672.57211	19374.75
676.52738	19576.65
680.47986	19598.85
684.42955	19352.85
688.37646	19165.95
692.32058	19346.75
696.26192	19833.65
700.20048	20395.15
704.13626	20721.05
708.06928	20866.55
711.99952	20878.75
715.927	20963.95
719.85171	21120.75
723.77365	20971.15
727.69284	20369.35
731.60928	19866.45
735.52295	19687.55
739.43388	19743.45
743.34206	19841.75
747.24749	20021.25
751.15017	20377.25
755.05012	20847.85
758.94733	21561.15
762.8418	22728.25
766.73354	24440.25
770.62254	25869.55
774.50882	25805.85
778.39237	24370.35
782.27321	22566.65
786.15132	21163.65
790.02671	20310.45
793.89938	19833.25
797.76935	19699.85
801.6366	19624.85
805.50115	19635.65
809.36299	19564.45
813.22213	19429.65
817.07857	19277.45
820.93231	19025.65
824.78336	18822.55
828.63172	18714.75
832.47738	18673.15
836.32036	18686.95
840.16066	18711.95
843.99827	18739.05
847.8332	18734.25
851.66546	18715.15
855.49504	18743.95
859.32195	18759.65
863.1462	18684.85
866.96777	18574.95
870.78668	18526.85
874.60293	18557.95
878.41652	18542.05
882.22745	18681.75
886.03573	18795.45
889.84136	18817.65
893.64433	18695.75
897.44466	18632.45
901.24235	18637.15
905.0374	18595.15
908.8298	18567.95
912.61957	18646.75
916.40671	18851.95
920.19121	19259.05
923.97308	19683.45
927.75233	19892.45
931.52895	19565.15
935.30295	18932.15
939.07433	18317.85
942.84309	17916.05
946.60924	17715.45
950.37278	17628.05
954.13371	17671.95
957.89203	17614.25
961.64774	17597.95
965.40086	17651.05
969.15137	17597.85
972.89929	17439.85
976.64461	17295.05
980.38733	17233.15
984.12747	17263.25
987.86502	17335.15
991.59999	17456.55
995.33237	17642.85
999.06217	18023.05
1002.78939	18568.25
1006.51404	19139.35
1010.23611	19682.85
1013.95561	20041.75
1017.67255	20150.65
1021.38692	19824.65
1025.09872	19198.15
1028.80796	18816.95
1032.51465	18803.15
1036.21877	18984.55
1039.92035	19156.05
1043.61937	19231.85
1047.31584	19159.45
1051.00976	19059.65
1054.70114	19046.65
1058.38998	19090.65
1062.07627	19240.85
1065.76003	19420.15
1069.44126	19766.85
1073.11995	20278.75
1076.79611	20700.65
1080.46974	20854.15
1084.14085	21091.75
1087.80943	21386.55
1091.47549	21707.95
1095.13903	21792.55
1098.80005	21274.75
1102.45857	20462.15
1106.11456	19852.85
1109.76805	19621.05
1113.41903	19649.45
1117.06751	19781.65
1120.71348	20018.25
1124.35696	20271.45
1127.99793	20538.95
1131.63641	20765.05
1135.2724	20755.15
1138.90589	20768.05
1142.5369	20946.15
1146.16542	21241.95
1149.79145	21632.75
1153.415	21992.95
1157.03607	22460.65
1160.65467	23481.35
1164.27079	25197.15
1167.88443	27030.75
1171.49561	28667.95
1175.10432	30748.55
1178.71056	33534.75
1182.31434	36103.55
1185.91565	36913.75
1189.51451	35704.25
1193.11091	34042.05
1196.70485	32583.15
1200.29634	31285.45
1203.88538	30558.15
1207.47197	30387.45
1211.05612	30338.15
1214.63782	29771.45
1218.21708	28726.45
1221.79391	27746.45
1225.36829	27151.45
1228.94024	26849.45
1232.50976	26316.15
1236.07685	25547.95
1239.6415	24895.15
1243.20374	24683.05
1246.76355	24851.85
1250.32093	25238.75
1253.8759	25969.85
1257.42845	26873.25
1260.97859	27898.75
1264.52631	28984.65
1268.07163	29987.05
1271.61453	31019.15
1275.15503	32182.35
1278.69312	33638.25
1282.22882	35555.75
1285.76211	37926.05
1289.29301	40624.65
1292.82151	43343.95
1296.34761	46526.75
1299.87133	50109.65
1303.39266	53606.65
1306.9116	56115.65
1310.42815	57686.85
1313.94233	57997.45
1317.45412	56974.85
1320.96354	55111.85
1324.47058	53434.35
1327.97525	52325.75
1331.47754	51266.25
1334.97747	49990.65
1338.47502	48252.65
1341.97022	46249.25
1345.46305	44403.05
1348.95352	43725.95
1352.44163	44554.35
1355.92738	47391.75
1359.41078	51602.35
1362.89183	55206.75
1366.37053	56141.35
1369.84688	52070.95
1373.32088	44650.55
1376.79254	39075.35
1380.26186	37248.25
1383.72883	37514.05
1387.19347	37559.65
1390.65578	36861.75
1394.11575	36628.95
1397.57339	37369.75
1401.0287	38549.45
1404.48168	39480.45
1407.93234	39360.75
1411.38068	38001.25
1414.82669	36160.75
1418.27039	34220.35
1421.71177	32402.15
1425.15083	30908.75
1428.58758	30328.65
1432.02203	30957.25
1435.45416	32355.85
1438.88399	33770.75
1442.31151	34473.75
1445.73673	34816.65
1449.15965	34799.85
1452.58027	34436.85
1455.9986	33834.75
1459.41463	33615.45
1462.82837	34060.35
1466.23982	34978.65
1469.64898	35818.25
1473.05586	36423.45
1476.46045	36645.85
1479.86276	36529.95
1483.26279	36222.55
1486.66054	36156.35
1490.05602	36447.95
1493.44922	36923.45
1496.84016	37312.75
1500.22882	37468.25
1503.61521	37830.85
1506.99934	38301.25
1510.38121	38812.35
1513.76081	39013.05
1517.13816	38723.45
1520.51324	38277.75
1523.88607	38200.75
1527.25665	38665.15
1530.62498	39098.25
1533.99105	38822.75
1537.35488	37794.15
1540.71647	36254.55
1544.07581	34527.75
1547.4329	32844.75
1550.78776	31506.55
1554.14038	30505.15
1557.49077	30005.25
1560.83892	29655.85
1564.18484	29617.25
1567.52853	29618.85
1570.86999	29998.45
1574.20922	30870.25
1577.54624	31763.45
1580.88103	32383.95
1584.2136	33361.65
1587.54395	35557.25
1590.87208	38827.55
1594.19801	42408.25
1597.52172	45191.65
1600.84321	45313.95
1604.16251	41883.35
1607.47959	36559.05
1610.79447	31517.85
1614.10715	27602.25
1617.41763	25093.25
1620.7259	23611.65
1624.03199	23045.85
1627.33587	23332.45
1630.63757	24505.55
1633.93707	26900.85
1637.23439	30986.85
1640.52951	37363.35
1643.82246	45360.25
1647.11321	51940.15
1650.40179	52688.65
1653.68819	46694.85
1656.97241	37788.25
1660.25446	29964.85
1663.53433	24766.25
1666.81203	21651.05
1670.08756	19880.85
1673.36092	18763.15
1676.63211	18077.75
1679.90115	17618.25
1683.16801	17210.75
1686.43272	16944.95
1689.69527	16754.75
1692.95567	16590.15
1696.2139	16527.15
1699.46999	16430.45
1702.72392	16322.75
1705.97571	16290.35
1709.22535	16221.35
1712.47284	16172.25
1715.71819	16163.75
1718.96139	16107.55
1722.20246	16050.75
1725.44139	15987.35
1728.67818	15837.45
1731.91284	15705.95
1735.14537	15566.65
1738.37576	15486.35
1741.60403	15429.55
1744.83017	15365.45
1748.05418	15322.65
1751.27607	15246.35
1754.49584	15211.15
1757.71349	15222.95
1760.92903	15165.45
1764.14244	15181.05
1767.35375	15164.15
1770.56294	15096.05
1773.77002	15107.95
1776.97499	15047.45
1780.17785	15002.85
1783.37861	14996.65
1786.57727	14949.75
1789.77382	14896.95
1792.96828	14890.15
1796.16064	14876.95
1799.3509	14809.95
1802.53907	14801.65
1805.72514	14776.05
1808.90913	14738.65
1812.09102	14675.25
1815.27083	14636.15
1818.44856	14641.25
1821.6242	14613.95
1824.79776	14619.75
1827.96924	14612.05
1831.13864	14574.15
1834.30597	14575.05
1837.47122	14588.35
1840.6344	14582.75
1843.7955	14598.25
1846.95454	14595.25
1850.11151	14586.85
1853.26642	14551.45
1856.41926	14558.85
1859.57004	14545.25
1862.71876	14537.45
1865.86542	14520.25
1869.01003	14494.05
1872.15258	14460.45
1875.29308	14436.45
1878.43152	14457.55
1881.56792	14446.25
1884.70227	14422.95
1887.83457	14407.25
1890.96482	14370.05
1894.09304	14342.35
1897.21921	14331.85
1900.34335	14306.75
1903.46544	14302.95
1906.58551	14285.95
1909.70353	14255.65
1912.81953	14252.95
1915.93349	14218.45
1919.04543	14167.95
1922.15534	14109.95
1925.26322	14091.55
1928.36908	14022.05
1931.47292	13999.55
1934.57473	13960.35
1937.67453	13942.65
1940.77232	13881.15
1943.86808	13885.15
1946.96184	13867.85
1950.05358	13806.65
1953.14331	13794.25
1956.23103	13723.65
1959.31675	13702.85
1962.40046	13677.25
1965.48217	13618.65
1968.56188	13554.95
1971.63959	13482.55
1974.7153	13482.25
1977.78901	13406.35
1980.86073	13363.55
1983.93046	13329.65
1986.99819	13275.55
1990.06394	13266.55
1993.1277	13275.65
1996.18947	13197.75
1999.24925	13161.25
2002.30706	13115.95
2005.36288	13073.05
2008.41672	13043.55
2011.46859	12991.15
2014.51848	12947.35
2017.56639	12928.15
2020.61233	12872.05
2023.6563	12866.75
2026.6983	12834.15
2029.73833	12832.15
2032.7764	12813.75
2035.8125	12789.55
2038.84664	12756.35
2041.87881	12757.55
2044.90903	12733.65
2047.93729	12703.45
2050.96359	12691.95
2053.98794	12671.85
2057.01034	12666.85
2060.03078	12633.55
2063.04927	12623.15
2066.06582	12620.05
2069.08042	12619.95
2072.09307	12626.55
2075.10378	12610.25
2078.11255	12615.85
2081.11938	12622.45
2084.12426	12654.15
2087.12722	12594.95
2090.12824	12624.35
2093.12732	12610.65
2096.12447	12646.75
2099.11969	12646.25
2102.11299	12658.95
2105.10435	12655.35
2108.09379	12624.95
2111.08131	12663.85
2114.0669	12603.55
2117.05057	12639.15
2120.03233	12640.55
2123.01216	12630.85
2125.99008	12630.75
2128.96609	12663.45
2131.94018	12622.55
2134.91236	12634.65
2137.88263	12634.85
2140.851	12643.75
2143.81746	12625.65
2146.78201	12618.85
2149.74466	12620.95
2152.7054	12579.65
2155.66425	12608.05
2158.6212	12602.55
2161.57625	12595.15
2164.52941	12573.05
2167.48067	12549.85
2170.43004	12606.85
2173.37752	12576.85
2176.32311	12561.25
2179.26681	12596.15
2182.20863	12585.15
2185.14856	12601.55
2188.08661	12596.55
2191.02278	12580.35
2193.95707	12561.35
2196.88948	12566.65
2199.82001	12555.05
2202.74867	12525.65
2205.67545	12526.95
2208.60037	12497.55
2211.52341	12498.65
2214.44458	12474.85
2217.36388	12450.45
2220.28132	12429.75
2223.1969	12409.95
2226.11061	12383.05
2229.02246	12373.85
2231.93245	12406.75
2234.84058	12400.55
2237.74686	12417.35
2240.65128	12359.15
2243.55385	12354.55
2246.45456	12331.75
2249.35343	12261.15
2252.25044	12193.45
2255.14561	12201.95
2258.03893	12173.05
2260.93041	12161.75
2263.82004	12111.75
2266.70783	12114.15
2269.59378	12085.55
2272.4779	12038.15
2275.36017	12022.25
2278.24061	11985.05
2281.11922	11951.35
2283.996	11965.65
2286.87094	11963.55
2289.74405	11942.05
2292.61534	11906.75
2295.4848	11902.85
2298.35243	11894.55
2301.21824	11878.95
2304.08223	11868.65
2306.94439	11876.25
2309.80474	11879.75
2312.66327	11888.65
2315.51999	11848.75
2318.37489	11851.15
2321.22797	11819.35
2324.07925	11825.55
2326.92871	11817.85
2329.77637	11793.95
2332.62222	11799.65
2335.46626	11776.05
2338.3085	11776.25
2341.14893	11775.55
2343.98756	11766.55
2346.8244	11790.85
2349.65943	11790.15
2352.49267	11774.75
2355.32411	11801.15
2358.15376	11777.75
2360.98161	11765.75
2363.80768	11742.75
2366.63195	11753.65
2369.45444	11739.85
2372.27514	11723.85
2375.09405	11684.55
2377.91118	11699.95
2380.72652	11645.55
2383.54009	11633.15
2386.35187	11643.65
2389.16188	11584.25
2391.97011	11561.95
2394.77657	11542.45
2397.58125	11538.65
2400.38416	11516.15
2403.18529	11487.15
2405.98466	11474.85
2408.78226	11455.35
2411.57809	11441.35
2414.37216	11436.55
2417.16446	11444.55
2419.955	11419.35
2422.74378	11394.55
2425.5308	11389.65
2428.31606	11437.15
2431.09956	11418.65
2433.88131	11405.55
2436.6613	11416.55
2439.43954	11392.75
2442.21603	11377.15
2444.99077	11380.05
2447.76377	11388.55
2450.53501	11373.65
2453.30451	11388.45
2456.07226	11389.55
2458.83827	11365.95
2461.60254	11383.95
2464.36507	11393.45
2467.12586	11384.05
2469.88492	11355.15
2472.64224	11396.55
2475.39782	11380.85
2478.15167	11393.95
2480.90379	11361.95
2483.65417	11388.25
2486.40283	11378.55
2489.14976	11372.75
2491.89497	11381.75
2494.63845	11415.15
2497.3802	11393.75
2500.12024	11381.05
2502.85855	11368.95
2505.59514	11362.85
2508.33002	11353.65
2511.06318	11339.65
2513.79462	11336.75
2516.52435	11334.95
2519.25237	11318.55
2521.97867	11278.95
2524.70327	11285.95
2527.42616	11295.85
2530.14734	11286.55
2532.86681	11271.85
2535.58458	11271.15
2538.30065	11233.05
2541.01501	11231.65
2543.72768	11253.25
2546.43864	11220.65
2549.14791	11195.35
2551.85548	11203.55
2554.56136	11184.65
2557.26554	11181.95
2559.96803	11178.55
2562.66883	11165.45
2565.36794	11197.65
2568.06536	11199.75
2570.7611	11189.15
2573.45514	11194.75
2576.14751	11163.25
2578.83819	11152.05
2581.52719	11166.85
2584.21451	11176.45
2586.90015	11141.85
2589.58411	11104.05
2592.2664	11138.85
2594.94701	11097.15
2597.62594	11080.05
2600.30321	11058.55
2602.9788	11071.15
2605.65273	11090.25
2608.32498	11101.15
2610.99557	11097.55
2613.66449	11100.45
2616.33175	11077.65
2618.99734	11095.15
2621.66128	11112.45
2624.32355	11090.95
2626.98416	11086.45
2629.64311	11049.05
2632.30041	11064.65
2634.95605	11050.15
2637.61004	11069.35
2640.26238	11038.95
2642.91306	11028.65
2645.56209	11019.55
2648.20948	11031.25
2650.85521	11015.05
2653.4993	11041.75
2656.14175	11061.65
2658.78255	11048.25
2661.42171	11038.85
2664.05923	11056.55
2666.6951	11076.65
2669.32934	11104.85
2671.96194	11110.75
2674.59291	11129.75
2677.22224	11082.05
2679.84993	11124.45
2682.476	11112.65
2685.10043	11093.85
2687.72324	11093.05
2690.34441	11095.75
2692.96396	11073.35
2695.58188	11089.35
2698.19818	11107.65
2700.81285	11112.25
2703.4259	11087.15
2706.03733	11122.95
2708.64714	11132.05
2711.25533	11156.85
2713.86191	11126.95
2716.46687	11142.85
2719.07021	11143.15
2721.67194	11161.75
2724.27206	11151.05
2726.87057	11165.45
2729.46747	11171.35
2732.06276	11203.25
2734.65644	11179.75
2737.24852	11185.75
2739.83899	11178.15
2742.42786	11173.55
2745.01513	11155.85
2747.60079	11165.65
2750.18486	11170.95
2752.76733	11178.05
2755.3482	11206.35
2757.92747	11184.55
2760.50515	11187.45
2763.08123	11185.65
2765.65573	11182.35
2768.22863	11187.45
2770.79994	11141.95
2773.36967	11177.35
2775.9378	11173.25
2778.50435	11155.35
2781.06932	11174.75
2783.6327	11149.55
2786.1945	11149.05
2788.75471	11137.95
2791.31335	11111.05
2793.87041	11114.75
2796.42589	11083.45
2798.97979	11134.95
2801.53212	11075.55
2804.08288	11085.65
2806.63206	11073.35
2809.17967	11060.75
2811.72571	11041.35
2814.27018	11034.85
2816.81308	11029.95
2819.35442	10998.35
2821.89419	11005.95
2824.43239	10990.45
2826.96904	10983.55
2829.50412	10997.35
2832.03763	10955.25
2834.56959	10984.95
2837.1	10947.05
2839.62884	10967.85
2842.15613	10993.55
2844.68186	11058.55
2847.20604	11098.25
2849.72867	11138.95
2852.24974	11112.25
2854.76927	11123.45
2857.28724	11119.45
2859.80367	11103.75
2862.31855	11086.05
2864.83189	11067.15
2867.34368	11065.15
2869.85393	11088.35
2872.36264	11081.75
2874.8698	11063.65
2877.37543	11103.65
2879.87952	11114.15
2882.38207	11108.85
2884.88308	11150.25
2887.38256	11172.65
2889.88051	11164.95
2892.37692	11165.75
2894.8718	11175.95
2897.36515	11191.45
2899.85698	11193.35
2902.34727	11218.45
2904.83604	11217.05
2907.32328	11220.85
2909.809	11203.95
2912.29319	11204.45
2914.77587	11201.25
2917.25702	11200.15
2919.73665	11207.05
2922.21476	11221.45
2924.69136	11209.15
2927.16644	11191.05
2929.64	11194.85
2932.11205	11188.05
2934.58258	11154.75
2937.05161	11164.05
2939.51912	11149.95
2941.98513	11112.75
2944.44962	11054.95
2946.91261	10997.85
2949.37409	10985.05
2951.83407	10994.55
2954.29254	10967.85
2956.74951	10927.65
2959.20498	10889.65
2961.65895	10845.85
2964.11142	10830.35
2966.56239	10805.75
2969.01186	10794.75
2971.45984	10749.65
2973.90632	10725.15
2976.35131	10703.85
2978.7948	10652.85
2981.23681	10590.05
2983.67732	10577.45
2986.11635	10520.85
2988.55388	10494.75
2990.98993	10438.85
2993.4245	10436.85
2995.85758	10407.55
2998.28917	10400.65
3000.71928	10389.85
3003.14791	10383.25
3005.57506	10376.85
3008.00073	10333.35
3010.42493	10353.65
3012.84764	10292.25
3015.26888	10285.05
3017.68865	10238.85
3020.10694	10235.15
3022.52376	10218.05
3024.9391	10210.25
3027.35298	10205.65
3029.76539	10180.15
3032.17632	10176.75
3034.5858	10146.55
3036.9938	10142.75
3039.40034	10128.15
3041.80542	10132.85
3044.20903	10092.05
3046.61118	10111.65
3049.01187	10077.25
3051.4111	10075.65
3053.80888	10039.75
3056.20519	10019.85
3058.60005	9977.35
3060.99345	9985.35
3063.3854	9961.15
3065.7759	9915.55
3068.16494	9919.75
3070.55254	9872.65
3072.93868	9854.55
3075.32338	9823.15
3077.70662	9792.55
3080.08842	9771.95
3082.46878	9782.55
3084.84769	9764.25
3087.22515	9769.15
3089.60118	9750.95
3091.97576	9741.35
3094.3489	9757.45
3096.72061	9709.35
3099.09087	9730.35
3101.4597	9688.25
3103.82709	9696.85
3106.19305	9678.85
3108.55757	9682.25
3110.92066	9648.45
3113.28232	9616.85
3115.64255	9557.75
3118.00134	9566.45
3120.35871	9573.85
3122.71466	9567.65
3125.06917	9521.85
3127.42226	9507.65
3129.77393	9509.15
3132.12417	9520.05
3134.47299	9545.85
3136.82039	9504.65
3139.16636	9521.35
3141.51092	9501.65
3143.85406	9496.65
3146.19579	9519.75
3148.53609	9509.75
3150.87499	9499.15
3153.21246	9503.15
3155.54853	9534.15
3157.88318	9496.65
3160.21642	9485.95
3162.54826	9484.65
3164.87868	9470.75
3167.2077	9481.05
3169.5353	9478.55
3171.86151	9464.85
3174.18631	9474.95
3176.5097	9453.15
3178.83169	9459.15
3181.15228	9437.45
3183.47147	9441.25
3185.78926	9447.05
3188.10565	9408.95
3190.42065	9419.15
3192.73424	9435.95
3195.04645	9417.45
3197.35725	9414.35
3199.66667	9421.95
3201.97469	9431.35
3204.28132	9376.75
3206.58656	9383.35
3208.8904	9398.15
3211.19287	9379.65
3213.49394	9371.05
3215.79363	9386.05
3218.09193	9369.85
3220.38884	9379.55
3222.68438	9389.65
3224.97853	9364.95
3227.2713	9388.45
3229.56269	9357.25
3231.8527	9355.35
3234.14133	9367.85
3236.42858	9349.55
3238.71446	9354.85
3240.99896	9318.45
3243.28209	9360.95
3245.56384	9344.25
3247.84423	9329.85
3250.12324	9320.55
3252.40088	9308.15
3254.67715	9276.45
3256.95205	9237.65
3259.22558	9258.75
3261.49775	9211.75
3263.76855	9191.75
3266.03799	9191.35
3268.30606	9183.65
3270.57277	9147.25
3272.83812	9146.55
3275.10211	9118.35
3277.36474	9112.05
3279.62601	9125.25
3281.88593	9148.95
3284.14448	9140.05
3286.40168	9135.95
3288.65753	9117.55
3290.91202	9108.25
3293.16516	9098.25
3295.41695	9071.65
3297.66738	9013.05
3299.91647	8969.35
3302.16421	8907.45
3304.4106	8879.55
3306.65564	8841.45
3308.89933	8746.35
3311.14169	8681.15
3313.38269	8625.95
3315.62236	8579.95
3317.86068	8521.65
3320.09766	8438.65
3322.3333	8352.85
3324.5676	8351.65
3326.80056	8226.35
3329.03219	8191.15
3331.26248	2.85
3333.49143	-0.55
3335.71905	-1.45
