Data from AgNPs_FTO_APTES_UA_2uM_CRN_10uM_R6G_10uM_NaF_0.1M_Addition_RamanShift__30__13-53-05-176.txt Node

Date: Wed Feb 02 13:53:05 GMT 2022
User: TCL
Spectrometer: QEP01345
Trigger mode: 4
Integration Time (sec): 7.000000E0
Scans to average: 10
Electric dark correction enabled: true
Nonlinearity correction enabled: false
Boxcar width: 0
XAxis mode: Raman Shifts
Number of Pixels in Spectrum: 1044
>>>>>Begin Spectral Data<<<<<
46.04893	0.95
50.45542	-0.85
54.85868	-0.05
59.25871	0.65
63.6555	52.45
68.04907	56.75
72.43941	60.75
76.82654	68.25
81.21044	70.35
85.59113	76.95
89.96862	77.55
94.34289	81.25
98.71396	84.05
103.08183	88.05
107.4465	89.45
111.80798	90.95
116.16626	90.35
120.52136	92.85
124.87327	92.35
129.222	93.45
133.56755	101.95
137.90993	106.85
142.24913	115.85
146.58517	129.15
150.91804	140.25
155.24774	166.35
159.57429	201.25
163.89768	253.15
168.21792	328.45
172.53501	442.75
176.84895	602.65
181.15975	840.15
185.46741	1166.25
189.77193	1601.15
194.07331	2147.65
198.37157	2747.65
202.6667	3381.75
206.9587	4021.05
211.24758	4661.35
215.53334	5355.05
219.81599	6113.45
224.09553	6990.55
228.37195	7964.15
232.64527	9027.95
236.91549	10052.25
241.18261	10924.15
245.44663	11623.55
249.70755	12155.95
253.96539	12584.75
258.22014	13000.45
262.4718	13418.55
266.72039	13729.15
270.96589	13950.95
275.20832	13996.35
279.44768	13918.45
283.68397	13759.95
287.91719	13727.85
292.14735	13820.25
296.37445	14207.65
300.59849	14768.65
304.81948	15498.25
309.03742	16047.65
313.25231	16047.25
317.46415	15230.85
321.67296	13824.15
325.87872	12604.75
330.08145	12017.25
334.28114	11937.85
338.47781	12150.55
342.67145	12525.65
346.86207	13182.55
351.04966	14093.05
355.23424	15160.25
359.4158	15948.85
363.59435	16283.85
367.76989	16262.65
371.94243	16082.75
376.11196	15851.35
380.27849	15651.95
384.44203	15404.85
388.60257	15110.25
392.76012	14977.45
396.91468	15193.75
401.06626	15673.45
405.21485	16042.05
409.36047	15718.65
413.50311	14749.85
417.64277	13814.55
421.77947	13300.65
425.9132	13038.55
430.04396	12977.45
434.17176	13035.85
438.2966	13132.65
442.41849	13441.35
446.53742	13830.95
450.6534	14240.45
454.76644	14511.45
458.87653	14532.95
462.98368	14357.65
467.08789	14113.15
471.18916	13794.65
475.2875	13374.05
479.38291	13058.15
483.4754	12785.95
487.56496	12598.35
491.6516	12508.85
495.73531	12505.95
499.81612	12553.65
503.89401	12741.05
507.96899	12936.45
512.04106	13105.25
516.11023	13304.65
520.1765	13461.95
524.23987	13356.65
528.30034	13048.95
532.35792	12662.45
536.41261	12260.55
540.46441	11926.55
544.51333	11779.85
548.55936	11908.35
552.60252	12262.55
556.64279	12703.75
560.6802	12904.75
564.71473	13259.05
568.7464	13940.55
572.7752	14421.55
576.80114	13979.45
580.82422	13467.55
584.84444	13201.25
588.86181	12994.85
592.87633	12887.55
596.888	13032.15
600.89682	13658.55
604.9028	15702.95
608.90594	21000.05
612.90624	27963.45
616.90371	26831.55
620.89834	17647.85
624.89015	13193.05
628.87913	12366.35
632.86528	12490.95
636.84862	12759.35
640.82913	12574.75
644.80683	11870.45
648.78172	11383.45
652.75379	11490.05
656.72306	12157.55
660.68952	12971.45
664.65319	12790.15
668.61405	11959.45
672.57211	11545.65
676.52738	11471.65
680.47986	11475.55
684.42955	11317.55
688.37646	11245.05
692.32058	11291.85
696.26192	11446.35
700.20048	11649.85
704.13626	11872.05
708.06928	11910.25
711.99952	11753.05
715.927	11662.95
719.85171	11643.45
723.77365	11583.05
727.69284	11365.95
731.60928	11234.25
735.52295	11198.25
739.43388	11240.95
743.34206	11310.55
747.24749	11384.45
751.15017	11547.25
755.05012	11859.25
758.94733	12676.95
762.8418	14456.55
766.73354	17517.75
770.62254	20754.65
774.50882	22211.85
778.39237	21027.65
782.27321	17775.85
786.15132	14554.15
790.02671	12678.15
793.89938	11841.15
797.76935	11430.25
801.6366	11286.75
805.50115	11176.75
809.36299	11072.85
813.22213	10975.45
817.07857	10936.75
820.93231	10947.45
824.78336	10978.25
828.63172	11062.05
832.47738	11116.95
836.32036	11056.35
840.16066	10964.55
843.99827	10863.65
847.8332	10803.35
851.66546	10766.75
855.49504	10771.45
859.32195	10725.85
863.1462	10629.45
866.96777	10580.95
870.78668	10555.85
874.60293	10575.55
878.41652	10635.85
882.22745	10693.65
886.03573	10754.55
889.84136	10730.05
893.64433	10636.65
897.44466	10617.05
901.24235	10618.95
905.0374	10612.25
908.8298	10548.85
912.61957	10541.55
916.40671	10666.05
920.19121	10779.85
923.97308	10921.05
927.75233	11059.05
931.52895	11170.95
935.30295	10975.05
939.07433	10525.75
942.84309	10170.35
946.60924	9954.55
950.37278	9846.75
954.13371	9782.05
957.89203	9736.95
961.64774	9684.35
965.40086	9651.55
969.15137	9621.25
972.89929	9583.95
976.64461	9552.45
980.38733	9561.65
984.12747	9570.05
987.86502	9616.25
991.59999	9696.35
995.33237	9800.55
999.06217	10048.75
1002.78939	10372.15
1006.51404	10702.05
1010.23611	11008.85
1013.95561	11224.35
1017.67255	11186.15
1021.38692	10948.75
1025.09872	10730.95
1028.80796	10601.55
1032.51465	10633.55
1036.21877	10784.25
1039.92035	10986.65
1043.61937	11052.55
1047.31584	10994.55
1051.00976	10900.05
1054.70114	10882.15
1058.38998	10867.05
1062.07627	10964.95
1065.76003	11087.15
1069.44126	11247.95
1073.11995	11393.65
1076.79611	11569.85
1080.46974	11791.25
1084.14085	12144.35
1087.80943	12587.95
1091.47549	12780.15
1095.13903	12539.45
1098.80005	11987.05
1102.45857	11463.75
1106.11456	11179.65
1109.76805	11156.25
1113.41903	11403.55
1117.06751	11844.25
1120.71348	12468.45
1124.35696	13169.55
1127.99793	13852.75
1131.63641	13847.75
1135.2724	13046.35
1138.90589	12282.45
1142.5369	11846.85
1146.16542	11575.85
1149.79145	11402.25
1153.415	11441.95
1157.03607	11610.45
1160.65467	11928.65
1164.27079	12510.65
1167.88443	13315.75
1171.49561	14674.55
1175.10432	16992.25
1178.71056	19982.75
1182.31434	21956.65
1185.91565	22325.65
1189.51451	21592.55
1193.11091	20068.15
1196.70485	18310.15
1200.29634	16916.65
1203.88538	15847.15
1207.47197	14678.85
1211.05612	13656.95
1214.63782	13120.25
1218.21708	12910.85
1221.79391	12959.05
1225.36829	13127.45
1228.94024	13299.75
1232.50976	13503.55
1236.07685	13588.85
1239.6415	13566.75
1243.20374	13501.65
1246.76355	13521.85
1250.32093	13698.05
1253.8759	14018.25
1257.42845	14536.65
1260.97859	15069.65
1264.52631	15668.35
1268.07163	16225.25
1271.61453	16813.45
1275.15503	17273.75
1278.69312	17429.05
1282.22882	17505.75
1285.76211	17906.75
1289.29301	18591.65
1292.82151	19220.35
1296.34761	19854.35
1299.87133	20799.25
1303.39266	22579.65
1306.9116	25436.75
1310.42815	28832.25
1313.94233	31194.35
1317.45412	31078.65
1320.96354	28963.45
1324.47058	26503.85
1327.97525	24389.55
1331.47754	23044.45
1334.97747	22343.35
1338.47502	22257.95
1341.97022	22614.35
1345.46305	23279.05
1348.95352	24488.45
1352.44163	26359.15
1355.92738	29113.75
1359.41078	33606.05
1362.89183	38274.15
1366.37053	37745.45
1369.84688	31803.55
1373.32088	25622.35
1376.79254	21742.75
1380.26186	19809.95
1383.72883	18766.85
1387.19347	17990.65
1390.65578	17074.95
1394.11575	16411.85
1397.57339	16030.35
1401.0287	16091.55
1404.48168	16295.95
1407.93234	16576.95
1411.38068	16757.15
1414.82669	16630.05
1418.27039	16347.05
1421.71177	15984.85
1425.15083	15519.35
1428.58758	15220.25
1432.02203	15137.85
1435.45416	15263.25
1438.88399	15338.15
1442.31151	15358.35
1445.73673	15416.75
1449.15965	15561.65
1452.58027	15542.05
1455.9986	15442.85
1459.41463	15414.45
1462.82837	15556.45
1466.23982	15924.65
1469.64898	16335.55
1473.05586	16658.15
1476.46045	16881.95
1479.86276	17200.35
1483.26279	17704.25
1486.66054	18216.15
1490.05602	18944.85
1493.44922	19958.05
1496.84016	21506.65
1500.22882	23933.25
1503.61521	27135.95
1506.99934	30754.35
1510.38121	34336.55
1513.76081	36403.05
1517.13816	35092.45
1520.51324	30821.65
1523.88607	26152.65
1527.25665	22812.75
1530.62498	20802.75
1533.99105	19576.95
1537.35488	18772.95
1540.71647	18194.05
1544.07581	17833.35
1547.4329	17604.35
1550.78776	17442.25
1554.14038	17375.75
1557.49077	17574.55
1560.83892	18050.15
1564.18484	18741.05
1567.52853	19431.25
1570.86999	19956.15
1574.20922	20281.25
1577.54624	20090.65
1580.88103	19044.05
1584.2136	17551.95
1587.54395	16799.85
1590.87208	17026.75
1594.19801	18079.55
1597.52172	19380.15
1600.84321	19883.35
1604.16251	19006.65
1607.47959	17550.75
1610.79447	16077.45
1614.10715	14698.15
1617.41763	13602.15
1620.7259	12887.65
1624.03199	12542.95
1627.33587	12590.65
1630.63757	12922.85
1633.93707	13660.65
1637.23439	14847.55
1640.52951	16517.45
1643.82246	18736.75
1647.11321	21345.85
1650.40179	23465.95
1653.68819	23240.85
1656.97241	20163.65
1660.25446	16399.45
1663.53433	13540.35
1666.81203	11830.95
1670.08756	10810.45
1673.36092	10210.05
1676.63211	9856.75
1679.90115	9567.05
1683.16801	9375.15
1686.43272	9248.65
1689.69527	9142.55
1692.95567	9077.55
1696.2139	9039.35
1699.46999	9026.05
1702.72392	8955.05
1705.97571	8948.65
1709.22535	8922.35
1712.47284	8904.45
1715.71819	8891.65
1718.96139	8903.65
1722.20246	8880.65
1725.44139	8847.25
1728.67818	8768.45
1731.91284	8685.45
1735.14537	8596.05
1738.37576	8498.85
1741.60403	8478.65
1744.83017	8416.75
1748.05418	8407.65
1751.27607	8362.75
1754.49584	8352.35
1757.71349	8348.95
1760.92903	8348.65
1764.14244	8315.25
1767.35375	8266.85
1770.56294	8266.75
1773.77002	8234.05
1776.97499	8198.35
1780.17785	8121.55
1783.37861	8111.55
1786.57727	8075.85
1789.77382	8063.35
1792.96828	8056.75
1796.16064	8036.45
1799.3509	8018.05
1802.53907	8003.45
1805.72514	7962.85
1808.90913	7948.15
1812.09102	7901.95
1815.27083	7902.65
1818.44856	7886.75
1821.6242	7863.05
1824.79776	7833.75
1827.96924	7831.05
1831.13864	7830.55
1834.30597	7800.75
1837.47122	7807.05
1840.6344	7801.45
1843.7955	7813.15
1846.95454	7789.65
1850.11151	7800.55
1853.26642	7794.45
1856.41926	7804.95
1859.57004	7808.95
1862.71876	7788.35
1865.86542	7817.95
1869.01003	7812.65
1872.15258	7808.65
1875.29308	7855.25
1878.43152	7840.05
1881.56792	7858.95
1884.70227	7894.35
1887.83457	7902.85
1890.96482	7912.15
1894.09304	7893.25
1897.21921	7929.35
1900.34335	7931.55
1903.46544	7926.45
1906.58551	7918.45
1909.70353	7933.65
1912.81953	7943.85
1915.93349	7949.25
1919.04543	7932.05
1922.15534	7949.25
1925.26322	7918.25
1928.36908	7872.85
1931.47292	7817.05
1934.57473	7752.35
1937.67453	7697.55
1940.77232	7627.95
1943.86808	7571.25
1946.96184	7526.75
1950.05358	7492.05
1953.14331	7443.05
1956.23103	7388.35
1959.31675	7363.85
1962.40046	7332.35
1965.48217	7327.75
1968.56188	7291.75
1971.63959	7275.45
1974.7153	7249.65
1977.78901	7233.65
1980.86073	7186.35
1983.93046	7148.35
1986.99819	7123.05
1990.06394	7113.85
1993.1277	7076.25
1996.18947	7040.05
1999.24925	7019.45
2002.30706	7008.45
2005.36288	6977.05
2008.41672	6949.95
2011.46859	6934.95
2014.51848	6889.55
2017.56639	6885.45
2020.61233	6873.85
2023.6563	6839.85
2026.6983	6818.35
2029.73833	6802.75
2032.7764	6788.65
2035.8125	6781.95
2038.84664	6745.05
2041.87881	6755.45
2044.90903	6713.35
2047.93729	6704.25
2050.96359	6710.75
2053.98794	6693.55
2057.01034	6686.65
2060.03078	6663.45
2063.04927	6651.95
2066.06582	6654.85
2069.08042	6637.65
2072.09307	6633.55
2075.10378	6592.15
2078.11255	6619.25
2081.11938	6617.95
2084.12426	6612.05
2087.12722	6603.85
2090.12824	6602.65
2093.12732	6578.75
2096.12447	6603.15
2099.11969	6590.75
2102.11299	6606.05
2105.10435	6596.85
2108.09379	6586.15
2111.08131	6594.35
2114.0669	6590.55
2117.05057	6601.15
2120.03233	6613.25
2123.01216	6594.25
2125.99008	6610.75
2128.96609	6612.65
2131.94018	6607.25
2134.91236	6609.25
2137.88263	6623.85
2140.851	6613.45
2143.81746	6608.15
2146.78201	6593.15
2149.74466	6606.95
2152.7054	6603.55
2155.66425	6566.05
2158.6212	6578.35
2161.57625	6572.35
2164.52941	6565.45
2167.48067	6556.65
2170.43004	6551.65
2173.37752	6552.25
2176.32311	6557.45
2179.26681	6546.65
2182.20863	6530.55
2185.14856	6557.45
2188.08661	6533.95
2191.02278	6553.75
2193.95707	6529.05
2196.88948	6527.65
2199.82001	6521.85
2202.74867	6504.65
2205.67545	6493.85
2208.60037	6495.85
2211.52341	6468.35
2214.44458	6451.45
2217.36388	6449.85
2220.28132	6442.35
2223.1969	6429.75
2226.11061	6392.05
2229.02246	6376.25
2231.93245	6368.45
2234.84058	6349.25
2237.74686	6341.75
2240.65128	6331.85
2243.55385	6327.95
2246.45456	6326.05
2249.35343	6315.45
2252.25044	6296.05
2255.14561	6316.55
2258.03893	6293.45
2260.93041	6318.55
2263.82004	6278.65
2266.70783	6283.25
2269.59378	6254.45
2272.4779	6245.35
2275.36017	6222.05
2278.24061	6220.85
2281.11922	6195.95
2283.996	6168.55
2286.87094	6162.15
2289.74405	6151.35
2292.61534	6127.95
2295.4848	6131.75
2298.35243	6114.15
2301.21824	6097.85
2304.08223	6111.85
2306.94439	6084.85
2309.80474	6098.75
2312.66327	6081.75
2315.51999	6084.15
2318.37489	6071.95
2321.22797	6075.65
2324.07925	6052.35
2326.92871	6051.95
2329.77637	6055.65
2332.62222	6044.15
2335.46626	6030.95
2338.3085	6029.25
2341.14893	6034.95
2343.98756	6035.25
2346.8244	6028.35
2349.65943	6035.25
2352.49267	6053.05
2355.32411	6054.75
2358.15376	6066.15
2360.98161	6086.45
2363.80768	6096.65
2366.63195	6073.75
2369.45444	6098.15
2372.27514	6094.75
2375.09405	6086.95
2377.91118	6045.95
2380.72652	6023.15
2383.54009	6000.25
2386.35187	5976.55
2389.16188	5953.35
2391.97011	5928.15
2394.77657	5907.65
2397.58125	5871.85
2400.38416	5873.15
2403.18529	5848.25
2405.98466	5841.05
2408.78226	5830.55
2411.57809	5820.55
2414.37216	5808.35
2417.16446	5792.65
2419.955	5810.25
2422.74378	5796.05
2425.5308	5777.15
2428.31606	5801.55
2431.09956	5788.05
2433.88131	5766.85
2436.6613	5785.75
2439.43954	5783.45
2442.21603	5764.85
2444.99077	5764.15
2447.76377	5776.85
2450.53501	5777.85
2453.30451	5778.25
2456.07226	5794.05
2458.83827	5784.45
2461.60254	5793.85
2464.36507	5763.95
2467.12586	5768.75
2469.88492	5765.55
2472.64224	5773.55
2475.39782	5751.35
2478.15167	5793.85
2480.90379	5796.55
2483.65417	5819.95
2486.40283	5808.85
2489.14976	5827.55
2491.89497	5844.45
2494.63845	5850.95
2497.3802	5856.15
2500.12024	5841.25
2502.85855	5825.15
2505.59514	5811.95
2508.33002	5796.55
2511.06318	5777.35
2513.79462	5731.95
2516.52435	5708.15
2519.25237	5693.65
2521.97867	5676.45
2524.70327	5658.55
2527.42616	5637.55
2530.14734	5626.85
2532.86681	5614.35
2535.58458	5616.55
2538.30065	5614.15
2541.01501	5603.35
2543.72768	5602.15
2546.43864	5600.15
2549.14791	5597.05
2551.85548	5603.75
2554.56136	5590.15
2557.26554	5604.95
2559.96803	5582.85
2562.66883	5582.35
2565.36794	5574.45
2568.06536	5561.95
2570.7611	5539.75
2573.45514	5523.15
2576.14751	5527.35
2578.83819	5513.05
2581.52719	5513.75
2584.21451	5516.35
2586.90015	5506.35
2589.58411	5489.85
2592.2664	5479.55
2594.94701	5499.15
2597.62594	5507.15
2600.30321	5475.25
2602.9788	5493.75
2605.65273	5480.15
2608.32498	5480.25
2610.99557	5475.25
2613.66449	5460.75
2616.33175	5476.75
2618.99734	5470.05
2621.66128	5474.25
2624.32355	5449.85
2626.98416	5469.65
2629.64311	5444.05
2632.30041	5441.65
2634.95605	5421.85
2637.61004	5432.65
2640.26238	5407.15
2642.91306	5393.85
2645.56209	5385.55
2648.20948	5396.65
2650.85521	5389.95
2653.4993	5380.45
2656.14175	5373.85
2658.78255	5386.15
2661.42171	5391.95
2664.05923	5403.75
2666.6951	5392.35
2669.32934	5415.35
2671.96194	5412.35
2674.59291	5426.65
2677.22224	5443.45
2679.84993	5417.15
2682.476	5426.25
2685.10043	5442.65
2687.72324	5429.85
2690.34441	5434.05
2692.96396	5441.25
2695.58188	5424.75
2698.19818	5436.25
2700.81285	5434.55
2703.4259	5444.15
2706.03733	5470.65
2708.64714	5449.55
2711.25533	5458.85
2713.86191	5437.25
2716.46687	5457.75
2719.07021	5450.05
2721.67194	5458.85
2724.27206	5439.25
2726.87057	5453.65
2729.46747	5445.05
2732.06276	5439.85
2734.65644	5418.55
2737.24852	5405.05
2739.83899	5408.65
2742.42786	5408.15
2745.01513	5390.65
2747.60079	5382.05
2750.18486	5368.75
2752.76733	5384.45
2755.3482	5371.55
2757.92747	5357.35
2760.50515	5357.15
2763.08123	5340.95
2765.65573	5334.85
2768.22863	5332.65
2770.79994	5332.75
2773.36967	5326.55
2775.9378	5331.95
2778.50435	5321.65
2781.06932	5314.95
2783.6327	5318.65
2786.1945	5322.45
2788.75471	5315.15
2791.31335	5300.65
2793.87041	5303.55
2796.42589	5292.15
2798.97979	5298.35
2801.53212	5300.25
2804.08288	5306.65
2806.63206	5284.65
2809.17967	5289.95
2811.72571	5303.25
2814.27018	5302.75
2816.81308	5315.15
2819.35442	5313.55
2821.89419	5338.25
2824.43239	5339.65
2826.96904	5344.95
2829.50412	5350.25
2832.03763	5355.85
2834.56959	5361.95
2837.1	5354.85
2839.62884	5385.95
2842.15613	5428.85
2844.68186	5500.05
2847.20604	5577.75
2849.72867	5642.35
2852.24974	5670.95
2854.76927	5661.95
2857.28724	5670.75
2859.80367	5658.35
2862.31855	5634.05
2864.83189	5608.55
2867.34368	5581.85
2869.85393	5588.25
2872.36264	5585.35
2874.8698	5586.35
2877.37543	5587.15
2879.87952	5568.25
2882.38207	5568.45
2884.88308	5560.35
2887.38256	5549.05
2889.88051	5563.65
2892.37692	5569.15
2894.8718	5545.85
2897.36515	5557.85
2899.85698	5547.95
2902.34727	5578.95
2904.83604	5570.65
2907.32328	5574.15
2909.809	5585.55
2912.29319	5561.35
2914.77587	5557.45
2917.25702	5549.65
2919.73665	5537.75
2922.21476	5538.55
2924.69136	5533.25
2927.16644	5540.45
2929.64	5519.05
2932.11205	5513.95
2934.58258	5481.55
2937.05161	5468.25
2939.51912	5430.95
2941.98513	5383.45
2944.44962	5337.05
2946.91261	5279.85
2949.37409	5272.15
2951.83407	5224.75
2954.29254	5214.35
2956.74951	5187.15
2959.20498	5170.65
2961.65895	5134.35
2964.11142	5138.35
2966.56239	5105.05
2969.01186	5116.25
2971.45984	5086.45
2973.90632	5045.85
2976.35131	5024.75
2978.7948	5025.65
2981.23681	4996.95
2983.67732	4995.15
2986.11635	4980.35
2988.55388	4950.05
2990.98993	4934.75
2993.4245	4923.95
2995.85758	4905.45
2998.28917	4880.85
3000.71928	4893.35
3003.14791	4872.45
3005.57506	4883.25
3008.00073	4841.55
3010.42493	4842.95
3012.84764	4836.35
3015.26888	4836.35
3017.68865	4817.45
3020.10694	4814.65
3022.52376	4811.15
3024.9391	4790.75
3027.35298	4793.15
3029.76539	4774.35
3032.17632	4767.95
3034.5858	4757.15
3036.9938	4746.85
3039.40034	4743.95
3041.80542	4734.25
3044.20903	4714.75
3046.61118	4716.05
3049.01187	4709.35
3051.4111	4702.25
3053.80888	4685.05
3056.20519	4683.95
3058.60005	4668.75
3060.99345	4677.25
3063.3854	4659.95
3065.7759	4648.45
3068.16494	4633.25
3070.55254	4623.15
3072.93868	4611.15
3075.32338	4575.65
3077.70662	4596.75
3080.08842	4555.65
3082.46878	4564.25
3084.84769	4542.25
3087.22515	4532.85
3089.60118	4522.55
3091.97576	4511.95
3094.3489	4506.35
3096.72061	4489.05
3099.09087	4498.95
3101.4597	4483.75
3103.82709	4479.25
3106.19305	4470.75
3108.55757	4478.55
3110.92066	4452.25
3113.28232	4445.85
3115.64255	4439.55
3118.00134	4419.95
3120.35871	4410.85
3122.71466	4411.15
3125.06917	4414.75
3127.42226	4406.75
3129.77393	4418.95
3132.12417	4409.55
3134.47299	4414.85
3136.82039	4409.45
3139.16636	4411.25
3141.51092	4426.95
3143.85406	4408.75
3146.19579	4423.75
3148.53609	4428.15
3150.87499	4424.75
3153.21246	4429.45
3155.54853	4435.55
3157.88318	4433.85
3160.21642	4438.65
3162.54826	4425.35
3164.87868	4428.05
3167.2077	4410.85
3169.5353	4428.55
3171.86151	4426.85
3174.18631	4416.85
3176.5097	4428.85
3178.83169	4415.85
3181.15228	4439.85
3183.47147	4418.25
3185.78926	4423.25
3188.10565	4413.65
3190.42065	4422.95
3192.73424	4440.15
3195.04645	4414.75
3197.35725	4431.65
3199.66667	4424.85
3201.97469	4421.65
3204.28132	4433.55
3206.58656	4448.85
3208.8904	4444.35
3211.19287	4457.15
3213.49394	4450.35
3215.79363	4446.05
3218.09193	4456.15
3220.38884	4460.75
3222.68438	4464.65
3224.97853	4457.85
3227.2713	4452.45
3229.56269	4437.55
3231.8527	4437.35
3234.14133	4440.35
3236.42858	4423.95
3238.71446	4412.25
3240.99896	4394.75
3243.28209	4401.25
3245.56384	4391.45
3247.84423	4385.95
3250.12324	4399.95
3252.40088	4387.95
3254.67715	4380.95
3256.95205	4369.45
3259.22558	4356.95
3261.49775	4363.35
3263.76855	4366.75
3266.03799	4336.05
3268.30606	4333.05
3270.57277	4322.85
3272.83812	4325.15
3275.10211	4313.65
3277.36474	4318.05
3279.62601	4309.85
3281.88593	4306.25
3284.14448	4301.25
3286.40168	4309.75
3288.65753	4294.95
3290.91202	4286.45
3293.16516	4273.85
3295.41695	4262.15
3297.66738	4245.05
3299.91647	4217.25
3302.16421	4212.15
3304.4106	4183.05
3306.65564	4164.45
3308.89933	4135.65
3311.14169	4096.45
3313.38269	4069.15
3315.62236	4022.95
3317.86068	4012.35
3320.09766	3968.75
3322.3333	3917.65
3324.5676	3920.35
3326.80056	3860.05
3329.03219	3843.05
3331.26248	0.65
3333.49143	-1.35
3335.71905	-0.65
