Data from AgNPs_FTO_APTES_UA_2uM_CRN_20uM_R6G_10uM_NaF_0.1M_Addition_RamanShift__31__14-33-55-224.txt Node

Date: Wed Feb 02 14:33:55 GMT 2022
User: TCL
Spectrometer: QEP01345
Trigger mode: 4
Integration Time (sec): 7.000000E0
Scans to average: 10
Electric dark correction enabled: true
Nonlinearity correction enabled: false
Boxcar width: 0
XAxis mode: Raman Shifts
Number of Pixels in Spectrum: 1044
>>>>>Begin Spectral Data<<<<<
46.04893	-0.15
50.45542	0.45
54.85868	0.05
59.25871	0.05
63.6555	55.35
68.04907	62.45
72.43941	61.75
76.82654	70.35
81.21044	70.25
85.59113	78.55
89.96862	80.05
94.34289	78.95
98.71396	86.25
103.08183	90.75
107.4465	92.35
111.80798	90.45
116.16626	93.45
120.52136	95.85
124.87327	101.15
129.222	98.65
133.56755	107.75
137.90993	108.55
142.24913	113.75
146.58517	128.15
150.91804	138.25
155.24774	167.05
159.57429	195.75
163.89768	244.75
168.21792	320.65
172.53501	428.25
176.84895	586.65
181.15975	813.65
185.46741	1130.15
189.77193	1552.45
194.07331	2058.65
198.37157	2642.45
202.6667	3261.35
206.9587	3862.95
211.24758	4497.05
215.53334	5177.25
219.81599	5912.05
224.09553	6778.05
228.37195	7731.75
232.64527	8747.75
236.91549	9764.75
241.18261	10609.45
245.44663	11247.25
249.70755	11701.05
253.96539	12076.65
258.22014	12452.65
262.4718	12802.15
266.72039	13131.05
270.96589	13334.25
275.20832	13359.85
279.44768	13293.85
283.68397	13177.45
287.91719	13143.35
292.14735	13282.25
296.37445	13704.05
300.59849	14360.45
304.81948	15163.25
309.03742	15788.85
313.25231	15796.35
317.46415	14875.95
321.67296	13374.55
325.87872	12064.45
330.08145	11434.75
334.28114	11310.05
338.47781	11533.65
342.67145	11917.95
346.86207	12589.25
351.04966	13561.15
355.23424	14688.45
359.4158	15507.15
363.59435	15782.85
367.76989	15765.65
371.94243	15589.45
376.11196	15317.95
380.27849	15125.15
384.44203	14831.85
388.60257	14483.25
392.76012	14345.05
396.91468	14539.45
401.06626	15013.85
405.21485	15388.85
409.36047	14980.05
413.50311	13939.85
417.64277	12934.55
421.77947	12359.35
425.9132	12099.85
430.04396	12040.65
434.17176	12063.95
438.2966	12192.55
442.41849	12450.95
446.53742	12847.65
450.6534	13213.65
454.76644	13445.25
458.87653	13470.25
462.98368	13288.85
467.08789	13076.65
471.18916	12760.25
475.2875	12367.95
479.38291	12035.45
483.4754	11786.85
487.56496	11600.75
491.6516	11495.15
495.73531	11458.05
499.81612	11550.85
503.89401	11739.55
507.96899	11953.65
512.04106	12152.95
516.11023	12389.85
520.1765	12502.55
524.23987	12400.25
528.30034	12065.35
532.35792	11630.95
536.41261	11265.05
540.46441	10908.85
544.51333	10752.45
548.55936	10885.85
552.60252	11238.25
556.64279	11729.65
560.6802	11975.25
564.71473	12253.75
568.7464	13011.05
572.7752	13542.15
576.80114	13069.55
580.82422	12432.55
584.84444	12077.15
588.86181	11869.85
592.87633	11752.35
596.888	11886.05
600.89682	12464.25
604.9028	14572.25
608.90594	20139.25
612.90624	27548.75
616.90371	26512.95
620.89834	16846.45
624.89015	12099.75
628.87913	11213.35
632.86528	11322.75
636.84862	11672.95
640.82913	11479.55
644.80683	10761.15
648.78172	10253.35
652.75379	10351.15
656.72306	11059.15
660.68952	11902.35
664.65319	11704.35
668.61405	10824.95
672.57211	10374.45
676.52738	10323.65
680.47986	10298.35
684.42955	10155.15
688.37646	10070.45
692.32058	10100.05
696.26192	10259.55
700.20048	10478.35
704.13626	10648.55
708.06928	10692.35
711.99952	10536.25
715.927	10469.75
719.85171	10485.05
723.77365	10447.05
727.69284	10274.95
731.60928	10108.45
735.52295	10036.95
739.43388	10054.45
743.34206	10122.95
747.24749	10220.65
751.15017	10360.05
755.05012	10701.35
758.94733	11485.85
762.8418	13378.15
766.73354	16630.05
770.62254	19996.45
774.50882	21601.75
778.39237	20362.95
782.27321	16934.35
786.15132	13525.45
790.02671	11583.05
793.89938	10694.25
797.76935	10321.75
801.6366	10132.95
805.50115	10011.65
809.36299	9917.65
813.22213	9846.15
817.07857	9786.05
820.93231	9793.45
824.78336	9826.45
828.63172	9906.55
832.47738	9941.05
836.32036	9887.15
840.16066	9753.55
843.99827	9675.45
847.8332	9607.05
851.66546	9592.55
855.49504	9588.15
859.32195	9540.75
863.1462	9466.55
866.96777	9399.05
870.78668	9365.25
874.60293	9384.45
878.41652	9431.45
882.22745	9481.25
886.03573	9549.75
889.84136	9523.25
893.64433	9441.95
897.44466	9391.45
901.24235	9410.75
905.0374	9411.25
908.8298	9343.45
912.61957	9340.75
916.40671	9432.05
920.19121	9578.85
923.97308	9720.35
927.75233	9839.65
931.52895	9926.15
935.30295	9762.05
939.07433	9329.05
942.84309	8929.35
946.60924	8706.45
950.37278	8592.65
954.13371	8544.05
957.89203	8493.25
961.64774	8466.85
965.40086	8421.25
969.15137	8403.45
972.89929	8387.55
976.64461	8343.75
980.38733	8332.45
984.12747	8332.95
987.86502	8374.95
991.59999	8461.65
995.33237	8556.95
999.06217	8759.75
1002.78939	9054.35
1006.51404	9339.85
1010.23611	9664.95
1013.95561	9853.15
1017.67255	9780.55
1021.38692	9552.35
1025.09872	9343.45
1028.80796	9190.65
1032.51465	9202.65
1036.21877	9357.85
1039.92035	9559.85
1043.61937	9669.65
1047.31584	9658.85
1051.00976	9611.15
1054.70114	9578.85
1058.38998	9585.65
1062.07627	9667.05
1065.76003	9787.95
1069.44126	9892.85
1073.11995	10066.35
1076.79611	10225.25
1080.46974	10446.55
1084.14085	10845.85
1087.80943	11309.45
1091.47549	11558.15
1095.13903	11304.75
1098.80005	10736.35
1102.45857	10214.45
1106.11456	9950.65
1109.76805	9920.35
1113.41903	10188.25
1117.06751	10646.95
1120.71348	11289.45
1124.35696	12037.05
1127.99793	12722.75
1131.63641	12710.95
1135.2724	11908.05
1138.90589	11064.75
1142.5369	10589.05
1146.16542	10300.25
1149.79145	10162.05
1153.415	10136.95
1157.03607	10323.05
1160.65467	10628.55
1164.27079	11192.45
1167.88443	12048.15
1171.49561	13491.85
1175.10432	15856.75
1178.71056	18918.35
1182.31434	20974.35
1185.91565	21224.55
1189.51451	20355.45
1193.11091	18802.45
1196.70485	16977.95
1200.29634	15635.05
1203.88538	14607.45
1207.47197	13412.75
1211.05612	12332.95
1214.63782	11768.05
1218.21708	11578.55
1221.79391	11590.35
1225.36829	11666.95
1228.94024	11795.95
1232.50976	11960.35
1236.07685	12040.45
1239.6415	11997.05
1243.20374	12019.35
1246.76355	12069.05
1250.32093	12228.95
1253.8759	12535.05
1257.42845	13011.45
1260.97859	13582.65
1264.52631	14177.75
1268.07163	14761.95
1271.61453	15348.95
1275.15503	15757.45
1278.69312	15854.75
1282.22882	15901.85
1285.76211	16267.85
1289.29301	16933.45
1292.82151	17581.15
1296.34761	18255.35
1299.87133	19253.15
1303.39266	21055.25
1306.9116	24040.95
1310.42815	27624.75
1313.94233	30082.95
1317.45412	29860.75
1320.96354	27701.45
1324.47058	25039.95
1327.97525	22746.25
1331.47754	21316.95
1334.97747	20608.35
1338.47502	20469.85
1341.97022	20780.95
1345.46305	21527.35
1348.95352	22913.85
1352.44163	24903.95
1355.92738	27842.35
1359.41078	32643.55
1362.89183	37745.55
1366.37053	37345.95
1369.84688	31010.75
1373.32088	24446.65
1376.79254	20334.55
1380.26186	18349.45
1383.72883	17325.35
1387.19347	16531.45
1390.65578	15672.05
1394.11575	14989.45
1397.57339	14631.05
1401.0287	14614.05
1404.48168	14783.45
1407.93234	14985.85
1411.38068	15083.85
1414.82669	14993.35
1418.27039	14679.25
1421.71177	14307.75
1425.15083	13868.25
1428.58758	13549.35
1432.02203	13451.65
1435.45416	13557.25
1438.88399	13690.55
1442.31151	13719.75
1445.73673	13823.55
1449.15965	13965.65
1452.58027	14011.65
1455.9986	13889.55
1459.41463	13876.15
1462.82837	14057.45
1466.23982	14381.35
1469.64898	14833.45
1473.05586	15140.95
1476.46045	15373.95
1479.86276	15714.55
1483.26279	16157.35
1486.66054	16702.75
1490.05602	17429.85
1493.44922	18416.05
1496.84016	20057.25
1500.22882	22604.25
1503.61521	26028.95
1506.99934	29938.75
1510.38121	33900.35
1513.76081	36349.95
1517.13816	35067.65
1520.51324	30535.95
1523.88607	25414.35
1527.25665	21816.45
1530.62498	19652.15
1533.99105	18299.65
1537.35488	17399.75
1540.71647	16793.85
1544.07581	16432.95
1547.4329	16187.85
1550.78776	16018.75
1554.14038	16011.25
1557.49077	16241.45
1560.83892	16776.45
1564.18484	17499.85
1567.52853	18281.15
1570.86999	18869.15
1574.20922	19185.85
1577.54624	19058.95
1580.88103	17897.35
1584.2136	16278.25
1587.54395	15373.85
1590.87208	15486.65
1594.19801	16427.05
1597.52172	17759.15
1600.84321	18236.35
1604.16251	17383.75
1607.47959	15964.75
1610.79447	14607.75
1614.10715	13272.45
1617.41763	12181.05
1620.7259	11462.85
1624.03199	11108.45
1627.33587	11103.15
1630.63757	11396.95
1633.93707	12109.15
1637.23439	13211.05
1640.52951	14876.45
1643.82246	17246.05
1647.11321	20137.05
1650.40179	22644.65
1653.68819	22618.15
1656.97241	19480.35
1660.25446	15463.45
1663.53433	12456.05
1666.81203	10628.65
1670.08756	9595.25
1673.36092	8981.85
1676.63211	8585.85
1679.90115	8331.25
1683.16801	8136.25
1686.43272	7980.85
1689.69527	7893.15
1692.95567	7808.45
1696.2139	7748.05
1699.46999	7742.45
1702.72392	7708.05
1705.97571	7688.35
1709.22535	7658.45
1712.47284	7629.85
1715.71819	7671.75
1718.96139	7655.85
1722.20246	7615.65
1725.44139	7588.75
1728.67818	7504.05
1731.91284	7419.45
1735.14537	7328.45
1738.37576	7255.55
1741.60403	7215.95
1744.83017	7172.25
1748.05418	7167.65
1751.27607	7124.05
1754.49584	7106.45
1757.71349	7093.65
1760.92903	7093.75
1764.14244	7046.75
1767.35375	7030.55
1770.56294	7003.05
1773.77002	6968.15
1776.97499	6919.45
1780.17785	6882.75
1783.37861	6836.75
1786.57727	6818.95
1789.77382	6788.75
1792.96828	6791.95
1796.16064	6754.65
1799.3509	6759.85
1802.53907	6741.25
1805.72514	6720.05
1808.90913	6675.95
1812.09102	6653.75
1815.27083	6631.25
1818.44856	6622.55
1821.6242	6615.85
1824.79776	6574.95
1827.96924	6573.85
1831.13864	6566.35
1834.30597	6563.15
1837.47122	6543.35
1840.6344	6546.25
1843.7955	6560.15
1846.95454	6519.65
1850.11151	6524.75
1853.26642	6538.55
1856.41926	6529.55
1859.57004	6530.35
1862.71876	6532.35
1865.86542	6535.35
1869.01003	6531.65
1872.15258	6546.65
1875.29308	6550.85
1878.43152	6532.05
1881.56792	6561.65
1884.70227	6578.15
1887.83457	6591.55
1890.96482	6589.15
1894.09304	6603.85
1897.21921	6579.15
1900.34335	6599.25
1903.46544	6600.05
1906.58551	6616.35
1909.70353	6621.55
1912.81953	6642.25
1915.93349	6645.15
1919.04543	6631.25
1922.15534	6639.95
1925.26322	6607.75
1928.36908	6559.05
1931.47292	6542.65
1934.57473	6473.55
1937.67453	6399.75
1940.77232	6353.05
1943.86808	6307.85
1946.96184	6282.15
1950.05358	6220.15
1953.14331	6197.15
1956.23103	6158.35
1959.31675	6121.75
1962.40046	6120.85
1965.48217	6105.15
1968.56188	6067.75
1971.63959	6041.25
1974.7153	6036.35
1977.78901	6019.45
1980.86073	6000.85
1983.93046	5970.25
1986.99819	5942.45
1990.06394	5921.05
1993.1277	5875.45
1996.18947	5852.25
1999.24925	5838.85
2002.30706	5817.55
2005.36288	5790.55
2008.41672	5776.05
2011.46859	5756.55
2014.51848	5730.85
2017.56639	5723.15
2020.61233	5690.45
2023.6563	5674.15
2026.6983	5663.75
2029.73833	5644.05
2032.7764	5635.95
2035.8125	5623.85
2038.84664	5583.95
2041.87881	5606.75
2044.90903	5582.75
2047.93729	5553.85
2050.96359	5577.65
2053.98794	5539.05
2057.01034	5536.35
2060.03078	5522.45
2063.04927	5513.15
2066.06582	5521.35
2069.08042	5508.75
2072.09307	5501.45
2075.10378	5459.85
2078.11255	5476.95
2081.11938	5449.85
2084.12426	5464.55
2087.12722	5476.55
2090.12824	5454.95
2093.12732	5457.75
2096.12447	5461.35
2099.11969	5460.05
2102.11299	5472.85
2105.10435	5451.05
2108.09379	5439.05
2111.08131	5465.55
2114.0669	5446.65
2117.05057	5470.65
2120.03233	5457.55
2123.01216	5457.25
2125.99008	5461.65
2128.96609	5461.45
2131.94018	5466.25
2134.91236	5489.95
2137.88263	5473.45
2140.851	5482.25
2143.81746	5458.75
2146.78201	5477.75
2149.74466	5436.05
2152.7054	5461.15
2155.66425	5425.55
2158.6212	5428.75
2161.57625	5413.05
2164.52941	5410.85
2167.48067	5406.25
2170.43004	5403.95
2173.37752	5405.85
2176.32311	5391.95
2179.26681	5395.35
2182.20863	5397.85
2185.14856	5393.75
2188.08661	5397.35
2191.02278	5394.15
2193.95707	5372.45
2196.88948	5380.45
2199.82001	5376.25
2202.74867	5353.75
2205.67545	5357.45
2208.60037	5342.55
2211.52341	5341.55
2214.44458	5326.35
2217.36388	5310.25
2220.28132	5308.95
2223.1969	5279.35
2226.11061	5263.75
2229.02246	5254.95
2231.93245	5231.95
2234.84058	5242.85
2237.74686	5217.35
2240.65128	5224.65
2243.55385	5212.85
2246.45456	5219.55
2249.35343	5199.05
2252.25044	5187.45
2255.14561	5207.75
2258.03893	5195.55
2260.93041	5197.55
2263.82004	5195.75
2266.70783	5161.05
2269.59378	5158.75
2272.4779	5136.85
2275.36017	5124.15
2278.24061	5122.85
2281.11922	5122.65
2283.996	5095.55
2286.87094	5082.15
2289.74405	5053.65
2292.61534	5045.75
2295.4848	5036.65
2298.35243	5015.05
2301.21824	5008.25
2304.08223	5030.25
2306.94439	5016.95
2309.80474	4997.35
2312.66327	5014.85
2315.51999	4996.65
2318.37489	4989.35
2321.22797	4983.35
2324.07925	4970.85
2326.92871	4992.05
2329.77637	4981.45
2332.62222	4959.75
2335.46626	4963.35
2338.3085	4959.75
2341.14893	4969.65
2343.98756	4954.75
2346.8244	4961.65
2349.65943	4968.75
2352.49267	4986.05
2355.32411	5000.15
2358.15376	5011.25
2360.98161	5021.15
2363.80768	5039.15
2366.63195	5053.35
2369.45444	5069.65
2372.27514	5050.05
2375.09405	5042.65
2377.91118	5027.15
2380.72652	4996.25
2383.54009	4962.35
2386.35187	4944.35
2389.16188	4891.35
2391.97011	4885.05
2394.77657	4855.65
2397.58125	4844.45
2400.38416	4839.45
2403.18529	4813.85
2405.98466	4806.05
2408.78226	4790.95
2411.57809	4790.75
2414.37216	4782.55
2417.16446	4770.65
2419.955	4768.35
2422.74378	4769.65
2425.5308	4763.95
2428.31606	4776.35
2431.09956	4756.45
2433.88131	4768.25
2436.6613	4756.55
2439.43954	4761.25
2442.21603	4766.05
2444.99077	4772.85
2447.76377	4778.55
2450.53501	4779.15
2453.30451	4779.25
2456.07226	4774.45
2458.83827	4783.05
2461.60254	4774.35
2464.36507	4775.25
2467.12586	4762.95
2469.88492	4773.85
2472.64224	4785.55
2475.39782	4776.55
2478.15167	4783.95
2480.90379	4790.65
2483.65417	4814.15
2486.40283	4816.25
2489.14976	4835.45
2491.89497	4848.75
2494.63845	4871.15
2497.3802	4877.45
2500.12024	4838.35
2502.85855	4828.75
2505.59514	4824.65
2508.33002	4795.25
2511.06318	4757.95
2513.79462	4739.55
2516.52435	4716.85
2519.25237	4696.65
2521.97867	4680.75
2524.70327	4656.35
2527.42616	4651.05
2530.14734	4651.95
2532.86681	4626.75
2535.58458	4643.75
2538.30065	4620.95
2541.01501	4621.45
2543.72768	4618.95
2546.43864	4633.95
2549.14791	4600.85
2551.85548	4622.35
2554.56136	4625.65
2557.26554	4624.45
2559.96803	4617.15
2562.66883	4603.05
2565.36794	4603.95
2568.06536	4606.25
2570.7611	4573.95
2573.45514	4576.05
2576.14751	4563.05
2578.83819	4556.45
2581.52719	4558.95
2584.21451	4545.35
2586.90015	4547.65
2589.58411	4527.35
2592.2664	4532.95
2594.94701	4537.15
2597.62594	4516.35
2600.30321	4513.75
2602.9788	4519.15
2605.65273	4501.55
2608.32498	4521.35
2610.99557	4517.55
2613.66449	4520.35
2616.33175	4518.65
2618.99734	4500.15
2621.66128	4502.55
2624.32355	4497.35
2626.98416	4506.65
2629.64311	4491.05
2632.30041	4491.65
2634.95605	4474.25
2637.61004	4457.05
2640.26238	4451.55
2642.91306	4446.95
2645.56209	4457.85
2648.20948	4450.55
2650.85521	4440.65
2653.4993	4439.95
2656.14175	4448.25
2658.78255	4443.55
2661.42171	4420.25
2664.05923	4453.55
2666.6951	4444.85
2669.32934	4467.25
2671.96194	4483.55
2674.59291	4483.95
2677.22224	4484.55
2679.84993	4479.85
2682.476	4489.85
2685.10043	4480.65
2687.72324	4480.75
2690.34441	4481.45
2692.96396	4481.75
2695.58188	4473.15
2698.19818	4477.65
2700.81285	4481.55
2703.4259	4482.95
2706.03733	4518.95
2708.64714	4498.15
2711.25533	4505.35
2713.86191	4492.25
2716.46687	4502.25
2719.07021	4482.65
2721.67194	4507.65
2724.27206	4503.25
2726.87057	4486.85
2729.46747	4496.05
2732.06276	4495.65
2734.65644	4480.35
2737.24852	4485.65
2739.83899	4471.85
2742.42786	4461.15
2745.01513	4446.05
2747.60079	4430.55
2750.18486	4442.25
2752.76733	4428.35
2755.3482	4421.65
2757.92747	4419.85
2760.50515	4417.35
2763.08123	4410.05
2765.65573	4397.65
2768.22863	4387.65
2770.79994	4370.35
2773.36967	4394.65
2775.9378	4381.85
2778.50435	4396.55
2781.06932	4384.85
2783.6327	4378.65
2786.1945	4391.65
2788.75471	4378.55
2791.31335	4373.85
2793.87041	4375.55
2796.42589	4357.85
2798.97979	4357.35
2801.53212	4373.15
2804.08288	4376.85
2806.63206	4363.15
2809.17967	4369.15
2811.72571	4384.35
2814.27018	4391.35
2816.81308	4392.05
2819.35442	4402.45
2821.89419	4409.35
2824.43239	4417.05
2826.96904	4428.95
2829.50412	4426.25
2832.03763	4433.55
2834.56959	4458.85
2837.1	4456.85
2839.62884	4491.35
2842.15613	4523.45
2844.68186	4589.75
2847.20604	4677.35
2849.72867	4727.35
2852.24974	4754.75
2854.76927	4766.55
2857.28724	4758.35
2859.80367	4737.45
2862.31855	4722.75
2864.83189	4689.25
2867.34368	4692.15
2869.85393	4678.65
2872.36264	4681.55
2874.8698	4677.95
2877.37543	4674.65
2879.87952	4677.85
2882.38207	4672.35
2884.88308	4659.85
2887.38256	4655.65
2889.88051	4651.75
2892.37692	4643.45
2894.8718	4652.05
2897.36515	4664.55
2899.85698	4654.45
2902.34727	4652.85
2904.83604	4672.25
2907.32328	4683.85
2909.809	4664.05
2912.29319	4663.65
2914.77587	4667.05
2917.25702	4643.95
2919.73665	4637.95
2922.21476	4643.15
2924.69136	4637.55
2927.16644	4631.15
2929.64	4638.35
2932.11205	4622.65
2934.58258	4587.25
2937.05161	4573.35
2939.51912	4554.05
2941.98513	4510.95
2944.44962	4476.25
2946.91261	4407.25
2949.37409	4378.55
2951.83407	4356.55
2954.29254	4347.85
2956.74951	4314.55
2959.20498	4311.15
2961.65895	4298.05
2964.11142	4269.95
2966.56239	4257.55
2969.01186	4229.25
2971.45984	4229.05
2973.90632	4221.95
2976.35131	4185.55
2978.7948	4167.45
2981.23681	4154.25
2983.67732	4154.45
2986.11635	4134.25
2988.55388	4114.15
2990.98993	4117.85
2993.4245	4092.25
2995.85758	4088.85
2998.28917	4067.65
3000.71928	4079.65
3003.14791	4062.55
3005.57506	4053.85
3008.00073	4045.15
3010.42493	4016.15
3012.84764	4024.75
3015.26888	4023.75
3017.68865	4007.45
3020.10694	4014.15
3022.52376	4007.85
3024.9391	3989.85
3027.35298	3980.75
3029.76539	3976.95
3032.17632	3958.85
3034.5858	3956.65
3036.9938	3957.95
3039.40034	3938.35
3041.80542	3952.95
3044.20903	3919.25
3046.61118	3929.75
3049.01187	3920.05
3051.4111	3918.95
3053.80888	3894.25
3056.20519	3916.25
3058.60005	3892.75
3060.99345	3894.95
3063.3854	3899.25
3065.7759	3872.75
3068.16494	3866.45
3070.55254	3845.05
3072.93868	3845.15
3075.32338	3839.65
3077.70662	3815.15
3080.08842	3794.25
3082.46878	3778.45
3084.84769	3784.55
3087.22515	3768.75
3089.60118	3760.45
3091.97576	3753.55
3094.3489	3749.25
3096.72061	3737.75
3099.09087	3730.55
3101.4597	3725.55
3103.82709	3729.35
3106.19305	3706.25
3108.55757	3719.15
3110.92066	3709.85
3113.28232	3710.95
3115.64255	3692.85
3118.00134	3690.15
3120.35871	3683.45
3122.71466	3668.95
3125.06917	3671.75
3127.42226	3667.35
3129.77393	3680.45
3132.12417	3680.15
3134.47299	3671.25
3136.82039	3671.85
3139.16636	3687.55
3141.51092	3685.65
3143.85406	3700.15
3146.19579	3672.75
3148.53609	3688.15
3150.87499	3695.55
3153.21246	3694.75
3155.54853	3710.45
3157.88318	3706.95
3160.21642	3709.35
3162.54826	3711.65
3164.87868	3697.25
3167.2077	3707.25
3169.5353	3707.25
3171.86151	3689.45
3174.18631	3703.75
3176.5097	3699.75
3178.83169	3701.25
3181.15228	3697.35
3183.47147	3704.45
3185.78926	3706.85
3188.10565	3712.95
3190.42065	3705.85
3192.73424	3717.35
3195.04645	3701.85
3197.35725	3722.85
3199.66667	3707.45
3201.97469	3724.25
3204.28132	3731.25
3206.58656	3726.15
3208.8904	3728.25
3211.19287	3733.95
3213.49394	3760.75
3215.79363	3744.85
3218.09193	3748.25
3220.38884	3746.65
3222.68438	3759.85
3224.97853	3744.35
3227.2713	3750.15
3229.56269	3725.75
3231.8527	3734.95
3234.14133	3728.55
3236.42858	3719.95
3238.71446	3721.75
3240.99896	3710.05
3243.28209	3716.45
3245.56384	3701.45
3247.84423	3713.15
3250.12324	3710.75
3252.40088	3694.45
3254.67715	3688.15
3256.95205	3686.75
3259.22558	3693.15
3261.49775	3669.95
3263.76855	3679.85
3266.03799	3665.65
3268.30606	3666.85
3270.57277	3653.15
3272.83812	3646.05
3275.10211	3641.35
3277.36474	3643.25
3279.62601	3643.85
3281.88593	3619.15
3284.14448	3638.35
3286.40168	3609.95
3288.65753	3622.25
3290.91202	3607.85
3293.16516	3604.65
3295.41695	3608.35
3297.66738	3597.45
3299.91647	3584.65
3302.16421	3561.65
3304.4106	3542.25
3306.65564	3520.55
3308.89933	3488.75
3311.14169	3459.15
3313.38269	3439.85
3315.62236	3411.15
3317.86068	3376.85
3320.09766	3346.75
3322.3333	3316.25
3324.5676	3314.35
3326.80056	3245.35
3329.03219	3232.95
3331.26248	0.05
3333.49143	-0.55
3335.71905	-0.45
