Data from AgNPs_FTO_APTES_UA_2uM_CRN_50uM_R6G_10uM_NaF_0.1M_Addition_RamanShift__18__14-57-15-252.txt Node

Date: Wed Feb 02 14:57:15 GMT 2022
User: TCL
Spectrometer: QEP01345
Trigger mode: 4
Integration Time (sec): 7.000000E0
Scans to average: 10
Electric dark correction enabled: true
Nonlinearity correction enabled: false
Boxcar width: 0
XAxis mode: Raman Shifts
Number of Pixels in Spectrum: 1044
>>>>>Begin Spectral Data<<<<<
46.04893	0.55
50.45542	0.65
54.85868	-1.25
59.25871	-0.85
63.6555	86.65
68.04907	94.65
72.43941	95.75
76.82654	102.05
81.21044	107.75
85.59113	114.75
89.96862	119.45
94.34289	120.85
98.71396	123.15
103.08183	129.25
107.4465	130.35
111.80798	139.05
116.16626	136.95
120.52136	142.45
124.87327	146.35
129.222	155.35
133.56755	162.05
137.90993	174.45
142.24913	198.35
146.58517	216.95
150.91804	251.75
155.24774	302.15
159.57429	369.95
163.89768	471.85
168.21792	621.45
172.53501	852.35
176.84895	1172.45
181.15975	1647.65
185.46741	2321.85
189.77193	3176.45
194.07331	4247.15
198.37157	5457.95
202.6667	6715.55
206.9587	7967.55
211.24758	9199.85
215.53334	10444.05
219.81599	11765.15
224.09553	13251.65
228.37195	14809.15
232.64527	16560.95
236.91549	18357.05
241.18261	20223.45
245.44663	21908.55
249.70755	23480.45
253.96539	24842.65
258.22014	26042.55
262.4718	27043.55
266.72039	27798.85
270.96589	28253.35
275.20832	28479.35
279.44768	28510.85
283.68397	28490.45
287.91719	28499.45
292.14735	28541.05
296.37445	28672.35
300.59849	28803.25
304.81948	28740.85
309.03742	28458.45
313.25231	27893.65
317.46415	27048.75
321.67296	26151.35
325.87872	25362.15
330.08145	24920.45
334.28114	24759.05
338.47781	24865.55
342.67145	25125.25
346.86207	25426.05
351.04966	25840.85
355.23424	26223.15
359.4158	26546.15
363.59435	26808.55
367.76989	26966.85
371.94243	27082.95
376.11196	27176.35
380.27849	27279.55
384.44203	27448.15
388.60257	27733.05
392.76012	28073.55
396.91468	28551.55
401.06626	28983.75
405.21485	29209.05
409.36047	29046.75
413.50311	28665.05
417.64277	28389.65
421.77947	28395.85
425.9132	28546.95
430.04396	28748.05
434.17176	28946.35
438.2966	29194.75
442.41849	29673.55
446.53742	30460.35
450.6534	31453.85
454.76644	32298.55
458.87653	32663.45
462.98368	32687.35
467.08789	32512.15
471.18916	32272.65
475.2875	32199.25
479.38291	32433.25
483.4754	32346.95
487.56496	31849.65
491.6516	30936.75
495.73531	30014.45
499.81612	29461.25
503.89401	29466.25
507.96899	29488.35
512.04106	29299.05
516.11023	28936.75
520.1765	28444.45
524.23987	28028.55
528.30034	27622.45
532.35792	27321.35
536.41261	27043.85
540.46441	26823.05
544.51333	27005.25
548.55936	27606.65
552.60252	28423.95
556.64279	29318.25
560.6802	29997.75
564.71473	30474.25
568.7464	31064.35
572.7752	32073.55
576.80114	32893.65
580.82422	33466.95
584.84444	33897.55
588.86181	34206.45
592.87633	34499.85
596.888	34535.95
600.89682	34382.45
604.9028	34961.35
608.90594	36843.15
612.90624	38279.65
616.90371	35241.55
620.89834	29887.55
624.89015	27645.65
628.87913	27616.35
632.86528	27876.45
636.84862	27862.65
640.82913	27412.65
644.80683	26598.85
648.78172	25908.65
652.75379	25621.65
656.72306	25722.85
660.68952	25999.65
664.65319	25884.55
668.61405	25492.85
672.57211	25362.05
676.52738	25381.55
680.47986	25368.25
684.42955	25308.05
688.37646	25182.65
692.32058	25293.75
696.26192	25496.65
700.20048	25816.95
704.13626	26114.55
708.06928	26189.25
711.99952	26040.15
715.927	25945.45
719.85171	25990.95
723.77365	25857.05
727.69284	25580.05
731.60928	25266.45
735.52295	25120.05
739.43388	25068.15
743.34206	25130.75
747.24749	25281.45
751.15017	25611.95
755.05012	26170.15
758.94733	27241.15
762.8418	28848.65
766.73354	31092.45
770.62254	32965.35
774.50882	32917.45
778.39237	30918.05
782.27321	28467.05
786.15132	26609.35
790.02671	25549.55
793.89938	25035.95
797.76935	24826.75
801.6366	24786.55
805.50115	24805.25
809.36299	24657.65
813.22213	24422.45
817.07857	24379.35
820.93231	24298.45
824.78336	24101.25
828.63172	23931.05
832.47738	23761.95
836.32036	23760.45
840.16066	23824.55
843.99827	23914.45
847.8332	23796.55
851.66546	23647.05
855.49504	23607.85
859.32195	23551.35
863.1462	23484.85
866.96777	23405.15
870.78668	23309.95
874.60293	23302.25
878.41652	23238.65
882.22745	23313.55
886.03573	23339.75
889.84136	23357.35
893.64433	23293.85
897.44466	23211.75
901.24235	23113.15
905.0374	22989.55
908.8298	23007.55
912.61957	23093.95
916.40671	23419.65
920.19121	23897.55
923.97308	24199.05
927.75233	24078.85
931.52895	23772.95
935.30295	23371.85
939.07433	22805.95
942.84309	22414.55
946.60924	22178.55
950.37278	22110.55
954.13371	22148.65
957.89203	22094.05
961.64774	22119.15
965.40086	22130.95
969.15137	22016.35
972.89929	21821.15
976.64461	21635.35
980.38733	21581.75
984.12747	21641.05
987.86502	21781.95
991.59999	21995.25
995.33237	22453.35
999.06217	23084.85
1002.78939	23877.25
1006.51404	24322.45
1010.23611	24554.15
1013.95561	24771.05
1017.67255	24823.55
1021.38692	24602.75
1025.09872	24271.35
1028.80796	24266.85
1032.51465	24809.85
1036.21877	25368.25
1039.92035	25538.75
1043.61937	25277.15
1047.31584	24838.45
1051.00976	24334.55
1054.70114	24189.95
1058.38998	24349.25
1062.07627	24663.65
1065.76003	24991.25
1069.44126	25244.45
1073.11995	25572.35
1076.79611	25776.45
1080.46974	25923.25
1084.14085	26094.55
1087.80943	26395.55
1091.47549	26729.55
1095.13903	26851.85
1098.80005	26576.85
1102.45857	25935.15
1106.11456	25255.45
1109.76805	24959.15
1113.41903	24982.45
1117.06751	25114.45
1120.71348	25396.35
1124.35696	25672.15
1127.99793	26028.65
1131.63641	26294.15
1135.2724	26289.15
1138.90589	26269.45
1142.5369	26407.85
1146.16542	26699.45
1149.79145	27121.75
1153.415	27703.65
1157.03607	28416.15
1160.65467	29569.95
1164.27079	31174.85
1167.88443	33247.75
1171.49561	35658.35
1175.10432	38672.55
1178.71056	42199.05
1182.31434	45467.85
1185.91565	47422.15
1189.51451	47678.95
1193.11091	46793.45
1196.70485	45136.15
1200.29634	43088.75
1203.88538	41437.35
1207.47197	40416.35
1211.05612	39766.95
1214.63782	38997.35
1218.21708	37860.65
1221.79391	36807.55
1225.36829	35976.05
1228.94024	35172.45
1232.50976	34415.75
1236.07685	33744.85
1239.6415	33533.05
1243.20374	33515.05
1246.76355	33750.45
1250.32093	34344.15
1253.8759	35153.15
1257.42845	36294.05
1260.97859	37507.15
1264.52631	38623.95
1268.07163	39804.95
1271.61453	41084.65
1275.15503	42617.85
1278.69312	44312.25
1282.22882	45895.75
1285.76211	47572.95
1289.29301	49547.85
1292.82151	52137.35
1296.34761	55479.85
1299.87133	59170.65
1303.39266	62994.25
1306.9116	66495.95
1310.42815	69412.95
1313.94233	71179.75
1317.45412	71697.05
1320.96354	71514.65
1324.47058	71368.65
1327.97525	71270.25
1331.47754	71145.35
1334.97747	71056.75
1338.47502	70831.35
1341.97022	70162.75
1345.46305	68730.95
1348.95352	66566.05
1352.44163	64212.85
1355.92738	62773.45
1359.41078	62852.95
1362.89183	63310.75
1366.37053	61851.75
1369.84688	57687.85
1373.32088	52644.75
1376.79254	49136.65
1380.26186	48111.45
1383.72883	48689.55
1387.19347	49535.25
1390.65578	50009.95
1394.11575	50510.75
1397.57339	51588.95
1401.0287	52964.75
1404.48168	54011.85
1407.93234	53839.15
1411.38068	52357.65
1414.82669	49799.45
1418.27039	46701.45
1421.71177	43722.85
1425.15083	41344.85
1428.58758	40108.05
1432.02203	40055.25
1435.45416	41119.35
1438.88399	42773.75
1442.31151	44472.85
1445.73673	45788.75
1449.15965	47060.15
1452.58027	48154.85
1455.9986	48850.45
1459.41463	49428.95
1462.82837	50119.45
1466.23982	50912.55
1469.64898	51401.45
1473.05586	51497.25
1476.46045	51060.75
1479.86276	50099.15
1483.26279	49010.45
1486.66054	48059.15
1490.05602	47634.35
1493.44922	47540.05
1496.84016	47625.35
1500.22882	48039.95
1503.61521	48916.05
1506.99934	50156.05
1510.38121	51297.95
1513.76081	51755.75
1517.13816	51372.55
1520.51324	50357.05
1523.88607	49609.75
1527.25665	49481.55
1530.62498	49547.35
1533.99105	49747.65
1537.35488	49549.75
1540.71647	48765.55
1544.07581	47514.05
1547.4329	46126.55
1550.78776	44827.55
1554.14038	44003.55
1557.49077	43546.65
1560.83892	43234.85
1564.18484	43117.95
1567.52853	43073.55
1570.86999	43298.45
1574.20922	44209.95
1577.54624	45290.45
1580.88103	46221.25
1584.2136	47360.25
1587.54395	49178.55
1590.87208	51769.15
1594.19801	54665.45
1597.52172	57239.15
1600.84321	57735.85
1604.16251	54717.15
1607.47959	49996.95
1610.79447	45004.55
1614.10715	40493.25
1617.41763	36772.75
1620.7259	34097.85
1624.03199	32672.95
1627.33587	32478.55
1630.63757	33709.25
1633.93707	36432.65
1637.23439	40795.95
1640.52951	46763.75
1643.82246	53307.55
1647.11321	58035.85
1650.40179	58533.15
1653.68819	54127.55
1656.97241	46612.95
1660.25446	38948.55
1663.53433	32995.55
1666.81203	28930.05
1670.08756	26351.85
1673.36092	24704.25
1676.63211	23609.55
1679.90115	22845.25
1683.16801	22254.55
1686.43272	21878.45
1689.69527	21548.45
1692.95567	21320.15
1696.2139	21119.35
1699.46999	20998.55
1702.72392	20859.85
1705.97571	20762.35
1709.22535	20628.45
1712.47284	20495.95
1715.71819	20472.05
1718.96139	20379.25
1722.20246	20249.55
1725.44139	20136.65
1728.67818	20024.95
1731.91284	19891.85
1735.14537	19726.95
1738.37576	19622.85
1741.60403	19544.95
1744.83017	19513.15
1748.05418	19446.45
1751.27607	19426.95
1754.49584	19354.15
1757.71349	19351.05
1760.92903	19305.35
1764.14244	19282.55
1767.35375	19241.45
1770.56294	19123.05
1773.77002	19108.65
1776.97499	19034.55
1780.17785	18990.35
1783.37861	18951.85
1786.57727	18910.95
1789.77382	18851.65
1792.96828	18851.45
1796.16064	18799.05
1799.3509	18724.75
1802.53907	18690.05
1805.72514	18611.05
1808.90913	18579.55
1812.09102	18513.75
1815.27083	18500.55
1818.44856	18506.35
1821.6242	18425.15
1824.79776	18441.15
1827.96924	18425.05
1831.13864	18375.25
1834.30597	18387.45
1837.47122	18436.95
1840.6344	18415.05
1843.7955	18464.35
1846.95454	18443.15
1850.11151	18421.45
1853.26642	18432.65
1856.41926	18428.55
1859.57004	18381.15
1862.71876	18381.85
1865.86542	18385.65
1869.01003	18360.65
1872.15258	18336.65
1875.29308	18319.35
1878.43152	18327.75
1881.56792	18301.45
1884.70227	18283.25
1887.83457	18279.15
1890.96482	18277.15
1894.09304	18261.45
1897.21921	18241.65
1900.34335	18229.95
1903.46544	18199.65
1906.58551	18153.75
1909.70353	18131.85
1912.81953	18087.45
1915.93349	18043.65
1919.04543	17981.35
1922.15534	17974.05
1925.26322	17880.25
1928.36908	17862.15
1931.47292	17779.45
1934.57473	17727.55
1937.67453	17659.45
1940.77232	17586.15
1943.86808	17563.95
1946.96184	17513.15
1950.05358	17452.55
1953.14331	17392.95
1956.23103	17314.55
1959.31675	17246.65
1962.40046	17166.35
1965.48217	17123.05
1968.56188	17102.75
1971.63959	17007.85
1974.7153	16999.15
1977.78901	16949.45
1980.86073	16863.95
1983.93046	16842.75
1986.99819	16753.35
1990.06394	16697.75
1993.1277	16661.15
1996.18947	16578.75
1999.24925	16523.75
2002.30706	16458.75
2005.36288	16419.45
2008.41672	16412.85
2011.46859	16373.85
2014.51848	16301.35
2017.56639	16272.25
2020.61233	16186.15
2023.6563	16190.85
2026.6983	16139.15
2029.73833	16150.15
2032.7764	16092.55
2035.8125	16086.45
2038.84664	16039.15
2041.87881	16067.05
2044.90903	16019.85
2047.93729	15986.55
2050.96359	15972.45
2053.98794	15977.35
2057.01034	15930.35
2060.03078	15923.85
2063.04927	15922.55
2066.06582	15872.65
2069.08042	15873.35
2072.09307	15900.15
2075.10378	15845.95
2078.11255	15839.85
2081.11938	15803.35
2084.12426	15776.95
2087.12722	15767.25
2090.12824	15773.95
2093.12732	15795.05
2096.12447	15810.65
2099.11969	15800.65
2102.11299	15804.15
2105.10435	15806.95
2108.09379	15827.85
2111.08131	15802.45
2114.0669	15827.95
2117.05057	15817.05
2120.03233	15846.15
2123.01216	15840.45
2125.99008	15875.05
2128.96609	15856.25
2131.94018	15830.85
2134.91236	15854.25
2137.88263	15881.95
2140.851	15855.85
2143.81746	15887.45
2146.78201	15881.35
2149.74466	15897.95
2152.7054	15899.35
2155.66425	15857.65
2158.6212	15859.75
2161.57625	15858.35
2164.52941	15828.65
2167.48067	15836.55
2170.43004	15823.55
2173.37752	15788.05
2176.32311	15754.05
2179.26681	15803.55
2182.20863	15787.65
2185.14856	15818.85
2188.08661	15780.55
2191.02278	15787.65
2193.95707	15778.35
2196.88948	15781.85
2199.82001	15756.65
2202.74867	15766.75
2205.67545	15763.15
2208.60037	15706.15
2211.52341	15711.15
2214.44458	15688.45
2217.36388	15683.65
2220.28132	15656.65
2223.1969	15618.05
2226.11061	15610.35
2229.02246	15565.75
2231.93245	15534.25
2234.84058	15492.85
2237.74686	15464.45
2240.65128	15462.35
2243.55385	15448.35
2246.45456	15408.05
2249.35343	15361.75
2252.25044	15331.35
2255.14561	15326.15
2258.03893	15303.25
2260.93041	15257.45
2263.82004	15225.35
2266.70783	15192.55
2269.59378	15150.25
2272.4779	15098.05
2275.36017	15035.55
2278.24061	15058.55
2281.11922	14977.05
2283.996	14976.35
2286.87094	14957.35
2289.74405	14916.55
2292.61534	14947.65
2295.4848	14923.75
2298.35243	14926.95
2301.21824	14929.05
2304.08223	14916.75
2306.94439	14902.65
2309.80474	14912.65
2312.66327	14936.05
2315.51999	14926.45
2318.37489	14907.95
2321.22797	14910.25
2324.07925	14872.95
2326.92871	14868.55
2329.77637	14858.25
2332.62222	14855.55
2335.46626	14850.65
2338.3085	14839.65
2341.14893	14844.95
2343.98756	14864.75
2346.8244	14873.85
2349.65943	14874.35
2352.49267	14865.15
2355.32411	14866.95
2358.15376	14873.25
2360.98161	14841.25
2363.80768	14796.15
2366.63195	14788.85
2369.45444	14776.05
2372.27514	14766.55
2375.09405	14730.15
2377.91118	14702.55
2380.72652	14672.75
2383.54009	14656.05
2386.35187	14638.35
2389.16188	14595.55
2391.97011	14599.65
2394.77657	14562.05
2397.58125	14569.55
2400.38416	14528.35
2403.18529	14480.25
2405.98466	14479.35
2408.78226	14441.55
2411.57809	14429.15
2414.37216	14411.05
2417.16446	14395.65
2419.955	14382.65
2422.74378	14399.75
2425.5308	14367.25
2428.31606	14334.45
2431.09956	14354.55
2433.88131	14293.15
2436.6613	14308.95
2439.43954	14320.75
2442.21603	14312.45
2444.99077	14301.95
2447.76377	14302.35
2450.53501	14320.45
2453.30451	14293.75
2456.07226	14298.45
2458.83827	14301.15
2461.60254	14304.25
2464.36507	14338.65
2467.12586	14331.65
2469.88492	14315.65
2472.64224	14306.35
2475.39782	14327.45
2478.15167	14324.65
2480.90379	14341.75
2483.65417	14352.15
2486.40283	14368.25
2489.14976	14377.85
2491.89497	14378.75
2494.63845	14393.25
2497.3802	14383.55
2500.12024	14365.25
2502.85855	14391.05
2505.59514	14384.65
2508.33002	14393.45
2511.06318	14395.15
2513.79462	14384.05
2516.52435	14379.85
2519.25237	14348.75
2521.97867	14335.55
2524.70327	14326.75
2527.42616	14332.25
2530.14734	14350.05
2532.86681	14338.85
2535.58458	14328.65
2538.30065	14327.45
2541.01501	14274.55
2543.72768	14303.65
2546.43864	14282.15
2549.14791	14222.95
2551.85548	14242.25
2554.56136	14246.95
2557.26554	14254.45
2559.96803	14217.95
2562.66883	14219.15
2565.36794	14232.15
2568.06536	14267.85
2570.7611	14254.45
2573.45514	14215.35
2576.14751	14219.35
2578.83819	14180.75
2581.52719	14177.75
2584.21451	14186.45
2586.90015	14210.05
2589.58411	14190.15
2592.2664	14192.85
2594.94701	14164.85
2597.62594	14177.35
2600.30321	14159.95
2602.9788	14179.15
2605.65273	14162.25
2608.32498	14172.25
2610.99557	14206.05
2613.66449	14228.25
2616.33175	14192.25
2618.99734	14219.75
2621.66128	14210.45
2624.32355	14238.25
2626.98416	14230.75
2629.64311	14256.45
2632.30041	14242.25
2634.95605	14257.05
2637.61004	14249.15
2640.26238	14231.35
2642.91306	14226.35
2645.56209	14217.55
2648.20948	14230.15
2650.85521	14216.75
2653.4993	14221.85
2656.14175	14218.35
2658.78255	14233.35
2661.42171	14253.35
2664.05923	14264.15
2666.6951	14279.05
2669.32934	14274.15
2671.96194	14264.15
2674.59291	14288.15
2677.22224	14263.15
2679.84993	14268.25
2682.476	14234.85
2685.10043	14268.15
2687.72324	14215.55
2690.34441	14209.95
2692.96396	14200.85
2695.58188	14222.35
2698.19818	14199.25
2700.81285	14216.95
2703.4259	14234.45
2706.03733	14283.75
2708.64714	14269.55
2711.25533	14240.85
2713.86191	14253.95
2716.46687	14288.35
2719.07021	14305.35
2721.67194	14334.85
2724.27206	14349.55
2726.87057	14367.45
2729.46747	14368.95
2732.06276	14365.45
2734.65644	14346.85
2737.24852	14328.45
2739.83899	14301.15
2742.42786	14343.55
2745.01513	14336.15
2747.60079	14305.75
2750.18486	14328.85
2752.76733	14337.65
2755.3482	14339.35
2757.92747	14381.15
2760.50515	14375.05
2763.08123	14395.25
2765.65573	14385.15
2768.22863	14367.75
2770.79994	14349.65
2773.36967	14376.95
2775.9378	14375.35
2778.50435	14382.15
2781.06932	14366.85
2783.6327	14354.65
2786.1945	14376.05
2788.75471	14369.85
2791.31335	14323.15
2793.87041	14302.95
2796.42589	14309.95
2798.97979	14293.65
2801.53212	14277.75
2804.08288	14285.45
2806.63206	14243.55
2809.17967	14222.45
2811.72571	14179.05
2814.27018	14165.75
2816.81308	14155.45
2819.35442	14137.75
2821.89419	14119.75
2824.43239	14104.75
2826.96904	14086.65
2829.50412	14077.75
2832.03763	14035.75
2834.56959	14033.55
2837.1	14046.85
2839.62884	14019.35
2842.15613	14022.85
2844.68186	14048.65
2847.20604	14061.25
2849.72867	14066.05
2852.24974	14075.35
2854.76927	14049.85
2857.28724	14061.45
2859.80367	14001.65
2862.31855	13991.55
2864.83189	13988.65
2867.34368	14001.05
2869.85393	13994.25
2872.36264	13987.85
2874.8698	13998.35
2877.37543	14001.25
2879.87952	13992.65
2882.38207	13979.95
2884.88308	13958.75
2887.38256	13997.65
2889.88051	14001.35
2892.37692	14008.95
2894.8718	13994.95
2897.36515	14024.95
2899.85698	14076.05
2902.34727	14067.05
2904.83604	14112.45
2907.32328	14101.05
2909.809	14107.65
2912.29319	14131.35
2914.77587	14112.15
2917.25702	14093.25
2919.73665	14128.15
2922.21476	14112.05
2924.69136	14109.15
2927.16644	14094.95
2929.64	14127.35
2932.11205	14117.25
2934.58258	14064.95
2937.05161	14090.95
2939.51912	14121.25
2941.98513	14039.85
2944.44962	13980.65
2946.91261	13922.25
2949.37409	13957.95
2951.83407	13939.45
2954.29254	13912.35
2956.74951	13881.25
2959.20498	13874.95
2961.65895	13842.35
2964.11142	13860.95
2966.56239	13810.75
2969.01186	13805.65
2971.45984	13754.25
2973.90632	13725.65
2976.35131	13660.75
2978.7948	13650.05
2981.23681	13635.55
2983.67732	13627.45
2986.11635	13560.95
2988.55388	13529.85
2990.98993	13521.45
2993.4245	13454.75
2995.85758	13459.35
2998.28917	13421.35
3000.71928	13393.75
3003.14791	13385.25
3005.57506	13330.65
3008.00073	13282.45
3010.42493	13263.65
3012.84764	13239.85
3015.26888	13250.45
3017.68865	13170.55
3020.10694	13185.25
3022.52376	13170.75
3024.9391	13120.25
3027.35298	13142.85
3029.76539	13097.45
3032.17632	13114.65
3034.5858	13073.85
3036.9938	13097.55
3039.40034	13084.95
3041.80542	13063.15
3044.20903	13038.35
3046.61118	13034.05
3049.01187	12993.95
3051.4111	12993.15
3053.80888	12942.85
3056.20519	12922.95
3058.60005	12884.25
3060.99345	12881.15
3063.3854	12833.35
3065.7759	12833.45
3068.16494	12754.85
3070.55254	12729.05
3072.93868	12693.25
3075.32338	12653.55
3077.70662	12640.75
3080.08842	12583.85
3082.46878	12585.15
3084.84769	12562.35
3087.22515	12560.25
3089.60118	12550.75
3091.97576	12537.05
3094.3489	12527.45
3096.72061	12499.05
3099.09087	12521.65
3101.4597	12485.15
3103.82709	12501.95
3106.19305	12468.55
3108.55757	12484.25
3110.92066	12400.75
3113.28232	12379.55
3115.64255	12348.55
3118.00134	12292.35
3120.35871	12264.15
3122.71466	12261.85
3125.06917	12248.95
3127.42226	12221.65
3129.77393	12216.45
3132.12417	12205.95
3134.47299	12191.35
3136.82039	12175.85
3139.16636	12160.25
3141.51092	12177.75
3143.85406	12164.15
3146.19579	12178.35
3148.53609	12195.95
3150.87499	12196.75
3153.21246	12173.35
3155.54853	12201.35
3157.88318	12160.65
3160.21642	12168.95
3162.54826	12153.45
3164.87868	12159.25
3167.2077	12152.85
3169.5353	12161.35
3171.86151	12142.65
3174.18631	12112.65
3176.5097	12126.35
3178.83169	12131.15
3181.15228	12120.75
3183.47147	12086.65
3185.78926	12067.95
3188.10565	12095.35
3190.42065	12074.95
3192.73424	12075.85
3195.04645	12078.85
3197.35725	12055.65
3199.66667	12037.05
3201.97469	12043.45
3204.28132	12023.95
3206.58656	12049.05
3208.8904	12012.15
3211.19287	12060.95
3213.49394	12062.45
3215.79363	12073.35
3218.09193	12044.85
3220.38884	12033.55
3222.68438	12074.75
3224.97853	12029.45
3227.2713	12026.45
3229.56269	12001.35
3231.8527	12031.15
3234.14133	11966.65
3236.42858	11988.05
3238.71446	11983.65
3240.99896	11950.05
3243.28209	11944.65
3245.56384	11930.15
3247.84423	11941.25
3250.12324	11914.35
3252.40088	11909.95
3254.67715	11889.35
3256.95205	11866.35
3259.22558	11866.35
3261.49775	11815.15
3263.76855	11800.65
3266.03799	11772.65
3268.30606	11739.65
3270.57277	11721.15
3272.83812	11704.95
3275.10211	11689.35
3277.36474	11694.25
3279.62601	11688.85
3281.88593	11667.75
3284.14448	11677.45
3286.40168	11673.05
3288.65753	11668.05
3290.91202	11632.25
3293.16516	11603.75
3295.41695	11568.95
3297.66738	11503.55
3299.91647	11454.15
3302.16421	11390.55
3304.4106	11339.65
3306.65564	11292.55
3308.89933	11216.45
3311.14169	11152.05
3313.38269	11054.15
3315.62236	11015.55
3317.86068	10914.75
3320.09766	10793.15
3322.3333	10701.05
3324.5676	10702.25
3326.80056	10557.05
3329.03219	10479.15
3331.26248	2.45
3333.49143	0.25
3335.71905	-2.05
