Data from AgNPs_FTO_APTES_UA_2uM_CRN_0uM_R6G_10uM_NaF_0.1M_Addition_RamanShift__21__10-28-54-940.txt Node

Date: Wed Feb 02 10:28:54 GMT 2022
User: TCL
Spectrometer: QEP01345
Trigger mode: 4
Integration Time (sec): 7.000000E0
Scans to average: 10
Electric dark correction enabled: true
Nonlinearity correction enabled: false
Boxcar width: 0
XAxis mode: Raman Shifts
Number of Pixels in Spectrum: 1044
>>>>>Begin Spectral Data<<<<<
46.04893	0.55
50.45542	2.15
54.85868	0.05
59.25871	-0.05
63.6555	24.85
68.04907	29.95
72.43941	30.15
76.82654	35.75
81.21044	37.15
85.59113	43.15
89.96862	43.75
94.34289	44.65
98.71396	46.35
103.08183	46.75
107.4465	50.75
111.80798	50.45
116.16626	48.35
120.52136	48.15
124.87327	49.85
129.222	46.95
133.56755	53.25
137.90993	51.25
142.24913	57.95
146.58517	61.45
150.91804	66.45
155.24774	76.15
159.57429	87.95
163.89768	105.95
168.21792	135.35
172.53501	179.25
176.84895	232.55
181.15975	313.45
185.46741	426.75
189.77193	585.65
194.07331	781.65
198.37157	987.65
202.6667	1219.95
206.9587	1442.05
211.24758	1653.55
215.53334	1877.75
219.81599	2090.85
224.09553	2351.65
228.37195	2625.55
232.64527	2937.75
236.91549	3250.65
241.18261	3569.35
245.44663	3858.15
249.70755	4096.25
253.96539	4290.75
258.22014	4446.95
262.4718	4559.85
266.72039	4624.95
270.96589	4611.45
275.20832	4580.15
279.44768	4495.75
283.68397	4370.25
287.91719	4280.75
292.14735	4231.65
296.37445	4225.75
300.59849	4290.95
304.81948	4409.45
309.03742	4483.85
313.25231	4469.75
317.46415	4322.95
321.67296	4088.95
325.87872	3888.55
330.08145	3785.55
334.28114	3786.15
338.47781	3841.85
342.67145	3888.25
346.86207	3989.85
351.04966	4159.55
355.23424	4366.15
359.4158	4528.45
363.59435	4656.55
367.76989	4702.25
371.94243	4746.55
376.11196	4785.75
380.27849	4748.05
384.44203	4726.05
388.60257	4669.45
392.76012	4635.25
396.91468	4651.15
401.06626	4709.95
405.21485	4776.65
409.36047	4745.45
413.50311	4544.45
417.64277	4380.65
421.77947	4288.45
425.9132	4248.15
430.04396	4263.45
434.17176	4259.25
438.2966	4315.45
442.41849	4414.15
446.53742	4525.85
450.6534	4633.25
454.76644	4707.35
458.87653	4687.15
462.98368	4652.85
467.08789	4608.05
471.18916	4553.15
475.2875	4479.55
479.38291	4408.15
483.4754	4353.15
487.56496	4325.65
491.6516	4297.95
495.73531	4289.45
499.81612	4277.55
503.89401	4312.05
507.96899	4366.95
512.04106	4431.45
516.11023	4516.25
520.1765	4574.85
524.23987	4573.25
528.30034	4516.65
532.35792	4461.85
536.41261	4390.95
540.46441	4299.55
544.51333	4244.35
548.55936	4247.05
552.60252	4290.05
556.64279	4369.05
560.6802	4407.05
564.71473	4399.75
568.7464	4490.15
572.7752	4534.45
576.80114	4446.05
580.82422	4328.65
584.84444	4265.25
588.86181	4290.85
592.87633	4379.05
596.888	4442.85
600.89682	4554.15
604.9028	4865.45
608.90594	5762.65
612.90624	7065.85
616.90371	7084.85
620.89834	5452.55
624.89015	4563.15
628.87913	4375.15
632.86528	4354.95
636.84862	4385.45
640.82913	4351.85
644.80683	4270.25
648.78172	4175.05
652.75379	4184.45
656.72306	4304.85
660.68952	4485.25
664.65319	4452.35
668.61405	4268.45
672.57211	4189.55
676.52738	4199.85
680.47986	4212.75
684.42955	4173.45
688.37646	4179.05
692.32058	4202.15
696.26192	4229.75
700.20048	4293.95
704.13626	4353.75
708.06928	4346.65
711.99952	4309.55
715.927	4272.75
719.85171	4259.15
723.77365	4273.25
727.69284	4232.35
731.60928	4223.65
735.52295	4212.35
739.43388	4219.05
743.34206	4244.95
747.24749	4252.05
751.15017	4279.45
755.05012	4277.05
758.94733	4386.85
762.8418	4633.35
766.73354	5102.95
770.62254	5761.75
774.50882	6211.15
778.39237	6120.55
782.27321	5464.25
786.15132	4823.65
790.02671	4457.75
793.89938	4275.45
797.76935	4199.45
801.6366	4167.65
805.50115	4164.65
809.36299	4153.25
813.22213	4140.15
817.07857	4136.95
820.93231	4091.25
824.78336	4093.25
828.63172	4124.15
832.47738	4140.85
836.32036	4139.95
840.16066	4146.05
843.99827	4163.45
847.8332	4141.55
851.66546	4140.65
855.49504	4136.65
859.32195	4134.15
863.1462	4084.15
866.96777	4077.25
870.78668	4073.65
874.60293	4071.25
878.41652	4097.45
882.22745	4134.65
886.03573	4167.75
889.84136	4180.65
893.64433	4158.85
897.44466	4135.85
901.24235	4147.65
905.0374	4159.45
908.8298	4158.05
912.61957	4183.05
916.40671	4222.75
920.19121	4288.75
923.97308	4354.55
927.75233	4403.55
931.52895	4443.65
935.30295	4411.15
939.07433	4305.85
942.84309	4201.25
946.60924	4122.35
950.37278	4062.05
954.13371	4021.55
957.89203	3981.85
961.64774	3947.85
965.40086	3930.45
969.15137	3899.35
972.89929	3892.35
976.64461	3863.65
980.38733	3849.55
984.12747	3860.75
987.86502	3844.35
991.59999	3864.55
995.33237	3867.05
999.06217	3926.25
1002.78939	3981.85
1006.51404	4006.25
1010.23611	4042.75
1013.95561	4072.25
1017.67255	4062.25
1021.38692	4018.25
1025.09872	3977.65
1028.80796	3944.65
1032.51465	3967.45
1036.21877	4028.85
1039.92035	4125.35
1043.61937	4183.45
1047.31584	4179.05
1051.00976	4156.55
1054.70114	4142.35
1058.38998	4119.85
1062.07627	4080.55
1065.76003	4060.15
1069.44126	4022.95
1073.11995	4017.45
1076.79611	4047.05
1080.46974	4100.45
1084.14085	4157.65
1087.80943	4191.45
1091.47549	4210.95
1095.13903	4149.55
1098.80005	4023.65
1102.45857	3912.85
1106.11456	3878.35
1109.76805	3896.75
1113.41903	3957.95
1117.06751	4052.15
1120.71348	4194.55
1124.35696	4327.85
1127.99793	4481.05
1131.63641	4498.65
1135.2724	4315.05
1138.90589	4107.05
1142.5369	3954.35
1146.16542	3862.65
1149.79145	3801.65
1153.415	3765.55
1157.03607	3804.55
1160.65467	3853.35
1164.27079	3962.15
1167.88443	4119.95
1171.49561	4387.95
1175.10432	4825.95
1178.71056	5433.35
1182.31434	5940.95
1185.91565	6142.05
1189.51451	6063.55
1193.11091	5794.65
1196.70485	5423.95
1200.29634	5087.95
1203.88538	4786.35
1207.47197	4447.85
1211.05612	4196.45
1214.63782	4043.65
1218.21708	4009.85
1221.79391	4025.05
1225.36829	4049.35
1228.94024	4048.95
1232.50976	4056.95
1236.07685	4042.75
1239.6415	4037.15
1243.20374	4018.55
1246.76355	4033.95
1250.32093	4074.45
1253.8759	4143.15
1257.42845	4230.65
1260.97859	4327.45
1264.52631	4453.75
1268.07163	4534.55
1271.61453	4650.35
1275.15503	4718.45
1278.69312	4727.05
1282.22882	4750.35
1285.76211	4812.65
1289.29301	4976.85
1292.82151	5121.45
1296.34761	5315.85
1299.87133	5509.65
1303.39266	5804.65
1306.9116	6269.45
1310.42815	6851.25
1313.94233	7205.15
1317.45412	7051.65
1320.96354	6558.15
1324.47058	6001.25
1327.97525	5508.85
1331.47754	5260.55
1334.97747	5185.05
1338.47502	5234.35
1341.97022	5345.45
1345.46305	5507.75
1348.95352	5856.35
1352.44163	6374.65
1355.92738	7152.55
1359.41078	8154.15
1362.89183	9122.55
1366.37053	9199.75
1369.84688	8078.45
1373.32088	6769.45
1376.79254	5926.65
1380.26186	5485.35
1383.72883	5220.25
1387.19347	5034.55
1390.65578	4825.75
1394.11575	4644.95
1397.57339	4498.05
1401.0287	4438.45
1404.48168	4404.75
1407.93234	4364.65
1411.38068	4364.45
1414.82669	4344.15
1418.27039	4325.65
1421.71177	4307.15
1425.15083	4297.45
1428.58758	4288.65
1432.02203	4335.75
1435.45416	4379.95
1438.88399	4427.05
1442.31151	4418.45
1445.73673	4387.05
1449.15965	4359.35
1452.58027	4304.15
1455.9986	4213.25
1459.41463	4141.75
1462.82837	4143.45
1466.23982	4163.85
1469.64898	4223.35
1473.05586	4287.75
1476.46045	4327.25
1479.86276	4350.25
1483.26279	4395.95
1486.66054	4466.05
1490.05602	4548.65
1493.44922	4686.65
1496.84016	4913.05
1500.22882	5313.75
1503.61521	5887.85
1506.99934	6622.75
1510.38121	7315.75
1513.76081	7666.55
1517.13816	7370.55
1520.51324	6529.85
1523.88607	5637.35
1527.25665	5051.55
1530.62498	4736.95
1533.99105	4576.85
1537.35488	4485.35
1540.71647	4419.15
1544.07581	4372.45
1547.4329	4359.55
1550.78776	4363.15
1554.14038	4351.55
1557.49077	4392.65
1560.83892	4458.85
1564.18484	4536.25
1567.52853	4667.95
1570.86999	4830.55
1574.20922	4980.85
1577.54624	5002.35
1580.88103	4847.25
1584.2136	4528.05
1587.54395	4272.35
1590.87208	4244.15
1594.19801	4366.15
1597.52172	4632.45
1600.84321	4786.15
1604.16251	4683.25
1607.47959	4464.15
1610.79447	4196.55
1614.10715	3951.25
1617.41763	3753.75
1620.7259	3640.55
1624.03199	3576.65
1627.33587	3572.45
1630.63757	3610.75
1633.93707	3709.15
1637.23439	3894.25
1640.52951	4149.65
1643.82246	4561.25
1647.11321	5038.35
1650.40179	5433.05
1653.68819	5373.85
1656.97241	4830.75
1660.25446	4129.65
1663.53433	3640.35
1666.81203	3351.35
1670.08756	3176.45
1673.36092	3053.75
1676.63211	2970.25
1679.90115	2916.25
1683.16801	2851.85
1686.43272	2815.05
1689.69527	2785.75
1692.95567	2757.75
1696.2139	2742.35
1699.46999	2721.25
1702.72392	2705.15
1705.97571	2686.65
1709.22535	2677.45
1712.47284	2679.55
1715.71819	2679.05
1718.96139	2678.25
1722.20246	2670.55
1725.44139	2665.05
1728.67818	2636.45
1731.91284	2596.05
1735.14537	2566.25
1738.37576	2546.35
1741.60403	2522.15
1744.83017	2504.75
1748.05418	2503.55
1751.27607	2486.05
1754.49584	2466.15
1757.71349	2469.15
1760.92903	2451.45
1764.14244	2452.45
1767.35375	2423.25
1770.56294	2419.45
1773.77002	2417.35
1776.97499	2389.15
1780.17785	2394.45
1783.37861	2386.75
1786.57727	2381.45
1789.77382	2368.65
1792.96828	2372.15
1796.16064	2352.85
1799.3509	2355.35
1802.53907	2339.65
1805.72514	2332.65
1808.90913	2330.15
1812.09102	2314.55
1815.27083	2307.65
1818.44856	2304.85
1821.6242	2298.05
1824.79776	2298.95
1827.96924	2276.45
1831.13864	2273.95
1834.30597	2269.85
1837.47122	2270.85
1840.6344	2253.35
1843.7955	2269.75
1846.95454	2254.25
1850.11151	2253.15
1853.26642	2253.85
1856.41926	2240.75
1859.57004	2247.25
1862.71876	2231.95
1865.86542	2224.85
1869.01003	2234.05
1872.15258	2228.35
1875.29308	2228.75
1878.43152	2225.85
1881.56792	2222.75
1884.70227	2218.15
1887.83457	2215.75
1890.96482	2209.85
1894.09304	2207.65
1897.21921	2204.35
1900.34335	2196.05
1903.46544	2202.35
1906.58551	2200.45
1909.70353	2200.05
1912.81953	2210.45
1915.93349	2203.15
1919.04543	2193.65
1922.15534	2186.55
1925.26322	2180.35
1928.36908	2174.15
1931.47292	2160.45
1934.57473	2157.65
1937.67453	2148.35
1940.77232	2136.95
1943.86808	2136.65
1946.96184	2119.55
1950.05358	2120.05
1953.14331	2106.55
1956.23103	2092.45
1959.31675	2097.45
1962.40046	2087.75
1965.48217	2084.15
1968.56188	2069.75
1971.63959	2067.15
1974.7153	2068.65
1977.78901	2048.45
1980.86073	2048.65
1983.93046	2042.85
1986.99819	2028.75
1990.06394	2021.55
1993.1277	2014.25
1996.18947	2007.45
1999.24925	2007.45
2002.30706	1995.75
2005.36288	1981.05
2008.41672	1975.75
2011.46859	1975.35
2014.51848	1964.25
2017.56639	1968.45
2020.61233	1941.65
2023.6563	1945.25
2026.6983	1947.65
2029.73833	1937.25
2032.7764	1928.45
2035.8125	1942.55
2038.84664	1917.55
2041.87881	1919.95
2044.90903	1908.85
2047.93729	1912.85
2050.96359	1909.95
2053.98794	1905.65
2057.01034	1907.05
2060.03078	1901.35
2063.04927	1896.35
2066.06582	1893.45
2069.08042	1896.55
2072.09307	1894.75
2075.10378	1893.05
2078.11255	1906.75
2081.11938	1901.25
2084.12426	1897.25
2087.12722	1897.85
2090.12824	1900.35
2093.12732	1896.35
2096.12447	1897.55
2099.11969	1906.95
2102.11299	1906.95
2105.10435	1911.65
2108.09379	1905.95
2111.08131	1904.75
2114.0669	1891.55
2117.05057	1894.45
2120.03233	1885.65
2123.01216	1881.35
2125.99008	1886.55
2128.96609	1885.45
2131.94018	1888.25
2134.91236	1879.55
2137.88263	1884.35
2140.851	1882.35
2143.81746	1881.05
2146.78201	1877.65
2149.74466	1867.45
2152.7054	1857.95
2155.66425	1864.05
2158.6212	1871.95
2161.57625	1876.65
2164.52941	1874.75
2167.48067	1867.65
2170.43004	1863.85
2173.37752	1876.15
2176.32311	1861.05
2179.26681	1873.05
2182.20863	1861.65
2185.14856	1871.85
2188.08661	1865.25
2191.02278	1856.65
2193.95707	1861.45
2196.88948	1859.45
2199.82001	1859.35
2202.74867	1846.25
2205.67545	1841.95
2208.60037	1850.35
2211.52341	1833.25
2214.44458	1839.25
2217.36388	1827.55
2220.28132	1820.35
2223.1969	1816.55
2226.11061	1799.75
2229.02246	1803.35
2231.93245	1813.05
2234.84058	1798.05
2237.74686	1795.35
2240.65128	1795.05
2243.55385	1790.75
2246.45456	1792.55
2249.35343	1785.95
2252.25044	1781.25
2255.14561	1782.15
2258.03893	1782.15
2260.93041	1778.85
2263.82004	1778.25
2266.70783	1767.85
2269.59378	1759.65
2272.4779	1760.65
2275.36017	1750.95
2278.24061	1746.05
2281.11922	1746.75
2283.996	1748.05
2286.87094	1730.65
2289.74405	1730.65
2292.61534	1730.65
2295.4848	1722.75
2298.35243	1717.15
2301.21824	1716.55
2304.08223	1719.75
2306.94439	1718.25
2309.80474	1702.65
2312.66327	1707.55
2315.51999	1716.85
2318.37489	1703.55
2321.22797	1702.35
2324.07925	1708.55
2326.92871	1686.65
2329.77637	1694.65
2332.62222	1689.35
2335.46626	1693.45
2338.3085	1692.45
2341.14893	1684.05
2343.98756	1689.65
2346.8244	1684.95
2349.65943	1683.35
2352.49267	1673.45
2355.32411	1683.55
2358.15376	1681.15
2360.98161	1672.05
2363.80768	1680.25
2366.63195	1686.15
2369.45444	1683.85
2372.27514	1682.15
2375.09405	1678.75
2377.91118	1673.35
2380.72652	1673.35
2383.54009	1673.35
2386.35187	1671.05
2389.16188	1656.05
2391.97011	1643.55
2394.77657	1643.35
2397.58125	1631.05
2400.38416	1644.75
2403.18529	1625.65
2405.98466	1618.35
2408.78226	1623.05
2411.57809	1613.85
2414.37216	1617.15
2417.16446	1621.35
2419.955	1612.75
2422.74378	1602.05
2425.5308	1612.25
2428.31606	1600.65
2431.09956	1609.15
2433.88131	1598.45
2436.6613	1608.95
2439.43954	1602.95
2442.21603	1602.35
2444.99077	1601.65
2447.76377	1601.25
2450.53501	1597.05
2453.30451	1598.55
2456.07226	1599.85
2458.83827	1594.45
2461.60254	1590.15
2464.36507	1585.85
2467.12586	1590.65
2469.88492	1592.15
2472.64224	1589.25
2475.39782	1581.95
2478.15167	1592.25
2480.90379	1586.25
2483.65417	1596.75
2486.40283	1591.05
2489.14976	1591.75
2491.89497	1595.75
2494.63845	1598.85
2497.3802	1589.55
2500.12024	1595.35
2502.85855	1584.65
2505.59514	1576.45
2508.33002	1575.75
2511.06318	1573.25
2513.79462	1564.35
2516.52435	1558.05
2519.25237	1560.45
2521.97867	1556.15
2524.70327	1548.55
2527.42616	1548.15
2530.14734	1546.75
2532.86681	1536.35
2535.58458	1544.85
2538.30065	1537.15
2541.01501	1533.65
2543.72768	1531.55
2546.43864	1535.95
2549.14791	1533.15
2551.85548	1524.75
2554.56136	1526.65
2557.26554	1525.65
2559.96803	1527.15
2562.66883	1526.65
2565.36794	1528.05
2568.06536	1527.65
2570.7611	1517.95
2573.45514	1519.35
2576.14751	1510.85
2578.83819	1520.05
2581.52719	1523.75
2584.21451	1514.85
2586.90015	1511.85
2589.58411	1511.95
2592.2664	1509.15
2594.94701	1507.15
2597.62594	1501.05
2600.30321	1501.15
2602.9788	1491.55
2605.65273	1487.45
2608.32498	1499.75
2610.99557	1505.55
2613.66449	1486.35
2616.33175	1493.55
2618.99734	1495.05
2621.66128	1489.25
2624.32355	1501.25
2626.98416	1486.05
2629.64311	1496.95
2632.30041	1501.85
2634.95605	1488.25
2637.61004	1491.15
2640.26238	1488.25
2642.91306	1489.35
2645.56209	1491.85
2648.20948	1483.35
2650.85521	1486.65
2653.4993	1494.55
2656.14175	1494.05
2658.78255	1506.95
2661.42171	1501.85
2664.05923	1512.45
2666.6951	1510.05
2669.32934	1521.95
2671.96194	1519.15
2674.59291	1524.95
2677.22224	1517.25
2679.84993	1528.45
2682.476	1528.05
2685.10043	1524.95
2687.72324	1537.95
2690.34441	1531.85
2692.96396	1542.05
2695.58188	1534.15
2698.19818	1551.85
2700.81285	1550.05
2703.4259	1566.35
2706.03733	1572.15
2708.64714	1571.95
2711.25533	1589.25
2713.86191	1595.35
2716.46687	1614.35
2719.07021	1624.25
2721.67194	1628.35
2724.27206	1629.85
2726.87057	1646.25
2729.46747	1649.15
2732.06276	1649.85
2734.65644	1652.35
2737.24852	1668.55
2739.83899	1675.85
2742.42786	1675.75
2745.01513	1686.25
2747.60079	1704.55
2750.18486	1708.05
2752.76733	1725.15
2755.3482	1733.75
2757.92747	1741.95
2760.50515	1751.65
2763.08123	1760.35
2765.65573	1756.95
2768.22863	1777.65
2770.79994	1780.55
2773.36967	1796.15
2775.9378	1794.65
2778.50435	1808.95
2781.06932	1827.25
2783.6327	1846.05
2786.1945	1855.85
2788.75471	1861.45
2791.31335	1874.05
2793.87041	1892.85
2796.42589	1898.45
2798.97979	1918.55
2801.53212	1935.35
2804.08288	1950.25
2806.63206	1969.05
2809.17967	1986.45
2811.72571	2005.15
2814.27018	2024.05
2816.81308	2030.95
2819.35442	2028.25
2821.89419	2039.65
2824.43239	2034.45
2826.96904	2040.95
2829.50412	2035.55
2832.03763	2034.85
2834.56959	2046.05
2837.1	2057.35
2839.62884	2090.05
2842.15613	2145.05
2844.68186	2215.95
2847.20604	2295.75
2849.72867	2357.75
2852.24974	2391.35
2854.76927	2383.55
2857.28724	2386.95
2859.80367	2387.65
2862.31855	2377.55
2864.83189	2352.75
2867.34368	2335.45
2869.85393	2328.75
2872.36264	2337.05
2874.8698	2321.65
2877.37543	2315.65
2879.87952	2312.55
2882.38207	2324.35
2884.88308	2311.15
2887.38256	2299.45
2889.88051	2305.65
2892.37692	2295.55
2894.8718	2299.05
2897.36515	2286.25
2899.85698	2291.95
2902.34727	2294.95
2904.83604	2287.35
2907.32328	2294.65
2909.809	2281.15
2912.29319	2266.95
2914.77587	2266.85
2917.25702	2254.85
2919.73665	2267.75
2922.21476	2257.55
2924.69136	2252.15
2927.16644	2245.75
2929.64	2225.35
2932.11205	2210.75
2934.58258	2188.35
2937.05161	2148.35
2939.51912	2110.15
2941.98513	2061.75
2944.44962	2008.95
2946.91261	1938.65
2949.37409	1880.45
2951.83407	1842.75
2954.29254	1799.75
2956.74951	1758.25
2959.20498	1720.65
2961.65895	1695.55
2964.11142	1661.15
2966.56239	1641.25
2969.01186	1623.55
2971.45984	1596.35
2973.90632	1571.65
2976.35131	1552.55
2978.7948	1541.45
2981.23681	1518.15
2983.67732	1504.35
2986.11635	1479.65
2988.55388	1470.25
2990.98993	1454.25
2993.4245	1438.05
2995.85758	1426.55
2998.28917	1419.05
3000.71928	1414.35
3003.14791	1419.55
3005.57506	1416.75
3008.00073	1402.25
3010.42493	1397.15
3012.84764	1386.15
3015.26888	1380.75
3017.68865	1388.15
3020.10694	1380.25
3022.52376	1379.15
3024.9391	1385.05
3027.35298	1377.65
3029.76539	1370.95
3032.17632	1369.85
3034.5858	1367.85
3036.9938	1374.15
3039.40034	1357.25
3041.80542	1364.25
3044.20903	1369.55
3046.61118	1364.15
3049.01187	1365.45
3051.4111	1364.55
3053.80888	1365.55
3056.20519	1363.75
3058.60005	1370.25
3060.99345	1372.95
3063.3854	1368.75
3065.7759	1374.35
3068.16494	1370.45
3070.55254	1372.95
3072.93868	1374.95
3075.32338	1373.65
3077.70662	1360.15
3080.08842	1362.15
3082.46878	1360.05
3084.84769	1360.45
3087.22515	1369.55
3089.60118	1371.85
3091.97576	1366.35
3094.3489	1371.25
3096.72061	1377.35
3099.09087	1371.35
3101.4597	1372.75
3103.82709	1372.45
3106.19305	1372.95
3108.55757	1379.95
3110.92066	1381.75
3113.28232	1375.75
3115.64255	1387.25
3118.00134	1385.65
3120.35871	1389.65
3122.71466	1389.05
3125.06917	1395.45
3127.42226	1399.35
3129.77393	1413.85
3132.12417	1417.65
3134.47299	1419.15
3136.82039	1422.45
3139.16636	1431.45
3141.51092	1444.15
3143.85406	1446.45
3146.19579	1456.55
3148.53609	1458.25
3150.87499	1471.45
3153.21246	1477.15
3155.54853	1481.85
3157.88318	1493.65
3160.21642	1491.35
3162.54826	1497.95
3164.87868	1506.95
3167.2077	1513.05
3169.5353	1517.15
3171.86151	1514.95
3174.18631	1524.05
3176.5097	1520.05
3178.83169	1540.25
3181.15228	1537.95
3183.47147	1542.55
3185.78926	1550.35
3188.10565	1547.55
3190.42065	1554.95
3192.73424	1565.15
3195.04645	1566.95
3197.35725	1571.15
3199.66667	1574.25
3201.97469	1581.45
3204.28132	1592.85
3206.58656	1597.85
3208.8904	1597.85
3211.19287	1609.55
3213.49394	1614.15
3215.79363	1622.65
3218.09193	1619.35
3220.38884	1617.65
3222.68438	1625.25
3224.97853	1625.75
3227.2713	1626.95
3229.56269	1623.85
3231.8527	1637.75
3234.14133	1627.45
3236.42858	1630.55
3238.71446	1627.35
3240.99896	1643.45
3243.28209	1638.45
3245.56384	1643.35
3247.84423	1648.55
3250.12324	1647.75
3252.40088	1654.95
3254.67715	1650.85
3256.95205	1651.55
3259.22558	1658.45
3261.49775	1658.15
3263.76855	1665.15
3266.03799	1667.55
3268.30606	1667.45
3270.57277	1660.15
3272.83812	1669.05
3275.10211	1663.95
3277.36474	1674.15
3279.62601	1665.35
3281.88593	1656.65
3284.14448	1666.55
3286.40168	1661.05
3288.65753	1667.65
3290.91202	1641.95
3293.16516	1646.25
3295.41695	1635.35
3297.66738	1620.55
3299.91647	1616.55
3302.16421	1607.55
3304.4106	1597.85
3306.65564	1584.55
3308.89933	1577.15
3311.14169	1574.85
3313.38269	1563.75
3315.62236	1548.45
3317.86068	1540.85
3320.09766	1526.25
3322.3333	1509.35
3324.5676	1516.55
3326.80056	1484.95
3329.03219	1482.95
3331.26248	-0.25
3333.49143	-0.25
3335.71905	-1.85
