Data from AgNPs_FTO_APTES_UA_2uM_CRN_200uM_R6G_10uM_NaF_0.1M_Addition_RamanShift__30__16-53-55-389.txt Node

Date: Wed Feb 02 16:53:55 GMT 2022
User: TCL
Spectrometer: QEP01345
Trigger mode: 4
Integration Time (sec): 7.000000E0
Scans to average: 10
Electric dark correction enabled: true
Nonlinearity correction enabled: false
Boxcar width: 0
XAxis mode: Raman Shifts
Number of Pixels in Spectrum: 1044
>>>>>Begin Spectral Data<<<<<
46.04893	-0.05
50.45542	0.75
54.85868	-0.25
59.25871	0.15
63.6555	43.05
68.04907	46.95
72.43941	48.45
76.82654	53.85
81.21044	58.35
85.59113	60.85
89.96862	61.55
94.34289	61.75
98.71396	64.85
103.08183	70.45
107.4465	67.55
111.80798	69.85
116.16626	68.35
120.52136	74.75
124.87327	73.35
129.222	71.95
133.56755	80.35
137.90993	77.75
142.24913	84.95
146.58517	94.85
150.91804	105.15
155.24774	123.95
159.57429	145.95
163.89768	180.85
168.21792	238.15
172.53501	317.75
176.84895	434.55
181.15975	593.35
185.46741	821.75
189.77193	1126.45
194.07331	1510.55
198.37157	1934.95
202.6667	2392.05
206.9587	2843.85
211.24758	3283.25
215.53334	3737.55
219.81599	4248.15
224.09553	4817.95
228.37195	5483.05
232.64527	6153.15
236.91549	6843.45
241.18261	7469.05
245.44663	8022.45
249.70755	8463.75
253.96539	8835.15
258.22014	9159.95
262.4718	9438.65
266.72039	9688.45
270.96589	9834.25
275.20832	9898.65
279.44768	9908.45
283.68397	9871.65
287.91719	9892.75
292.14735	9982.25
296.37445	10164.55
300.59849	10420.75
304.81948	10707.95
309.03742	10902.15
313.25231	10809.35
317.46415	10288.35
321.67296	9506.15
325.87872	8840.75
330.08145	8518.45
334.28114	8446.55
338.47781	8602.45
342.67145	8808.75
346.86207	9170.85
351.04966	9680.25
355.23424	10233.85
359.4158	10652.75
363.59435	10797.35
367.76989	10793.05
371.94243	10710.15
376.11196	10603.75
380.27849	10512.75
384.44203	10421.65
388.60257	10284.85
392.76012	10241.55
396.91468	10386.35
401.06626	10684.45
405.21485	10944.25
409.36047	10779.35
413.50311	10317.05
417.64277	9805.25
421.77947	9534.85
425.9132	9425.75
430.04396	9449.15
434.17176	9481.95
438.2966	9538.35
442.41849	9687.15
446.53742	9939.25
450.6534	10194.65
454.76644	10369.85
458.87653	10440.75
462.98368	10398.15
467.08789	10301.85
471.18916	10134.25
475.2875	9976.25
479.38291	9791.55
483.4754	9628.65
487.56496	9474.95
491.6516	9392.85
495.73531	9328.95
499.81612	9337.65
503.89401	9452.35
507.96899	9560.55
512.04106	9603.15
516.11023	9695.75
520.1765	9724.45
524.23987	9679.65
528.30034	9459.65
532.35792	9268.55
536.41261	9043.55
540.46441	8869.15
544.51333	8817.65
548.55936	8945.95
552.60252	9219.05
556.64279	9490.85
560.6802	9676.45
564.71473	9872.75
568.7464	10277.05
572.7752	10588.95
576.80114	10383.75
580.82422	10024.55
584.84444	9836.65
588.86181	9703.55
592.87633	9675.65
596.888	9737.35
600.89682	10006.05
604.9028	11061.85
608.90594	13819.85
612.90624	17384.45
616.90371	16828.75
620.89834	11963.15
624.89015	9553.45
628.87913	9103.35
632.86528	9164.45
636.84862	9292.15
640.82913	9165.75
644.80683	8806.35
648.78172	8536.45
652.75379	8596.15
656.72306	8901.85
660.68952	9363.85
664.65319	9309.25
668.61405	8899.95
672.57211	8670.05
676.52738	8672.55
680.47986	8676.45
684.42955	8602.15
688.37646	8576.45
692.32058	8613.25
696.26192	8712.55
700.20048	8852.65
704.13626	8978.35
708.06928	9003.05
711.99952	8883.95
715.927	8805.05
719.85171	8777.75
723.77365	8754.45
727.69284	8629.35
731.60928	8516.35
735.52295	8431.05
739.43388	8441.85
743.34206	8452.05
747.24749	8526.65
751.15017	8644.75
755.05012	8864.35
758.94733	9327.75
762.8418	10326.95
766.73354	12111.75
770.62254	13878.85
774.50882	14604.35
778.39237	13884.85
782.27321	12049.55
786.15132	10265.15
790.02671	9183.35
793.89938	8718.65
797.76935	8496.85
801.6366	8395.15
805.50115	8351.15
809.36299	8305.05
813.22213	8270.45
817.07857	8261.45
820.93231	8260.55
824.78336	8284.15
828.63172	8318.55
832.47738	8345.95
836.32036	8314.05
840.16066	8244.95
843.99827	8194.85
847.8332	8148.55
851.66546	8118.95
855.49504	8109.25
859.32195	8076.75
863.1462	8021.35
866.96777	7994.35
870.78668	7973.15
874.60293	7973.85
878.41652	7998.85
882.22745	8031.85
886.03573	8070.05
889.84136	8064.75
893.64433	8012.75
897.44466	7981.25
901.24235	7959.65
905.0374	7938.75
908.8298	7923.15
912.61957	7957.55
916.40671	8033.85
920.19121	8124.95
923.97308	8180.95
927.75233	8237.55
931.52895	8263.15
935.30295	8117.15
939.07433	7882.15
942.84309	7642.45
946.60924	7506.25
950.37278	7435.35
954.13371	7370.55
957.89203	7357.05
961.64774	7325.75
965.40086	7318.25
969.15137	7289.95
972.89929	7242.15
976.64461	7218.35
980.38733	7225.65
984.12747	7237.55
987.86502	7250.55
991.59999	7300.35
995.33237	7356.35
999.06217	7488.75
1002.78939	7675.35
1006.51404	7852.85
1010.23611	8042.75
1013.95561	8133.65
1017.67255	8078.65
1021.38692	7941.35
1025.09872	7838.25
1028.80796	7752.35
1032.51465	7742.45
1036.21877	7854.75
1039.92035	7980.95
1043.61937	8073.35
1047.31584	8095.05
1051.00976	8092.05
1054.70114	8103.35
1058.38998	8156.35
1062.07627	8247.85
1065.76003	8328.05
1069.44126	8411.85
1073.11995	8498.05
1076.79611	8563.25
1080.46974	8663.75
1084.14085	8817.05
1087.80943	9044.85
1091.47549	9163.35
1095.13903	9066.25
1098.80005	8781.35
1102.45857	8455.25
1106.11456	8248.75
1109.76805	8207.65
1113.41903	8318.05
1117.06751	8562.05
1120.71348	8929.05
1124.35696	9314.75
1127.99793	9672.05
1131.63641	9659.55
1135.2724	9231.75
1138.90589	8817.65
1142.5369	8573.25
1146.16542	8468.85
1149.79145	8420.95
1153.415	8473.15
1157.03607	8561.45
1160.65467	8762.95
1164.27079	9130.35
1167.88443	9607.55
1171.49561	10394.55
1175.10432	11710.35
1178.71056	13378.05
1182.31434	14474.95
1185.91565	14678.65
1189.51451	14286.15
1193.11091	13573.15
1196.70485	12752.25
1200.29634	12048.25
1203.88538	11446.15
1207.47197	10708.85
1211.05612	10113.25
1214.63782	9767.15
1218.21708	9667.55
1221.79391	9662.85
1225.36829	9699.35
1228.94024	9722.65
1232.50976	9758.95
1236.07685	9817.35
1239.6415	9815.95
1243.20374	9799.45
1246.76355	9872.55
1250.32093	9981.95
1253.8759	10202.45
1257.42845	10512.45
1260.97859	10882.55
1264.52631	11160.95
1268.07163	11424.25
1271.61453	11761.35
1275.15503	11955.35
1278.69312	12069.45
1282.22882	12124.85
1285.76211	12381.35
1289.29301	12778.95
1292.82151	13233.85
1296.34761	13706.65
1299.87133	14366.65
1303.39266	15440.55
1306.9116	17036.75
1310.42815	18872.25
1313.94233	20143.75
1317.45412	20075.25
1320.96354	19106.55
1324.47058	17950.15
1327.97525	16927.35
1331.47754	16255.85
1334.97747	15990.35
1338.47502	15980.75
1341.97022	16152.45
1345.46305	16460.25
1348.95352	16956.75
1352.44163	17716.95
1355.92738	19003.55
1359.41078	21267.65
1362.89183	23537.45
1366.37053	23115.85
1369.84688	20016.55
1373.32088	16788.45
1376.79254	14726.55
1380.26186	13708.55
1383.72883	13189.15
1387.19347	12895.25
1390.65578	12549.25
1394.11575	12257.55
1397.57339	12147.95
1401.0287	12204.35
1404.48168	12376.55
1407.93234	12450.85
1411.38068	12424.65
1414.82669	12188.75
1418.27039	11834.45
1421.71177	11449.65
1425.15083	11060.75
1428.58758	10787.95
1432.02203	10741.95
1435.45416	10772.95
1438.88399	10871.75
1442.31151	10928.65
1445.73673	11020.75
1449.15965	11118.95
1452.58027	11185.25
1455.9986	11196.25
1459.41463	11259.15
1462.82837	11428.65
1466.23982	11656.35
1469.64898	11907.05
1473.05586	12098.05
1476.46045	12172.15
1479.86276	12296.35
1483.26279	12476.35
1486.66054	12752.05
1490.05602	13103.35
1493.44922	13597.85
1496.84016	14382.45
1500.22882	15683.25
1503.61521	17404.85
1506.99934	19282.35
1510.38121	21163.65
1513.76081	22296.85
1517.13816	21612.55
1520.51324	19370.15
1523.88607	16999.65
1527.25665	15297.15
1530.62498	14358.55
1533.99105	13774.45
1537.35488	13362.85
1540.71647	13075.85
1544.07581	12872.85
1547.4329	12661.55
1550.78776	12531.25
1554.14038	12439.35
1557.49077	12526.35
1560.83892	12755.95
1564.18484	13147.25
1567.52853	13502.25
1570.86999	13795.35
1574.20922	13950.75
1577.54624	13860.45
1580.88103	13282.65
1584.2136	12509.05
1587.54395	12125.25
1590.87208	12303.05
1594.19801	12907.55
1597.52172	13662.05
1600.84321	13982.35
1604.16251	13423.95
1607.47959	12493.65
1610.79447	11512.05
1614.10715	10607.35
1617.41763	9871.65
1620.7259	9419.45
1624.03199	9108.75
1627.33587	9092.05
1630.63757	9248.75
1633.93707	9628.65
1637.23439	10284.35
1640.52951	11290.15
1643.82246	12611.55
1647.11321	14211.65
1650.40179	15418.65
1653.68819	15244.75
1656.97241	13448.55
1660.25446	11252.95
1663.53433	9566.25
1666.81203	8534.15
1670.08756	7898.75
1673.36092	7526.95
1676.63211	7266.25
1679.90115	7098.25
1683.16801	6981.55
1686.43272	6879.05
1689.69527	6787.65
1692.95567	6728.55
1696.2139	6711.25
1699.46999	6715.05
1702.72392	6694.85
1705.97571	6636.05
1709.22535	6591.55
1712.47284	6582.15
1715.71819	6579.35
1718.96139	6579.95
1722.20246	6550.15
1725.44139	6539.65
1728.67818	6490.05
1731.91284	6429.55
1735.14537	6364.75
1738.37576	6338.35
1741.60403	6285.35
1744.83017	6283.05
1748.05418	6254.55
1751.27607	6261.55
1754.49584	6241.15
1757.71349	6230.65
1760.92903	6222.55
1764.14244	6204.05
1767.35375	6192.65
1770.56294	6157.55
1773.77002	6143.25
1776.97499	6113.25
1780.17785	6058.15
1783.37861	6044.25
1786.57727	6027.45
1789.77382	6002.65
1792.96828	6009.45
1796.16064	5979.55
1799.3509	5961.65
1802.53907	5965.95
1805.72514	5940.45
1808.90913	5896.15
1812.09102	5887.45
1815.27083	5862.65
1818.44856	5856.55
1821.6242	5847.05
1824.79776	5847.25
1827.96924	5836.65
1831.13864	5812.15
1834.30597	5824.95
1837.47122	5821.45
1840.6344	5805.45
1843.7955	5810.15
1846.95454	5782.35
1850.11151	5798.25
1853.26642	5797.45
1856.41926	5779.35
1859.57004	5796.55
1862.71876	5772.35
1865.86542	5771.15
1869.01003	5796.15
1872.15258	5774.35
1875.29308	5768.45
1878.43152	5780.75
1881.56792	5785.25
1884.70227	5781.35
1887.83457	5783.95
1890.96482	5789.55
1894.09304	5756.15
1897.21921	5766.85
1900.34335	5784.25
1903.46544	5760.25
1906.58551	5781.45
1909.70353	5775.95
1912.81953	5779.05
1915.93349	5768.45
1919.04543	5761.35
1922.15534	5757.45
1925.26322	5730.55
1928.36908	5734.55
1931.47292	5697.15
1934.57473	5658.15
1937.67453	5618.65
1940.77232	5600.85
1943.86808	5568.85
1946.96184	5541.75
1950.05358	5526.25
1953.14331	5489.85
1956.23103	5470.55
1959.31675	5453.75
1962.40046	5439.95
1965.48217	5408.75
1968.56188	5395.45
1971.63959	5388.05
1974.7153	5357.85
1977.78901	5378.15
1980.86073	5316.05
1983.93046	5302.45
1986.99819	5286.95
1990.06394	5263.85
1993.1277	5261.65
1996.18947	5227.75
1999.24925	5216.25
2002.30706	5205.15
2005.36288	5178.45
2008.41672	5158.75
2011.46859	5154.45
2014.51848	5112.25
2017.56639	5109.45
2020.61233	5084.05
2023.6563	5082.45
2026.6983	5068.25
2029.73833	5052.05
2032.7764	5037.25
2035.8125	5027.45
2038.84664	5016.15
2041.87881	5011.05
2044.90903	4995.95
2047.93729	4993.05
2050.96359	4979.15
2053.98794	4970.25
2057.01034	4959.05
2060.03078	4952.25
2063.04927	4959.15
2066.06582	4951.35
2069.08042	4923.75
2072.09307	4948.25
2075.10378	4911.55
2078.11255	4921.55
2081.11938	4915.75
2084.12426	4915.75
2087.12722	4902.05
2090.12824	4898.75
2093.12732	4909.35
2096.12447	4896.85
2099.11969	4901.15
2102.11299	4914.65
2105.10435	4915.35
2108.09379	4907.45
2111.08131	4900.95
2114.0669	4897.45
2117.05057	4916.95
2120.03233	4917.25
2123.01216	4919.65
2125.99008	4914.05
2128.96609	4915.25
2131.94018	4904.55
2134.91236	4921.75
2137.88263	4910.65
2140.851	4908.45
2143.81746	4925.65
2146.78201	4919.05
2149.74466	4922.85
2152.7054	4920.55
2155.66425	4890.95
2158.6212	4896.55
2161.57625	4903.85
2164.52941	4896.55
2167.48067	4876.55
2170.43004	4870.75
2173.37752	4871.45
2176.32311	4877.15
2179.26681	4868.15
2182.20863	4865.35
2185.14856	4865.35
2188.08661	4861.55
2191.02278	4855.65
2193.95707	4843.15
2196.88948	4848.35
2199.82001	4846.55
2202.74867	4815.05
2205.67545	4832.15
2208.60037	4826.25
2211.52341	4797.85
2214.44458	4811.85
2217.36388	4787.65
2220.28132	4781.15
2223.1969	4768.45
2226.11061	4761.95
2229.02246	4721.75
2231.93245	4716.35
2234.84058	4713.95
2237.74686	4705.25
2240.65128	4707.25
2243.55385	4701.05
2246.45456	4697.05
2249.35343	4669.25
2252.25044	4680.95
2255.14561	4685.15
2258.03893	4674.85
2260.93041	4687.95
2263.82004	4672.05
2266.70783	4659.05
2269.59378	4622.75
2272.4779	4620.65
2275.36017	4596.45
2278.24061	4595.55
2281.11922	4588.75
2283.996	4575.25
2286.87094	4555.65
2289.74405	4539.75
2292.61534	4553.65
2295.4848	4521.35
2298.35243	4517.75
2301.21824	4523.95
2304.08223	4529.15
2306.94439	4524.95
2309.80474	4517.15
2312.66327	4505.15
2315.51999	4497.15
2318.37489	4501.45
2321.22797	4492.75
2324.07925	4487.65
2326.92871	4484.05
2329.77637	4481.25
2332.62222	4470.65
2335.46626	4465.15
2338.3085	4456.75
2341.14893	4448.85
2343.98756	4458.15
2346.8244	4446.75
2349.65943	4453.75
2352.49267	4460.15
2355.32411	4463.35
2358.15376	4485.35
2360.98161	4477.05
2363.80768	4473.75
2366.63195	4461.45
2369.45444	4480.95
2372.27514	4471.75
2375.09405	4467.35
2377.91118	4448.55
2380.72652	4441.95
2383.54009	4424.25
2386.35187	4412.45
2389.16188	4366.85
2391.97011	4371.05
2394.77657	4357.85
2397.58125	4336.85
2400.38416	4328.25
2403.18529	4310.35
2405.98466	4313.25
2408.78226	4293.85
2411.57809	4280.45
2414.37216	4287.15
2417.16446	4296.45
2419.955	4278.15
2422.74378	4280.65
2425.5308	4269.95
2428.31606	4263.55
2431.09956	4254.75
2433.88131	4257.95
2436.6613	4250.75
2439.43954	4258.75
2442.21603	4270.95
2444.99077	4264.95
2447.76377	4253.65
2450.53501	4262.25
2453.30451	4247.75
2456.07226	4242.05
2458.83827	4250.45
2461.60254	4255.15
2464.36507	4252.95
2467.12586	4237.35
2469.88492	4238.35
2472.64224	4237.75
2475.39782	4242.15
2478.15167	4257.35
2480.90379	4241.65
2483.65417	4240.25
2486.40283	4263.15
2489.14976	4256.75
2491.89497	4270.85
2494.63845	4287.75
2497.3802	4265.55
2500.12024	4272.05
2502.85855	4255.35
2505.59514	4248.25
2508.33002	4230.35
2511.06318	4221.65
2513.79462	4198.55
2516.52435	4200.95
2519.25237	4174.75
2521.97867	4165.15
2524.70327	4155.35
2527.42616	4142.95
2530.14734	4156.35
2532.86681	4113.95
2535.58458	4122.55
2538.30065	4129.05
2541.01501	4116.75
2543.72768	4105.15
2546.43864	4112.35
2549.14791	4102.35
2551.85548	4096.55
2554.56136	4105.55
2557.26554	4103.15
2559.96803	4103.95
2562.66883	4087.65
2565.36794	4082.85
2568.06536	4071.25
2570.7611	4065.95
2573.45514	4059.95
2576.14751	4059.95
2578.83819	4049.15
2581.52719	4037.55
2584.21451	4030.55
2586.90015	4021.85
2589.58411	4038.75
2592.2664	4019.55
2594.94701	4021.95
2597.62594	4011.55
2600.30321	4003.45
2602.9788	4002.35
2605.65273	3996.15
2608.32498	3995.95
2610.99557	3997.35
2613.66449	3984.35
2616.33175	3987.95
2618.99734	3982.05
2621.66128	3990.65
2624.32355	3977.15
2626.98416	3986.95
2629.64311	3972.45
2632.30041	3963.55
2634.95605	3959.55
2637.61004	3961.65
2640.26238	3950.85
2642.91306	3938.45
2645.56209	3937.95
2648.20948	3931.25
2650.85521	3939.45
2653.4993	3922.85
2656.14175	3943.05
2658.78255	3925.85
2661.42171	3944.85
2664.05923	3943.05
2666.6951	3942.15
2669.32934	3956.55
2671.96194	3953.25
2674.59291	3968.45
2677.22224	3954.45
2679.84993	3954.55
2682.476	3965.45
2685.10043	3954.35
2687.72324	3943.95
2690.34441	3951.95
2692.96396	3939.45
2695.58188	3946.65
2698.19818	3943.85
2700.81285	3960.95
2703.4259	3970.15
2706.03733	4021.75
2708.64714	3996.65
2711.25533	3979.45
2713.86191	3990.85
2716.46687	3991.35
2719.07021	3989.85
2721.67194	3985.65
2724.27206	3993.55
2726.87057	3988.05
2729.46747	3984.25
2732.06276	3994.25
2734.65644	3969.35
2737.24852	3962.95
2739.83899	3963.35
2742.42786	3950.85
2745.01513	3934.75
2747.60079	3936.95
2750.18486	3932.35
2752.76733	3910.25
2755.3482	3905.25
2757.92747	3921.75
2760.50515	3923.25
2763.08123	3911.95
2765.65573	3917.25
2768.22863	3907.35
2770.79994	3908.65
2773.36967	3896.55
2775.9378	3889.05
2778.50435	3896.45
2781.06932	3890.35
2783.6327	3888.55
2786.1945	3886.85
2788.75471	3881.45
2791.31335	3881.35
2793.87041	3883.55
2796.42589	3865.15
2798.97979	3876.35
2801.53212	3873.45
2804.08288	3874.15
2806.63206	3879.55
2809.17967	3877.25
2811.72571	3871.05
2814.27018	3886.95
2816.81308	3871.45
2819.35442	3879.25
2821.89419	3896.95
2824.43239	3891.75
2826.96904	3900.45
2829.50412	3897.75
2832.03763	3899.15
2834.56959	3920.75
2837.1	3936.55
2839.62884	3955.05
2842.15613	4002.05
2844.68186	4086.65
2847.20604	4181.15
2849.72867	4241.65
2852.24974	4270.45
2854.76927	4279.55
2857.28724	4272.25
2859.80367	4232.95
2862.31855	4222.55
2864.83189	4199.35
2867.34368	4181.45
2869.85393	4163.35
2872.36264	4177.15
2874.8698	4172.15
2877.37543	4175.95
2879.87952	4163.55
2882.38207	4172.05
2884.88308	4152.95
2887.38256	4165.35
2889.88051	4146.55
2892.37692	4152.55
2894.8718	4154.35
2897.36515	4159.95
2899.85698	4158.25
2902.34727	4175.45
2904.83604	4179.65
2907.32328	4187.05
2909.809	4176.35
2912.29319	4181.95
2914.77587	4184.35
2917.25702	4174.85
2919.73665	4155.45
2922.21476	4136.45
2924.69136	4138.75
2927.16644	4141.35
2929.64	4145.15
2932.11205	4123.35
2934.58258	4108.55
2937.05161	4093.15
2939.51912	4086.85
2941.98513	4025.45
2944.44962	3986.95
2946.91261	3930.35
2949.37409	3903.85
2951.83407	3874.85
2954.29254	3859.25
2956.74951	3829.05
2959.20498	3819.15
2961.65895	3797.45
2964.11142	3788.25
2966.56239	3772.15
2969.01186	3746.25
2971.45984	3742.55
2973.90632	3726.65
2976.35131	3692.95
2978.7948	3688.45
2981.23681	3665.75
2983.67732	3662.35
2986.11635	3645.25
2988.55388	3642.75
2990.98993	3616.65
2993.4245	3605.35
2995.85758	3599.35
2998.28917	3590.05
3000.71928	3598.85
3003.14791	3587.35
3005.57506	3574.55
3008.00073	3560.85
3010.42493	3557.75
3012.84764	3558.05
3015.26888	3563.65
3017.68865	3543.65
3020.10694	3539.95
3022.52376	3547.45
3024.9391	3535.05
3027.35298	3523.95
3029.76539	3534.05
3032.17632	3518.85
3034.5858	3509.45
3036.9938	3522.45
3039.40034	3497.85
3041.80542	3487.75
3044.20903	3492.75
3046.61118	3483.75
3049.01187	3479.65
3051.4111	3466.45
3053.80888	3462.55
3056.20519	3459.45
3058.60005	3461.05
3060.99345	3459.85
3063.3854	3466.65
3065.7759	3448.45
3068.16494	3453.65
3070.55254	3430.65
3072.93868	3434.35
3075.32338	3420.65
3077.70662	3400.35
3080.08842	3396.45
3082.46878	3400.85
3084.84769	3370.35
3087.22515	3363.75
3089.60118	3377.25
3091.97576	3360.55
3094.3489	3368.45
3096.72061	3367.05
3099.09087	3370.55
3101.4597	3381.35
3103.82709	3361.85
3106.19305	3348.95
3108.55757	3350.25
3110.92066	3352.65
3113.28232	3337.25
3115.64255	3332.95
3118.00134	3335.65
3120.35871	3321.55
3122.71466	3308.75
3125.06917	3317.85
3127.42226	3320.85
3129.77393	3324.05
3132.12417	3328.15
3134.47299	3337.05
3136.82039	3323.95
3139.16636	3331.45
3141.51092	3339.55
3143.85406	3340.45
3146.19579	3352.15
3148.53609	3356.05
3150.87499	3359.75
3153.21246	3372.65
3155.54853	3371.55
3157.88318	3363.55
3160.21642	3369.35
3162.54826	3374.85
3164.87868	3368.45
3167.2077	3381.05
3169.5353	3386.35
3171.86151	3383.55
3174.18631	3382.05
3176.5097	3385.65
3178.83169	3386.85
3181.15228	3384.15
3183.47147	3385.35
3185.78926	3382.85
3188.10565	3375.25
3190.42065	3389.45
3192.73424	3397.55
3195.04645	3398.55
3197.35725	3403.35
3199.66667	3405.25
3201.97469	3413.05
3204.28132	3407.65
3206.58656	3405.35
3208.8904	3413.95
3211.19287	3417.95
3213.49394	3428.25
3215.79363	3419.05
3218.09193	3427.15
3220.38884	3437.05
3222.68438	3443.95
3224.97853	3423.95
3227.2713	3423.55
3229.56269	3436.45
3231.8527	3424.05
3234.14133	3415.75
3236.42858	3416.05
3238.71446	3420.55
3240.99896	3407.75
3243.28209	3416.35
3245.56384	3402.25
3247.84423	3396.65
3250.12324	3395.05
3252.40088	3388.15
3254.67715	3395.05
3256.95205	3393.35
3259.22558	3391.15
3261.49775	3393.95
3263.76855	3378.05
3266.03799	3360.85
3268.30606	3356.75
3270.57277	3357.85
3272.83812	3352.95
3275.10211	3341.85
3277.36474	3343.85
3279.62601	3334.95
3281.88593	3336.95
3284.14448	3335.75
3286.40168	3336.45
3288.65753	3329.95
3290.91202	3318.85
3293.16516	3319.95
3295.41695	3296.65
3297.66738	3292.55
3299.91647	3268.35
3302.16421	3258.95
3304.4106	3236.05
3306.65564	3220.75
3308.89933	3203.35
3311.14169	3195.65
3313.38269	3157.65
3315.62236	3147.25
3317.86068	3120.95
3320.09766	3089.75
3322.3333	3042.15
3324.5676	3062.75
3326.80056	3023.95
3329.03219	3000.95
3331.26248	-0.35
3333.49143	0.45
3335.71905	-1.05
