Data from AgNPs_FTO_APTES_UA_2uM_CRN_0uM_R6G_10uM_NaF_0.1M_Addition_RamanShift__40__10-51-04-966.txt Node

Date: Wed Feb 02 10:51:04 GMT 2022
User: TCL
Spectrometer: QEP01345
Trigger mode: 4
Integration Time (sec): 7.000000E0
Scans to average: 10
Electric dark correction enabled: true
Nonlinearity correction enabled: false
Boxcar width: 0
XAxis mode: Raman Shifts
Number of Pixels in Spectrum: 1044
>>>>>Begin Spectral Data<<<<<
46.04893	0.55
50.45542	-0.15
54.85868	-1.05
59.25871	0.05
63.6555	62.55
68.04907	65.05
72.43941	69.05
76.82654	75.05
81.21044	80.75
85.59113	79.15
89.96862	81.15
94.34289	82.55
98.71396	86.95
103.08183	90.45
107.4465	92.25
111.80798	97.35
116.16626	98.05
120.52136	103.45
124.87327	106.55
129.222	112.35
133.56755	125.65
137.90993	135.15
142.24913	154.75
146.58517	171.95
150.91804	203.55
155.24774	247.95
159.57429	312.95
163.89768	409.55
168.21792	540.85
172.53501	746.45
176.84895	1047.25
181.15975	1472.55
185.46741	2061.05
189.77193	2840.65
194.07331	3787.25
198.37157	4865.65
202.6667	6003.35
206.9587	7148.65
211.24758	8258.55
215.53334	9396.75
219.81599	10575.55
224.09553	11922.15
228.37195	13400.25
232.64527	14987.75
236.91549	16594.25
241.18261	18236.35
245.44663	19736.85
249.70755	21116.55
253.96539	22308.65
258.22014	23327.35
262.4718	24041.05
266.72039	24546.25
270.96589	24721.05
275.20832	24703.85
279.44768	24492.65
283.68397	24246.15
287.91719	24033.95
292.14735	23891.05
296.37445	23865.75
300.59849	23896.25
304.81948	24043.65
309.03742	24114.25
313.25231	24096.35
317.46415	23765.25
321.67296	23212.15
325.87872	22696.15
330.08145	22348.15
334.28114	22207.15
338.47781	22215.45
342.67145	22405.65
346.86207	22676.65
351.04966	22987.55
355.23424	23354.95
359.4158	23734.65
363.59435	23927.45
367.76989	24058.95
371.94243	24024.35
376.11196	23945.65
380.27849	23796.65
384.44203	23791.15
388.60257	23926.25
392.76012	24301.05
396.91468	24742.95
401.06626	25244.35
405.21485	25517.35
409.36047	25324.05
413.50311	25032.25
417.64277	24970.15
421.77947	25218.25
425.9132	25439.35
430.04396	25576.95
434.17176	25560.45
438.2966	25580.25
442.41849	25918.25
446.53742	26537.05
450.6534	27225.75
454.76644	27575.95
458.87653	27749.05
462.98368	27622.05
467.08789	27381.55
471.18916	27039.25
475.2875	26700.05
479.38291	26620.95
483.4754	26704.25
487.56496	26568.45
491.6516	26136.65
495.73531	25543.45
499.81612	25030.15
503.89401	25003.25
507.96899	25091.65
512.04106	25049.95
516.11023	24708.95
520.1765	24245.35
524.23987	23852.15
528.30034	23485.65
532.35792	23205.95
536.41261	22846.55
540.46441	22603.65
544.51333	22602.15
548.55936	22858.55
552.60252	23474.95
556.64279	24242.95
560.6802	24857.65
564.71473	25429.65
568.7464	26247.55
572.7752	27674.85
576.80114	29366.75
580.82422	30957.75
584.84444	32728.75
588.86181	35285.05
592.87633	37705.65
596.888	37404.05
600.89682	34134.75
604.9028	31586.75
608.90594	31673.65
612.90624	32495.75
616.90371	30106.65
620.89834	25662.55
624.89015	23710.95
628.87913	23739.45
632.86528	24085.55
636.84862	23938.35
640.82913	23229.05
644.80683	22477.05
648.78172	22057.65
652.75379	22051.25
656.72306	22304.05
660.68952	22469.55
664.65319	22258.65
668.61405	21790.55
672.57211	21681.65
676.52738	21768.55
680.47986	21796.45
684.42955	21614.25
688.37646	21453.45
692.32058	21642.25
696.26192	22092.85
700.20048	22549.25
704.13626	22879.15
708.06928	23178.05
711.99952	23271.55
715.927	23244.15
719.85171	23207.85
723.77365	22907.45
727.69284	22265.15
731.60928	21776.45
735.52295	21568.25
739.43388	21565.15
743.34206	21642.75
747.24749	21862.45
751.15017	22244.05
755.05012	22862.05
758.94733	23699.25
762.8418	25031.05
766.73354	26891.25
770.62254	28245.25
774.50882	27933.05
778.39237	26350.65
782.27321	24469.85
786.15132	23136.55
790.02671	22241.05
793.89938	21769.65
797.76935	21497.05
801.6366	21385.45
805.50115	21347.25
809.36299	21299.25
813.22213	21218.25
817.07857	21151.85
820.93231	21046.45
824.78336	20821.35
828.63172	20615.05
832.47738	20462.85
836.32036	20432.55
840.16066	20439.95
843.99827	20414.35
847.8332	20404.85
851.66546	20462.95
855.49504	20498.65
859.32195	20510.95
863.1462	20446.45
866.96777	20348.55
870.78668	20316.85
874.60293	20312.45
878.41652	20333.95
882.22745	20399.25
886.03573	20521.65
889.84136	20567.65
893.64433	20519.65
897.44466	20540.15
901.24235	20560.25
905.0374	20549.45
908.8298	20553.65
912.61957	20664.45
916.40671	20981.25
920.19121	21475.15
923.97308	21922.15
927.75233	22016.75
931.52895	21588.45
935.30295	20814.55
939.07433	20096.65
942.84309	19621.65
946.60924	19331.75
950.37278	19254.15
954.13371	19255.75
957.89203	19217.25
961.64774	19244.65
965.40086	19219.95
969.15137	19127.55
972.89929	18904.25
976.64461	18704.55
980.38733	18552.85
984.12747	18575.15
987.86502	18570.55
991.59999	18656.75
995.33237	18774.25
999.06217	19030.75
1002.78939	19448.75
1006.51404	19910.65
1010.23611	20442.05
1013.95561	20865.55
1017.67255	20922.15
1021.38692	20643.95
1025.09872	20118.65
1028.80796	19711.55
1032.51465	19534.85
1036.21877	19613.75
1039.92035	19719.95
1043.61937	19843.75
1047.31584	19971.15
1051.00976	20073.15
1054.70114	20216.45
1058.38998	20374.55
1062.07627	20639.65
1065.76003	20980.55
1069.44126	21491.35
1073.11995	22083.85
1076.79611	22585.85
1080.46974	22694.45
1084.14085	22781.35
1087.80943	23137.95
1091.47549	23503.65
1095.13903	23731.85
1098.80005	23267.05
1102.45857	22314.75
1106.11456	21470.25
1109.76805	21021.25
1113.41903	20961.85
1117.06751	21059.75
1120.71348	21290.45
1124.35696	21533.55
1127.99793	21883.55
1131.63641	22170.15
1135.2724	22206.05
1138.90589	22291.85
1142.5369	22503.35
1146.16542	22884.65
1149.79145	23385.55
1153.415	23895.95
1157.03607	24487.55
1160.65467	25552.05
1164.27079	27207.45
1167.88443	29041.55
1171.49561	30743.45
1175.10432	32820.55
1178.71056	35355.55
1182.31434	37662.85
1185.91565	38616.65
1189.51451	38118.75
1193.11091	37089.15
1196.70485	35689.05
1200.29634	34242.35
1203.88538	33455.45
1207.47197	33352.95
1211.05612	33531.35
1214.63782	33113.95
1218.21708	31926.65
1221.79391	30359.15
1225.36829	29210.15
1228.94024	28499.25
1232.50976	28040.25
1236.07685	27521.75
1239.6415	27035.35
1243.20374	26877.25
1246.76355	26986.45
1250.32093	27417.55
1253.8759	28162.45
1257.42845	29141.65
1260.97859	30339.95
1264.52631	31564.55
1268.07163	32706.25
1271.61453	33922.45
1275.15503	35294.65
1278.69312	37017.05
1282.22882	39107.95
1285.76211	41582.35
1289.29301	44237.85
1292.82151	47052.75
1296.34761	50243.55
1299.87133	53783.75
1303.39266	56868.05
1306.9116	58919.25
1310.42815	59825.85
1313.94233	59777.45
1317.45412	58882.45
1320.96354	57986.05
1324.47058	57681.95
1327.97525	57620.75
1331.47754	57270.55
1334.97747	56306.65
1338.47502	54829.65
1341.97022	53157.75
1345.46305	51565.65
1348.95352	50414.85
1352.44163	49958.35
1355.92738	50802.35
1359.41078	53012.65
1362.89183	55399.45
1366.37053	55940.95
1369.84688	52689.75
1373.32088	46681.25
1376.79254	41943.65
1380.26186	40314.65
1383.72883	40563.55
1387.19347	40901.95
1390.65578	40542.65
1394.11575	40435.35
1397.57339	41096.65
1401.0287	42077.65
1404.48168	42745.85
1407.93234	42250.65
1411.38068	40500.85
1414.82669	38126.35
1418.27039	35798.05
1421.71177	33766.55
1425.15083	32178.45
1428.58758	31635.05
1432.02203	32078.15
1435.45416	33332.55
1438.88399	34697.85
1442.31151	35592.25
1445.73673	36154.45
1449.15965	36617.15
1452.58027	36743.55
1455.9986	36774.65
1459.41463	36894.15
1462.82837	37395.45
1466.23982	38066.75
1469.64898	38629.25
1473.05586	38812.65
1476.46045	38792.45
1479.86276	38488.75
1483.26279	38205.25
1486.66054	38242.45
1490.05602	38658.05
1493.44922	39521.95
1496.84016	40359.35
1500.22882	41030.95
1503.61521	41639.15
1506.99934	42175.45
1510.38121	42582.75
1513.76081	42780.35
1517.13816	42766.55
1520.51324	42747.95
1523.88607	43025.95
1527.25665	43546.25
1530.62498	43868.35
1533.99105	43306.15
1537.35488	41986.55
1540.71647	40083.65
1544.07581	37956.95
1547.4329	36019.75
1550.78776	34581.95
1554.14038	33667.85
1557.49077	33268.35
1560.83892	33063.95
1564.18484	32952.25
1567.52853	32978.35
1570.86999	33440.65
1574.20922	34474.45
1577.54624	35627.05
1580.88103	36592.55
1584.2136	37847.25
1587.54395	39969.75
1590.87208	42790.05
1594.19801	45661.25
1597.52172	47456.05
1600.84321	46649.75
1604.16251	42840.75
1607.47959	37809.05
1610.79447	33371.25
1614.10715	29745.35
1617.41763	27141.55
1620.7259	25547.55
1624.03199	24839.35
1627.33587	25130.65
1630.63757	26428.65
1633.93707	29002.85
1637.23439	33403.25
1640.52951	40091.45
1643.82246	48344.25
1647.11321	55026.35
1650.40179	56153.25
1653.68819	50690.65
1656.97241	41879.85
1660.25446	33531.35
1663.53433	27581.55
1666.81203	23816.45
1670.08756	21585.65
1673.36092	20240.55
1676.63211	19369.65
1679.90115	18745.55
1683.16801	18310.55
1686.43272	17986.55
1689.69527	17715.75
1692.95567	17520.15
1696.2139	17416.45
1699.46999	17311.55
1702.72392	17214.15
1705.97571	17107.75
1709.22535	17004.85
1712.47284	16950.45
1715.71819	16936.65
1718.96139	16826.25
1722.20246	16767.35
1725.44139	16674.65
1728.67818	16514.85
1731.91284	16375.45
1735.14537	16242.75
1738.37576	16134.45
1741.60403	16062.35
1744.83017	15985.75
1748.05418	15937.25
1751.27607	15859.45
1754.49584	15829.25
1757.71349	15780.65
1760.92903	15791.55
1764.14244	15760.35
1767.35375	15731.75
1770.56294	15672.95
1773.77002	15641.95
1776.97499	15583.65
1780.17785	15520.75
1783.37861	15519.45
1786.57727	15493.95
1789.77382	15445.35
1792.96828	15397.65
1796.16064	15350.35
1799.3509	15317.15
1802.53907	15288.15
1805.72514	15267.45
1808.90913	15226.25
1812.09102	15149.45
1815.27083	15112.15
1818.44856	15094.55
1821.6242	15092.45
1824.79776	15102.25
1827.96924	15063.55
1831.13864	15053.35
1834.30597	15081.45
1837.47122	15071.05
1840.6344	15077.15
1843.7955	15117.55
1846.95454	15105.75
1850.11151	15080.35
1853.26642	15053.25
1856.41926	15054.05
1859.57004	15017.65
1862.71876	14975.05
1865.86542	14924.35
1869.01003	14935.15
1872.15258	14868.95
1875.29308	14865.55
1878.43152	14831.05
1881.56792	14833.35
1884.70227	14788.95
1887.83457	14744.55
1890.96482	14705.05
1894.09304	14686.15
1897.21921	14657.55
1900.34335	14624.65
1903.46544	14601.55
1906.58551	14596.35
1909.70353	14553.25
1912.81953	14524.75
1915.93349	14483.55
1919.04543	14400.55
1922.15534	14377.65
1925.26322	14318.55
1928.36908	14285.85
1931.47292	14212.45
1934.57473	14171.85
1937.67453	14121.65
1940.77232	14089.55
1943.86808	14059.85
1946.96184	14016.25
1950.05358	13971.05
1953.14331	13926.45
1956.23103	13888.05
1959.31675	13841.55
1962.40046	13794.75
1965.48217	13751.35
1968.56188	13670.35
1971.63959	13636.15
1974.7153	13575.65
1977.78901	13507.45
1980.86073	13472.55
1983.93046	13420.95
1986.99819	13391.65
1990.06394	13352.65
1993.1277	13324.25
1996.18947	13270.85
1999.24925	13218.85
2002.30706	13164.75
2005.36288	13117.15
2008.41672	13084.35
2011.46859	13020.85
2014.51848	12994.45
2017.56639	12930.85
2020.61233	12878.55
2023.6563	12849.85
2026.6983	12817.45
2029.73833	12801.35
2032.7764	12794.55
2035.8125	12758.35
2038.84664	12733.65
2041.87881	12690.15
2044.90903	12642.75
2047.93729	12675.75
2050.96359	12620.25
2053.98794	12619.15
2057.01034	12590.95
2060.03078	12588.45
2063.04927	12572.85
2066.06582	12590.35
2069.08042	12568.45
2072.09307	12595.55
2075.10378	12588.25
2078.11255	12564.25
2081.11938	12551.95
2084.12426	12578.25
2087.12722	12574.75
2090.12824	12532.15
2093.12732	12571.85
2096.12447	12560.25
2099.11969	12540.75
2102.11299	12560.75
2105.10435	12563.15
2108.09379	12518.85
2111.08131	12510.15
2114.0669	12515.25
2117.05057	12512.75
2120.03233	12515.55
2123.01216	12514.75
2125.99008	12486.55
2128.96609	12477.25
2131.94018	12483.65
2134.91236	12487.05
2137.88263	12486.85
2140.851	12459.05
2143.81746	12441.25
2146.78201	12398.65
2149.74466	12402.45
2152.7054	12384.65
2155.66425	12362.45
2158.6212	12361.75
2161.57625	12355.45
2164.52941	12335.05
2167.48067	12365.15
2170.43004	12317.15
2173.37752	12339.65
2176.32311	12302.35
2179.26681	12346.15
2182.20863	12333.95
2185.14856	12353.65
2188.08661	12316.75
2191.02278	12298.25
2193.95707	12274.75
2196.88948	12249.75
2199.82001	12208.35
2202.74867	12227.65
2205.67545	12234.35
2208.60037	12190.55
2211.52341	12155.95
2214.44458	12136.35
2217.36388	12107.85
2220.28132	12069.65
2223.1969	12065.05
2226.11061	12040.75
2229.02246	12025.25
2231.93245	12056.35
2234.84058	12053.25
2237.74686	12023.95
2240.65128	12018.55
2243.55385	11981.05
2246.45456	11973.45
2249.35343	11895.35
2252.25044	11862.95
2255.14561	11826.05
2258.03893	11808.45
2260.93041	11763.85
2263.82004	11707.25
2266.70783	11708.75
2269.59378	11669.85
2272.4779	11656.05
2275.36017	11564.65
2278.24061	11570.45
2281.11922	11521.45
2283.996	11505.15
2286.87094	11510.15
2289.74405	11476.95
2292.61534	11432.15
2295.4848	11409.05
2298.35243	11438.55
2301.21824	11414.95
2304.08223	11385.65
2306.94439	11385.95
2309.80474	11362.55
2312.66327	11353.95
2315.51999	11311.85
2318.37489	11307.65
2321.22797	11310.85
2324.07925	11279.85
2326.92871	11281.55
2329.77637	11261.65
2332.62222	11249.55
2335.46626	11238.15
2338.3085	11230.05
2341.14893	11210.05
2343.98756	11222.45
2346.8244	11215.05
2349.65943	11210.75
2352.49267	11206.65
2355.32411	11215.55
2358.15376	11194.55
2360.98161	11182.15
2363.80768	11210.45
2366.63195	11180.55
2369.45444	11170.95
2372.27514	11146.45
2375.09405	11132.85
2377.91118	11091.35
2380.72652	11061.75
2383.54009	11071.65
2386.35187	11036.85
2389.16188	10996.45
2391.97011	10938.05
2394.77657	10935.55
2397.58125	10930.95
2400.38416	10909.25
2403.18529	10880.95
2405.98466	10866.65
2408.78226	10864.45
2411.57809	10833.55
2414.37216	10810.15
2417.16446	10805.05
2419.955	10784.95
2422.74378	10804.05
2425.5308	10791.05
2428.31606	10786.15
2431.09956	10784.25
2433.88131	10748.25
2436.6613	10755.65
2439.43954	10755.55
2442.21603	10731.65
2444.99077	10757.65
2447.76377	10752.65
2450.53501	10743.25
2453.30451	10739.45
2456.07226	10728.05
2458.83827	10736.15
2461.60254	10724.75
2464.36507	10708.55
2467.12586	10723.15
2469.88492	10708.65
2472.64224	10700.75
2475.39782	10693.75
2478.15167	10674.05
2480.90379	10685.75
2483.65417	10699.35
2486.40283	10662.65
2489.14976	10665.75
2491.89497	10646.15
2494.63845	10668.05
2497.3802	10649.75
2500.12024	10640.55
2502.85855	10648.85
2505.59514	10639.05
2508.33002	10625.55
2511.06318	10611.85
2513.79462	10601.65
2516.52435	10588.25
2519.25237	10574.95
2521.97867	10554.95
2524.70327	10556.05
2527.42616	10550.95
2530.14734	10534.35
2532.86681	10508.05
2535.58458	10493.15
2538.30065	10490.65
2541.01501	10466.05
2543.72768	10433.95
2546.43864	10441.15
2549.14791	10416.85
2551.85548	10401.95
2554.56136	10409.45
2557.26554	10383.35
2559.96803	10376.75
2562.66883	10379.25
2565.36794	10374.05
2568.06536	10368.35
2570.7611	10365.55
2573.45514	10375.15
2576.14751	10347.35
2578.83819	10318.45
2581.52719	10323.85
2584.21451	10344.05
2586.90015	10301.65
2589.58411	10292.05
2592.2664	10280.65
2594.94701	10271.55
2597.62594	10256.65
2600.30321	10242.85
2602.9788	10234.35
2605.65273	10240.25
2608.32498	10264.85
2610.99557	10250.35
2613.66449	10241.65
2616.33175	10234.95
2618.99734	10232.45
2621.66128	10256.85
2624.32355	10229.95
2626.98416	10224.55
2629.64311	10202.35
2632.30041	10194.15
2634.95605	10187.65
2637.61004	10183.95
2640.26238	10169.15
2642.91306	10161.55
2645.56209	10140.25
2648.20948	10155.35
2650.85521	10136.95
2653.4993	10181.25
2656.14175	10178.05
2658.78255	10210.75
2661.42171	10189.85
2664.05923	10171.55
2666.6951	10196.05
2669.32934	10218.35
2671.96194	10236.15
2674.59291	10228.25
2677.22224	10193.45
2679.84993	10180.25
2682.476	10205.35
2685.10043	10190.65
2687.72324	10195.85
2690.34441	10176.25
2692.96396	10200.85
2695.58188	10205.65
2698.19818	10169.75
2700.81285	10189.95
2703.4259	10173.25
2706.03733	10185.55
2708.64714	10175.45
2711.25533	10194.75
2713.86191	10156.55
2716.46687	10213.75
2719.07021	10209.35
2721.67194	10211.15
2724.27206	10212.25
2726.87057	10221.85
2729.46747	10198.15
2732.06276	10172.45
2734.65644	10199.25
2737.24852	10206.55
2739.83899	10203.55
2742.42786	10200.15
2745.01513	10185.65
2747.60079	10176.65
2750.18486	10170.65
2752.76733	10207.75
2755.3482	10187.95
2757.92747	10211.25
2760.50515	10177.75
2763.08123	10167.35
2765.65573	10168.15
2768.22863	10166.55
2770.79994	10156.95
2773.36967	10150.35
2775.9378	10136.15
2778.50435	10164.95
2781.06932	10160.25
2783.6327	10134.85
2786.1945	10113.25
2788.75471	10122.95
2791.31335	10097.25
2793.87041	10077.05
2796.42589	10048.75
2798.97979	10064.65
2801.53212	10056.55
2804.08288	10054.25
2806.63206	10044.85
2809.17967	10020.75
2811.72571	9998.05
2814.27018	10007.45
2816.81308	9988.85
2819.35442	9978.95
2821.89419	9945.15
2824.43239	9947.75
2826.96904	9912.75
2829.50412	9918.35
2832.03763	9907.55
2834.56959	9900.05
2837.1	9865.15
2839.62884	9920.35
2842.15613	9932.75
2844.68186	9959.85
2847.20604	9991.95
2849.72867	9986.15
2852.24974	10022.85
2854.76927	10002.75
2857.28724	9967.85
2859.80367	9937.35
2862.31855	9930.05
2864.83189	9920.35
2867.34368	9877.45
2869.85393	9887.05
2872.36264	9879.95
2874.8698	9884.35
2877.37543	9903.75
2879.87952	9923.65
2882.38207	9928.95
2884.88308	9917.85
2887.38256	9930.55
2889.88051	9934.65
2892.37692	9926.15
2894.8718	9965.55
2897.36515	9964.65
2899.85698	9967.25
2902.34727	9980.55
2904.83604	9958.05
2907.32328	9974.95
2909.809	9966.25
2912.29319	9965.25
2914.77587	9966.65
2917.25702	9989.65
2919.73665	9948.75
2922.21476	9960.35
2924.69136	9956.25
2927.16644	9960.45
2929.64	9917.65
2932.11205	9933.25
2934.58258	9901.75
2937.05161	9926.15
2939.51912	9926.95
2941.98513	9882.05
2944.44962	9852.45
2946.91261	9788.65
2949.37409	9804.05
2951.83407	9753.15
2954.29254	9753.05
2956.74951	9709.95
2959.20498	9694.45
2961.65895	9645.95
2964.11142	9644.95
2966.56239	9594.85
2969.01186	9608.75
2971.45984	9572.15
2973.90632	9540.65
2976.35131	9509.75
2978.7948	9465.35
2981.23681	9434.45
2983.67732	9382.15
2986.11635	9357.35
2988.55388	9300.25
2990.98993	9272.55
2993.4245	9268.45
2995.85758	9230.85
2998.28917	9224.75
3000.71928	9216.95
3003.14791	9206.05
3005.57506	9182.95
3008.00073	9132.05
3010.42493	9121.55
3012.84764	9103.05
3015.26888	9106.15
3017.68865	9065.75
3020.10694	9028.15
3022.52376	8997.95
3024.9391	9001.55
3027.35298	9001.25
3029.76539	8972.35
3032.17632	8962.85
3034.5858	8933.05
3036.9938	8908.95
3039.40034	8908.95
3041.80542	8898.95
3044.20903	8886.55
3046.61118	8903.85
3049.01187	8865.05
3051.4111	8855.05
3053.80888	8833.15
3056.20519	8802.35
3058.60005	8780.15
3060.99345	8758.35
3063.3854	8715.65
3065.7759	8675.15
3068.16494	8673.45
3070.55254	8633.65
3072.93868	8603.15
3075.32338	8581.65
3077.70662	8553.05
3080.08842	8548.35
3082.46878	8524.85
3084.84769	8509.95
3087.22515	8500.85
3089.60118	8499.05
3091.97576	8481.45
3094.3489	8483.65
3096.72061	8478.85
3099.09087	8479.35
3101.4597	8435.35
3103.82709	8422.45
3106.19305	8416.45
3108.55757	8397.45
3110.92066	8371.95
3113.28232	8367.35
3115.64255	8305.95
3118.00134	8303.35
3120.35871	8300.85
3122.71466	8289.55
3125.06917	8274.95
3127.42226	8234.25
3129.77393	8269.05
3132.12417	8239.15
3134.47299	8216.15
3136.82039	8231.35
3139.16636	8230.55
3141.51092	8204.95
3143.85406	8201.35
3146.19579	8206.45
3148.53609	8231.45
3150.87499	8221.65
3153.21246	8214.15
3155.54853	8229.45
3157.88318	8197.65
3160.21642	8213.45
3162.54826	8201.85
3164.87868	8175.45
3167.2077	8157.95
3169.5353	8164.75
3171.86151	8156.85
3174.18631	8148.25
3176.5097	8143.85
3178.83169	8160.15
3181.15228	8137.05
3183.47147	8114.55
3185.78926	8118.05
3188.10565	8097.85
3190.42065	8105.95
3192.73424	8093.65
3195.04645	8078.35
3197.35725	8081.15
3199.66667	8079.65
3201.97469	8045.45
3204.28132	8030.25
3206.58656	8023.35
3208.8904	8029.55
3211.19287	8034.15
3213.49394	8006.15
3215.79363	8024.55
3218.09193	8019.15
3220.38884	8005.25
3222.68438	8035.95
3224.97853	7989.55
3227.2713	7986.85
3229.56269	8007.75
3231.8527	7984.95
3234.14133	7978.05
3236.42858	7940.65
3238.71446	7969.65
3240.99896	7957.95
3243.28209	7964.65
3245.56384	7946.55
3247.84423	7961.05
3250.12324	7926.45
3252.40088	7924.15
3254.67715	7885.25
3256.95205	7852.45
3259.22558	7853.55
3261.49775	7838.95
3263.76855	7823.85
3266.03799	7786.25
3268.30606	7774.55
3270.57277	7750.35
3272.83812	7751.85
3275.10211	7713.95
3277.36474	7715.45
3279.62601	7733.05
3281.88593	7723.75
3284.14448	7745.25
3286.40168	7740.55
3288.65753	7735.25
3290.91202	7712.45
3293.16516	7694.85
3295.41695	7654.95
3297.66738	7602.85
3299.91647	7565.35
3302.16421	7510.95
3304.4106	7509.75
3306.65564	7445.85
3308.89933	7400.25
3311.14169	7330.95
3313.38269	7287.15
3315.62236	7223.95
3317.86068	7166.15
3320.09766	7077.25
3322.3333	7014.35
3324.5676	7008.75
3326.80056	6878.85
3329.03219	6847.45
3331.26248	1.45
3333.49143	0.55
3335.71905	-1.45
