Data from AgNPs_FTO_APTES_UA_2uM_CRN_500uM_R6G_10uM_NaF_0.1M_Addition_RamanShift__15__17-16-05-414.txt Node

Date: Wed Feb 02 17:16:05 GMT 2022
User: TCL
Spectrometer: QEP01345
Trigger mode: 4
Integration Time (sec): 7.000000E0
Scans to average: 10
Electric dark correction enabled: true
Nonlinearity correction enabled: false
Boxcar width: 0
XAxis mode: Raman Shifts
Number of Pixels in Spectrum: 1044
>>>>>Begin Spectral Data<<<<<
46.04893	0.35
50.45542	0.15
54.85868	-1.55
59.25871	-0.45
63.6555	58.15
68.04907	62.85
72.43941	66.25
76.82654	74.25
81.21044	71.35
85.59113	78.55
89.96862	80.55
94.34289	83.45
98.71396	86.15
103.08183	91.25
107.4465	93.75
111.80798	95.85
116.16626	94.15
120.52136	98.75
124.87327	102.35
129.222	107.65
133.56755	113.65
137.90993	122.25
142.24913	137.85
146.58517	149.75
150.91804	172.45
155.24774	208.45
159.57429	257.25
163.89768	329.85
168.21792	430.75
172.53501	582.45
176.84895	814.45
181.15975	1143.45
185.46741	1606.05
189.77193	2216.85
194.07331	2990.25
198.37157	3852.85
202.6667	4755.95
206.9587	5661.55
211.24758	6563.95
215.53334	7432.25
219.81599	8360.45
224.09553	9381.75
228.37195	10485.15
232.64527	11692.45
236.91549	12945.85
241.18261	14221.75
245.44663	15420.65
249.70755	16536.75
253.96539	17550.35
258.22014	18387.85
262.4718	19072.55
266.72039	19505.15
270.96589	19811.55
275.20832	19934.45
279.44768	19981.95
283.68397	19948.45
287.91719	19946.75
292.14735	19950.15
296.37445	20058.95
300.59849	20129.65
304.81948	20175.95
309.03742	20052.25
313.25231	19720.95
317.46415	19152.35
321.67296	18538.55
325.87872	17953.05
330.08145	17668.95
334.28114	17562.45
338.47781	17609.05
342.67145	17774.55
346.86207	17952.95
351.04966	18202.35
355.23424	18437.95
359.4158	18648.65
363.59435	18784.25
367.76989	18909.45
371.94243	18962.05
376.11196	18971.95
380.27849	19016.65
384.44203	19085.65
388.60257	19214.25
392.76012	19480.65
396.91468	19737.45
401.06626	20066.35
405.21485	20264.85
409.36047	20211.25
413.50311	19946.15
417.64277	19764.85
421.77947	19661.95
425.9132	19744.85
430.04396	19832.55
434.17176	19929.45
438.2966	20071.45
442.41849	20323.75
446.53742	20681.85
450.6534	21140.25
454.76644	21456.35
458.87653	21634.35
462.98368	21765.95
467.08789	21771.95
471.18916	21675.35
475.2875	21659.65
479.38291	21733.15
483.4754	21719.45
487.56496	21523.15
491.6516	21089.45
495.73531	20613.65
499.81612	20302.65
503.89401	20278.25
507.96899	20307.75
512.04106	20293.55
516.11023	20209.85
520.1765	19967.85
524.23987	19761.05
528.30034	19493.85
532.35792	19265.85
536.41261	19124.25
540.46441	18971.85
544.51333	19068.15
548.55936	19407.75
552.60252	19895.15
556.64279	20485.05
560.6802	20864.95
564.71473	21173.95
568.7464	21690.45
572.7752	22418.55
576.80114	23140.25
580.82422	23621.35
584.84444	23832.05
588.86181	23823.85
592.87633	23660.15
596.888	23218.15
600.89682	22844.25
604.9028	23009.55
608.90594	24089.25
612.90624	25229.55
616.90371	23850.65
620.89834	20670.55
624.89015	19182.15
628.87913	19009.05
632.86528	19233.05
636.84862	19358.75
640.82913	19232.95
644.80683	18823.85
648.78172	18480.45
652.75379	18383.95
656.72306	18444.85
660.68952	18600.35
664.65319	18587.65
668.61405	18423.15
672.57211	18377.45
676.52738	18448.75
680.47986	18509.55
684.42955	18455.25
688.37646	18405.05
692.32058	18365.55
696.26192	18505.05
700.20048	18663.95
704.13626	18823.05
708.06928	18967.45
711.99952	18951.35
715.927	18874.05
719.85171	18794.05
723.77365	18702.15
727.69284	18471.55
731.60928	18275.55
735.52295	18191.05
739.43388	18118.65
743.34206	18074.25
747.24749	18151.35
751.15017	18344.65
755.05012	18678.95
758.94733	19218.25
762.8418	20174.65
766.73354	21576.55
770.62254	22814.05
774.50882	22974.45
778.39237	21921.85
782.27321	20466.45
786.15132	19273.15
790.02671	18519.65
793.89938	18121.85
797.76935	17975.95
801.6366	17896.25
805.50115	17834.45
809.36299	17745.15
813.22213	17677.65
817.07857	17684.15
820.93231	17695.55
824.78336	17580.35
828.63172	17447.85
832.47738	17360.95
836.32036	17334.85
840.16066	17293.25
843.99827	17256.55
847.8332	17242.15
851.66546	17236.05
855.49504	17228.25
859.32195	17220.75
863.1462	17169.45
866.96777	17148.05
870.78668	17126.05
874.60293	17111.35
878.41652	17119.95
882.22745	17137.45
886.03573	17175.35
889.84136	17188.95
893.64433	17156.65
897.44466	17142.45
901.24235	17086.15
905.0374	17017.85
908.8298	16994.35
912.61957	17063.95
916.40671	17284.95
920.19121	17525.85
923.97308	17646.05
927.75233	17485.95
931.52895	17262.65
935.30295	17048.25
939.07433	16739.85
942.84309	16459.35
946.60924	16284.75
950.37278	16233.65
954.13371	16181.15
957.89203	16179.55
961.64774	16183.95
965.40086	16170.15
969.15137	16117.15
972.89929	16003.45
976.64461	15889.55
980.38733	15825.35
984.12747	15835.25
987.86502	15876.05
991.59999	15966.05
995.33237	16014.95
999.06217	16168.95
1002.78939	16363.15
1006.51404	16522.85
1010.23611	16716.25
1013.95561	16876.65
1017.67255	16932.25
1021.38692	16887.35
1025.09872	16731.85
1028.80796	16564.15
1032.51465	16557.25
1036.21877	16619.35
1039.92035	16661.95
1043.61937	16776.75
1047.31584	16797.75
1051.00976	16859.05
1054.70114	17037.45
1058.38998	17138.85
1062.07627	17412.85
1065.76003	17645.65
1069.44126	17913.35
1073.11995	18078.55
1076.79611	18234.95
1080.46974	18264.75
1084.14085	18280.05
1087.80943	18423.85
1091.47549	18607.95
1095.13903	18754.45
1098.80005	18705.35
1102.45857	18269.85
1106.11456	17837.75
1109.76805	17537.45
1113.41903	17477.15
1117.06751	17598.05
1120.71348	17773.25
1124.35696	17982.65
1127.99793	18286.35
1131.63641	18477.25
1135.2724	18388.75
1138.90589	18260.65
1142.5369	18282.55
1146.16542	18401.55
1149.79145	18638.55
1153.415	18944.35
1157.03607	19333.45
1160.65467	19865.45
1164.27079	20644.85
1167.88443	21618.85
1171.49561	22695.95
1175.10432	24092.25
1178.71056	25814.45
1182.31434	27473.95
1185.91565	28513.15
1189.51451	28878.95
1193.11091	28676.25
1196.70485	27966.75
1200.29634	26944.55
1203.88538	26055.75
1207.47197	25555.55
1211.05612	25179.55
1214.63782	24736.05
1218.21708	24030.05
1221.79391	23202.95
1225.36829	22517.15
1228.94024	22023.55
1232.50976	21677.45
1236.07685	21486.15
1239.6415	21375.55
1243.20374	21426.35
1246.76355	21565.35
1250.32093	21840.55
1253.8759	22225.75
1257.42845	22791.05
1260.97859	23408.65
1264.52631	23999.65
1268.07163	24551.75
1271.61453	25122.15
1275.15503	25739.95
1278.69312	26466.65
1282.22882	27148.05
1285.76211	27968.35
1289.29301	29115.35
1292.82151	30498.75
1296.34761	32129.95
1299.87133	33934.25
1303.39266	35627.45
1306.9116	37007.05
1310.42815	38029.05
1313.94233	38519.65
1317.45412	38497.45
1320.96354	38399.25
1324.47058	38441.45
1327.97525	38633.85
1331.47754	38824.85
1334.97747	39000.75
1338.47502	39119.35
1341.97022	39211.85
1345.46305	39092.45
1348.95352	38656.45
1352.44163	37963.15
1355.92738	37306.15
1359.41078	37193.35
1362.89183	37321.65
1366.37053	36378.65
1369.84688	34011.35
1373.32088	31320.45
1376.79254	29378.05
1380.26186	28671.65
1383.72883	28767.55
1387.19347	28996.05
1390.65578	29134.75
1394.11575	29239.75
1397.57339	29400.15
1401.0287	29532.95
1404.48168	29659.65
1407.93234	29255.05
1411.38068	28439.85
1414.82669	27289.65
1418.27039	25936.75
1421.71177	24659.45
1425.15083	23645.15
1428.58758	23067.95
1432.02203	23091.45
1435.45416	23522.05
1438.88399	24201.25
1442.31151	24742.05
1445.73673	25260.85
1449.15965	25784.35
1452.58027	26242.35
1455.9986	26605.95
1459.41463	26969.75
1462.82837	27284.75
1466.23982	27503.95
1469.64898	27727.35
1473.05586	27776.35
1476.46045	27677.85
1479.86276	27411.35
1483.26279	27138.45
1486.66054	27048.65
1490.05602	27123.85
1493.44922	27512.15
1496.84016	28077.15
1500.22882	28974.65
1503.61521	30217.25
1506.99934	31542.45
1510.38121	32519.65
1513.76081	32968.05
1517.13816	32488.45
1520.51324	31591.35
1523.88607	30914.75
1527.25665	30575.45
1530.62498	30426.15
1533.99105	30237.75
1537.35488	29852.75
1540.71647	29114.95
1544.07581	28217.85
1547.4329	27304.75
1550.78776	26597.85
1554.14038	26093.75
1557.49077	25899.05
1560.83892	25842.15
1564.18484	25929.25
1567.52853	26046.25
1570.86999	26309.25
1574.20922	26837.05
1577.54624	27407.75
1580.88103	27633.15
1584.2136	27811.45
1587.54395	28224.75
1590.87208	28933.85
1594.19801	29972.75
1597.52172	30929.35
1600.84321	31063.75
1604.16251	29832.75
1607.47959	27907.35
1610.79447	25879.05
1614.10715	23989.25
1617.41763	22267.45
1620.7259	20937.15
1624.03199	20105.95
1627.33587	19946.85
1630.63757	20280.75
1633.93707	21291.45
1637.23439	23028.25
1640.52951	25634.55
1643.82246	28653.05
1647.11321	31463.65
1650.40179	32598.55
1653.68819	31444.95
1656.97241	28347.25
1660.25446	24762.15
1663.53433	21540.45
1666.81203	19221.45
1670.08756	17630.15
1673.36092	16578.45
1676.63211	15908.45
1679.90115	15452.05
1683.16801	15103.05
1686.43272	14849.65
1689.69527	14658.25
1692.95567	14539.25
1696.2139	14446.05
1699.46999	14368.35
1702.72392	14293.45
1705.97571	14192.75
1709.22535	14124.15
1712.47284	14072.75
1715.71819	14024.95
1718.96139	14002.45
1722.20246	13889.35
1725.44139	13827.55
1728.67818	13736.35
1731.91284	13662.05
1735.14537	13567.65
1738.37576	13521.25
1741.60403	13477.25
1744.83017	13449.75
1748.05418	13416.95
1751.27607	13395.15
1754.49584	13409.05
1757.71349	13389.25
1760.92903	13354.55
1764.14244	13359.25
1767.35375	13300.15
1770.56294	13269.65
1773.77002	13255.35
1776.97499	13161.75
1780.17785	13109.65
1783.37861	13089.55
1786.57727	13043.85
1789.77382	13002.45
1792.96828	12955.55
1796.16064	12925.55
1799.3509	12866.25
1802.53907	12851.25
1805.72514	12813.85
1808.90913	12768.35
1812.09102	12738.05
1815.27083	12712.15
1818.44856	12667.95
1821.6242	12638.55
1824.79776	12622.05
1827.96924	12581.15
1831.13864	12601.25
1834.30597	12594.35
1837.47122	12596.55
1840.6344	12587.65
1843.7955	12585.95
1846.95454	12570.35
1850.11151	12539.95
1853.26642	12533.75
1856.41926	12509.35
1859.57004	12513.25
1862.71876	12497.95
1865.86542	12444.45
1869.01003	12418.25
1872.15258	12393.75
1875.29308	12381.65
1878.43152	12391.25
1881.56792	12374.75
1884.70227	12307.15
1887.83457	12302.35
1890.96482	12275.15
1894.09304	12243.95
1897.21921	12221.15
1900.34335	12205.35
1903.46544	12198.25
1906.58551	12190.15
1909.70353	12170.85
1912.81953	12140.05
1915.93349	12118.85
1919.04543	12060.85
1922.15534	12015.45
1925.26322	11998.15
1928.36908	12001.35
1931.47292	11954.55
1934.57473	11946.15
1937.67453	11899.95
1940.77232	11831.75
1943.86808	11796.15
1946.96184	11749.75
1950.05358	11763.15
1953.14331	11738.35
1956.23103	11673.85
1959.31675	11669.45
1962.40046	11619.35
1965.48217	11572.95
1968.56188	11514.95
1971.63959	11467.75
1974.7153	11475.25
1977.78901	11405.45
1980.86073	11390.35
1983.93046	11351.65
1986.99819	11296.05
1990.06394	11296.75
1993.1277	11220.95
1996.18947	11200.95
1999.24925	11153.65
2002.30706	11102.25
2005.36288	11093.25
2008.41672	11037.75
2011.46859	10994.55
2014.51848	10963.55
2017.56639	10933.25
2020.61233	10918.95
2023.6563	10884.65
2026.6983	10886.95
2029.73833	10850.05
2032.7764	10828.25
2035.8125	10782.45
2038.84664	10727.65
2041.87881	10725.85
2044.90903	10663.55
2047.93729	10660.95
2050.96359	10696.05
2053.98794	10648.25
2057.01034	10631.75
2060.03078	10610.15
2063.04927	10600.45
2066.06582	10581.25
2069.08042	10601.95
2072.09307	10569.15
2075.10378	10560.55
2078.11255	10546.35
2081.11938	10570.95
2084.12426	10549.95
2087.12722	10521.95
2090.12824	10522.25
2093.12732	10521.95
2096.12447	10530.85
2099.11969	10517.95
2102.11299	10510.75
2105.10435	10508.45
2108.09379	10498.25
2111.08131	10539.55
2114.0669	10526.35
2117.05057	10531.75
2120.03233	10552.55
2123.01216	10553.95
2125.99008	10551.45
2128.96609	10527.85
2131.94018	10518.15
2134.91236	10540.15
2137.88263	10525.55
2140.851	10537.45
2143.81746	10535.05
2146.78201	10512.85
2149.74466	10518.65
2152.7054	10526.75
2155.66425	10511.35
2158.6212	10522.05
2161.57625	10507.75
2164.52941	10484.55
2167.48067	10479.45
2170.43004	10455.05
2173.37752	10456.55
2176.32311	10489.65
2179.26681	10472.85
2182.20863	10463.05
2185.14856	10442.05
2188.08661	10424.95
2191.02278	10428.05
2193.95707	10414.55
2196.88948	10413.25
2199.82001	10395.65
2202.74867	10381.35
2205.67545	10366.95
2208.60037	10338.65
2211.52341	10319.25
2214.44458	10312.55
2217.36388	10277.95
2220.28132	10269.25
2223.1969	10250.75
2226.11061	10269.65
2229.02246	10198.25
2231.93245	10191.85
2234.84058	10174.15
2237.74686	10142.45
2240.65128	10156.05
2243.55385	10113.55
2246.45456	10098.65
2249.35343	10078.75
2252.25044	10037.25
2255.14561	9999.05
2258.03893	10019.15
2260.93041	9970.45
2263.82004	9943.45
2266.70783	9925.65
2269.59378	9892.35
2272.4779	9888.75
2275.36017	9837.05
2278.24061	9843.95
2281.11922	9818.75
2283.996	9767.65
2286.87094	9773.95
2289.74405	9752.85
2292.61534	9724.35
2295.4848	9743.15
2298.35243	9710.75
2301.21824	9699.45
2304.08223	9687.15
2306.94439	9660.55
2309.80474	9641.45
2312.66327	9666.55
2315.51999	9640.15
2318.37489	9628.15
2321.22797	9608.25
2324.07925	9600.85
2326.92871	9571.55
2329.77637	9607.35
2332.62222	9548.95
2335.46626	9525.15
2338.3085	9536.05
2341.14893	9517.45
2343.98756	9520.25
2346.8244	9494.45
2349.65943	9493.65
2352.49267	9481.65
2355.32411	9500.15
2358.15376	9499.35
2360.98161	9462.95
2363.80768	9470.25
2366.63195	9459.45
2369.45444	9461.85
2372.27514	9463.75
2375.09405	9438.55
2377.91118	9428.45
2380.72652	9391.55
2383.54009	9388.55
2386.35187	9347.65
2389.16188	9318.75
2391.97011	9296.05
2394.77657	9254.75
2397.58125	9285.35
2400.38416	9265.65
2403.18529	9218.75
2405.98466	9218.45
2408.78226	9204.75
2411.57809	9177.85
2414.37216	9188.35
2417.16446	9179.75
2419.955	9123.75
2422.74378	9158.95
2425.5308	9141.05
2428.31606	9134.65
2431.09956	9125.35
2433.88131	9119.75
2436.6613	9116.65
2439.43954	9118.45
2442.21603	9051.25
2444.99077	9056.95
2447.76377	9082.35
2450.53501	9065.05
2453.30451	9048.45
2456.07226	9035.55
2458.83827	9052.45
2461.60254	9018.85
2464.36507	9036.75
2467.12586	9020.95
2469.88492	9014.55
2472.64224	9017.65
2475.39782	8999.35
2478.15167	9016.85
2480.90379	9011.85
2483.65417	8994.55
2486.40283	8994.85
2489.14976	9009.55
2491.89497	8979.95
2494.63845	8990.95
2497.3802	8981.95
2500.12024	8947.25
2502.85855	8964.95
2505.59514	8970.55
2508.33002	8948.65
2511.06318	8957.25
2513.79462	8904.15
2516.52435	8908.05
2519.25237	8920.65
2521.97867	8908.15
2524.70327	8895.55
2527.42616	8862.55
2530.14734	8846.35
2532.86681	8847.05
2535.58458	8814.45
2538.30065	8821.45
2541.01501	8784.65
2543.72768	8776.55
2546.43864	8772.35
2549.14791	8788.55
2551.85548	8729.85
2554.56136	8727.25
2557.26554	8720.85
2559.96803	8704.25
2562.66883	8701.15
2565.36794	8710.95
2568.06536	8684.75
2570.7611	8662.95
2573.45514	8670.45
2576.14751	8633.75
2578.83819	8628.85
2581.52719	8625.05
2584.21451	8623.45
2586.90015	8596.65
2589.58411	8588.75
2592.2664	8561.15
2594.94701	8566.15
2597.62594	8563.05
2600.30321	8538.05
2602.9788	8561.55
2605.65273	8543.95
2608.32498	8540.95
2610.99557	8521.15
2613.66449	8521.65
2616.33175	8499.85
2618.99734	8500.25
2621.66128	8470.25
2624.32355	8483.15
2626.98416	8494.25
2629.64311	8479.95
2632.30041	8454.85
2634.95605	8446.95
2637.61004	8437.95
2640.26238	8444.95
2642.91306	8434.55
2645.56209	8413.55
2648.20948	8407.85
2650.85521	8427.55
2653.4993	8403.65
2656.14175	8421.15
2658.78255	8424.85
2661.42171	8417.05
2664.05923	8402.75
2666.6951	8423.75
2669.32934	8391.65
2671.96194	8409.05
2674.59291	8426.15
2677.22224	8402.45
2679.84993	8413.35
2682.476	8419.05
2685.10043	8413.85
2687.72324	8426.75
2690.34441	8427.35
2692.96396	8420.45
2695.58188	8421.05
2698.19818	8393.05
2700.81285	8411.35
2703.4259	8409.35
2706.03733	8447.25
2708.64714	8434.65
2711.25533	8432.85
2713.86191	8413.75
2716.46687	8408.95
2719.07021	8399.55
2721.67194	8406.25
2724.27206	8406.85
2726.87057	8397.65
2729.46747	8399.75
2732.06276	8402.75
2734.65644	8402.45
2737.24852	8386.75
2739.83899	8396.05
2742.42786	8375.95
2745.01513	8380.85
2747.60079	8385.45
2750.18486	8348.85
2752.76733	8356.25
2755.3482	8353.95
2757.92747	8354.05
2760.50515	8337.85
2763.08123	8352.15
2765.65573	8344.25
2768.22863	8326.75
2770.79994	8308.35
2773.36967	8288.95
2775.9378	8311.15
2778.50435	8309.75
2781.06932	8298.25
2783.6327	8301.95
2786.1945	8273.05
2788.75471	8276.35
2791.31335	8253.35
2793.87041	8245.25
2796.42589	8230.25
2798.97979	8202.45
2801.53212	8206.85
2804.08288	8211.45
2806.63206	8158.25
2809.17967	8158.95
2811.72571	8142.45
2814.27018	8148.85
2816.81308	8128.85
2819.35442	8104.85
2821.89419	8092.35
2824.43239	8081.95
2826.96904	8074.65
2829.50412	8077.35
2832.03763	8068.85
2834.56959	8080.15
2837.1	8080.05
2839.62884	8103.55
2842.15613	8094.35
2844.68186	8144.85
2847.20604	8152.65
2849.72867	8185.45
2852.24974	8171.25
2854.76927	8129.15
2857.28724	8141.15
2859.80367	8123.35
2862.31855	8106.95
2864.83189	8108.15
2867.34368	8079.05
2869.85393	8075.75
2872.36264	8059.65
2874.8698	8075.05
2877.37543	8078.85
2879.87952	8068.65
2882.38207	8043.65
2884.88308	8028.25
2887.38256	8035.65
2889.88051	8032.75
2892.37692	8022.15
2894.8718	8035.15
2897.36515	8062.45
2899.85698	8049.45
2902.34727	8071.75
2904.83604	8062.35
2907.32328	8056.65
2909.809	8067.15
2912.29319	8080.05
2914.77587	8079.15
2917.25702	8068.35
2919.73665	8052.55
2922.21476	8054.15
2924.69136	8069.65
2927.16644	8061.85
2929.64	8050.45
2932.11205	8042.55
2934.58258	8026.85
2937.05161	8020.65
2939.51912	8017.15
2941.98513	7992.85
2944.44962	7976.95
2946.91261	7942.15
2949.37409	7918.35
2951.83407	7922.25
2954.29254	7897.55
2956.74951	7876.25
2959.20498	7881.95
2961.65895	7838.95
2964.11142	7840.65
2966.56239	7812.65
2969.01186	7792.55
2971.45984	7734.85
2973.90632	7745.85
2976.35131	7729.55
2978.7948	7704.85
2981.23681	7704.05
2983.67732	7693.05
2986.11635	7659.25
2988.55388	7634.15
2990.98993	7623.25
2993.4245	7599.05
2995.85758	7602.15
2998.28917	7561.85
3000.71928	7524.35
3003.14791	7535.25
3005.57506	7509.35
3008.00073	7493.55
3010.42493	7487.35
3012.84764	7474.35
3015.26888	7469.15
3017.68865	7461.65
3020.10694	7415.25
3022.52376	7408.65
3024.9391	7396.65
3027.35298	7396.05
3029.76539	7381.95
3032.17632	7362.45
3034.5858	7331.75
3036.9938	7357.25
3039.40034	7335.35
3041.80542	7327.65
3044.20903	7297.95
3046.61118	7292.25
3049.01187	7271.05
3051.4111	7288.65
3053.80888	7280.65
3056.20519	7258.45
3058.60005	7237.55
3060.99345	7224.05
3063.3854	7196.75
3065.7759	7180.45
3068.16494	7182.65
3070.55254	7131.65
3072.93868	7144.05
3075.32338	7083.35
3077.70662	7097.45
3080.08842	7081.85
3082.46878	7081.45
3084.84769	7069.45
3087.22515	7060.85
3089.60118	7042.05
3091.97576	7037.25
3094.3489	7027.15
3096.72061	7008.45
3099.09087	7005.65
3101.4597	6994.35
3103.82709	6994.55
3106.19305	6980.85
3108.55757	6972.65
3110.92066	6952.55
3113.28232	6949.85
3115.64255	6930.45
3118.00134	6934.15
3120.35871	6901.95
3122.71466	6875.45
3125.06917	6887.95
3127.42226	6877.15
3129.77393	6893.75
3132.12417	6859.15
3134.47299	6860.35
3136.82039	6842.95
3139.16636	6873.35
3141.51092	6859.35
3143.85406	6882.25
3146.19579	6873.65
3148.53609	6870.25
3150.87499	6870.35
3153.21246	6872.65
3155.54853	6876.85
3157.88318	6866.85
3160.21642	6888.65
3162.54826	6886.15
3164.87868	6849.45
3167.2077	6863.85
3169.5353	6849.65
3171.86151	6858.55
3174.18631	6855.95
3176.5097	6829.25
3178.83169	6810.25
3181.15228	6823.85
3183.47147	6811.55
3185.78926	6818.65
3188.10565	6826.35
3190.42065	6808.25
3192.73424	6818.15
3195.04645	6823.25
3197.35725	6817.05
3199.66667	6829.15
3201.97469	6810.05
3204.28132	6826.75
3206.58656	6818.75
3208.8904	6804.85
3211.19287	6822.45
3213.49394	6819.05
3215.79363	6798.35
3218.09193	6805.35
3220.38884	6814.35
3222.68438	6803.55
3224.97853	6813.45
3227.2713	6792.65
3229.56269	6771.75
3231.8527	6783.25
3234.14133	6744.55
3236.42858	6752.75
3238.71446	6756.55
3240.99896	6720.75
3243.28209	6722.05
3245.56384	6729.75
3247.84423	6735.55
3250.12324	6703.35
3252.40088	6692.15
3254.67715	6672.85
3256.95205	6679.45
3259.22558	6666.45
3261.49775	6656.05
3263.76855	6617.65
3266.03799	6604.15
3268.30606	6596.15
3270.57277	6582.05
3272.83812	6592.45
3275.10211	6576.35
3277.36474	6553.95
3279.62601	6569.25
3281.88593	6537.55
3284.14448	6546.95
3286.40168	6540.55
3288.65753	6529.95
3290.91202	6524.55
3293.16516	6507.75
3295.41695	6484.65
3297.66738	6444.85
3299.91647	6400.65
3302.16421	6368.45
3304.4106	6360.65
3306.65564	6310.75
3308.89933	6280.45
3311.14169	6252.25
3313.38269	6176.05
3315.62236	6148.45
3317.86068	6089.15
3320.09766	6063.05
3322.3333	5980.45
3324.5676	5985.45
3326.80056	5887.45
3329.03219	5855.25
3331.26248	1.15
3333.49143	0.75
3335.71905	-0.75
