Data from AgNPs_FTO_APTES_UA_2uM_CRN_0uM_R6G_10uM_NaF_0.1M_Addition_RamanShift__24__10-32-24-944.txt Node

Date: Wed Feb 02 10:32:24 GMT 2022
User: TCL
Spectrometer: QEP01345
Trigger mode: 4
Integration Time (sec): 7.000000E0
Scans to average: 10
Electric dark correction enabled: true
Nonlinearity correction enabled: false
Boxcar width: 0
XAxis mode: Raman Shifts
Number of Pixels in Spectrum: 1044
>>>>>Begin Spectral Data<<<<<
46.04893	0.45
50.45542	1.25
54.85868	-0.55
59.25871	0.15
63.6555	28.85
68.04907	29.45
72.43941	30.85
76.82654	37.95
81.21044	37.85
85.59113	40.25
89.96862	40.95
94.34289	41.25
98.71396	44.55
103.08183	46.65
107.4465	46.85
111.80798	48.65
116.16626	45.35
120.52136	43.25
124.87327	43.85
129.222	46.75
133.56755	47.55
137.90993	47.25
142.24913	52.15
146.58517	53.35
150.91804	57.85
155.24774	65.85
159.57429	79.05
163.89768	88.95
168.21792	112.65
172.53501	148.25
176.84895	185.65
181.15975	249.35
185.46741	341.35
189.77193	459.05
194.07331	608.25
198.37157	770.75
202.6667	936.15
206.9587	1105.45
211.24758	1264.75
215.53334	1422.75
219.81599	1585.85
224.09553	1761.55
228.37195	1955.95
232.64527	2187.35
236.91549	2409.55
241.18261	2642.55
245.44663	2866.65
249.70755	3070.35
253.96539	3219.55
258.22014	3327.05
262.4718	3404.85
266.72039	3425.35
270.96589	3427.25
275.20832	3411.85
279.44768	3339.25
283.68397	3273.55
287.91719	3182.75
292.14735	3153.05
296.37445	3118.55
300.59849	3123.45
304.81948	3162.05
309.03742	3181.95
313.25231	3160.65
317.46415	3085.65
321.67296	2957.35
325.87872	2835.95
330.08145	2789.25
334.28114	2766.65
338.47781	2800.05
342.67145	2842.35
346.86207	2905.75
351.04966	3013.35
355.23424	3133.75
359.4158	3248.95
363.59435	3335.85
367.76989	3376.45
371.94243	3405.85
376.11196	3404.25
380.27849	3415.35
384.44203	3387.75
388.60257	3362.95
392.76012	3343.25
396.91468	3360.15
401.06626	3414.15
405.21485	3460.75
409.36047	3434.35
413.50311	3366.45
417.64277	3281.95
421.77947	3239.35
425.9132	3212.55
430.04396	3231.75
434.17176	3252.65
438.2966	3288.55
442.41849	3356.75
446.53742	3429.25
450.6534	3525.95
454.76644	3565.95
458.87653	3595.05
462.98368	3582.45
467.08789	3552.85
471.18916	3530.85
475.2875	3461.45
479.38291	3427.85
483.4754	3395.05
487.56496	3367.95
491.6516	3338.55
495.73531	3318.35
499.81612	3300.15
503.89401	3311.95
507.96899	3344.45
512.04106	3380.85
516.11023	3435.85
520.1765	3472.45
524.23987	3481.25
528.30034	3432.75
532.35792	3364.55
536.41261	3303.35
540.46441	3246.35
544.51333	3210.65
548.55936	3217.35
552.60252	3255.85
556.64279	3277.15
560.6802	3312.75
564.71473	3306.85
568.7464	3345.55
572.7752	3388.55
576.80114	3334.75
580.82422	3266.25
584.84444	3258.45
588.86181	3243.75
592.87633	3281.55
596.888	3332.55
600.89682	3401.55
604.9028	3565.05
608.90594	4030.25
612.90624	4725.85
616.90371	4708.55
620.89834	3883.45
624.89015	3438.15
628.87913	3325.65
632.86528	3289.85
636.84862	3272.45
640.82913	3245.85
644.80683	3195.15
648.78172	3163.25
652.75379	3201.85
656.72306	3298.35
660.68952	3415.05
664.65319	3370.05
668.61405	3237.15
672.57211	3165.95
676.52738	3151.55
680.47986	3159.45
684.42955	3166.45
688.37646	3197.05
692.32058	3224.45
696.26192	3268.75
700.20048	3331.95
704.13626	3396.95
708.06928	3408.15
711.99952	3337.75
715.927	3286.15
719.85171	3237.25
723.77365	3234.45
727.69284	3201.95
731.60928	3195.75
735.52295	3194.85
739.43388	3196.15
743.34206	3202.65
747.24749	3208.95
751.15017	3219.75
755.05012	3256.95
758.94733	3307.25
762.8418	3474.75
766.73354	3748.95
770.62254	4071.55
774.50882	4300.75
778.39237	4238.35
782.27321	3907.55
786.15132	3552.75
790.02671	3351.45
793.89938	3272.55
797.76935	3237.25
801.6366	3252.45
805.50115	3252.75
809.36299	3249.55
813.22213	3254.95
817.07857	3239.15
820.93231	3234.45
824.78336	3207.25
828.63172	3220.85
832.47738	3233.55
836.32036	3248.75
840.16066	3251.45
843.99827	3242.55
847.8332	3231.25
851.66546	3243.85
855.49504	3232.15
859.32195	3205.95
863.1462	3175.95
866.96777	3154.55
870.78668	3148.25
874.60293	3155.95
878.41652	3178.65
882.22745	3197.65
886.03573	3223.55
889.84136	3217.65
893.64433	3210.05
897.44466	3202.05
901.24235	3210.15
905.0374	3192.95
908.8298	3202.75
912.61957	3225.35
916.40671	3261.25
920.19121	3294.15
923.97308	3335.05
927.75233	3364.85
931.52895	3383.95
935.30295	3354.65
939.07433	3302.45
942.84309	3238.25
946.60924	3182.75
950.37278	3137.95
954.13371	3090.55
957.89203	3080.35
961.64774	3050.35
965.40086	3035.45
969.15137	2997.85
972.89929	2999.65
976.64461	2982.75
980.38733	2960.25
984.12747	2969.75
987.86502	2948.95
991.59999	2965.65
995.33237	2984.05
999.06217	3005.05
1002.78939	3021.55
1006.51404	3057.25
1010.23611	3074.55
1013.95561	3100.25
1017.67255	3088.25
1021.38692	3070.65
1025.09872	3065.75
1028.80796	3047.55
1032.51465	3098.15
1036.21877	3201.75
1039.92035	3320.75
1043.61937	3364.85
1047.31584	3322.75
1051.00976	3257.45
1054.70114	3197.85
1058.38998	3142.05
1062.07627	3107.65
1065.76003	3066.75
1069.44126	3051.75
1073.11995	3056.55
1076.79611	3097.75
1080.46974	3136.35
1084.14085	3174.15
1087.80943	3173.95
1091.47549	3150.25
1095.13903	3103.55
1098.80005	2990.85
1102.45857	2932.05
1106.11456	2904.75
1109.76805	2923.15
1113.41903	2972.35
1117.06751	3034.35
1120.71348	3118.85
1124.35696	3215.55
1127.99793	3316.15
1131.63641	3300.85
1135.2724	3190.15
1138.90589	3058.55
1142.5369	2981.55
1146.16542	2914.65
1149.79145	2888.45
1153.415	2882.75
1157.03607	2906.25
1160.65467	2947.35
1164.27079	3016.45
1167.88443	3116.35
1171.49561	3270.45
1175.10432	3531.15
1178.71056	3850.85
1182.31434	4148.85
1185.91565	4259.95
1189.51451	4252.05
1193.11091	4178.75
1196.70485	4024.95
1200.29634	3838.35
1203.88538	3641.35
1207.47197	3397.45
1211.05612	3236.45
1214.63782	3134.45
1218.21708	3101.55
1221.79391	3082.75
1225.36829	3086.35
1228.94024	3079.55
1232.50976	3093.75
1236.07685	3113.45
1239.6415	3126.85
1243.20374	3134.05
1246.76355	3153.35
1250.32093	3201.05
1253.8759	3268.95
1257.42845	3345.85
1260.97859	3435.75
1264.52631	3499.05
1268.07163	3558.95
1271.61453	3617.15
1275.15503	3646.05
1278.69312	3642.55
1282.22882	3664.95
1285.76211	3720.55
1289.29301	3830.85
1292.82151	3924.75
1296.34761	4030.95
1299.87133	4151.95
1303.39266	4313.55
1306.9116	4516.05
1310.42815	4789.05
1313.94233	4934.05
1317.45412	4846.15
1320.96354	4585.55
1324.47058	4294.55
1327.97525	4077.35
1331.47754	3966.25
1334.97747	3968.45
1338.47502	4029.25
1341.97022	4113.05
1345.46305	4206.95
1348.95352	4397.15
1352.44163	4706.85
1355.92738	5172.65
1359.41078	5719.95
1362.89183	6196.25
1366.37053	6117.75
1369.84688	5563.35
1373.32088	4918.15
1376.79254	4445.15
1380.26186	4157.75
1383.72883	3950.75
1387.19347	3798.15
1390.65578	3645.05
1394.11575	3516.85
1397.57339	3401.75
1401.0287	3346.15
1404.48168	3324.45
1407.93234	3300.95
1411.38068	3307.05
1414.82669	3292.45
1418.27039	3281.75
1421.71177	3278.15
1425.15083	3277.65
1428.58758	3318.55
1432.02203	3357.15
1435.45416	3420.65
1438.88399	3440.15
1442.31151	3430.75
1445.73673	3403.05
1449.15965	3359.15
1452.58027	3282.05
1455.9986	3199.35
1459.41463	3153.85
1462.82837	3137.55
1466.23982	3150.65
1469.64898	3167.65
1473.05586	3186.85
1476.46045	3204.25
1479.86276	3240.25
1483.26279	3237.95
1486.66054	3269.85
1490.05602	3303.15
1493.44922	3362.45
1496.84016	3482.95
1500.22882	3691.85
1503.61521	3989.75
1506.99934	4329.25
1510.38121	4636.35
1513.76081	4769.65
1517.13816	4605.65
1520.51324	4195.05
1523.88607	3800.75
1527.25665	3520.85
1530.62498	3396.45
1533.99105	3332.85
1537.35488	3292.85
1540.71647	3244.05
1544.07581	3254.85
1547.4329	3243.35
1550.78776	3234.15
1554.14038	3227.55
1557.49077	3254.55
1560.83892	3279.65
1564.18484	3346.45
1567.52853	3425.55
1570.86999	3556.55
1574.20922	3657.05
1577.54624	3693.25
1580.88103	3570.65
1584.2136	3361.65
1587.54395	3229.85
1590.87208	3233.35
1594.19801	3369.85
1597.52172	3500.55
1600.84321	3570.05
1604.16251	3488.25
1607.47959	3320.35
1610.79447	3139.55
1614.10715	2988.15
1617.41763	2869.15
1620.7259	2795.05
1624.03199	2756.45
1627.33587	2743.45
1630.63757	2749.15
1633.93707	2799.65
1637.23439	2880.85
1640.52951	3027.15
1643.82246	3225.75
1647.11321	3445.45
1650.40179	3601.35
1653.68819	3532.95
1656.97241	3219.55
1660.25446	2872.15
1663.53433	2618.75
1666.81203	2471.75
1670.08756	2368.65
1673.36092	2300.35
1676.63211	2246.35
1679.90115	2210.75
1683.16801	2174.85
1686.43272	2146.25
1689.69527	2116.75
1692.95567	2113.95
1696.2139	2082.35
1699.46999	2076.45
1702.72392	2062.25
1705.97571	2052.15
1709.22535	2025.55
1712.47284	2033.25
1715.71819	2024.45
1718.96139	2029.65
1722.20246	2025.55
1725.44139	2020.65
1728.67818	1986.05
1731.91284	1950.55
1735.14537	1931.15
1738.37576	1899.35
1741.60403	1888.35
1744.83017	1869.95
1748.05418	1858.95
1751.27607	1851.35
1754.49584	1833.65
1757.71349	1830.65
1760.92903	1817.35
1764.14244	1804.75
1767.35375	1801.45
1770.56294	1789.15
1773.77002	1779.55
1776.97499	1774.95
1780.17785	1766.35
1783.37861	1771.25
1786.57727	1748.95
1789.77382	1749.85
1792.96828	1746.15
1796.16064	1737.25
1799.3509	1725.75
1802.53907	1723.45
1805.72514	1713.15
1808.90913	1707.45
1812.09102	1702.35
1815.27083	1690.05
1818.44856	1700.45
1821.6242	1703.55
1824.79776	1683.55
1827.96924	1672.75
1831.13864	1679.95
1834.30597	1675.75
1837.47122	1664.75
1840.6344	1669.25
1843.7955	1662.25
1846.95454	1654.55
1850.11151	1650.95
1853.26642	1642.95
1856.41926	1641.65
1859.57004	1649.25
1862.71876	1641.05
1865.86542	1634.65
1869.01003	1640.95
1872.15258	1635.85
1875.29308	1633.05
1878.43152	1631.65
1881.56792	1624.45
1884.70227	1626.15
1887.83457	1616.15
1890.96482	1614.25
1894.09304	1620.95
1897.21921	1609.35
1900.34335	1612.85
1903.46544	1615.15
1906.58551	1610.35
1909.70353	1616.45
1912.81953	1610.15
1915.93349	1607.85
1919.04543	1589.85
1922.15534	1590.55
1925.26322	1596.95
1928.36908	1588.75
1931.47292	1580.85
1934.57473	1573.25
1937.67453	1568.95
1940.77232	1567.45
1943.86808	1558.15
1946.96184	1552.35
1950.05358	1550.15
1953.14331	1538.15
1956.23103	1529.45
1959.31675	1525.15
1962.40046	1525.95
1965.48217	1516.85
1968.56188	1512.85
1971.63959	1507.35
1974.7153	1502.25
1977.78901	1490.55
1980.86073	1484.45
1983.93046	1490.75
1986.99819	1474.05
1990.06394	1477.45
1993.1277	1474.25
1996.18947	1470.55
1999.24925	1460.65
2002.30706	1458.15
2005.36288	1437.45
2008.41672	1444.75
2011.46859	1434.75
2014.51848	1428.75
2017.56639	1428.35
2020.61233	1414.05
2023.6563	1413.05
2026.6983	1415.45
2029.73833	1404.35
2032.7764	1406.75
2035.8125	1397.95
2038.84664	1397.75
2041.87881	1403.05
2044.90903	1391.35
2047.93729	1386.15
2050.96359	1385.95
2053.98794	1389.25
2057.01034	1385.05
2060.03078	1383.75
2063.04927	1381.65
2066.06582	1383.75
2069.08042	1387.55
2072.09307	1387.15
2075.10378	1386.35
2078.11255	1392.15
2081.11938	1384.35
2084.12426	1386.05
2087.12722	1385.55
2090.12824	1382.05
2093.12732	1381.55
2096.12447	1392.95
2099.11969	1388.05
2102.11299	1400.35
2105.10435	1392.75
2108.09379	1383.65
2111.08131	1387.85
2114.0669	1382.55
2117.05057	1378.85
2120.03233	1375.65
2123.01216	1372.75
2125.99008	1365.75
2128.96609	1367.05
2131.94018	1372.65
2134.91236	1369.65
2137.88263	1355.95
2140.851	1365.05
2143.81746	1369.65
2146.78201	1358.85
2149.74466	1359.65
2152.7054	1364.25
2155.66425	1352.75
2158.6212	1352.55
2161.57625	1355.95
2164.52941	1357.25
2167.48067	1358.95
2170.43004	1369.15
2173.37752	1352.95
2176.32311	1356.85
2179.26681	1356.15
2182.20863	1349.55
2185.14856	1363.75
2188.08661	1343.95
2191.02278	1355.35
2193.95707	1345.25
2196.88948	1336.05
2199.82001	1341.45
2202.74867	1338.55
2205.67545	1337.25
2208.60037	1331.65
2211.52341	1324.35
2214.44458	1330.15
2217.36388	1316.05
2220.28132	1314.35
2223.1969	1300.45
2226.11061	1304.15
2229.02246	1296.95
2231.93245	1304.05
2234.84058	1298.65
2237.74686	1290.75
2240.65128	1294.75
2243.55385	1291.55
2246.45456	1290.35
2249.35343	1294.85
2252.25044	1285.65
2255.14561	1283.25
2258.03893	1288.75
2260.93041	1274.05
2263.82004	1277.25
2266.70783	1268.35
2269.59378	1256.45
2272.4779	1264.55
2275.36017	1257.45
2278.24061	1247.65
2281.11922	1248.85
2283.996	1249.85
2286.87094	1246.45
2289.74405	1236.05
2292.61534	1231.65
2295.4848	1238.05
2298.35243	1232.75
2301.21824	1234.35
2304.08223	1226.15
2306.94439	1224.25
2309.80474	1227.85
2312.66327	1221.35
2315.51999	1221.05
2318.37489	1226.05
2321.22797	1220.55
2324.07925	1212.95
2326.92871	1216.45
2329.77637	1218.15
2332.62222	1215.15
2335.46626	1219.85
2338.3085	1202.45
2341.14893	1199.05
2343.98756	1201.55
2346.8244	1194.45
2349.65943	1192.45
2352.49267	1197.45
2355.32411	1198.65
2358.15376	1202.25
2360.98161	1193.45
2363.80768	1187.95
2366.63195	1196.45
2369.45444	1201.35
2372.27514	1196.75
2375.09405	1192.45
2377.91118	1197.15
2380.72652	1190.15
2383.54009	1180.05
2386.35187	1187.05
2389.16188	1179.95
2391.97011	1165.45
2394.77657	1176.75
2397.58125	1167.55
2400.38416	1169.05
2403.18529	1166.55
2405.98466	1160.85
2408.78226	1151.35
2411.57809	1154.25
2414.37216	1155.65
2417.16446	1147.85
2419.955	1153.65
2422.74378	1148.45
2425.5308	1139.15
2428.31606	1150.65
2431.09956	1149.05
2433.88131	1134.15
2436.6613	1137.45
2439.43954	1138.85
2442.21603	1139.25
2444.99077	1140.65
2447.76377	1141.75
2450.53501	1142.45
2453.30451	1136.65
2456.07226	1137.45
2458.83827	1137.45
2461.60254	1131.65
2464.36507	1131.25
2467.12586	1131.35
2469.88492	1130.15
2472.64224	1128.15
2475.39782	1134.95
2478.15167	1126.35
2480.90379	1122.05
2483.65417	1128.15
2486.40283	1133.85
2489.14976	1130.85
2491.89497	1119.85
2494.63845	1133.55
2497.3802	1130.15
2500.12024	1118.75
2502.85855	1122.25
2505.59514	1120.25
2508.33002	1121.95
2511.06318	1115.95
2513.79462	1113.25
2516.52435	1108.05
2519.25237	1106.95
2521.97867	1107.65
2524.70327	1100.45
2527.42616	1101.95
2530.14734	1100.45
2532.86681	1095.65
2535.58458	1111.25
2538.30065	1101.15
2541.01501	1102.25
2543.72768	1097.65
2546.43864	1092.75
2549.14791	1093.65
2551.85548	1093.55
2554.56136	1101.45
2557.26554	1095.25
2559.96803	1092.85
2562.66883	1089.85
2565.36794	1100.05
2568.06536	1097.65
2570.7611	1101.25
2573.45514	1091.15
2576.14751	1092.25
2578.83819	1095.45
2581.52719	1096.85
2584.21451	1094.95
2586.90015	1089.55
2589.58411	1086.55
2592.2664	1095.15
2594.94701	1086.45
2597.62594	1085.55
2600.30321	1090.35
2602.9788	1082.25
2605.65273	1084.65
2608.32498	1087.95
2610.99557	1091.45
2613.66449	1080.85
2616.33175	1087.85
2618.99734	1084.45
2621.66128	1083.35
2624.32355	1082.95
2626.98416	1077.85
2629.64311	1083.55
2632.30041	1085.15
2634.95605	1079.35
2637.61004	1083.05
2640.26238	1078.85
2642.91306	1076.25
2645.56209	1089.85
2648.20948	1084.85
2650.85521	1082.75
2653.4993	1097.75
2656.14175	1094.85
2658.78255	1099.25
2661.42171	1102.45
2664.05923	1114.05
2666.6951	1115.55
2669.32934	1121.65
2671.96194	1117.65
2674.59291	1128.95
2677.22224	1127.75
2679.84993	1137.55
2682.476	1132.55
2685.10043	1144.05
2687.72324	1145.25
2690.34441	1150.65
2692.96396	1155.05
2695.58188	1167.45
2698.19818	1173.75
2700.81285	1185.55
2703.4259	1194.45
2706.03733	1209.55
2708.64714	1211.15
2711.25533	1229.25
2713.86191	1230.75
2716.46687	1242.45
2719.07021	1255.45
2721.67194	1262.95
2724.27206	1268.45
2726.87057	1265.95
2729.46747	1276.25
2732.06276	1281.15
2734.65644	1286.45
2737.24852	1291.75
2739.83899	1305.95
2742.42786	1307.05
2745.01513	1317.95
2747.60079	1323.05
2750.18486	1330.35
2752.76733	1342.95
2755.3482	1363.25
2757.92747	1373.35
2760.50515	1380.15
2763.08123	1398.55
2765.65573	1408.65
2768.22863	1424.35
2770.79994	1444.75
2773.36967	1454.85
2775.9378	1478.45
2778.50435	1505.25
2781.06932	1527.75
2783.6327	1553.25
2786.1945	1577.35
2788.75471	1603.45
2791.31335	1632.35
2793.87041	1664.65
2796.42589	1700.35
2798.97979	1721.55
2801.53212	1759.65
2804.08288	1791.05
2806.63206	1838.65
2809.17967	1863.95
2811.72571	1894.15
2814.27018	1925.55
2816.81308	1948.85
2819.35442	1975.25
2821.89419	1986.35
2824.43239	1970.65
2826.96904	1969.75
2829.50412	1971.25
2832.03763	1961.45
2834.56959	1971.05
2837.1	1977.65
2839.62884	2007.25
2842.15613	2053.25
2844.68186	2123.05
2847.20604	2216.85
2849.72867	2288.15
2852.24974	2312.75
2854.76927	2311.75
2857.28724	2292.35
2859.80367	2266.55
2862.31855	2238.95
2864.83189	2209.25
2867.34368	2196.95
2869.85393	2173.75
2872.36264	2157.75
2874.8698	2147.05
2877.37543	2134.45
2879.87952	2121.65
2882.38207	2105.25
2884.88308	2086.75
2887.38256	2080.15
2889.88051	2081.05
2892.37692	2059.65
2894.8718	2054.25
2897.36515	2057.25
2899.85698	2042.95
2902.34727	2038.15
2904.83604	2041.05
2907.32328	2036.95
2909.809	2030.95
2912.29319	2008.95
2914.77587	2012.05
2917.25702	1990.15
2919.73665	1986.55
2922.21476	1983.05
2924.69136	1970.15
2927.16644	1954.15
2929.64	1934.15
2932.11205	1904.45
2934.58258	1885.45
2937.05161	1837.95
2939.51912	1798.15
2941.98513	1734.15
2944.44962	1679.35
2946.91261	1591.45
2949.37409	1542.95
2951.83407	1489.95
2954.29254	1450.95
2956.74951	1412.45
2959.20498	1377.55
2961.65895	1355.45
2964.11142	1314.05
2966.56239	1286.65
2969.01186	1280.85
2971.45984	1256.55
2973.90632	1229.05
2976.35131	1207.35
2978.7948	1198.45
2981.23681	1182.75
2983.67732	1162.85
2986.11635	1147.45
2988.55388	1136.65
2990.98993	1119.75
2993.4245	1106.05
2995.85758	1096.45
2998.28917	1087.75
3000.71928	1085.25
3003.14791	1078.15
3005.57506	1077.55
3008.00073	1051.75
3010.42493	1064.95
3012.84764	1048.85
3015.26888	1047.75
3017.68865	1051.05
3020.10694	1054.25
3022.52376	1047.95
3024.9391	1037.15
3027.35298	1041.15
3029.76539	1046.85
3032.17632	1045.55
3034.5858	1051.25
3036.9938	1042.45
3039.40034	1040.05
3041.80542	1040.25
3044.20903	1041.25
3046.61118	1039.05
3049.01187	1035.05
3051.4111	1043.55
3053.80888	1048.95
3056.20519	1041.75
3058.60005	1042.25
3060.99345	1058.65
3063.3854	1057.35
3065.7759	1060.75
3068.16494	1057.05
3070.55254	1059.05
3072.93868	1061.85
3075.32338	1062.05
3077.70662	1057.05
3080.08842	1046.45
3082.46878	1053.45
3084.84769	1050.95
3087.22515	1047.55
3089.60118	1056.05
3091.97576	1052.55
3094.3489	1055.95
3096.72061	1058.05
3099.09087	1057.35
3101.4597	1063.25
3103.82709	1070.85
3106.19305	1062.15
3108.55757	1068.45
3110.92066	1073.55
3113.28232	1065.05
3115.64255	1063.65
3118.00134	1083.85
3120.35871	1085.65
3122.71466	1085.25
3125.06917	1089.65
3127.42226	1095.45
3129.77393	1104.35
3132.12417	1107.25
3134.47299	1115.55
3136.82039	1120.65
3139.16636	1130.85
3141.51092	1135.25
3143.85406	1150.45
3146.19579	1154.55
3148.53609	1163.45
3150.87499	1164.15
3153.21246	1174.05
3155.54853	1185.05
3157.88318	1199.15
3160.21642	1201.95
3162.54826	1203.55
3164.87868	1206.55
3167.2077	1209.25
3169.5353	1220.85
3171.86151	1227.45
3174.18631	1232.85
3176.5097	1234.25
3178.83169	1246.55
3181.15228	1253.15
3183.47147	1250.55
3185.78926	1269.75
3188.10565	1266.35
3190.42065	1273.55
3192.73424	1278.85
3195.04645	1279.15
3197.35725	1289.65
3199.66667	1289.85
3201.97469	1301.85
3204.28132	1301.65
3206.58656	1311.75
3208.8904	1311.55
3211.19287	1321.45
3213.49394	1321.15
3215.79363	1323.95
3218.09193	1333.05
3220.38884	1337.45
3222.68438	1342.55
3224.97853	1344.45
3227.2713	1346.05
3229.56269	1352.65
3231.8527	1343.55
3234.14133	1353.35
3236.42858	1352.15
3238.71446	1352.15
3240.99896	1357.95
3243.28209	1361.75
3245.56384	1359.45
3247.84423	1368.65
3250.12324	1369.95
3252.40088	1369.25
3254.67715	1380.35
3256.95205	1373.95
3259.22558	1383.75
3261.49775	1383.25
3263.76855	1385.85
3266.03799	1386.35
3268.30606	1394.75
3270.57277	1391.35
3272.83812	1394.55
3275.10211	1383.95
3277.36474	1393.05
3279.62601	1395.55
3281.88593	1388.95
3284.14448	1382.95
3286.40168	1383.45
3288.65753	1390.55
3290.91202	1386.75
3293.16516	1373.65
3295.41695	1372.05
3297.66738	1355.95
3299.91647	1344.75
3302.16421	1342.55
3304.4106	1334.35
3306.65564	1333.05
3308.89933	1325.65
3311.14169	1316.55
3313.38269	1303.25
3315.62236	1293.35
3317.86068	1295.55
3320.09766	1278.85
3322.3333	1272.15
3324.5676	1270.95
3326.80056	1248.35
3329.03219	1240.65
3331.26248	0.15
3333.49143	-0.55
3335.71905	-1.45
