Data from AgNPs_FTO_APTES_UA_2uM_CRN_10uM_R6G_10uM_NaF_0.1M_Addition_RamanShift__28__13-50-45-174.txt Node

Date: Wed Feb 02 13:50:45 GMT 2022
User: TCL
Spectrometer: QEP01345
Trigger mode: 4
Integration Time (sec): 7.000000E0
Scans to average: 10
Electric dark correction enabled: true
Nonlinearity correction enabled: false
Boxcar width: 0
XAxis mode: Raman Shifts
Number of Pixels in Spectrum: 1044
>>>>>Begin Spectral Data<<<<<
46.04893	1.55
50.45542	0.25
54.85868	-1.75
59.25871	-0.55
63.6555	78.75
68.04907	83.15
72.43941	83.35
76.82654	89.15
81.21044	94.75
85.59113	101.75
89.96862	103.05
94.34289	106.15
98.71396	109.85
103.08183	117.05
107.4465	118.05
111.80798	122.25
116.16626	120.65
120.52136	127.45
124.87327	132.15
129.222	135.95
133.56755	148.45
137.90993	157.45
142.24913	172.25
146.58517	195.05
150.91804	224.95
155.24774	267.75
159.57429	332.05
163.89768	420.15
168.21792	563.35
172.53501	768.25
176.84895	1064.25
181.15975	1484.75
185.46741	2079.55
189.77193	2852.15
194.07331	3812.15
198.37157	4913.95
202.6667	6078.45
206.9587	7222.25
211.24758	8368.35
215.53334	9556.45
219.81599	10868.65
224.09553	12364.65
228.37195	13995.25
232.64527	15798.85
236.91549	17618.75
241.18261	19257.65
245.44663	20658.25
249.70755	21772.95
253.96539	22777.65
258.22014	23683.15
262.4718	24474.85
266.72039	25144.45
270.96589	25524.05
275.20832	25629.95
279.44768	25540.55
283.68397	25411.05
287.91719	25330.25
292.14735	25462.35
296.37445	25832.45
300.59849	26523.45
304.81948	27309.25
309.03742	27833.45
313.25231	27668.15
317.46415	26434.25
321.67296	24569.55
325.87872	22988.55
330.08145	22150.95
334.28114	22013.65
338.47781	22257.25
342.67145	22777.95
346.86207	23614.65
351.04966	24894.05
355.23424	26243.55
359.4158	27264.15
363.59435	27753.25
367.76989	27813.45
371.94243	27740.65
376.11196	27554.55
380.27849	27347.15
384.44203	27145.05
388.60257	26891.15
392.76012	26861.75
396.91468	27201.95
401.06626	27907.75
405.21485	28404.25
409.36047	27975.35
413.50311	26730.35
417.64277	25560.75
421.77947	24995.55
425.9132	24801.85
430.04396	24804.65
434.17176	24919.05
438.2966	25178.45
442.41849	25701.45
446.53742	26508.55
450.6534	27267.85
454.76644	27879.05
458.87653	28027.85
462.98368	27857.45
467.08789	27472.55
471.18916	26963.05
475.2875	26349.05
479.38291	25871.95
483.4754	25501.35
487.56496	25064.85
491.6516	24722.75
495.73531	24512.15
499.81612	24464.95
503.89401	24686.85
507.96899	24895.35
512.04106	25045.75
516.11023	25181.45
520.1765	25251.95
524.23987	25060.15
528.30034	24635.25
532.35792	24095.15
536.41261	23590.45
540.46441	23131.15
544.51333	23026.45
548.55936	23334.35
552.60252	24003.05
556.64279	24820.15
560.6802	25280.35
564.71473	25736.25
568.7464	26719.65
572.7752	27572.05
576.80114	27244.95
580.82422	26633.95
584.84444	26319.95
588.86181	26153.05
592.87633	26214.45
596.888	26558.35
600.89682	27397.45
604.9028	30079.55
608.90594	37050.25
612.90624	45833.75
616.90371	43540.45
620.89834	31164.45
624.89015	25253.95
628.87913	24172.95
632.86528	24356.05
636.84862	24633.05
640.82913	24138.05
644.80683	23066.35
648.78172	22284.75
652.75379	22316.55
656.72306	23165.45
660.68952	24230.85
664.65319	24090.35
668.61405	23044.55
672.57211	22515.05
676.52738	22472.05
680.47986	22448.35
684.42955	22290.75
688.37646	22178.25
692.32058	22254.95
696.26192	22521.75
700.20048	22867.85
704.13626	23133.55
708.06928	23182.45
711.99952	22932.75
715.927	22799.65
719.85171	22814.85
723.77365	22736.65
727.69284	22395.25
731.60928	22118.15
735.52295	22055.95
739.43388	22090.55
743.34206	22228.95
747.24749	22386.25
751.15017	22669.35
755.05012	23240.55
758.94733	24404.25
762.8418	26986.85
766.73354	31301.15
770.62254	35721.55
774.50882	37445.35
778.39237	35181.95
782.27321	30652.85
786.15132	26426.15
790.02671	23956.45
793.89938	22792.75
797.76935	22268.45
801.6366	22045.65
805.50115	21868.05
809.36299	21693.85
813.22213	21570.35
817.07857	21481.95
820.93231	21514.45
824.78336	21536.25
828.63172	21648.65
832.47738	21707.35
836.32036	21640.65
840.16066	21541.05
843.99827	21456.75
847.8332	21405.15
851.66546	21290.85
855.49504	21262.55
859.32195	21188.35
863.1462	21076.75
866.96777	20968.35
870.78668	20955.05
874.60293	20952.55
878.41652	20995.45
882.22745	21113.15
886.03573	21195.35
889.84136	21177.65
893.64433	21062.75
897.44466	20935.55
901.24235	20931.25
905.0374	20917.85
908.8298	20858.05
912.61957	20912.65
916.40671	21087.55
920.19121	21362.55
923.97308	21674.25
927.75233	21825.25
931.52895	21902.25
935.30295	21564.95
939.07433	20887.65
942.84309	20361.75
946.60924	20041.45
950.37278	19894.55
954.13371	19773.75
957.89203	19695.25
961.64774	19653.15
965.40086	19599.25
969.15137	19525.65
972.89929	19434.35
976.64461	19398.25
980.38733	19430.85
984.12747	19430.65
987.86502	19619.55
991.59999	19853.65
995.33237	20151.85
999.06217	20754.95
1002.78939	21515.55
1006.51404	22221.15
1010.23611	22795.65
1013.95561	23085.85
1017.67255	23043.85
1021.38692	22694.15
1025.09872	22320.55
1028.80796	22179.05
1032.51465	22444.25
1036.21877	22814.35
1039.92035	22985.15
1043.61937	22861.25
1047.31584	22543.25
1051.00976	22140.75
1054.70114	21951.75
1058.38998	21950.75
1062.07627	22109.25
1065.76003	22381.35
1069.44126	22578.15
1073.11995	22853.65
1076.79611	23132.95
1080.46974	23398.95
1084.14085	23845.45
1087.80943	24434.95
1091.47549	24758.05
1095.13903	24500.25
1098.80005	23762.25
1102.45857	22954.25
1106.11456	22486.35
1109.76805	22414.65
1113.41903	22763.95
1117.06751	23331.25
1120.71348	24073.25
1124.35696	24958.45
1127.99793	25801.45
1131.63641	25871.75
1135.2724	25032.85
1138.90589	24110.55
1142.5369	23580.35
1146.16542	23253.15
1149.79145	23117.15
1153.415	23260.55
1157.03607	23618.25
1160.65467	24237.55
1164.27079	25258.65
1167.88443	26738.35
1171.49561	28979.85
1175.10432	32485.05
1178.71056	37064.65
1182.31434	40719.85
1185.91565	42146.85
1189.51451	41732.95
1193.11091	39793.95
1196.70485	37056.15
1200.29634	34642.95
1203.88538	32674.95
1207.47197	30682.45
1211.05612	29025.05
1214.63782	28110.75
1218.21708	27841.35
1221.79391	27926.35
1225.36829	28039.35
1228.94024	28141.25
1232.50976	28220.35
1236.07685	28191.25
1239.6415	28064.35
1243.20374	27924.35
1246.76355	27937.95
1250.32093	28284.75
1253.8759	28978.55
1257.42845	29963.55
1260.97859	31015.75
1264.52631	32001.25
1268.07163	33007.25
1271.61453	34028.05
1275.15503	34921.15
1278.69312	35624.45
1282.22882	36123.75
1285.76211	36977.85
1289.29301	38145.25
1292.82151	39372.65
1296.34761	40845.65
1299.87133	42790.35
1303.39266	45841.25
1306.9116	50261.15
1310.42815	55496.75
1313.94233	59413.45
1317.45412	59790.85
1320.96354	57696.95
1324.47058	54799.75
1327.97525	52019.35
1331.47754	50104.25
1334.97747	49090.05
1338.47502	48950.45
1341.97022	49229.15
1345.46305	49542.75
1348.95352	50242.45
1352.44163	51489.05
1355.92738	54302.15
1359.41078	59679.75
1362.89183	65703.95
1366.37053	65057.45
1369.84688	56878.75
1373.32088	47908.25
1376.79254	42180.75
1380.26186	39520.55
1383.72883	38389.35
1387.19347	37486.25
1390.65578	36512.95
1394.11575	35979.25
1397.57339	35920.55
1401.0287	36516.45
1404.48168	37348.05
1407.93234	38029.55
1411.38068	38235.55
1414.82669	37675.45
1418.27039	36474.85
1421.71177	35002.55
1425.15083	33724.95
1428.58758	32918.75
1432.02203	32668.65
1435.45416	32939.25
1438.88399	33262.15
1442.31151	33531.35
1445.73673	33919.15
1449.15965	34372.85
1452.58027	34582.25
1455.9986	34644.35
1459.41463	34730.05
1462.82837	35130.25
1466.23982	35907.05
1469.64898	36655.25
1473.05586	37135.35
1476.46045	37352.25
1479.86276	37579.65
1483.26279	37987.15
1486.66054	38487.75
1490.05602	39202.55
1493.44922	40359.35
1496.84016	41897.95
1500.22882	44333.35
1503.61521	47826.25
1506.99934	52190.75
1510.38121	56827.75
1513.76081	59584.65
1517.13816	58414.75
1520.51324	53405.45
1523.88607	47722.35
1527.25665	43476.25
1530.62498	40895.95
1533.99105	39308.55
1537.35488	38312.45
1540.71647	37534.55
1544.07581	36931.65
1547.4329	36456.05
1550.78776	36077.95
1554.14038	35853.75
1557.49077	36091.95
1560.83892	36636.35
1564.18484	37310.85
1567.52853	37857.45
1570.86999	38238.35
1574.20922	38525.45
1577.54624	38490.15
1580.88103	37369.35
1584.2136	36042.85
1587.54395	35748.85
1590.87208	37000.75
1594.19801	39336.35
1597.52172	41968.15
1600.84321	42975.05
1604.16251	41279.25
1607.47959	38204.75
1610.79447	34950.65
1614.10715	31908.85
1617.41763	29359.75
1620.7259	27632.25
1624.03199	26758.55
1627.33587	26763.65
1630.63757	27541.15
1633.93707	29154.45
1637.23439	31787.85
1640.52951	35256.05
1643.82246	39382.35
1647.11321	43505.15
1650.40179	45973.85
1653.68819	44655.75
1656.97241	39128.85
1660.25446	32674.15
1663.53433	27714.55
1666.81203	24550.25
1670.08756	22673.55
1673.36092	21509.85
1676.63211	20773.55
1679.90115	20303.15
1683.16801	19939.15
1686.43272	19652.75
1689.69527	19458.45
1692.95567	19257.85
1696.2139	19237.45
1699.46999	19160.95
1702.72392	19097.65
1705.97571	19055.45
1709.22535	18968.35
1712.47284	18983.05
1715.71819	18955.15
1718.96139	18950.55
1722.20246	18907.55
1725.44139	18810.45
1728.67818	18697.55
1731.91284	18531.15
1735.14537	18395.05
1738.37576	18339.55
1741.60403	18210.85
1744.83017	18181.65
1748.05418	18134.15
1751.27607	18094.55
1754.49584	18058.05
1757.71349	18054.95
1760.92903	18025.05
1764.14244	17976.45
1767.35375	17982.55
1770.56294	17900.45
1773.77002	17872.95
1776.97499	17817.55
1780.17785	17761.85
1783.37861	17735.75
1786.57727	17685.85
1789.77382	17661.85
1792.96828	17627.65
1796.16064	17630.85
1799.3509	17585.55
1802.53907	17563.85
1805.72514	17519.35
1808.90913	17451.35
1812.09102	17393.45
1815.27083	17393.15
1818.44856	17389.15
1821.6242	17345.45
1824.79776	17355.35
1827.96924	17320.05
1831.13864	17277.65
1834.30597	17300.45
1837.47122	17286.55
1840.6344	17268.75
1843.7955	17287.15
1846.95454	17312.85
1850.11151	17316.45
1853.26642	17305.55
1856.41926	17317.85
1859.57004	17314.85
1862.71876	17322.15
1865.86542	17359.95
1869.01003	17360.15
1872.15258	17367.35
1875.29308	17415.85
1878.43152	17415.75
1881.56792	17459.45
1884.70227	17476.45
1887.83457	17499.25
1890.96482	17506.15
1894.09304	17533.15
1897.21921	17547.25
1900.34335	17560.55
1903.46544	17539.25
1906.58551	17597.25
1909.70353	17573.85
1912.81953	17605.15
1915.93349	17591.95
1919.04543	17552.95
1922.15534	17535.15
1925.26322	17475.05
1928.36908	17389.35
1931.47292	17342.25
1934.57473	17169.75
1937.67453	17097.75
1940.77232	16987.45
1943.86808	16886.05
1946.96184	16817.75
1950.05358	16736.85
1953.14331	16652.35
1956.23103	16553.15
1959.31675	16474.25
1962.40046	16412.15
1965.48217	16417.95
1968.56188	16346.65
1971.63959	16286.65
1974.7153	16240.75
1977.78901	16201.85
1980.86073	16100.35
1983.93046	16045.25
1986.99819	15979.15
1990.06394	15974.95
1993.1277	15910.25
1996.18947	15834.95
1999.24925	15792.05
2002.30706	15737.45
2005.36288	15716.15
2008.41672	15659.95
2011.46859	15608.25
2014.51848	15560.25
2017.56639	15566.55
2020.61233	15482.45
2023.6563	15476.75
2026.6983	15456.05
2029.73833	15374.05
2032.7764	15373.05
2035.8125	15323.75
2038.84664	15319.15
2041.87881	15274.15
2044.90903	15248.95
2047.93729	15226.65
2050.96359	15199.45
2053.98794	15182.95
2057.01034	15190.15
2060.03078	15161.45
2063.04927	15143.65
2066.06582	15120.45
2069.08042	15113.25
2072.09307	15064.55
2075.10378	15057.55
2078.11255	15032.25
2081.11938	15023.45
2084.12426	15013.25
2087.12722	15029.15
2090.12824	15015.95
2093.12732	15002.45
2096.12447	15028.55
2099.11969	15029.75
2102.11299	15028.55
2105.10435	15011.95
2108.09379	15006.75
2111.08131	15015.65
2114.0669	15018.65
2117.05057	15036.75
2120.03233	15049.95
2123.01216	15084.55
2125.99008	15066.35
2128.96609	15102.85
2131.94018	15099.75
2134.91236	15075.85
2137.88263	15117.85
2140.851	15112.35
2143.81746	15123.75
2146.78201	15083.25
2149.74466	15090.85
2152.7054	15088.55
2155.66425	15065.15
2158.6212	15092.35
2161.57625	15080.35
2164.52941	15091.85
2167.48067	15029.85
2170.43004	15063.75
2173.37752	15051.05
2176.32311	15065.75
2179.26681	15049.85
2182.20863	15032.55
2185.14856	15023.65
2188.08661	15040.55
2191.02278	15053.95
2193.95707	15033.65
2196.88948	15004.65
2199.82001	15023.35
2202.74867	15008.15
2205.67545	14999.75
2208.60037	14987.85
2211.52341	14967.35
2214.44458	14990.45
2217.36388	14943.75
2220.28132	14890.95
2223.1969	14867.25
2226.11061	14837.25
2229.02246	14797.15
2231.93245	14782.05
2234.84058	14752.15
2237.74686	14740.15
2240.65128	14686.45
2243.55385	14679.15
2246.45456	14679.45
2249.35343	14679.85
2252.25044	14662.25
2255.14561	14662.75
2258.03893	14617.35
2260.93041	14628.55
2263.82004	14574.35
2266.70783	14554.25
2269.59378	14490.55
2272.4779	14474.65
2275.36017	14430.25
2278.24061	14408.05
2281.11922	14335.25
2283.996	14351.55
2286.87094	14334.25
2289.74405	14295.35
2292.61534	14275.15
2295.4848	14221.95
2298.35243	14251.05
2301.21824	14270.95
2304.08223	14253.05
2306.94439	14264.85
2309.80474	14277.75
2312.66327	14240.35
2315.51999	14239.05
2318.37489	14220.35
2321.22797	14223.75
2324.07925	14212.95
2326.92871	14203.45
2329.77637	14200.45
2332.62222	14186.45
2335.46626	14188.25
2338.3085	14173.65
2341.14893	14159.55
2343.98756	14202.15
2346.8244	14211.15
2349.65943	14211.15
2352.49267	14210.85
2355.32411	14228.75
2358.15376	14228.95
2360.98161	14214.85
2363.80768	14226.45
2366.63195	14220.15
2369.45444	14207.85
2372.27514	14166.25
2375.09405	14143.05
2377.91118	14097.55
2380.72652	14091.15
2383.54009	14027.05
2386.35187	13982.85
2389.16188	13951.45
2391.97011	13902.65
2394.77657	13863.85
2397.58125	13845.45
2400.38416	13864.65
2403.18529	13816.65
2405.98466	13797.95
2408.78226	13763.95
2411.57809	13749.75
2414.37216	13736.65
2417.16446	13708.15
2419.955	13706.45
2422.74378	13709.35
2425.5308	13674.35
2428.31606	13675.25
2431.09956	13648.35
2433.88131	13658.15
2436.6613	13653.85
2439.43954	13639.75
2442.21603	13606.45
2444.99077	13606.55
2447.76377	13630.35
2450.53501	13619.95
2453.30451	13616.25
2456.07226	13624.95
2458.83827	13633.15
2461.60254	13600.85
2464.36507	13600.45
2467.12586	13585.65
2469.88492	13586.85
2472.64224	13609.25
2475.39782	13617.15
2478.15167	13657.15
2480.90379	13644.75
2483.65417	13638.85
2486.40283	13647.65
2489.14976	13701.35
2491.89497	13710.15
2494.63845	13755.05
2497.3802	13726.05
2500.12024	13709.45
2502.85855	13690.95
2505.59514	13707.15
2508.33002	13672.55
2511.06318	13626.85
2513.79462	13598.65
2516.52435	13570.15
2519.25237	13524.65
2521.97867	13517.75
2524.70327	13492.85
2527.42616	13500.95
2530.14734	13485.45
2532.86681	13441.55
2535.58458	13415.65
2538.30065	13435.65
2541.01501	13410.65
2543.72768	13403.75
2546.43864	13418.75
2549.14791	13384.55
2551.85548	13409.65
2554.56136	13407.35
2557.26554	13375.15
2559.96803	13375.65
2562.66883	13359.25
2565.36794	13341.55
2568.06536	13310.15
2570.7611	13295.65
2573.45514	13289.45
2576.14751	13271.35
2578.83819	13287.85
2581.52719	13269.05
2584.21451	13239.75
2586.90015	13261.85
2589.58411	13221.05
2592.2664	13247.65
2594.94701	13230.45
2597.62594	13214.45
2600.30321	13208.65
2602.9788	13204.95
2605.65273	13192.25
2608.32498	13205.35
2610.99557	13203.85
2613.66449	13208.85
2616.33175	13188.85
2618.99734	13183.35
2621.66128	13230.35
2624.32355	13178.05
2626.98416	13180.15
2629.64311	13209.55
2632.30041	13188.85
2634.95605	13154.25
2637.61004	13176.15
2640.26238	13129.35
2642.91306	13104.85
2645.56209	13067.85
2648.20948	13087.85
2650.85521	13090.45
2653.4993	13110.85
2656.14175	13080.05
2658.78255	13100.85
2661.42171	13091.25
2664.05923	13105.95
2666.6951	13124.25
2669.32934	13173.75
2671.96194	13142.85
2674.59291	13167.25
2677.22224	13162.45
2679.84993	13175.55
2682.476	13152.55
2685.10043	13197.65
2687.72324	13149.55
2690.34441	13162.95
2692.96396	13146.75
2695.58188	13149.85
2698.19818	13139.35
2700.81285	13148.25
2703.4259	13149.45
2706.03733	13192.95
2708.64714	13164.05
2711.25533	13190.05
2713.86191	13167.05
2716.46687	13141.95
2719.07021	13141.85
2721.67194	13173.45
2724.27206	13149.15
2726.87057	13141.45
2729.46747	13153.95
2732.06276	13162.05
2734.65644	13132.85
2737.24852	13140.95
2739.83899	13103.55
2742.42786	13141.35
2745.01513	13097.25
2747.60079	13107.85
2750.18486	13091.75
2752.76733	13092.45
2755.3482	13117.85
2757.92747	13119.55
2760.50515	13093.25
2763.08123	13079.35
2765.65573	13075.85
2768.22863	13076.55
2770.79994	13043.85
2773.36967	13023.05
2775.9378	13023.75
2778.50435	13061.65
2781.06932	12986.05
2783.6327	13026.75
2786.1945	13016.55
2788.75471	13001.25
2791.31335	12948.55
2793.87041	12958.75
2796.42589	12911.95
2798.97979	12946.65
2801.53212	12913.75
2804.08288	12879.95
2806.63206	12899.05
2809.17967	12871.35
2811.72571	12857.55
2814.27018	12855.85
2816.81308	12819.35
2819.35442	12822.35
2821.89419	12823.55
2824.43239	12855.55
2826.96904	12855.15
2829.50412	12866.95
2832.03763	12845.45
2834.56959	12845.15
2837.1	12801.45
2839.62884	12847.75
2842.15613	12840.35
2844.68186	12920.05
2847.20604	12967.85
2849.72867	13004.55
2852.24974	13016.55
2854.76927	12992.05
2857.28724	12985.65
2859.80367	12978.15
2862.31855	12941.85
2864.83189	12904.75
2867.34368	12885.95
2869.85393	12911.45
2872.36264	12899.55
2874.8698	12885.35
2877.37543	12905.55
2879.87952	12861.85
2882.38207	12869.95
2884.88308	12869.35
2887.38256	12887.05
2889.88051	12875.15
2892.37692	12854.85
2894.8718	12893.85
2897.36515	12906.85
2899.85698	12892.25
2902.34727	12900.35
2904.83604	12904.25
2907.32328	12920.15
2909.809	12908.25
2912.29319	12894.05
2914.77587	12899.65
2917.25702	12903.35
2919.73665	12877.45
2922.21476	12921.75
2924.69136	12886.25
2927.16644	12873.95
2929.64	12872.05
2932.11205	12842.15
2934.58258	12793.35
2937.05161	12783.85
2939.51912	12771.65
2941.98513	12731.55
2944.44962	12684.45
2946.91261	12589.35
2949.37409	12615.55
2951.83407	12560.85
2954.29254	12535.75
2956.74951	12530.45
2959.20498	12527.35
2961.65895	12461.15
2964.11142	12454.15
2966.56239	12424.85
2969.01186	12402.35
2971.45984	12367.35
2973.90632	12343.95
2976.35131	12318.35
2978.7948	12269.05
2981.23681	12244.85
2983.67732	12202.85
2986.11635	12163.35
2988.55388	12159.95
2990.98993	12138.45
2993.4245	12078.45
2995.85758	12055.65
2998.28917	12042.05
3000.71928	12020.25
3003.14791	11998.45
3005.57506	11975.75
3008.00073	11959.85
3010.42493	11955.45
3012.84764	11915.95
3015.26888	11927.45
3017.68865	11887.45
3020.10694	11875.65
3022.52376	11845.95
3024.9391	11809.15
3027.35298	11775.65
3029.76539	11751.25
3032.17632	11713.65
3034.5858	11719.35
3036.9938	11732.85
3039.40034	11678.95
3041.80542	11691.25
3044.20903	11632.35
3046.61118	11634.25
3049.01187	11611.85
3051.4111	11593.65
3053.80888	11566.45
3056.20519	11545.05
3058.60005	11512.85
3060.99345	11501.85
3063.3854	11458.25
3065.7759	11436.45
3068.16494	11412.25
3070.55254	11341.35
3072.93868	11337.85
3075.32338	11301.95
3077.70662	11286.45
3080.08842	11237.65
3082.46878	11230.45
3084.84769	11199.35
3087.22515	11180.95
3089.60118	11168.05
3091.97576	11189.05
3094.3489	11129.15
3096.72061	11138.35
3099.09087	11127.65
3101.4597	11099.15
3103.82709	11103.55
3106.19305	11071.75
3108.55757	11076.95
3110.92066	11041.55
3113.28232	11001.35
3115.64255	10950.55
3118.00134	10926.75
3120.35871	10928.35
3122.71466	10919.35
3125.06917	10887.45
3127.42226	10853.65
3129.77393	10873.45
3132.12417	10881.05
3134.47299	10839.65
3136.82039	10861.15
3139.16636	10830.15
3141.51092	10844.65
3143.85406	10863.45
3146.19579	10826.55
3148.53609	10819.85
3150.87499	10845.15
3153.21246	10799.95
3155.54853	10829.35
3157.88318	10817.15
3160.21642	10825.75
3162.54826	10796.45
3164.87868	10786.55
3167.2077	10793.35
3169.5353	10821.95
3171.86151	10791.55
3174.18631	10767.95
3176.5097	10768.25
3178.83169	10751.25
3181.15228	10770.55
3183.47147	10733.65
3185.78926	10729.65
3188.10565	10703.85
3190.42065	10747.15
3192.73424	10738.65
3195.04645	10728.95
3197.35725	10724.65
3199.66667	10705.95
3201.97469	10733.85
3204.28132	10735.85
3206.58656	10758.75
3208.8904	10725.85
3211.19287	10755.75
3213.49394	10748.25
3215.79363	10716.25
3218.09193	10743.85
3220.38884	10737.75
3222.68438	10719.55
3224.97853	10695.75
3227.2713	10712.25
3229.56269	10676.75
3231.8527	10667.95
3234.14133	10631.05
3236.42858	10631.85
3238.71446	10624.15
3240.99896	10602.65
3243.28209	10592.25
3245.56384	10573.45
3247.84423	10610.15
3250.12324	10564.35
3252.40088	10574.05
3254.67715	10544.75
3256.95205	10524.45
3259.22558	10520.85
3261.49775	10513.95
3263.76855	10486.95
3266.03799	10462.15
3268.30606	10446.25
3270.57277	10443.35
3272.83812	10415.65
3275.10211	10382.65
3277.36474	10405.25
3279.62601	10400.95
3281.88593	10357.45
3284.14448	10385.25
3286.40168	10354.55
3288.65753	10349.35
3290.91202	10336.55
3293.16516	10310.65
3295.41695	10275.85
3297.66738	10225.75
3299.91647	10167.05
3302.16421	10129.75
3304.4106	10064.85
3306.65564	10016.55
3308.89933	9971.05
3311.14169	9890.25
3313.38269	9779.35
3315.62236	9761.95
3317.86068	9671.75
3320.09766	9560.15
3322.3333	9479.35
3324.5676	9476.75
3326.80056	9328.65
3329.03219	9274.55
3331.26248	1.65
3333.49143	-0.35
3335.71905	-1.05
