Data from AgNPs_FTO_APTES_UA_2uM_CRN_100uM_R6G_10uM_NaF_0.1M_Addition_RamanShift__15__15-55-35-320.txt Node

Date: Wed Feb 02 15:55:35 GMT 2022
User: TCL
Spectrometer: QEP01345
Trigger mode: 4
Integration Time (sec): 7.000000E0
Scans to average: 10
Electric dark correction enabled: true
Nonlinearity correction enabled: false
Boxcar width: 0
XAxis mode: Raman Shifts
Number of Pixels in Spectrum: 1044
>>>>>Begin Spectral Data<<<<<
46.04893	-0.25
50.45542	1.65
54.85868	0.05
59.25871	-1.95
63.6555	68.95
68.04907	71.45
72.43941	75.65
76.82654	83.95
81.21044	86.65
85.59113	92.45
89.96862	94.25
94.34289	95.15
98.71396	98.45
103.08183	104.25
107.4465	107.85
111.80798	111.75
116.16626	110.05
120.52136	111.85
124.87327	118.25
129.222	122.15
133.56755	128.35
137.90993	137.35
142.24913	147.25
146.58517	162.85
150.91804	194.15
155.24774	229.25
159.57429	276.25
163.89768	352.75
168.21792	457.45
172.53501	621.35
176.84895	863.85
181.15975	1215.05
185.46741	1707.35
189.77193	2340.35
194.07331	3157.15
198.37157	4062.85
202.6667	5042.05
206.9587	5999.05
211.24758	6951.95
215.53334	7894.75
219.81599	8869.15
224.09553	9969.25
228.37195	11147.25
232.64527	12422.85
236.91549	13776.35
241.18261	15189.55
245.44663	16462.35
249.70755	17658.45
253.96539	18690.15
258.22014	19532.35
262.4718	20254.95
266.72039	20757.45
270.96589	21100.15
275.20832	21197.35
279.44768	21244.35
283.68397	21170.05
287.91719	21112.85
292.14735	21149.95
296.37445	21252.45
300.59849	21360.45
304.81948	21345.65
309.03742	21246.15
313.25231	20855.55
317.46415	20322.85
321.67296	19557.25
325.87872	19013.55
330.08145	18684.55
334.28114	18617.05
338.47781	18723.45
342.67145	18893.55
346.86207	19139.05
351.04966	19412.25
355.23424	19622.15
359.4158	19788.55
363.59435	19958.75
367.76989	20069.75
371.94243	20100.65
376.11196	20114.45
380.27849	20220.05
384.44203	20306.45
388.60257	20400.05
392.76012	20663.15
396.91468	20961.75
401.06626	21285.15
405.21485	21534.85
409.36047	21484.95
413.50311	21189.05
417.64277	20890.15
421.77947	20767.65
425.9132	20746.85
430.04396	20815.55
434.17176	20902.45
438.2966	21033.85
442.41849	21258.85
446.53742	21634.95
450.6534	22101.35
454.76644	22461.45
458.87653	22696.25
462.98368	22764.25
467.08789	22764.25
471.18916	22658.05
475.2875	22611.15
479.38291	22628.25
483.4754	22539.95
487.56496	22266.95
491.6516	21868.45
495.73531	21470.95
499.81612	21284.85
503.89401	21289.85
507.96899	21322.85
512.04106	21410.55
516.11023	21361.75
520.1765	21142.75
524.23987	20930.35
528.30034	20645.75
532.35792	20391.75
536.41261	20219.55
540.46441	20095.15
544.51333	20169.75
548.55936	20502.05
552.60252	21017.95
556.64279	21546.65
560.6802	21830.35
564.71473	22078.05
568.7464	22487.95
572.7752	23124.65
576.80114	23707.65
580.82422	24217.65
584.84444	24516.75
588.86181	24549.85
592.87633	24247.25
596.888	23904.95
600.89682	23694.35
604.9028	24129.45
608.90594	25542.85
612.90624	26964.05
616.90371	25521.35
620.89834	21964.75
624.89015	20340.55
628.87913	20149.35
632.86528	20342.75
636.84862	20520.45
640.82913	20362.55
644.80683	19934.15
648.78172	19583.15
652.75379	19432.85
656.72306	19550.55
660.68952	19798.65
664.65319	19810.25
668.61405	19597.75
672.57211	19563.55
676.52738	19614.65
680.47986	19610.45
684.42955	19586.65
688.37646	19505.75
692.32058	19471.55
696.26192	19567.35
700.20048	19796.95
704.13626	19899.75
708.06928	19984.95
711.99952	19998.65
715.927	19930.15
719.85171	19843.85
723.77365	19751.55
727.69284	19531.65
731.60928	19363.95
735.52295	19214.15
739.43388	19124.65
743.34206	19159.15
747.24749	19269.15
751.15017	19397.65
755.05012	19759.25
758.94733	20338.75
762.8418	21336.05
766.73354	22860.85
770.62254	24339.85
774.50882	24533.15
778.39237	23486.95
782.27321	21856.45
786.15132	20534.35
790.02671	19687.35
793.89938	19201.35
797.76935	19003.25
801.6366	18913.35
805.50115	18830.65
809.36299	18750.45
813.22213	18631.95
817.07857	18619.75
820.93231	18606.15
824.78336	18585.95
828.63172	18541.25
832.47738	18421.65
836.32036	18418.75
840.16066	18387.25
843.99827	18392.25
847.8332	18312.65
851.66546	18261.55
855.49504	18298.55
859.32195	18283.75
863.1462	18219.65
866.96777	18161.25
870.78668	18184.25
874.60293	18156.65
878.41652	18161.55
882.22745	18206.05
886.03573	18221.85
889.84136	18250.25
893.64433	18226.05
897.44466	18168.65
901.24235	18120.65
905.0374	18100.35
908.8298	18064.35
912.61957	18168.85
916.40671	18362.65
920.19121	18612.15
923.97308	18728.65
927.75233	18600.25
931.52895	18432.35
935.30295	18176.05
939.07433	17870.85
942.84309	17607.15
946.60924	17421.85
950.37278	17308.55
954.13371	17275.35
957.89203	17270.35
961.64774	17269.75
965.40086	17290.35
969.15137	17239.35
972.89929	17132.75
976.64461	17023.45
980.38733	17007.25
984.12747	17010.85
987.86502	17074.75
991.59999	17155.75
995.33237	17251.05
999.06217	17375.75
1002.78939	17607.65
1006.51404	17755.45
1010.23611	17921.05
1013.95561	18054.25
1017.67255	18103.45
1021.38692	18036.35
1025.09872	17897.25
1028.80796	17816.25
1032.51465	17811.55
1036.21877	17898.45
1039.92035	18056.75
1043.61937	18089.65
1047.31584	18134.85
1051.00976	18177.55
1054.70114	18267.25
1058.38998	18422.35
1062.07627	18697.85
1065.76003	18990.15
1069.44126	19215.65
1073.11995	19467.45
1076.79611	19598.55
1080.46974	19646.55
1084.14085	19686.65
1087.80943	19768.35
1091.47549	19983.35
1095.13903	20076.05
1098.80005	19969.05
1102.45857	19541.45
1106.11456	19104.05
1109.76805	18817.65
1113.41903	18715.35
1117.06751	18842.05
1120.71348	19007.55
1124.35696	19244.05
1127.99793	19510.85
1131.63641	19728.15
1135.2724	19592.05
1138.90589	19447.35
1142.5369	19440.65
1146.16542	19555.45
1149.79145	19735.75
1153.415	20008.65
1157.03607	20319.45
1160.65467	20779.35
1164.27079	21509.35
1167.88443	22388.05
1171.49561	23577.05
1175.10432	25054.05
1178.71056	26834.45
1182.31434	28541.25
1185.91565	29604.95
1189.51451	30008.35
1193.11091	29718.25
1196.70485	28917.55
1200.29634	27831.05
1203.88538	26787.65
1207.47197	26077.35
1211.05612	25576.45
1214.63782	25057.75
1218.21708	24413.85
1221.79391	23652.45
1225.36829	23080.65
1228.94024	22703.85
1232.50976	22464.95
1236.07685	22291.75
1239.6415	22267.35
1243.20374	22321.45
1246.76355	22486.85
1250.32093	22721.05
1253.8759	23102.05
1257.42845	23669.25
1260.97859	24279.15
1264.52631	24813.65
1268.07163	25340.55
1271.61453	25906.65
1275.15503	26486.45
1278.69312	27131.85
1282.22882	27791.05
1285.76211	28523.25
1289.29301	29452.45
1292.82151	30640.25
1296.34761	32064.45
1299.87133	33644.25
1303.39266	35145.85
1306.9116	36576.15
1310.42815	37738.85
1313.94233	38440.75
1317.45412	38471.75
1320.96354	38342.95
1324.47058	38429.75
1327.97525	38560.85
1331.47754	38715.45
1334.97747	38829.25
1338.47502	39053.85
1341.97022	39237.45
1345.46305	39367.75
1348.95352	39140.55
1352.44163	38543.55
1355.92738	38007.75
1359.41078	37993.55
1362.89183	38174.15
1366.37053	37432.25
1369.84688	34976.05
1373.32088	32081.65
1376.79254	30113.25
1380.26186	29263.65
1383.72883	29144.15
1387.19347	29269.15
1390.65578	29258.95
1394.11575	29156.35
1397.57339	29204.55
1401.0287	29358.75
1404.48168	29323.45
1407.93234	29060.35
1411.38068	28365.35
1414.82669	27325.25
1418.27039	26164.15
1421.71177	25039.25
1425.15083	24168.05
1428.58758	23647.15
1432.02203	23628.05
1435.45416	23974.35
1438.88399	24465.35
1442.31151	25000.95
1445.73673	25452.35
1449.15965	25962.25
1452.58027	26473.05
1455.9986	26845.85
1459.41463	27215.95
1462.82837	27603.15
1466.23982	27926.15
1469.64898	28194.65
1473.05586	28351.35
1476.46045	28295.45
1479.86276	28127.35
1483.26279	27948.25
1486.66054	27885.45
1490.05602	28097.95
1493.44922	28522.65
1496.84016	29264.25
1500.22882	30401.45
1503.61521	31905.25
1506.99934	33525.85
1510.38121	34732.65
1513.76081	35021.25
1517.13816	34311.95
1520.51324	33086.95
1523.88607	32077.65
1527.25665	31388.25
1530.62498	31039.25
1533.99105	30720.45
1537.35488	30210.25
1540.71647	29551.15
1544.07581	28687.85
1547.4329	27920.85
1550.78776	27226.25
1554.14038	26842.85
1557.49077	26696.75
1560.83892	26735.25
1564.18484	26863.55
1567.52853	27055.95
1570.86999	27311.95
1574.20922	27729.25
1577.54624	28125.15
1580.88103	28145.85
1584.2136	28082.05
1587.54395	28251.65
1590.87208	28774.25
1594.19801	29677.25
1597.52172	30640.25
1600.84321	30810.45
1604.16251	29805.95
1607.47959	28182.35
1610.79447	26425.45
1614.10715	24640.15
1617.41763	23070.15
1620.7259	21799.15
1624.03199	20985.55
1627.33587	20786.25
1630.63757	21038.55
1633.93707	21977.25
1637.23439	23553.85
1640.52951	25918.55
1643.82246	28786.15
1647.11321	31405.05
1650.40179	32805.45
1653.68819	31989.85
1656.97241	29190.75
1660.25446	25691.15
1663.53433	22591.55
1666.81203	20297.65
1670.08756	18659.05
1673.36092	17664.05
1676.63211	16971.85
1679.90115	16525.95
1683.16801	16184.75
1686.43272	15948.85
1689.69527	15754.05
1692.95567	15605.05
1696.2139	15543.55
1699.46999	15470.65
1702.72392	15399.75
1705.97571	15280.65
1709.22535	15199.05
1712.47284	15149.85
1715.71819	15104.25
1718.96139	15043.35
1722.20246	14983.45
1725.44139	14948.85
1728.67818	14858.45
1731.91284	14771.35
1735.14537	14685.85
1738.37576	14600.55
1741.60403	14595.25
1744.83017	14522.65
1748.05418	14524.85
1751.27607	14509.85
1754.49584	14493.25
1757.71349	14523.65
1760.92903	14469.45
1764.14244	14462.95
1767.35375	14427.35
1770.56294	14340.25
1773.77002	14316.35
1776.97499	14260.65
1780.17785	14182.15
1783.37861	14142.75
1786.57727	14116.45
1789.77382	14071.65
1792.96828	14053.85
1796.16064	13994.05
1799.3509	13966.45
1802.53907	13904.55
1805.72514	13885.65
1808.90913	13844.55
1812.09102	13787.85
1815.27083	13779.35
1818.44856	13756.65
1821.6242	13726.45
1824.79776	13727.75
1827.96924	13691.05
1831.13864	13685.25
1834.30597	13695.25
1837.47122	13662.45
1840.6344	13650.85
1843.7955	13673.75
1846.95454	13630.25
1850.11151	13646.65
1853.26642	13613.05
1856.41926	13604.35
1859.57004	13612.35
1862.71876	13568.95
1865.86542	13548.35
1869.01003	13530.05
1872.15258	13485.15
1875.29308	13482.55
1878.43152	13442.95
1881.56792	13434.75
1884.70227	13375.05
1887.83457	13380.45
1890.96482	13343.15
1894.09304	13335.05
1897.21921	13312.05
1900.34335	13287.05
1903.46544	13269.85
1906.58551	13264.05
1909.70353	13235.35
1912.81953	13204.35
1915.93349	13164.25
1919.04543	13153.45
1922.15534	13114.35
1925.26322	13094.85
1928.36908	13021.25
1931.47292	12993.85
1934.57473	12984.25
1937.67453	12918.35
1940.77232	12874.35
1943.86808	12869.05
1946.96184	12840.75
1950.05358	12817.65
1953.14331	12758.05
1956.23103	12705.95
1959.31675	12666.65
1962.40046	12673.65
1965.48217	12605.95
1968.56188	12564.15
1971.63959	12513.65
1974.7153	12488.95
1977.78901	12458.65
1980.86073	12435.85
1983.93046	12355.35
1986.99819	12305.45
1990.06394	12277.95
1993.1277	12244.65
1996.18947	12166.75
1999.24925	12160.95
2002.30706	12120.85
2005.36288	12067.65
2008.41672	12062.45
2011.46859	11998.35
2014.51848	11976.35
2017.56639	11913.45
2020.61233	11870.25
2023.6563	11877.55
2026.6983	11843.95
2029.73833	11793.95
2032.7764	11768.45
2035.8125	11741.95
2038.84664	11716.65
2041.87881	11695.95
2044.90903	11670.85
2047.93729	11672.25
2050.96359	11637.75
2053.98794	11617.95
2057.01034	11634.85
2060.03078	11620.45
2063.04927	11594.95
2066.06582	11569.35
2069.08042	11566.55
2072.09307	11531.15
2075.10378	11512.35
2078.11255	11511.05
2081.11938	11500.25
2084.12426	11509.85
2087.12722	11487.05
2090.12824	11494.25
2093.12732	11482.85
2096.12447	11489.75
2099.11969	11500.75
2102.11299	11492.65
2105.10435	11515.75
2108.09379	11495.85
2111.08131	11500.55
2114.0669	11490.55
2117.05057	11502.95
2120.03233	11528.15
2123.01216	11540.85
2125.99008	11540.35
2128.96609	11501.55
2131.94018	11528.75
2134.91236	11520.35
2137.88263	11518.75
2140.851	11498.95
2143.81746	11531.45
2146.78201	11529.35
2149.74466	11524.75
2152.7054	11526.75
2155.66425	11502.45
2158.6212	11519.55
2161.57625	11498.75
2164.52941	11487.65
2167.48067	11483.65
2170.43004	11485.85
2173.37752	11456.75
2176.32311	11450.75
2179.26681	11461.45
2182.20863	11462.25
2185.14856	11454.35
2188.08661	11423.55
2191.02278	11433.25
2193.95707	11427.25
2196.88948	11421.75
2199.82001	11388.75
2202.74867	11361.25
2205.67545	11351.55
2208.60037	11360.05
2211.52341	11324.65
2214.44458	11287.45
2217.36388	11303.65
2220.28132	11256.05
2223.1969	11241.95
2226.11061	11221.15
2229.02246	11184.75
2231.93245	11164.55
2234.84058	11149.55
2237.74686	11115.05
2240.65128	11084.95
2243.55385	11092.75
2246.45456	11100.45
2249.35343	11053.95
2252.25044	11026.75
2255.14561	11011.85
2258.03893	11009.15
2260.93041	10978.55
2263.82004	10970.05
2266.70783	10946.35
2269.59378	10880.35
2272.4779	10850.25
2275.36017	10816.15
2278.24061	10783.05
2281.11922	10747.15
2283.996	10761.55
2286.87094	10721.25
2289.74405	10700.65
2292.61534	10693.15
2295.4848	10700.65
2298.35243	10707.05
2301.21824	10673.05
2304.08223	10654.05
2306.94439	10668.85
2309.80474	10654.45
2312.66327	10610.75
2315.51999	10597.65
2318.37489	10588.55
2321.22797	10584.95
2324.07925	10550.25
2326.92871	10542.15
2329.77637	10558.35
2332.62222	10514.85
2335.46626	10526.25
2338.3085	10496.95
2341.14893	10489.35
2343.98756	10448.95
2346.8244	10460.95
2349.65943	10459.75
2352.49267	10481.75
2355.32411	10456.85
2358.15376	10449.55
2360.98161	10426.75
2363.80768	10437.25
2366.63195	10401.85
2369.45444	10406.25
2372.27514	10396.55
2375.09405	10365.55
2377.91118	10362.75
2380.72652	10355.75
2383.54009	10336.05
2386.35187	10321.65
2389.16188	10268.05
2391.97011	10252.35
2394.77657	10236.85
2397.58125	10214.95
2400.38416	10181.35
2403.18529	10167.15
2405.98466	10133.55
2408.78226	10122.55
2411.57809	10111.95
2414.37216	10111.25
2417.16446	10108.05
2419.955	10092.35
2422.74378	10075.75
2425.5308	10083.65
2428.31606	10049.25
2431.09956	10060.95
2433.88131	10033.65
2436.6613	10039.35
2439.43954	10001.85
2442.21603	10022.15
2444.99077	9998.25
2447.76377	10002.55
2450.53501	9969.65
2453.30451	9979.95
2456.07226	9984.25
2458.83827	9957.65
2461.60254	9946.85
2464.36507	9959.45
2467.12586	9958.75
2469.88492	9923.45
2472.64224	9932.15
2475.39782	9948.75
2478.15167	9928.05
2480.90379	9925.85
2483.65417	9907.45
2486.40283	9886.55
2489.14976	9904.55
2491.89497	9890.15
2494.63845	9895.65
2497.3802	9895.65
2500.12024	9867.15
2502.85855	9860.25
2505.59514	9862.55
2508.33002	9871.75
2511.06318	9845.35
2513.79462	9808.95
2516.52435	9801.95
2519.25237	9812.75
2521.97867	9801.75
2524.70327	9779.55
2527.42616	9763.45
2530.14734	9758.25
2532.86681	9734.15
2535.58458	9735.75
2538.30065	9695.95
2541.01501	9694.45
2543.72768	9696.35
2546.43864	9663.75
2549.14791	9645.25
2551.85548	9626.25
2554.56136	9616.35
2557.26554	9624.85
2559.96803	9595.85
2562.66883	9606.95
2565.36794	9578.35
2568.06536	9579.65
2570.7611	9565.65
2573.45514	9554.95
2576.14751	9518.95
2578.83819	9514.15
2581.52719	9477.05
2584.21451	9461.55
2586.90015	9478.05
2589.58411	9479.05
2592.2664	9452.55
2594.94701	9434.15
2597.62594	9404.95
2600.30321	9410.15
2602.9788	9381.55
2605.65273	9384.65
2608.32498	9373.05
2610.99557	9370.05
2613.66449	9365.95
2616.33175	9348.65
2618.99734	9350.15
2621.66128	9333.95
2624.32355	9322.65
2626.98416	9304.55
2629.64311	9324.35
2632.30041	9309.05
2634.95605	9311.25
2637.61004	9261.55
2640.26238	9248.25
2642.91306	9261.65
2645.56209	9268.05
2648.20948	9263.45
2650.85521	9239.75
2653.4993	9231.65
2656.14175	9252.35
2658.78255	9247.15
2661.42171	9242.25
2664.05923	9265.25
2666.6951	9248.65
2669.32934	9270.55
2671.96194	9238.35
2674.59291	9271.05
2677.22224	9235.65
2679.84993	9246.15
2682.476	9225.35
2685.10043	9225.55
2687.72324	9222.85
2690.34441	9227.45
2692.96396	9200.25
2695.58188	9219.45
2698.19818	9215.65
2700.81285	9214.85
2703.4259	9219.25
2706.03733	9244.65
2708.64714	9236.45
2711.25533	9225.35
2713.86191	9205.05
2716.46687	9229.55
2719.07021	9231.15
2721.67194	9220.05
2724.27206	9225.25
2726.87057	9222.75
2729.46747	9214.95
2732.06276	9241.25
2734.65644	9214.45
2737.24852	9209.45
2739.83899	9185.85
2742.42786	9208.05
2745.01513	9181.85
2747.60079	9166.95
2750.18486	9144.25
2752.76733	9146.65
2755.3482	9161.85
2757.92747	9155.95
2760.50515	9146.35
2763.08123	9164.55
2765.65573	9142.85
2768.22863	9120.25
2770.79994	9087.65
2773.36967	9117.55
2775.9378	9096.85
2778.50435	9096.45
2781.06932	9090.95
2783.6327	9056.15
2786.1945	9068.85
2788.75471	9054.85
2791.31335	9037.95
2793.87041	9033.45
2796.42589	9027.95
2798.97979	9013.65
2801.53212	8975.55
2804.08288	8970.95
2806.63206	8941.95
2809.17967	8921.25
2811.72571	8886.95
2814.27018	8893.75
2816.81308	8879.35
2819.35442	8873.15
2821.89419	8859.95
2824.43239	8845.85
2826.96904	8824.45
2829.50412	8830.15
2832.03763	8823.55
2834.56959	8802.35
2837.1	8805.15
2839.62884	8825.35
2842.15613	8811.95
2844.68186	8862.55
2847.20604	8875.55
2849.72867	8884.25
2852.24974	8892.55
2854.76927	8881.35
2857.28724	8891.45
2859.80367	8831.55
2862.31855	8809.95
2864.83189	8825.95
2867.34368	8798.05
2869.85393	8808.45
2872.36264	8800.85
2874.8698	8783.25
2877.37543	8785.75
2879.87952	8796.75
2882.38207	8783.95
2884.88308	8776.75
2887.38256	8773.45
2889.88051	8776.35
2892.37692	8762.65
2894.8718	8770.15
2897.36515	8800.15
2899.85698	8775.05
2902.34727	8796.45
2904.83604	8789.25
2907.32328	8795.65
2909.809	8786.05
2912.29319	8800.35
2914.77587	8806.35
2917.25702	8780.85
2919.73665	8780.15
2922.21476	8802.75
2924.69136	8760.55
2927.16644	8788.05
2929.64	8789.05
2932.11205	8792.65
2934.58258	8787.65
2937.05161	8772.75
2939.51912	8754.45
2941.98513	8746.55
2944.44962	8702.05
2946.91261	8653.45
2949.37409	8669.95
2951.83407	8658.95
2954.29254	8636.05
2956.74951	8631.55
2959.20498	8605.15
2961.65895	8595.85
2964.11142	8579.85
2966.56239	8558.85
2969.01186	8537.15
2971.45984	8523.65
2973.90632	8526.05
2976.35131	8451.25
2978.7948	8455.25
2981.23681	8447.05
2983.67732	8419.95
2986.11635	8387.95
2988.55388	8406.15
2990.98993	8358.15
2993.4245	8360.95
2995.85758	8341.05
2998.28917	8326.55
3000.71928	8313.65
3003.14791	8297.95
3005.57506	8274.35
3008.00073	8225.35
3010.42493	8243.35
3012.84764	8224.95
3015.26888	8217.35
3017.68865	8192.35
3020.10694	8189.75
3022.52376	8164.05
3024.9391	8182.65
3027.35298	8140.55
3029.76539	8129.05
3032.17632	8136.45
3034.5858	8120.35
3036.9938	8099.75
3039.40034	8109.55
3041.80542	8091.15
3044.20903	8059.45
3046.61118	8042.45
3049.01187	8014.95
3051.4111	8009.35
3053.80888	7985.65
3056.20519	7969.25
3058.60005	7960.25
3060.99345	7940.55
3063.3854	7938.05
3065.7759	7903.25
3068.16494	7895.55
3070.55254	7867.25
3072.93868	7871.05
3075.32338	7848.75
3077.70662	7830.35
3080.08842	7779.25
3082.46878	7800.95
3084.84769	7800.95
3087.22515	7767.65
3089.60118	7771.85
3091.97576	7753.95
3094.3489	7774.15
3096.72061	7749.55
3099.09087	7749.85
3101.4597	7755.15
3103.82709	7759.95
3106.19305	7721.75
3108.55757	7727.75
3110.92066	7679.65
3113.28232	7689.55
3115.64255	7636.75
3118.00134	7641.05
3120.35871	7608.55
3122.71466	7609.05
3125.06917	7605.35
3127.42226	7595.05
3129.77393	7580.25
3132.12417	7580.85
3134.47299	7586.65
3136.82039	7578.45
3139.16636	7575.45
3141.51092	7579.95
3143.85406	7567.35
3146.19579	7586.85
3148.53609	7599.35
3150.87499	7599.45
3153.21246	7616.65
3155.54853	7607.55
3157.88318	7580.55
3160.21642	7588.75
3162.54826	7595.55
3164.87868	7588.45
3167.2077	7592.25
3169.5353	7590.75
3171.86151	7586.75
3174.18631	7571.25
3176.5097	7587.05
3178.83169	7549.35
3181.15228	7554.55
3183.47147	7532.05
3185.78926	7539.25
3188.10565	7537.35
3190.42065	7540.65
3192.73424	7525.25
3195.04645	7528.25
3197.35725	7509.95
3199.66667	7510.45
3201.97469	7504.85
3204.28132	7488.15
3206.58656	7528.85
3208.8904	7517.35
3211.19287	7513.35
3213.49394	7517.95
3215.79363	7511.95
3218.09193	7511.95
3220.38884	7508.45
3222.68438	7505.15
3224.97853	7496.75
3227.2713	7478.35
3229.56269	7481.05
3231.8527	7472.05
3234.14133	7468.45
3236.42858	7446.35
3238.71446	7442.45
3240.99896	7437.65
3243.28209	7440.25
3245.56384	7422.65
3247.84423	7415.75
3250.12324	7406.15
3252.40088	7392.85
3254.67715	7402.75
3256.95205	7390.75
3259.22558	7378.45
3261.49775	7362.35
3263.76855	7368.75
3266.03799	7323.55
3268.30606	7317.75
3270.57277	7301.75
3272.83812	7261.55
3275.10211	7266.05
3277.36474	7254.25
3279.62601	7251.45
3281.88593	7258.35
3284.14448	7259.95
3286.40168	7251.75
3288.65753	7243.25
3290.91202	7203.75
3293.16516	7190.45
3295.41695	7194.45
3297.66738	7142.15
3299.91647	7109.75
3302.16421	7051.35
3304.4106	7060.05
3306.65564	7009.35
3308.89933	6959.35
3311.14169	6927.55
3313.38269	6866.85
3315.62236	6846.75
3317.86068	6797.05
3320.09766	6704.05
3322.3333	6665.35
3324.5676	6655.55
3326.80056	6538.25
3329.03219	6505.35
3331.26248	1.45
3333.49143	-0.05
3335.71905	-1.35
