Data from AgNPs_FTO_APTES_UA_2uM_CRN_2uM_R6G_10uM_NaF_0.1M_Addition_RamanShift__27__12-30-15-081.txt Node

Date: Wed Feb 02 12:30:15 GMT 2022
User: TCL
Spectrometer: QEP01345
Trigger mode: 4
Integration Time (sec): 7.000000E0
Scans to average: 10
Electric dark correction enabled: true
Nonlinearity correction enabled: false
Boxcar width: 0
XAxis mode: Raman Shifts
Number of Pixels in Spectrum: 1044
>>>>>Begin Spectral Data<<<<<
46.04893	0.85
50.45542	0.15
54.85868	-1.25
59.25871	-0.85
63.6555	78.35
68.04907	79.45
72.43941	78.15
76.82654	89.45
81.21044	89.45
85.59113	92.25
89.96862	93.95
94.34289	100.35
98.71396	104.75
103.08183	109.05
107.4465	112.75
111.80798	112.05
116.16626	117.55
120.52136	125.15
124.87327	130.75
129.222	138.35
133.56755	143.95
137.90993	160.25
142.24913	177.65
146.58517	205.75
150.91804	240.75
155.24774	293.15
159.57429	367.45
163.89768	477.95
168.21792	643.05
172.53501	873.35
176.84895	1223.85
181.15975	1708.85
185.46741	2416.95
189.77193	3324.15
194.07331	4440.45
198.37157	5710.45
202.6667	7052.45
206.9587	8383.15
211.24758	9720.85
215.53334	11143.05
219.81599	12684.95
224.09553	14457.05
228.37195	16433.35
232.64527	18507.45
236.91549	20670.15
241.18261	22544.65
245.44663	24110.25
249.70755	25333.15
253.96539	26423.45
258.22014	27451.45
262.4718	28377.35
266.72039	29067.75
270.96589	29520.45
275.20832	29649.65
279.44768	29440.95
283.68397	29239.35
287.91719	29098.05
292.14735	29237.15
296.37445	29710.45
300.59849	30586.85
304.81948	31623.85
309.03742	32395.85
313.25231	32298.75
317.46415	30834.55
321.67296	28543.15
325.87872	26564.85
330.08145	25531.45
334.28114	25317.35
338.47781	25657.25
342.67145	26321.75
346.86207	27333.95
351.04966	28858.15
355.23424	30635.75
359.4158	31990.85
363.59435	32571.25
367.76989	32582.05
371.94243	32426.25
376.11196	32173.15
380.27849	31871.75
384.44203	31535.95
388.60257	31178.15
392.76012	31087.65
396.91468	31469.55
401.06626	32361.25
405.21485	33087.25
409.36047	32512.05
413.50311	30942.05
417.64277	29470.65
421.77947	28763.15
425.9132	28471.75
430.04396	28504.95
434.17176	28586.15
438.2966	28910.95
442.41849	29608.65
446.53742	30600.25
450.6534	31623.55
454.76644	32362.85
458.87653	32471.65
462.98368	32190.55
467.08789	31713.75
471.18916	30925.05
475.2875	30153.75
479.38291	29594.85
483.4754	29174.95
487.56496	28775.15
491.6516	28270.25
495.73531	28078.55
499.81612	28032.95
503.89401	28277.35
507.96899	28494.75
512.04106	28712.35
516.11023	28869.35
520.1765	28943.55
524.23987	28787.85
528.30034	28297.65
532.35792	27664.35
536.41261	26995.15
540.46441	26300.25
544.51333	26087.05
548.55936	26355.15
552.60252	27203.65
556.64279	28169.65
560.6802	28730.65
564.71473	29267.45
568.7464	30607.45
572.7752	31694.95
576.80114	31296.15
580.82422	30523.35
584.84444	30244.95
588.86181	30215.15
592.87633	30423.85
596.888	30850.75
600.89682	31736.25
604.9028	34875.35
608.90594	43360.85
612.90624	54356.25
616.90371	52002.45
620.89834	36495.05
624.89015	29043.15
628.87913	27753.25
632.86528	27874.05
636.84862	28142.35
640.82913	27513.55
644.80683	26137.45
648.78172	25183.25
652.75379	25174.95
656.72306	26211.65
660.68952	27603.55
664.65319	27481.45
668.61405	26177.35
672.57211	25500.85
676.52738	25410.95
680.47986	25396.15
684.42955	25139.85
688.37646	25006.15
692.32058	25111.55
696.26192	25395.95
700.20048	25843.15
704.13626	26201.45
708.06928	26241.35
711.99952	25908.85
715.927	25721.45
719.85171	25762.15
723.77365	25641.35
727.69284	25262.25
731.60928	24919.45
735.52295	24879.15
739.43388	24960.75
743.34206	25097.85
747.24749	25331.15
751.15017	25629.95
755.05012	26301.15
758.94733	27719.75
762.8418	30756.15
766.73354	36027.85
770.62254	41508.15
774.50882	43635.55
778.39237	41045.55
782.27321	35546.25
786.15132	30372.45
790.02671	27284.75
793.89938	25844.25
797.76935	25189.75
801.6366	24945.05
805.50115	24739.35
809.36299	24568.65
813.22213	24397.05
817.07857	24323.25
820.93231	24330.05
824.78336	24365.15
828.63172	24511.25
832.47738	24544.95
836.32036	24571.85
840.16066	24510.05
843.99827	24388.45
847.8332	24255.55
851.66546	24172.45
855.49504	24100.65
859.32195	24025.85
863.1462	23876.75
866.96777	23722.65
870.78668	23658.65
874.60293	23676.05
878.41652	23768.25
882.22745	23920.85
886.03573	24066.35
889.84136	24014.65
893.64433	23821.45
897.44466	23723.25
901.24235	23684.05
905.0374	23671.15
908.8298	23556.65
912.61957	23599.75
916.40671	23840.95
920.19121	24235.65
923.97308	24645.55
927.75233	24925.45
931.52895	25015.65
935.30295	24696.45
939.07433	23864.55
942.84309	23121.55
946.60924	22730.55
950.37278	22527.65
954.13371	22396.55
957.89203	22275.05
961.64774	22196.45
965.40086	22150.65
969.15137	22042.05
972.89929	21973.85
976.64461	21940.65
980.38733	21981.35
984.12747	22094.85
987.86502	22263.25
991.59999	22548.25
995.33237	22969.05
999.06217	23742.65
1002.78939	24715.65
1006.51404	25589.25
1010.23611	26264.35
1013.95561	26636.25
1017.67255	26501.15
1021.38692	26020.05
1025.09872	25558.85
1028.80796	25472.55
1032.51465	25904.85
1036.21877	26448.05
1039.92035	26664.45
1043.61937	26475.25
1047.31584	25931.15
1051.00976	25358.05
1054.70114	25028.25
1058.38998	24937.55
1062.07627	25039.55
1065.76003	25305.35
1069.44126	25567.25
1073.11995	25933.95
1076.79611	26283.55
1080.46974	26641.35
1084.14085	27199.45
1087.80943	27992.35
1091.47549	28338.65
1095.13903	28018.55
1098.80005	27014.45
1102.45857	26054.45
1106.11456	25519.35
1109.76805	25421.65
1113.41903	25764.75
1117.06751	26452.35
1120.71348	27377.55
1124.35696	28441.35
1127.99793	29492.95
1131.63641	29666.05
1135.2724	28594.95
1138.90589	27402.05
1142.5369	26711.65
1146.16542	26318.75
1149.79145	26162.45
1153.415	26266.45
1157.03607	26636.55
1160.65467	27299.45
1164.27079	28556.85
1167.88443	30342.45
1171.49561	33166.05
1175.10432	37560.45
1178.71056	43193.05
1182.31434	47723.25
1185.91565	49439.25
1189.51451	48737.35
1193.11091	46178.25
1196.70485	42626.45
1200.29634	39547.45
1203.88538	37190.05
1207.47197	34769.55
1211.05612	32909.35
1214.63782	31921.65
1218.21708	31691.85
1221.79391	31831.95
1225.36829	32031.55
1228.94024	32087.85
1232.50976	32020.65
1236.07685	31905.65
1239.6415	31691.15
1243.20374	31445.65
1246.76355	31448.25
1250.32093	31826.85
1253.8759	32642.55
1257.42845	33814.15
1260.97859	35088.15
1264.52631	36300.25
1268.07163	37528.95
1271.61453	38780.65
1275.15503	40006.15
1278.69312	40852.55
1282.22882	41569.35
1285.76211	42708.75
1289.29301	44198.95
1292.82151	45849.15
1296.34761	47534.55
1299.87133	49918.05
1303.39266	53643.65
1306.9116	59139.35
1310.42815	65780.75
1313.94233	70673.25
1317.45412	71271.25
1320.96354	68368.45
1324.47058	64371.45
1327.97525	60680.25
1331.47754	58038.55
1334.97747	56620.45
1338.47502	56210.85
1341.97022	56240.15
1345.46305	56590.55
1348.95352	57377.75
1352.44163	59106.55
1355.92738	62769.55
1359.41078	69709.95
1362.89183	77538.85
1366.37053	77137.25
1369.84688	67199.75
1373.32088	56061.15
1376.79254	48772.15
1380.26186	45461.35
1383.72883	43987.35
1387.19347	42880.75
1390.65578	41615.75
1394.11575	40977.05
1397.57339	40980.55
1401.0287	41758.85
1404.48168	42695.15
1407.93234	43443.45
1411.38068	43654.55
1414.82669	42983.95
1418.27039	41577.95
1421.71177	39820.45
1425.15083	38410.45
1428.58758	37455.25
1432.02203	37226.35
1435.45416	37628.65
1438.88399	38058.75
1442.31151	38360.25
1445.73673	38761.35
1449.15965	39252.95
1452.58027	39450.45
1455.9986	39363.15
1459.41463	39410.45
1462.82837	39919.95
1466.23982	40763.95
1469.64898	41623.15
1473.05586	42223.55
1476.46045	42549.45
1479.86276	42866.65
1483.26279	43368.15
1486.66054	43885.65
1490.05602	44876.95
1493.44922	46213.45
1496.84016	48019.95
1500.22882	50914.05
1503.61521	55032.75
1506.99934	60168.75
1510.38121	65725.15
1513.76081	69284.85
1517.13816	67980.35
1520.51324	61938.85
1523.88607	54906.65
1527.25665	49728.25
1530.62498	46568.45
1533.99105	44708.75
1537.35488	43430.05
1540.71647	42561.65
1544.07581	41820.75
1547.4329	41267.35
1550.78776	40644.15
1554.14038	40344.05
1557.49077	40572.25
1560.83892	41136.65
1564.18484	41914.05
1567.52853	42623.05
1570.86999	43155.05
1574.20922	43601.75
1577.54624	43581.55
1580.88103	42241.05
1584.2136	40635.75
1587.54395	40362.65
1590.87208	41890.15
1594.19801	44856.85
1597.52172	48323.35
1600.84321	49848.25
1604.16251	47830.75
1607.47959	43887.05
1610.79447	39593.25
1614.10715	35731.85
1617.41763	32737.55
1620.7259	30772.55
1624.03199	29854.95
1627.33587	29958.15
1630.63757	30962.65
1633.93707	32953.05
1637.23439	36083.15
1640.52951	40321.05
1643.82246	45478.45
1647.11321	50487.65
1650.40179	53642.55
1653.68819	51945.35
1656.97241	45214.95
1660.25446	37279.75
1663.53433	31305.75
1666.81203	27587.85
1670.08756	25436.65
1673.36092	24114.25
1676.63211	23272.55
1679.90115	22704.45
1683.16801	22272.35
1686.43272	21994.95
1689.69527	21783.45
1692.95567	21618.85
1696.2139	21518.15
1699.46999	21457.95
1702.72392	21375.55
1705.97571	21303.25
1709.22535	21245.75
1712.47284	21249.95
1715.71819	21258.95
1718.96139	21260.45
1722.20246	21209.45
1725.44139	21107.05
1728.67818	21001.85
1731.91284	20799.75
1735.14537	20700.15
1738.37576	20536.05
1741.60403	20451.25
1744.83017	20357.85
1748.05418	20323.65
1751.27607	20296.65
1754.49584	20215.35
1757.71349	20218.55
1760.92903	20183.85
1764.14244	20207.55
1767.35375	20126.55
1770.56294	20143.75
1773.77002	20060.45
1776.97499	20022.75
1780.17785	19922.55
1783.37861	19894.35
1786.57727	19878.25
1789.77382	19824.15
1792.96828	19782.15
1796.16064	19776.55
1799.3509	19761.15
1802.53907	19690.45
1805.72514	19645.55
1808.90913	19609.35
1812.09102	19565.15
1815.27083	19530.75
1818.44856	19509.85
1821.6242	19481.65
1824.79776	19441.15
1827.96924	19478.15
1831.13864	19454.75
1834.30597	19449.85
1837.47122	19431.25
1840.6344	19368.45
1843.7955	19403.15
1846.95454	19431.15
1850.11151	19401.45
1853.26642	19414.15
1856.41926	19440.65
1859.57004	19427.25
1862.71876	19472.35
1865.86542	19484.15
1869.01003	19533.35
1872.15258	19526.25
1875.29308	19555.25
1878.43152	19565.75
1881.56792	19594.95
1884.70227	19613.45
1887.83457	19678.55
1890.96482	19721.15
1894.09304	19689.75
1897.21921	19719.25
1900.34335	19760.95
1903.46544	19766.55
1906.58551	19799.25
1909.70353	19782.05
1912.81953	19794.65
1915.93349	19784.85
1919.04543	19737.65
1922.15534	19691.85
1925.26322	19645.95
1928.36908	19566.15
1931.47292	19445.55
1934.57473	19306.75
1937.67453	19160.85
1940.77232	19070.35
1943.86808	18971.25
1946.96184	18892.95
1950.05358	18780.35
1953.14331	18673.05
1956.23103	18586.75
1959.31675	18511.05
1962.40046	18493.25
1965.48217	18409.85
1968.56188	18352.05
1971.63959	18289.35
1974.7153	18256.95
1977.78901	18175.65
1980.86073	18104.55
1983.93046	18062.05
1986.99819	17951.45
1990.06394	17909.45
1993.1277	17859.75
1996.18947	17793.95
1999.24925	17728.65
2002.30706	17677.55
2005.36288	17632.65
2008.41672	17574.95
2011.46859	17544.45
2014.51848	17470.75
2017.56639	17447.75
2020.61233	17393.25
2023.6563	17368.95
2026.6983	17334.75
2029.73833	17273.05
2032.7764	17251.35
2035.8125	17213.35
2038.84664	17190.25
2041.87881	17199.75
2044.90903	17150.35
2047.93729	17090.85
2050.96359	17094.15
2053.98794	17066.15
2057.01034	17021.75
2060.03078	17013.15
2063.04927	17024.05
2066.06582	16995.65
2069.08042	16972.75
2072.09307	16911.25
2075.10378	16930.05
2078.11255	16959.35
2081.11938	16895.45
2084.12426	16889.65
2087.12722	16884.35
2090.12824	16860.95
2093.12732	16856.65
2096.12447	16871.45
2099.11969	16870.25
2102.11299	16864.05
2105.10435	16889.85
2108.09379	16883.95
2111.08131	16889.95
2114.0669	16872.35
2117.05057	16871.15
2120.03233	16934.15
2123.01216	16887.25
2125.99008	16931.15
2128.96609	16932.25
2131.94018	16964.15
2134.91236	16955.55
2137.88263	16963.45
2140.851	16948.95
2143.81746	16949.95
2146.78201	16961.85
2149.74466	16964.25
2152.7054	16962.75
2155.66425	16964.25
2158.6212	16936.05
2161.57625	16940.95
2164.52941	16929.45
2167.48067	16905.75
2170.43004	16922.85
2173.37752	16896.05
2176.32311	16914.35
2179.26681	16923.65
2182.20863	16918.15
2185.14856	16958.15
2188.08661	16946.25
2191.02278	16959.65
2193.95707	16936.45
2196.88948	16876.85
2199.82001	16889.65
2202.74867	16878.85
2205.67545	16889.35
2208.60037	16883.85
2211.52341	16841.05
2214.44458	16852.55
2217.36388	16823.35
2220.28132	16800.95
2223.1969	16727.25
2226.11061	16734.75
2229.02246	16667.35
2231.93245	16658.75
2234.84058	16649.75
2237.74686	16603.65
2240.65128	16604.75
2243.55385	16534.35
2246.45456	16562.75
2249.35343	16549.65
2252.25044	16504.65
2255.14561	16491.25
2258.03893	16494.35
2260.93041	16453.95
2263.82004	16440.75
2266.70783	16380.35
2269.59378	16320.15
2272.4779	16312.05
2275.36017	16224.45
2278.24061	16210.55
2281.11922	16193.65
2283.996	16145.75
2286.87094	16145.95
2289.74405	16119.55
2292.61534	16094.65
2295.4848	16076.55
2298.35243	16067.55
2301.21824	16036.25
2304.08223	16026.95
2306.94439	16076.95
2309.80474	16073.45
2312.66327	16063.85
2315.51999	16093.45
2318.37489	16076.35
2321.22797	16081.05
2324.07925	16031.35
2326.92871	16030.35
2329.77637	16062.15
2332.62222	16004.45
2335.46626	15995.95
2338.3085	16000.45
2341.14893	15999.85
2343.98756	16001.45
2346.8244	16037.65
2349.65943	16056.95
2352.49267	16043.35
2355.32411	16089.65
2358.15376	16074.75
2360.98161	16096.85
2363.80768	16083.35
2366.63195	16058.05
2369.45444	16026.45
2372.27514	16000.45
2375.09405	15976.65
2377.91118	15951.05
2380.72652	15865.55
2383.54009	15814.25
2386.35187	15785.45
2389.16188	15752.25
2391.97011	15722.05
2394.77657	15711.75
2397.58125	15627.45
2400.38416	15608.95
2403.18529	15568.45
2405.98466	15549.25
2408.78226	15535.95
2411.57809	15494.55
2414.37216	15479.05
2417.16446	15497.35
2419.955	15431.65
2422.74378	15429.65
2425.5308	15398.95
2428.31606	15412.85
2431.09956	15393.05
2433.88131	15398.45
2436.6613	15387.15
2439.43954	15374.75
2442.21603	15398.15
2444.99077	15415.15
2447.76377	15390.95
2450.53501	15381.25
2453.30451	15385.15
2456.07226	15404.15
2458.83827	15387.55
2461.60254	15357.45
2464.36507	15342.75
2467.12586	15363.95
2469.88492	15356.55
2472.64224	15351.95
2475.39782	15374.15
2478.15167	15399.85
2480.90379	15411.35
2483.65417	15415.45
2486.40283	15474.05
2489.14976	15498.65
2491.89497	15498.65
2494.63845	15517.15
2497.3802	15484.75
2500.12024	15488.85
2502.85855	15479.45
2505.59514	15484.05
2508.33002	15432.15
2511.06318	15401.05
2513.79462	15370.05
2516.52435	15331.35
2519.25237	15310.85
2521.97867	15239.45
2524.70327	15217.55
2527.42616	15208.45
2530.14734	15212.75
2532.86681	15173.15
2535.58458	15132.35
2538.30065	15144.65
2541.01501	15125.25
2543.72768	15150.85
2546.43864	15159.65
2549.14791	15124.45
2551.85548	15116.15
2554.56136	15114.35
2557.26554	15107.55
2559.96803	15106.85
2562.66883	15038.25
2565.36794	15064.75
2568.06536	15020.75
2570.7611	15024.25
2573.45514	15050.85
2576.14751	14995.75
2578.83819	14997.45
2581.52719	14982.55
2584.21451	14966.35
2586.90015	14966.25
2589.58411	14989.55
2592.2664	14949.75
2594.94701	14935.25
2597.62594	14934.25
2600.30321	14929.65
2602.9788	14942.65
2605.65273	14903.55
2608.32498	14937.75
2610.99557	14900.85
2613.66449	14933.35
2616.33175	14921.15
2618.99734	14909.85
2621.66128	14913.15
2624.32355	14944.65
2626.98416	14953.95
2629.64311	14917.75
2632.30041	14900.65
2634.95605	14888.85
2637.61004	14885.55
2640.26238	14853.75
2642.91306	14847.25
2645.56209	14840.85
2648.20948	14828.55
2650.85521	14807.75
2653.4993	14781.55
2656.14175	14793.55
2658.78255	14817.55
2661.42171	14751.25
2664.05923	14798.85
2666.6951	14833.55
2669.32934	14834.65
2671.96194	14866.05
2674.59291	14855.15
2677.22224	14838.25
2679.84993	14879.15
2682.476	14851.55
2685.10043	14862.95
2687.72324	14837.35
2690.34441	14856.05
2692.96396	14842.35
2695.58188	14847.65
2698.19818	14841.25
2700.81285	14834.45
2703.4259	14810.45
2706.03733	14845.45
2708.64714	14850.65
2711.25533	14842.25
2713.86191	14851.15
2716.46687	14892.95
2719.07021	14868.25
2721.67194	14886.75
2724.27206	14879.25
2726.87057	14876.75
2729.46747	14883.65
2732.06276	14893.75
2734.65644	14914.95
2737.24852	14894.75
2739.83899	14870.05
2742.42786	14852.55
2745.01513	14819.45
2747.60079	14815.15
2750.18486	14808.35
2752.76733	14784.65
2755.3482	14803.95
2757.92747	14794.05
2760.50515	14760.65
2763.08123	14765.75
2765.65573	14740.45
2768.22863	14769.15
2770.79994	14727.25
2773.36967	14727.05
2775.9378	14745.65
2778.50435	14733.95
2781.06932	14727.55
2783.6327	14724.05
2786.1945	14691.65
2788.75471	14703.65
2791.31335	14652.45
2793.87041	14653.65
2796.42589	14630.05
2798.97979	14656.45
2801.53212	14615.35
2804.08288	14594.15
2806.63206	14565.65
2809.17967	14529.45
2811.72571	14524.65
2814.27018	14500.45
2816.81308	14482.85
2819.35442	14514.15
2821.89419	14497.15
2824.43239	14533.65
2826.96904	14521.75
2829.50412	14527.95
2832.03763	14506.05
2834.56959	14555.85
2837.1	14540.55
2839.62884	14571.05
2842.15613	14597.45
2844.68186	14652.55
2847.20604	14742.95
2849.72867	14764.35
2852.24974	14791.25
2854.76927	14747.25
2857.28724	14764.45
2859.80367	14696.05
2862.31855	14691.85
2864.83189	14662.45
2867.34368	14672.35
2869.85393	14666.25
2872.36264	14653.35
2874.8698	14684.35
2877.37543	14670.85
2879.87952	14669.15
2882.38207	14656.45
2884.88308	14646.75
2887.38256	14619.45
2889.88051	14633.95
2892.37692	14639.55
2894.8718	14682.65
2897.36515	14699.75
2899.85698	14662.05
2902.34727	14677.95
2904.83604	14702.85
2907.32328	14690.75
2909.809	14689.75
2912.29319	14694.85
2914.77587	14706.05
2917.25702	14699.25
2919.73665	14650.45
2922.21476	14689.65
2924.69136	14661.05
2927.16644	14668.15
2929.64	14597.45
2932.11205	14563.15
2934.58258	14518.25
2937.05161	14510.55
2939.51912	14442.25
2941.98513	14415.75
2944.44962	14365.75
2946.91261	14257.15
2949.37409	14296.15
2951.83407	14246.65
2954.29254	14257.25
2956.74951	14207.15
2959.20498	14159.15
2961.65895	14159.75
2964.11142	14135.95
2966.56239	14067.55
2969.01186	14058.15
2971.45984	13986.85
2973.90632	13943.15
2976.35131	13941.75
2978.7948	13899.75
2981.23681	13852.85
2983.67732	13788.45
2986.11635	13748.25
2988.55388	13708.25
2990.98993	13679.15
2993.4245	13659.45
2995.85758	13629.25
2998.28917	13602.25
3000.71928	13583.15
3003.14791	13567.85
3005.57506	13557.65
3008.00073	13503.55
3010.42493	13487.95
3012.84764	13465.55
3015.26888	13459.35
3017.68865	13432.45
3020.10694	13403.55
3022.52376	13378.25
3024.9391	13346.35
3027.35298	13359.75
3029.76539	13355.45
3032.17632	13283.75
3034.5858	13244.85
3036.9938	13232.95
3039.40034	13205.95
3041.80542	13214.55
3044.20903	13161.95
3046.61118	13152.45
3049.01187	13127.75
3051.4111	13105.75
3053.80888	13080.35
3056.20519	13053.25
3058.60005	13013.45
3060.99345	12989.05
3063.3854	12954.45
3065.7759	12905.15
3068.16494	12867.35
3070.55254	12824.85
3072.93868	12843.45
3075.32338	12796.25
3077.70662	12739.65
3080.08842	12680.55
3082.46878	12681.75
3084.84769	12662.65
3087.22515	12662.05
3089.60118	12600.05
3091.97576	12629.35
3094.3489	12626.05
3096.72061	12592.65
3099.09087	12579.95
3101.4597	12553.65
3103.82709	12529.55
3106.19305	12512.35
3108.55757	12478.55
3110.92066	12442.85
3113.28232	12441.55
3115.64255	12397.65
3118.00134	12384.45
3120.35871	12350.35
3122.71466	12331.95
3125.06917	12303.35
3127.42226	12254.05
3129.77393	12284.45
3132.12417	12278.65
3134.47299	12262.55
3136.82039	12240.25
3139.16636	12262.15
3141.51092	12257.15
3143.85406	12282.65
3146.19579	12252.95
3148.53609	12239.15
3150.87499	12244.65
3153.21246	12268.85
3155.54853	12284.65
3157.88318	12259.05
3160.21642	12234.45
3162.54826	12239.85
3164.87868	12249.05
3167.2077	12211.35
3169.5353	12214.35
3171.86151	12189.45
3174.18631	12195.45
3176.5097	12164.75
3178.83169	12143.25
3181.15228	12143.95
3183.47147	12117.75
3185.78926	12111.35
3188.10565	12104.05
3190.42065	12102.85
3192.73424	12106.65
3195.04645	12123.15
3197.35725	12120.45
3199.66667	12117.15
3201.97469	12128.35
3204.28132	12093.65
3206.58656	12122.45
3208.8904	12148.65
3211.19287	12153.45
3213.49394	12157.45
3215.79363	12163.95
3218.09193	12130.25
3220.38884	12121.35
3222.68438	12139.15
3224.97853	12106.65
3227.2713	12112.15
3229.56269	12070.55
3231.8527	12063.15
3234.14133	12040.45
3236.42858	12028.55
3238.71446	12028.95
3240.99896	11990.25
3243.28209	11993.65
3245.56384	11973.55
3247.84423	11969.15
3250.12324	11946.25
3252.40088	11932.65
3254.67715	11901.75
3256.95205	11892.55
3259.22558	11879.45
3261.49775	11883.85
3263.76855	11850.65
3266.03799	11816.35
3268.30606	11804.85
3270.57277	11801.05
3272.83812	11763.45
3275.10211	11748.65
3277.36474	11742.65
3279.62601	11758.85
3281.88593	11737.35
3284.14448	11737.55
3286.40168	11753.75
3288.65753	11730.15
3290.91202	11704.35
3293.16516	11643.55
3295.41695	11636.75
3297.66738	11559.15
3299.91647	11535.55
3302.16421	11466.25
3304.4106	11415.55
3306.65564	11341.55
3308.89933	11251.45
3311.14169	11192.55
3313.38269	11102.85
3315.62236	11048.05
3317.86068	10955.45
3320.09766	10829.75
3322.3333	10755.75
3324.5676	10722.65
3326.80056	10582.75
3329.03219	10526.65
3331.26248	1.35
3333.49143	0.65
3335.71905	-0.95
