Data from AgNPs_FTO_APTES_UA_2uM_CRN_50uM_R6G_10uM_NaF_0.1M_Addition_RamanShift__30__15-11-15-268.txt Node

Date: Wed Feb 02 15:11:15 GMT 2022
User: TCL
Spectrometer: QEP01345
Trigger mode: 4
Integration Time (sec): 7.000000E0
Scans to average: 10
Electric dark correction enabled: true
Nonlinearity correction enabled: false
Boxcar width: 0
XAxis mode: Raman Shifts
Number of Pixels in Spectrum: 1044
>>>>>Begin Spectral Data<<<<<
46.04893	-0.65
50.45542	1.35
54.85868	-1.75
59.25871	0.05
63.6555	54.05
68.04907	58.55
72.43941	57.95
76.82654	66.45
81.21044	69.55
85.59113	75.65
89.96862	76.05
94.34289	78.35
98.71396	80.85
103.08183	86.35
107.4465	88.75
111.80798	85.45
116.16626	86.25
120.52136	90.05
124.87327	92.55
129.222	91.05
133.56755	96.85
137.90993	101.35
142.24913	109.15
146.58517	120.75
150.91804	133.45
155.24774	155.65
159.57429	180.15
163.89768	225.15
168.21792	287.55
172.53501	390.45
176.84895	537.05
181.15975	735.05
185.46741	1027.75
189.77193	1404.65
194.07331	1865.95
198.37157	2396.85
202.6667	2951.95
206.9587	3492.25
211.24758	4042.95
215.53334	4632.85
219.81599	5276.35
224.09553	6008.85
228.37195	6836.75
232.64527	7723.65
236.91549	8575.45
241.18261	9363.15
245.44663	10038.45
249.70755	10534.95
253.96539	10975.25
258.22014	11368.55
262.4718	11764.45
266.72039	12066.85
270.96589	12295.95
275.20832	12415.85
279.44768	12394.25
283.68397	12392.95
287.91719	12424.95
292.14735	12547.25
296.37445	12802.25
300.59849	13150.45
304.81948	13579.65
309.03742	13841.85
313.25231	13739.75
317.46415	13039.25
321.67296	11940.65
325.87872	11069.95
330.08145	10615.25
334.28114	10521.55
338.47781	10677.45
342.67145	10981.55
346.86207	11445.75
351.04966	12147.25
355.23424	12878.65
359.4158	13450.75
363.59435	13618.85
367.76989	13640.35
371.94243	13498.75
376.11196	13352.05
380.27849	13209.55
384.44203	13020.85
388.60257	12832.15
392.76012	12771.25
396.91468	12947.75
401.06626	13367.45
405.21485	13687.85
409.36047	13464.15
413.50311	12749.85
417.64277	12035.35
421.77947	11633.25
425.9132	11503.15
430.04396	11481.85
434.17176	11515.25
438.2966	11616.55
442.41849	11789.25
446.53742	12081.45
450.6534	12409.05
454.76644	12621.05
458.87653	12697.55
462.98368	12634.15
467.08789	12481.65
471.18916	12279.55
475.2875	12004.05
479.38291	11784.65
483.4754	11574.25
487.56496	11389.85
491.6516	11266.75
495.73531	11232.65
499.81612	11294.45
503.89401	11438.35
507.96899	11571.45
512.04106	11641.05
516.11023	11748.45
520.1765	11789.25
524.23987	11664.35
528.30034	11396.95
532.35792	11121.65
536.41261	10843.05
540.46441	10621.05
544.51333	10538.15
548.55936	10713.35
552.60252	11091.55
556.64279	11480.95
560.6802	11705.45
564.71473	11883.95
568.7464	12369.15
572.7752	12749.35
576.80114	12503.55
580.82422	12126.65
584.84444	11942.45
588.86181	11726.15
592.87633	11605.35
596.888	11656.55
600.89682	12110.15
604.9028	13657.95
608.90594	17562.55
612.90624	22620.35
616.90371	21696.65
620.89834	14856.65
624.89015	11530.05
628.87913	10912.25
632.86528	11013.25
636.84862	11237.25
640.82913	11060.15
644.80683	10534.05
648.78172	10141.25
652.75379	10189.65
656.72306	10659.15
660.68952	11281.35
664.65319	11210.55
668.61405	10609.05
672.57211	10298.05
676.52738	10248.55
680.47986	10237.55
684.42955	10158.65
688.37646	10104.75
692.32058	10133.85
696.26192	10257.85
700.20048	10432.65
704.13626	10638.05
708.06928	10678.75
711.99952	10559.55
715.927	10488.45
719.85171	10445.15
723.77365	10380.05
727.69284	10220.55
731.60928	10053.45
735.52295	9985.15
739.43388	9959.05
743.34206	10026.35
747.24749	10123.75
751.15017	10266.55
755.05012	10560.05
758.94733	11206.15
762.8418	12669.65
766.73354	15122.65
770.62254	17624.25
774.50882	18569.65
778.39237	17445.15
782.27321	14890.95
786.15132	12453.85
790.02671	11040.45
793.89938	10385.95
797.76935	10085.35
801.6366	9966.95
805.50115	9860.25
809.36299	9793.45
813.22213	9749.75
817.07857	9712.95
820.93231	9722.35
824.78336	9730.95
828.63172	9771.55
832.47738	9802.25
836.32036	9756.85
840.16066	9662.95
843.99827	9620.45
847.8332	9548.05
851.66546	9527.95
855.49504	9535.55
859.32195	9507.75
863.1462	9389.25
866.96777	9359.95
870.78668	9350.05
874.60293	9342.15
878.41652	9350.85
882.22745	9412.05
886.03573	9464.65
889.84136	9437.55
893.64433	9391.95
897.44466	9356.35
901.24235	9342.75
905.0374	9336.55
908.8298	9330.75
912.61957	9337.05
916.40671	9467.15
920.19121	9587.45
923.97308	9689.75
927.75233	9739.85
931.52895	9764.45
935.30295	9584.55
939.07433	9247.35
942.84309	8945.95
946.60924	8766.05
950.37278	8658.45
954.13371	8614.95
957.89203	8583.75
961.64774	8541.65
965.40086	8532.15
969.15137	8491.35
972.89929	8459.55
976.64461	8439.55
980.38733	8440.35
984.12747	8446.95
987.86502	8487.75
991.59999	8538.55
995.33237	8603.75
999.06217	8783.25
1002.78939	9045.65
1006.51404	9282.05
1010.23611	9533.25
1013.95561	9692.05
1017.67255	9621.25
1021.38692	9455.95
1025.09872	9259.85
1028.80796	9171.85
1032.51465	9195.75
1036.21877	9334.45
1039.92035	9483.45
1043.61937	9552.15
1047.31584	9590.55
1051.00976	9587.85
1054.70114	9585.55
1058.38998	9657.85
1062.07627	9777.15
1065.76003	9915.25
1069.44126	10034.25
1073.11995	10169.05
1076.79611	10265.45
1080.46974	10406.65
1084.14085	10624.35
1087.80943	10989.55
1091.47549	11149.35
1095.13903	11003.25
1098.80005	10575.25
1102.45857	10115.45
1106.11456	9849.45
1109.76805	9784.75
1113.41903	9964.45
1117.06751	10247.05
1120.71348	10699.45
1124.35696	11204.85
1127.99793	11763.25
1131.63641	11746.95
1135.2724	11161.25
1138.90589	10608.05
1142.5369	10285.35
1146.16542	10112.35
1149.79145	10058.45
1153.415	10075.95
1157.03607	10217.55
1160.65467	10520.25
1164.27079	10989.95
1167.88443	11696.15
1171.49561	12802.45
1175.10432	14632.05
1178.71056	16911.15
1182.31434	18476.15
1185.91565	18668.45
1189.51451	18152.75
1193.11091	17119.65
1196.70485	15776.45
1200.29634	14735.35
1203.88538	13918.35
1207.47197	12967.75
1211.05612	12135.85
1214.63782	11692.45
1218.21708	11495.25
1221.79391	11484.95
1225.36829	11578.55
1228.94024	11709.15
1232.50976	11831.85
1236.07685	11914.05
1239.6415	11911.25
1243.20374	11892.95
1246.76355	11965.55
1250.32093	12097.25
1253.8759	12391.15
1257.42845	12805.65
1260.97859	13235.15
1264.52631	13702.85
1268.07163	14155.55
1271.61453	14575.35
1275.15503	14920.65
1278.69312	15052.55
1282.22882	15134.75
1285.76211	15467.15
1289.29301	16024.55
1292.82151	16541.05
1296.34761	17112.45
1299.87133	17972.95
1303.39266	19379.65
1306.9116	21509.85
1310.42815	24141.25
1313.94233	25973.75
1317.45412	25995.25
1320.96354	24619.45
1324.47058	22918.15
1327.97525	21487.95
1331.47754	20528.55
1334.97747	20097.95
1338.47502	20054.25
1341.97022	20306.75
1345.46305	20720.15
1348.95352	21431.65
1352.44163	22532.65
1355.92738	24375.15
1359.41078	27586.05
1362.89183	31001.55
1366.37053	30602.95
1369.84688	26167.55
1373.32088	21584.25
1376.79254	18675.05
1380.26186	17238.15
1383.72883	16489.35
1387.19347	15940.65
1390.65578	15371.75
1394.11575	14831.35
1397.57339	14620.75
1401.0287	14648.45
1404.48168	14849.75
1407.93234	15033.55
1411.38068	15090.25
1414.82669	14838.55
1418.27039	14478.65
1421.71177	13982.45
1425.15083	13535.35
1428.58758	13198.45
1432.02203	13074.55
1435.45416	13136.85
1438.88399	13237.25
1442.31151	13315.25
1445.73673	13441.45
1449.15965	13618.65
1452.58027	13667.85
1455.9986	13666.95
1459.41463	13693.35
1462.82837	13862.45
1466.23982	14185.05
1469.64898	14557.25
1473.05586	14819.45
1476.46045	15035.25
1479.86276	15268.65
1483.26279	15600.45
1486.66054	15992.15
1490.05602	16535.45
1493.44922	17306.95
1496.84016	18485.55
1500.22882	20361.75
1503.61521	22787.25
1506.99934	25576.95
1510.38121	28304.85
1513.76081	29892.25
1517.13816	29005.85
1520.51324	25876.65
1523.88607	22447.65
1527.25665	19934.55
1530.62498	18445.05
1533.99105	17492.85
1537.35488	16825.75
1540.71647	16344.35
1544.07581	16015.15
1547.4329	15766.45
1550.78776	15557.25
1554.14038	15477.75
1557.49077	15606.95
1560.83892	16015.65
1564.18484	16532.65
1567.52853	17118.05
1570.86999	17469.25
1574.20922	17719.95
1577.54624	17533.95
1580.88103	16669.25
1584.2136	15539.25
1587.54395	14971.35
1590.87208	15172.55
1594.19801	15944.35
1597.52172	16998.85
1600.84321	17330.65
1604.16251	16570.55
1607.47959	15365.05
1610.79447	14158.45
1614.10715	12989.05
1617.41763	12072.15
1620.7259	11444.85
1624.03199	11109.95
1627.33587	11079.75
1630.63757	11330.25
1633.93707	11910.05
1637.23439	12853.85
1640.52951	14205.75
1643.82246	15997.05
1647.11321	18191.05
1650.40179	19872.35
1653.68819	19712.35
1656.97241	17282.65
1660.25446	14225.65
1663.53433	11885.65
1666.81203	10387.05
1670.08756	9531.75
1673.36092	9019.35
1676.63211	8666.05
1679.90115	8454.85
1683.16801	8261.25
1686.43272	8143.55
1689.69527	8041.55
1692.95567	7968.55
1696.2139	7932.85
1699.46999	7903.05
1702.72392	7881.75
1705.97571	7832.85
1709.22535	7800.75
1712.47284	7763.65
1715.71819	7754.15
1718.96139	7745.75
1722.20246	7739.45
1725.44139	7699.45
1728.67818	7652.05
1731.91284	7558.05
1735.14537	7520.95
1738.37576	7457.65
1741.60403	7403.05
1744.83017	7364.35
1748.05418	7339.35
1751.27607	7333.75
1754.49584	7305.35
1757.71349	7306.15
1760.92903	7292.85
1764.14244	7304.45
1767.35375	7260.65
1770.56294	7222.65
1773.77002	7175.95
1776.97499	7127.25
1780.17785	7110.25
1783.37861	7077.05
1786.57727	7084.25
1789.77382	7026.35
1792.96828	7030.75
1796.16064	7030.35
1799.3509	7005.45
1802.53907	6981.15
1805.72514	6963.55
1808.90913	6943.45
1812.09102	6905.55
1815.27083	6880.95
1818.44856	6876.85
1821.6242	6849.05
1824.79776	6868.15
1827.96924	6839.05
1831.13864	6821.35
1834.30597	6823.65
1837.47122	6827.25
1840.6344	6822.05
1843.7955	6826.95
1846.95454	6814.35
1850.11151	6813.65
1853.26642	6804.95
1856.41926	6810.35
1859.57004	6820.25
1862.71876	6808.25
1865.86542	6796.45
1869.01003	6802.05
1872.15258	6801.35
1875.29308	6832.95
1878.43152	6827.95
1881.56792	6834.35
1884.70227	6822.35
1887.83457	6840.65
1890.96482	6833.95
1894.09304	6828.85
1897.21921	6860.95
1900.34335	6854.45
1903.46544	6863.65
1906.58551	6862.55
1909.70353	6877.55
1912.81953	6862.25
1915.93349	6884.25
1919.04543	6877.15
1922.15534	6861.15
1925.26322	6837.95
1928.36908	6820.75
1931.47292	6797.95
1934.57473	6709.85
1937.67453	6666.05
1940.77232	6604.35
1943.86808	6589.95
1946.96184	6530.55
1950.05358	6496.75
1953.14331	6448.35
1956.23103	6445.55
1959.31675	6406.25
1962.40046	6380.65
1965.48217	6346.55
1968.56188	6328.95
1971.63959	6324.25
1974.7153	6315.75
1977.78901	6278.25
1980.86073	6229.85
1983.93046	6237.15
1986.99819	6190.55
1990.06394	6171.25
1993.1277	6156.75
1996.18947	6114.85
1999.24925	6112.15
2002.30706	6072.65
2005.36288	6041.75
2008.41672	6054.15
2011.46859	6018.95
2014.51848	6010.75
2017.56639	5976.15
2020.61233	5960.75
2023.6563	5936.05
2026.6983	5930.75
2029.73833	5919.85
2032.7764	5894.75
2035.8125	5882.75
2038.84664	5858.75
2041.87881	5851.05
2044.90903	5853.65
2047.93729	5832.05
2050.96359	5806.35
2053.98794	5815.35
2057.01034	5810.75
2060.03078	5799.15
2063.04927	5775.95
2066.06582	5811.75
2069.08042	5777.15
2072.09307	5776.55
2075.10378	5760.25
2078.11255	5743.55
2081.11938	5757.75
2084.12426	5734.85
2087.12722	5747.25
2090.12824	5727.05
2093.12732	5735.15
2096.12447	5732.25
2099.11969	5735.85
2102.11299	5722.55
2105.10435	5731.25
2108.09379	5725.75
2111.08131	5716.85
2114.0669	5746.65
2117.05057	5727.35
2120.03233	5736.35
2123.01216	5738.45
2125.99008	5766.05
2128.96609	5743.15
2131.94018	5758.65
2134.91236	5747.35
2137.88263	5752.95
2140.851	5762.05
2143.81746	5759.35
2146.78201	5733.25
2149.74466	5710.85
2152.7054	5727.85
2155.66425	5710.45
2158.6212	5721.55
2161.57625	5717.15
2164.52941	5705.75
2167.48067	5704.35
2170.43004	5694.25
2173.37752	5692.45
2176.32311	5674.25
2179.26681	5695.65
2182.20863	5676.55
2185.14856	5692.85
2188.08661	5680.65
2191.02278	5678.55
2193.95707	5675.25
2196.88948	5647.25
2199.82001	5635.55
2202.74867	5624.35
2205.67545	5643.85
2208.60037	5620.45
2211.52341	5601.35
2214.44458	5616.05
2217.36388	5588.55
2220.28132	5578.85
2223.1969	5568.45
2226.11061	5545.55
2229.02246	5525.75
2231.93245	5527.75
2234.84058	5512.95
2237.74686	5494.55
2240.65128	5498.35
2243.55385	5480.95
2246.45456	5480.65
2249.35343	5463.65
2252.25044	5477.85
2255.14561	5464.95
2258.03893	5466.45
2260.93041	5461.15
2263.82004	5444.35
2266.70783	5426.55
2269.59378	5413.15
2272.4779	5395.95
2275.36017	5392.05
2278.24061	5384.35
2281.11922	5364.15
2283.996	5355.85
2286.87094	5339.55
2289.74405	5316.35
2292.61534	5296.85
2295.4848	5309.05
2298.35243	5297.35
2301.21824	5304.25
2304.08223	5267.15
2306.94439	5274.95
2309.80474	5279.35
2312.66327	5254.15
2315.51999	5260.05
2318.37489	5257.35
2321.22797	5239.55
2324.07925	5228.75
2326.92871	5225.25
2329.77637	5210.75
2332.62222	5224.35
2335.46626	5212.35
2338.3085	5218.25
2341.14893	5197.55
2343.98756	5200.45
2346.8244	5205.65
2349.65943	5213.05
2352.49267	5215.65
2355.32411	5238.95
2358.15376	5242.05
2360.98161	5230.95
2363.80768	5253.75
2366.63195	5259.85
2369.45444	5253.55
2372.27514	5252.35
2375.09405	5243.45
2377.91118	5223.55
2380.72652	5198.35
2383.54009	5186.25
2386.35187	5156.15
2389.16188	5129.15
2391.97011	5082.15
2394.77657	5087.55
2397.58125	5074.45
2400.38416	5081.45
2403.18529	5038.05
2405.98466	5044.25
2408.78226	5030.85
2411.57809	5019.05
2414.37216	5014.05
2417.16446	5002.75
2419.955	5003.65
2422.74378	5000.65
2425.5308	4991.55
2428.31606	4992.15
2431.09956	4983.85
2433.88131	4967.35
2436.6613	4972.45
2439.43954	4984.75
2442.21603	4974.35
2444.99077	4966.25
2447.76377	4970.65
2450.53501	4978.05
2453.30451	4982.85
2456.07226	4973.25
2458.83827	4984.65
2461.60254	4977.85
2464.36507	4978.15
2467.12586	4960.35
2469.88492	4962.05
2472.64224	4962.55
2475.39782	4990.65
2478.15167	4986.85
2480.90379	4979.45
2483.65417	4977.95
2486.40283	4995.25
2489.14976	5008.55
2491.89497	5023.05
2494.63845	5042.65
2497.3802	5041.35
2500.12024	5019.15
2502.85855	4996.85
2505.59514	4981.15
2508.33002	4978.95
2511.06318	4962.55
2513.79462	4944.35
2516.52435	4926.65
2519.25237	4907.85
2521.97867	4885.55
2524.70327	4852.55
2527.42616	4879.45
2530.14734	4840.95
2532.86681	4850.05
2535.58458	4839.55
2538.30065	4852.35
2541.01501	4831.95
2543.72768	4824.95
2546.43864	4835.75
2549.14791	4814.55
2551.85548	4822.15
2554.56136	4817.85
2557.26554	4811.75
2559.96803	4794.45
2562.66883	4793.95
2565.36794	4796.15
2568.06536	4798.95
2570.7611	4789.05
2573.45514	4775.05
2576.14751	4780.65
2578.83819	4763.55
2581.52719	4745.85
2584.21451	4749.75
2586.90015	4745.75
2589.58411	4735.85
2592.2664	4728.75
2594.94701	4724.45
2597.62594	4704.25
2600.30321	4695.85
2602.9788	4717.95
2605.65273	4703.65
2608.32498	4705.85
2610.99557	4701.25
2613.66449	4698.75
2616.33175	4705.95
2618.99734	4702.25
2621.66128	4690.95
2624.32355	4678.25
2626.98416	4688.05
2629.64311	4684.05
2632.30041	4672.05
2634.95605	4666.85
2637.61004	4665.95
2640.26238	4648.05
2642.91306	4633.95
2645.56209	4647.45
2648.20948	4635.35
2650.85521	4646.85
2653.4993	4640.15
2656.14175	4620.55
2658.78255	4627.75
2661.42171	4632.95
2664.05923	4654.65
2666.6951	4647.75
2669.32934	4667.65
2671.96194	4658.05
2674.59291	4673.25
2677.22224	4670.75
2679.84993	4676.45
2682.476	4657.35
2685.10043	4666.45
2687.72324	4668.05
2690.34441	4673.05
2692.96396	4662.75
2695.58188	4663.45
2698.19818	4655.65
2700.81285	4665.15
2703.4259	4683.45
2706.03733	4687.75
2708.64714	4674.75
2711.25533	4670.55
2713.86191	4670.55
2716.46687	4691.25
2719.07021	4684.25
2721.67194	4693.55
2724.27206	4687.85
2726.87057	4686.75
2729.46747	4687.25
2732.06276	4698.55
2734.65644	4673.35
2737.24852	4663.95
2739.83899	4647.05
2742.42786	4648.35
2745.01513	4624.25
2747.60079	4633.85
2750.18486	4616.65
2752.76733	4627.15
2755.3482	4620.25
2757.92747	4608.65
2760.50515	4631.75
2763.08123	4601.45
2765.65573	4603.55
2768.22863	4591.05
2770.79994	4567.75
2773.36967	4569.25
2775.9378	4571.25
2778.50435	4579.85
2781.06932	4569.75
2783.6327	4582.55
2786.1945	4557.75
2788.75471	4567.95
2791.31335	4545.35
2793.87041	4560.05
2796.42589	4557.95
2798.97979	4559.55
2801.53212	4547.45
2804.08288	4540.65
2806.63206	4540.75
2809.17967	4545.35
2811.72571	4539.15
2814.27018	4548.45
2816.81308	4559.05
2819.35442	4539.85
2821.89419	4557.45
2824.43239	4565.15
2826.96904	4577.65
2829.50412	4592.95
2832.03763	4581.25
2834.56959	4594.05
2837.1	4606.95
2839.62884	4622.85
2842.15613	4648.65
2844.68186	4725.25
2847.20604	4794.65
2849.72867	4862.75
2852.24974	4882.85
2854.76927	4894.75
2857.28724	4876.35
2859.80367	4868.65
2862.31855	4835.75
2864.83189	4817.75
2867.34368	4824.45
2869.85393	4835.05
2872.36264	4799.05
2874.8698	4813.65
2877.37543	4795.15
2879.87952	4775.55
2882.38207	4786.25
2884.88308	4758.65
2887.38256	4774.55
2889.88051	4770.95
2892.37692	4778.05
2894.8718	4759.95
2897.36515	4794.75
2899.85698	4789.35
2902.34727	4796.85
2904.83604	4798.15
2907.32328	4802.65
2909.809	4803.55
2912.29319	4787.25
2914.77587	4788.15
2917.25702	4776.05
2919.73665	4773.45
2922.21476	4784.15
2924.69136	4761.75
2927.16644	4776.45
2929.64	4744.45
2932.11205	4744.55
2934.58258	4713.45
2937.05161	4711.05
2939.51912	4693.45
2941.98513	4643.05
2944.44962	4613.25
2946.91261	4560.65
2949.37409	4524.25
2951.83407	4501.35
2954.29254	4471.95
2956.74951	4458.35
2959.20498	4454.75
2961.65895	4434.45
2964.11142	4414.45
2966.56239	4394.75
2969.01186	4403.65
2971.45984	4381.05
2973.90632	4356.85
2976.35131	4331.85
2978.7948	4314.65
2981.23681	4322.85
2983.67732	4292.95
2986.11635	4278.65
2988.55388	4272.55
2990.98993	4265.95
2993.4245	4243.65
2995.85758	4235.65
2998.28917	4239.35
3000.71928	4204.75
3003.14791	4213.45
3005.57506	4206.95
3008.00073	4208.95
3010.42493	4185.45
3012.84764	4176.15
3015.26888	4171.05
3017.68865	4161.85
3020.10694	4161.65
3022.52376	4147.55
3024.9391	4143.95
3027.35298	4135.15
3029.76539	4135.35
3032.17632	4119.85
3034.5858	4117.65
3036.9938	4120.15
3039.40034	4116.05
3041.80542	4103.45
3044.20903	4087.85
3046.61118	4099.95
3049.01187	4079.05
3051.4111	4068.95
3053.80888	4047.95
3056.20519	4060.95
3058.60005	4057.15
3060.99345	4045.05
3063.3854	4066.25
3065.7759	4044.45
3068.16494	4027.65
3070.55254	4018.45
3072.93868	4007.95
3075.32338	3993.05
3077.70662	3969.85
3080.08842	3969.15
3082.46878	3959.05
3084.84769	3954.95
3087.22515	3942.35
3089.60118	3953.35
3091.97576	3942.45
3094.3489	3925.35
3096.72061	3909.35
3099.09087	3928.25
3101.4597	3911.85
3103.82709	3900.65
3106.19305	3899.45
3108.55757	3896.35
3110.92066	3881.35
3113.28232	3876.55
3115.64255	3873.15
3118.00134	3865.05
3120.35871	3855.15
3122.71466	3841.55
3125.06917	3857.45
3127.42226	3862.95
3129.77393	3860.95
3132.12417	3863.55
3134.47299	3873.55
3136.82039	3857.75
3139.16636	3872.75
3141.51092	3859.85
3143.85406	3874.45
3146.19579	3864.45
3148.53609	3881.75
3150.87499	3892.45
3153.21246	3890.65
3155.54853	3885.05
3157.88318	3884.85
3160.21642	3895.65
3162.54826	3900.75
3164.87868	3897.95
3167.2077	3885.85
3169.5353	3909.85
3171.86151	3906.05
3174.18631	3888.45
3176.5097	3896.35
3178.83169	3905.65
3181.15228	3891.25
3183.47147	3883.25
3185.78926	3900.35
3188.10565	3893.95
3190.42065	3893.85
3192.73424	3903.05
3195.04645	3885.85
3197.35725	3898.85
3199.66667	3894.85
3201.97469	3918.55
3204.28132	3904.65
3206.58656	3920.05
3208.8904	3907.95
3211.19287	3922.55
3213.49394	3929.45
3215.79363	3930.75
3218.09193	3938.05
3220.38884	3935.05
3222.68438	3942.45
3224.97853	3921.75
3227.2713	3925.25
3229.56269	3930.25
3231.8527	3919.55
3234.14133	3908.55
3236.42858	3903.75
3238.71446	3907.55
3240.99896	3907.75
3243.28209	3893.15
3245.56384	3889.45
3247.84423	3894.75
3250.12324	3879.35
3252.40088	3877.05
3254.67715	3871.15
3256.95205	3871.55
3259.22558	3872.55
3261.49775	3860.35
3263.76855	3864.95
3266.03799	3837.45
3268.30606	3833.45
3270.57277	3833.65
3272.83812	3823.15
3275.10211	3814.55
3277.36474	3797.65
3279.62601	3806.25
3281.88593	3795.25
3284.14448	3806.05
3286.40168	3810.75
3288.65753	3813.55
3290.91202	3790.75
3293.16516	3770.95
3295.41695	3761.15
3297.66738	3746.55
3299.91647	3718.15
3302.16421	3703.65
3304.4106	3696.35
3306.65564	3669.45
3308.89933	3651.95
3311.14169	3621.85
3313.38269	3605.35
3315.62236	3568.45
3317.86068	3550.55
3320.09766	3497.25
3322.3333	3469.25
3324.5676	3483.55
3326.80056	3429.85
3329.03219	3401.15
3331.26248	1.85
3333.49143	-0.65
3335.71905	-1.65
