Data from AgNPs_FTO_APTES_UA_2uM_CRN_200uM_R6G_10uM_NaF_0.1M_Addition_RamanShift__4__16-23-35-353.txt Node

Date: Wed Feb 02 16:23:35 GMT 2022
User: TCL
Spectrometer: QEP01345
Trigger mode: 4
Integration Time (sec): 7.000000E0
Scans to average: 10
Electric dark correction enabled: true
Nonlinearity correction enabled: false
Boxcar width: 0
XAxis mode: Raman Shifts
Number of Pixels in Spectrum: 1044
>>>>>Begin Spectral Data<<<<<
46.04893	-0.35
50.45542	-0.05
54.85868	-0.75
59.25871	-1.15
63.6555	63.95
68.04907	73.85
72.43941	72.75
76.82654	79.75
81.21044	80.75
85.59113	87.25
89.96862	86.05
94.34289	90.45
98.71396	94.65
103.08183	102.45
107.4465	100.25
111.80798	105.25
116.16626	105.35
120.52136	104.05
124.87327	109.95
129.222	114.95
133.56755	122.65
137.90993	127.05
142.24913	139.75
146.58517	163.75
150.91804	181.15
155.24774	222.15
159.57429	273.35
163.89768	341.75
168.21792	453.65
172.53501	614.75
176.84895	862.05
181.15975	1200.05
185.46741	1677.05
189.77193	2302.75
194.07331	3088.25
198.37157	3954.35
202.6667	4892.85
206.9587	5805.85
211.24758	6736.15
215.53334	7652.45
219.81599	8596.15
224.09553	9666.45
228.37195	10811.65
232.64527	12092.55
236.91549	13373.35
241.18261	14657.35
245.44663	15906.45
249.70755	16994.35
253.96539	17969.25
258.22014	18800.05
262.4718	19502.35
266.72039	19973.25
270.96589	20214.35
275.20832	20324.55
279.44768	20258.95
283.68397	20146.35
287.91719	20084.05
292.14735	20045.15
296.37445	20134.05
300.59849	20290.05
304.81948	20417.55
309.03742	20350.45
313.25231	20101.05
317.46415	19641.15
321.67296	19038.15
325.87872	18524.05
330.08145	18210.55
334.28114	18095.15
338.47781	18090.05
342.67145	18255.25
346.86207	18467.35
351.04966	18727.25
355.23424	19031.05
359.4158	19277.85
363.59435	19481.45
367.76989	19566.45
371.94243	19638.25
376.11196	19723.15
380.27849	19809.75
384.44203	19876.45
388.60257	20107.85
392.76012	20402.55
396.91468	20706.85
401.06626	21034.35
405.21485	21252.55
409.36047	21126.45
413.50311	20917.45
417.64277	20740.95
421.77947	20804.25
425.9132	20907.15
430.04396	21048.65
434.17176	21191.75
438.2966	21326.55
442.41849	21636.55
446.53742	22350.45
450.6534	23144.65
454.76644	23672.75
458.87653	23818.55
462.98368	23688.15
467.08789	23447.35
471.18916	23114.65
475.2875	23007.55
479.38291	23072.55
483.4754	23077.55
487.56496	22747.95
491.6516	22108.95
495.73531	21458.65
499.81612	20979.05
503.89401	20907.35
507.96899	20954.55
512.04106	20903.75
516.11023	20648.35
520.1765	20275.85
524.23987	19951.75
528.30034	19732.95
532.35792	19504.75
536.41261	19248.15
540.46441	19041.35
544.51333	19108.75
548.55936	19451.85
552.60252	20036.05
556.64279	20784.65
560.6802	21338.85
564.71473	21753.05
568.7464	22332.65
572.7752	23270.75
576.80114	24184.25
580.82422	24952.95
584.84444	25890.55
588.86181	26945.45
592.87633	27707.45
596.888	27185.15
600.89682	25696.25
604.9028	24977.15
608.90594	25862.25
612.90624	26952.75
616.90371	25054.75
620.89834	21137.65
624.89015	19361.75
628.87913	19220.45
632.86528	19410.45
636.84862	19339.75
640.82913	18981.35
644.80683	18518.85
648.78172	18202.75
652.75379	18157.85
656.72306	18303.35
660.68952	18439.95
664.65319	18292.55
668.61405	17964.05
672.57211	17895.15
676.52738	18011.85
680.47986	18039.95
684.42955	17932.75
688.37646	17857.25
692.32058	17954.55
696.26192	18194.25
700.20048	18493.65
704.13626	18697.85
708.06928	18802.75
711.99952	18734.35
715.927	18768.55
719.85171	18825.85
723.77365	18716.85
727.69284	18410.85
731.60928	18149.65
735.52295	17993.05
739.43388	17997.15
743.34206	18020.25
747.24749	18222.65
751.15017	18416.45
755.05012	18871.25
758.94733	19585.55
762.8418	20675.85
766.73354	22131.95
770.62254	23394.55
774.50882	23390.75
778.39237	22198.05
782.27321	20477.55
786.15132	19115.25
790.02671	18352.95
793.89938	17949.05
797.76935	17812.15
801.6366	17795.05
805.50115	17736.75
809.36299	17664.75
813.22213	17515.55
817.07857	17451.35
820.93231	17404.35
824.78336	17265.65
828.63172	17099.25
832.47738	17024.35
836.32036	16985.55
840.16066	17035.35
843.99827	17028.95
847.8332	16984.55
851.66546	16917.95
855.49504	16903.45
859.32195	16881.75
863.1462	16834.75
866.96777	16749.25
870.78668	16705.15
874.60293	16675.25
878.41652	16681.85
882.22745	16733.45
886.03573	16762.35
889.84136	16762.55
893.64433	16727.45
897.44466	16648.45
901.24235	16572.95
905.0374	16522.55
908.8298	16513.35
912.61957	16611.95
916.40671	16853.15
920.19121	17173.25
923.97308	17393.15
927.75233	17315.05
931.52895	17077.65
935.30295	16685.15
939.07433	16278.95
942.84309	15972.75
946.60924	15821.45
950.37278	15763.65
954.13371	15770.95
957.89203	15814.05
961.64774	15847.75
965.40086	15876.25
969.15137	15753.15
972.89929	15606.25
976.64461	15457.65
980.38733	15429.85
984.12747	15410.05
987.86502	15455.75
991.59999	15584.45
995.33237	15760.05
999.06217	16085.55
1002.78939	16464.55
1006.51404	16818.25
1010.23611	17068.35
1013.95561	17276.65
1017.67255	17382.75
1021.38692	17215.75
1025.09872	16906.65
1028.80796	16685.95
1032.51465	16760.95
1036.21877	17001.35
1039.92035	17149.25
1043.61937	17143.55
1047.31584	17062.05
1051.00976	16948.55
1054.70114	16922.45
1058.38998	17056.75
1062.07627	17260.95
1065.76003	17530.55
1069.44126	17778.55
1073.11995	18051.05
1076.79611	18256.05
1080.46974	18310.85
1084.14085	18397.55
1087.80943	18598.35
1091.47549	18863.55
1095.13903	18994.95
1098.80005	18781.75
1102.45857	18277.55
1106.11456	17769.55
1109.76805	17565.35
1113.41903	17538.85
1117.06751	17686.15
1120.71348	17887.35
1124.35696	18150.45
1127.99793	18462.35
1131.63641	18707.05
1135.2724	18641.45
1138.90589	18598.55
1142.5369	18736.85
1146.16542	19079.85
1149.79145	19452.05
1153.415	19845.35
1157.03607	20366.65
1160.65467	21208.85
1164.27079	22598.45
1167.88443	24126.75
1171.49561	25700.35
1175.10432	27523.95
1178.71056	29858.55
1182.31434	32006.55
1185.91565	32948.65
1189.51451	32564.05
1193.11091	31655.65
1196.70485	30551.65
1200.29634	29428.55
1203.88538	28766.05
1207.47197	28585.75
1211.05612	28442.95
1214.63782	27866.85
1218.21708	26828.35
1221.79391	25647.15
1225.36829	24783.25
1228.94024	24198.85
1232.50976	23609.05
1236.07685	23133.45
1239.6415	22954.35
1243.20374	22959.15
1246.76355	23185.35
1250.32093	23565.55
1253.8759	24135.55
1257.42845	24860.85
1260.97859	25689.15
1264.52631	26477.05
1268.07163	27247.75
1271.61453	28109.85
1275.15503	29096.75
1278.69312	30261.95
1282.22882	31548.95
1285.76211	33115.95
1289.29301	35125.35
1292.82151	37495.65
1296.34761	40393.85
1299.87133	43532.75
1303.39266	46468.95
1306.9116	48746.55
1310.42815	50302.85
1313.94233	50952.35
1317.45412	50721.05
1320.96354	50014.15
1324.47058	49472.35
1327.97525	49085.45
1331.47754	48855.45
1334.97747	48507.55
1338.47502	47743.95
1341.97022	46654.65
1345.46305	45258.95
1348.95352	44142.45
1352.44163	43586.35
1355.92738	44174.25
1359.41078	45580.45
1362.89183	46616.75
1366.37053	45748.75
1369.84688	42301.85
1373.32088	37645.15
1376.79254	34508.35
1380.26186	33750.75
1383.72883	34336.55
1387.19347	34833.45
1390.65578	34989.35
1394.11575	35210.45
1397.57339	36052.75
1401.0287	37034.25
1404.48168	37723.75
1407.93234	37429.05
1411.38068	36127.65
1414.82669	34162.35
1418.27039	32016.35
1421.71177	29908.25
1425.15083	28222.15
1428.58758	27385.75
1432.02203	27594.65
1435.45416	28552.95
1438.88399	29820.65
1442.31151	30911.45
1445.73673	31522.95
1449.15965	32187.95
1452.58027	32509.55
1455.9986	32617.55
1459.41463	32729.35
1462.82837	33107.95
1466.23982	33607.75
1469.64898	34051.65
1473.05586	34295.35
1476.46045	34246.75
1479.86276	33844.55
1483.26279	33154.85
1486.66054	32660.95
1490.05602	32603.75
1493.44922	32773.25
1496.84016	32981.85
1500.22882	33426.55
1503.61521	34134.95
1506.99934	35016.65
1510.38121	35808.15
1513.76081	36118.15
1517.13816	35703.25
1520.51324	34956.95
1523.88607	34575.25
1527.25665	34734.75
1530.62498	35056.15
1533.99105	35130.85
1537.35488	34674.05
1540.71647	33768.65
1544.07581	32526.25
1547.4329	31183.15
1550.78776	30004.65
1554.14038	29214.95
1557.49077	28715.75
1560.83892	28437.95
1564.18484	28409.75
1567.52853	28491.35
1570.86999	28927.45
1574.20922	29803.45
1577.54624	30758.25
1580.88103	31527.35
1584.2136	32475.85
1587.54395	33931.25
1590.87208	35992.25
1594.19801	38237.75
1597.52172	40210.85
1600.84321	40359.45
1604.16251	38043.15
1607.47959	34195.75
1610.79447	30285.65
1614.10715	26880.75
1617.41763	24355.45
1620.7259	22799.15
1624.03199	22024.15
1627.33587	22104.25
1630.63757	23061.55
1633.93707	25054.05
1637.23439	28351.85
1640.52951	33088.45
1643.82246	38683.35
1647.11321	43223.75
1650.40179	44103.25
1653.68819	40419.15
1656.97241	34059.55
1660.25446	27909.55
1663.53433	23343.05
1666.81203	20316.05
1670.08756	18423.15
1673.36092	17266.35
1676.63211	16475.45
1679.90115	15959.35
1683.16801	15634.85
1686.43272	15333.85
1689.69527	15126.55
1692.95567	14951.45
1696.2139	14856.15
1699.46999	14780.45
1702.72392	14682.05
1705.97571	14587.35
1709.22535	14501.35
1712.47284	14443.85
1715.71819	14372.25
1718.96139	14311.25
1722.20246	14270.25
1725.44139	14161.45
1728.67818	14110.75
1731.91284	14018.15
1735.14537	13915.35
1738.37576	13842.65
1741.60403	13789.55
1744.83017	13707.65
1748.05418	13694.75
1751.27607	13665.35
1754.49584	13647.05
1757.71349	13656.15
1760.92903	13633.75
1764.14244	13626.05
1767.35375	13569.95
1770.56294	13516.05
1773.77002	13500.35
1776.97499	13426.55
1780.17785	13388.75
1783.37861	13340.95
1786.57727	13323.45
1789.77382	13288.45
1792.96828	13272.25
1796.16064	13200.45
1799.3509	13145.75
1802.53907	13142.05
1805.72514	13108.55
1808.90913	13048.05
1812.09102	13032.25
1815.27083	13018.45
1818.44856	12974.85
1821.6242	12952.05
1824.79776	12959.75
1827.96924	12952.45
1831.13864	12906.65
1834.30597	12955.75
1837.47122	12933.85
1840.6344	12920.95
1843.7955	12925.25
1846.95454	12892.95
1850.11151	12917.65
1853.26642	12915.25
1856.41926	12872.75
1859.57004	12852.85
1862.71876	12855.05
1865.86542	12834.75
1869.01003	12799.15
1872.15258	12796.45
1875.29308	12804.25
1878.43152	12764.65
1881.56792	12754.25
1884.70227	12729.35
1887.83457	12720.15
1890.96482	12709.95
1894.09304	12696.35
1897.21921	12690.85
1900.34335	12656.35
1903.46544	12640.25
1906.58551	12638.95
1909.70353	12602.75
1912.81953	12569.05
1915.93349	12547.95
1919.04543	12535.35
1922.15534	12485.95
1925.26322	12443.25
1928.36908	12407.25
1931.47292	12377.35
1934.57473	12315.35
1937.67453	12284.55
1940.77232	12258.25
1943.86808	12236.45
1946.96184	12186.45
1950.05358	12167.15
1953.14331	12149.05
1956.23103	12094.35
1959.31675	12064.15
1962.40046	12013.35
1965.48217	11993.75
1968.56188	11942.95
1971.63959	11909.25
1974.7153	11859.05
1977.78901	11837.85
1980.86073	11783.25
1983.93046	11751.75
1986.99819	11710.45
1990.06394	11679.15
1993.1277	11652.15
1996.18947	11619.95
1999.24925	11583.75
2002.30706	11513.15
2005.36288	11481.85
2008.41672	11462.25
2011.46859	11419.45
2014.51848	11401.55
2017.56639	11351.85
2020.61233	11315.15
2023.6563	11320.85
2026.6983	11291.75
2029.73833	11259.65
2032.7764	11222.35
2035.8125	11211.85
2038.84664	11209.35
2041.87881	11200.35
2044.90903	11174.55
2047.93729	11164.25
2050.96359	11142.15
2053.98794	11126.05
2057.01034	11128.15
2060.03078	11113.95
2063.04927	11084.85
2066.06582	11100.75
2069.08042	11072.05
2072.09307	11060.15
2075.10378	11053.25
2078.11255	11038.35
2081.11938	11018.75
2084.12426	11013.75
2087.12722	11016.25
2090.12824	11009.85
2093.12732	11007.85
2096.12447	11026.65
2099.11969	10982.75
2102.11299	11016.95
2105.10435	11019.05
2108.09379	11032.05
2111.08131	11050.65
2114.0669	11027.95
2117.05057	11034.35
2120.03233	11065.05
2123.01216	11044.15
2125.99008	11043.85
2128.96609	11032.65
2131.94018	11040.95
2134.91236	11029.85
2137.88263	11024.05
2140.851	11038.95
2143.81746	11063.45
2146.78201	11063.55
2149.74466	11051.25
2152.7054	11029.25
2155.66425	11055.95
2158.6212	11025.55
2161.57625	11033.95
2164.52941	11024.25
2167.48067	11002.05
2170.43004	11021.95
2173.37752	10967.85
2176.32311	11003.25
2179.26681	10998.25
2182.20863	10972.65
2185.14856	10984.95
2188.08661	10994.85
2191.02278	11006.65
2193.95707	10982.35
2196.88948	10953.05
2199.82001	10936.45
2202.74867	10940.65
2205.67545	10928.55
2208.60037	10893.95
2211.52341	10881.25
2214.44458	10870.45
2217.36388	10853.05
2220.28132	10852.05
2223.1969	10835.45
2226.11061	10830.05
2229.02246	10787.65
2231.93245	10786.35
2234.84058	10778.25
2237.74686	10719.25
2240.65128	10729.55
2243.55385	10689.15
2246.45456	10689.25
2249.35343	10677.05
2252.25044	10642.55
2255.14561	10611.85
2258.03893	10616.55
2260.93041	10588.45
2263.82004	10516.95
2266.70783	10509.65
2269.59378	10485.25
2272.4779	10434.25
2275.36017	10412.15
2278.24061	10405.05
2281.11922	10393.05
2283.996	10369.15
2286.87094	10359.15
2289.74405	10343.45
2292.61534	10307.65
2295.4848	10313.35
2298.35243	10316.45
2301.21824	10293.25
2304.08223	10316.35
2306.94439	10311.85
2309.80474	10320.25
2312.66327	10302.95
2315.51999	10283.85
2318.37489	10266.45
2321.22797	10276.45
2324.07925	10253.55
2326.92871	10223.95
2329.77637	10254.75
2332.62222	10244.05
2335.46626	10207.05
2338.3085	10202.45
2341.14893	10193.65
2343.98756	10187.55
2346.8244	10203.15
2349.65943	10224.85
2352.49267	10218.65
2355.32411	10221.65
2358.15376	10194.15
2360.98161	10196.25
2363.80768	10209.55
2366.63195	10177.85
2369.45444	10156.55
2372.27514	10162.45
2375.09405	10110.85
2377.91118	10101.25
2380.72652	10100.35
2383.54009	10080.95
2386.35187	10072.25
2389.16188	10028.75
2391.97011	10038.05
2394.77657	10001.05
2397.58125	9983.55
2400.38416	9957.55
2403.18529	9956.85
2405.98466	9946.65
2408.78226	9928.35
2411.57809	9908.25
2414.37216	9915.15
2417.16446	9925.85
2419.955	9879.75
2422.74378	9926.15
2425.5308	9879.65
2428.31606	9884.75
2431.09956	9875.75
2433.88131	9847.25
2436.6613	9850.75
2439.43954	9838.15
2442.21603	9856.65
2444.99077	9842.85
2447.76377	9845.95
2450.53501	9847.15
2453.30451	9842.45
2456.07226	9834.35
2458.83827	9831.25
2461.60254	9818.35
2464.36507	9825.25
2467.12586	9835.05
2469.88492	9844.05
2472.64224	9842.05
2475.39782	9860.25
2478.15167	9844.55
2480.90379	9835.55
2483.65417	9825.75
2486.40283	9846.75
2489.14976	9851.35
2491.89497	9836.45
2494.63845	9874.65
2497.3802	9845.85
2500.12024	9850.25
2502.85855	9826.95
2505.59514	9843.95
2508.33002	9843.75
2511.06318	9822.75
2513.79462	9828.75
2516.52435	9807.95
2519.25237	9793.85
2521.97867	9778.15
2524.70327	9781.65
2527.42616	9783.35
2530.14734	9787.95
2532.86681	9777.35
2535.58458	9760.35
2538.30065	9756.85
2541.01501	9732.15
2543.72768	9732.55
2546.43864	9717.95
2549.14791	9703.55
2551.85548	9711.05
2554.56136	9724.85
2557.26554	9714.75
2559.96803	9696.15
2562.66883	9702.65
2565.36794	9705.65
2568.06536	9691.35
2570.7611	9695.85
2573.45514	9680.25
2576.14751	9693.55
2578.83819	9649.35
2581.52719	9683.05
2584.21451	9651.15
2586.90015	9682.45
2589.58411	9651.05
2592.2664	9668.45
2594.94701	9649.95
2597.62594	9631.45
2600.30321	9640.05
2602.9788	9621.35
2605.65273	9639.85
2608.32498	9622.55
2610.99557	9625.75
2613.66449	9624.85
2616.33175	9641.45
2618.99734	9638.55
2621.66128	9660.55
2624.32355	9627.25
2626.98416	9639.75
2629.64311	9638.55
2632.30041	9644.75
2634.95605	9625.55
2637.61004	9601.55
2640.26238	9602.55
2642.91306	9614.15
2645.56209	9612.85
2648.20948	9624.15
2650.85521	9592.55
2653.4993	9586.65
2656.14175	9594.25
2658.78255	9630.25
2661.42171	9611.25
2664.05923	9663.05
2666.6951	9648.15
2669.32934	9658.15
2671.96194	9671.85
2674.59291	9647.95
2677.22224	9668.55
2679.84993	9643.15
2682.476	9635.85
2685.10043	9633.35
2687.72324	9635.85
2690.34441	9628.15
2692.96396	9612.85
2695.58188	9657.15
2698.19818	9622.95
2700.81285	9642.65
2703.4259	9657.65
2706.03733	9713.05
2708.64714	9677.05
2711.25533	9699.95
2713.86191	9654.95
2716.46687	9672.65
2719.07021	9676.45
2721.67194	9707.65
2724.27206	9691.25
2726.87057	9732.45
2729.46747	9722.55
2732.06276	9741.75
2734.65644	9731.15
2737.24852	9732.15
2739.83899	9729.05
2742.42786	9732.55
2745.01513	9711.95
2747.60079	9692.25
2750.18486	9705.25
2752.76733	9708.15
2755.3482	9697.25
2757.92747	9723.85
2760.50515	9714.85
2763.08123	9711.65
2765.65573	9730.15
2768.22863	9736.85
2770.79994	9693.85
2773.36967	9716.95
2775.9378	9739.15
2778.50435	9707.15
2781.06932	9714.55
2783.6327	9710.05
2786.1945	9700.95
2788.75471	9722.55
2791.31335	9688.75
2793.87041	9688.05
2796.42589	9657.15
2798.97979	9684.75
2801.53212	9652.95
2804.08288	9659.05
2806.63206	9626.45
2809.17967	9608.25
2811.72571	9599.65
2814.27018	9574.75
2816.81308	9560.85
2819.35442	9549.65
2821.89419	9510.35
2824.43239	9538.35
2826.96904	9538.95
2829.50412	9516.55
2832.03763	9509.45
2834.56959	9526.75
2837.1	9524.65
2839.62884	9529.05
2842.15613	9529.85
2844.68186	9577.15
2847.20604	9589.25
2849.72867	9615.95
2852.24974	9615.55
2854.76927	9600.25
2857.28724	9630.75
2859.80367	9575.05
2862.31855	9579.95
2864.83189	9557.45
2867.34368	9550.45
2869.85393	9547.95
2872.36264	9532.35
2874.8698	9536.65
2877.37543	9536.15
2879.87952	9526.35
2882.38207	9538.95
2884.88308	9545.15
2887.38256	9523.75
2889.88051	9542.55
2892.37692	9531.95
2894.8718	9542.95
2897.36515	9569.15
2899.85698	9548.65
2902.34727	9576.25
2904.83604	9574.25
2907.32328	9617.55
2909.809	9594.75
2912.29319	9604.75
2914.77587	9595.95
2917.25702	9596.55
2919.73665	9589.55
2922.21476	9582.55
2924.69136	9580.65
2927.16644	9597.35
2929.64	9613.45
2932.11205	9621.95
2934.58258	9567.95
2937.05161	9577.25
2939.51912	9606.35
2941.98513	9557.65
2944.44962	9530.85
2946.91261	9468.65
2949.37409	9488.25
2951.83407	9469.35
2954.29254	9437.65
2956.74951	9428.45
2959.20498	9442.25
2961.65895	9397.85
2964.11142	9406.05
2966.56239	9366.75
2969.01186	9354.25
2971.45984	9331.25
2973.90632	9313.75
2976.35131	9269.85
2978.7948	9246.25
2981.23681	9213.25
2983.67732	9187.55
2986.11635	9183.85
2988.55388	9153.55
2990.98993	9134.15
2993.4245	9126.25
2995.85758	9095.75
2998.28917	9078.45
3000.71928	9047.45
3003.14791	9032.35
3005.57506	9033.45
3008.00073	9017.55
3010.42493	8982.65
3012.84764	8973.35
3015.26888	8951.65
3017.68865	8935.35
3020.10694	8916.85
3022.52376	8923.15
3024.9391	8890.75
3027.35298	8876.65
3029.76539	8860.65
3032.17632	8878.45
3034.5858	8857.05
3036.9938	8878.35
3039.40034	8849.05
3041.80542	8841.85
3044.20903	8816.55
3046.61118	8824.05
3049.01187	8801.45
3051.4111	8766.55
3053.80888	8748.05
3056.20519	8725.85
3058.60005	8737.35
3060.99345	8693.75
3063.3854	8681.95
3065.7759	8658.75
3068.16494	8634.55
3070.55254	8593.45
3072.93868	8585.05
3075.32338	8566.25
3077.70662	8535.55
3080.08842	8517.95
3082.46878	8518.75
3084.84769	8492.45
3087.22515	8482.65
3089.60118	8491.95
3091.97576	8492.35
3094.3489	8496.65
3096.72061	8462.95
3099.09087	8483.85
3101.4597	8455.95
3103.82709	8458.05
3106.19305	8447.85
3108.55757	8442.25
3110.92066	8377.05
3113.28232	8373.55
3115.64255	8347.25
3118.00134	8319.75
3120.35871	8317.45
3122.71466	8298.95
3125.06917	8314.95
3127.42226	8268.05
3129.77393	8269.15
3132.12417	8280.65
3134.47299	8254.85
3136.82039	8257.75
3139.16636	8271.65
3141.51092	8248.45
3143.85406	8276.95
3146.19579	8238.45
3148.53609	8248.45
3150.87499	8257.95
3153.21246	8283.45
3155.54853	8277.05
3157.88318	8276.45
3160.21642	8266.75
3162.54826	8246.75
3164.87868	8260.45
3167.2077	8229.75
3169.5353	8251.25
3171.86151	8267.55
3174.18631	8237.55
3176.5097	8239.45
3178.83169	8250.75
3181.15228	8229.55
3183.47147	8214.05
3185.78926	8217.25
3188.10565	8211.35
3190.42065	8203.45
3192.73424	8200.85
3195.04645	8184.85
3197.35725	8200.75
3199.66667	8178.25
3201.97469	8176.65
3204.28132	8164.05
3206.58656	8170.85
3208.8904	8177.75
3211.19287	8186.15
3213.49394	8182.65
3215.79363	8172.05
3218.09193	8173.55
3220.38884	8173.25
3222.68438	8195.35
3224.97853	8174.75
3227.2713	8163.75
3229.56269	8135.25
3231.8527	8139.75
3234.14133	8139.75
3236.42858	8148.95
3238.71446	8117.95
3240.99896	8098.95
3243.28209	8130.25
3245.56384	8123.45
3247.84423	8108.05
3250.12324	8087.85
3252.40088	8083.55
3254.67715	8060.85
3256.95205	8048.75
3259.22558	8036.55
3261.49775	8018.25
3263.76855	7984.75
3266.03799	7985.95
3268.30606	7969.65
3270.57277	7936.85
3272.83812	7926.35
3275.10211	7907.25
3277.36474	7920.35
3279.62601	7923.55
3281.88593	7920.25
3284.14448	7920.75
3286.40168	7935.45
3288.65753	7933.05
3290.91202	7892.95
3293.16516	7873.35
3295.41695	7866.05
3297.66738	7803.55
3299.91647	7751.55
3302.16421	7720.65
3304.4106	7673.25
3306.65564	7658.15
3308.89933	7600.85
3311.14169	7554.05
3313.38269	7487.55
3315.62236	7469.55
3317.86068	7389.15
3320.09766	7330.45
3322.3333	7250.95
3324.5676	7242.85
3326.80056	7126.65
3329.03219	7090.05
3331.26248	1.85
3333.49143	0.65
3335.71905	-0.75
