Data from AgNPs_FTO_APTES_UA_2uM_CRN_2uM_R6G_10uM_NaF_0.1M_Addition_RamanShift__6__12-05-45-052.txt Node

Date: Wed Feb 02 12:05:45 GMT 2022
User: TCL
Spectrometer: QEP01345
Trigger mode: 4
Integration Time (sec): 7.000000E0
Scans to average: 10
Electric dark correction enabled: true
Nonlinearity correction enabled: false
Boxcar width: 0
XAxis mode: Raman Shifts
Number of Pixels in Spectrum: 1044
>>>>>Begin Spectral Data<<<<<
46.04893	1.25
50.45542	0.45
54.85868	-1.75
59.25871	-0.75
63.6555	110.25
68.04907	115.35
72.43941	118.95
76.82654	127.45
81.21044	128.15
85.59113	134.95
89.96862	138.15
94.34289	146.55
98.71396	146.85
103.08183	154.55
107.4465	162.75
111.80798	162.15
116.16626	164.75
120.52136	174.35
124.87327	183.95
129.222	192.65
133.56755	212.65
137.90993	228.15
142.24913	248.15
146.58517	289.45
150.91804	336.05
155.24774	406.85
159.57429	506.15
163.89768	654.95
168.21792	864.05
172.53501	1190.45
176.84895	1658.35
181.15975	2328.35
185.46741	3261.65
189.77193	4505.45
194.07331	6025.95
198.37157	7715.95
202.6667	9538.95
206.9587	11345.35
211.24758	13081.45
215.53334	14882.65
219.81599	16809.45
224.09553	18913.05
228.37195	21225.15
232.64527	23751.65
236.91549	26420.35
241.18261	28996.05
245.44663	31421.25
249.70755	33507.95
253.96539	35374.25
258.22014	36939.75
262.4718	38198.25
266.72039	39063.05
270.96589	39400.45
275.20832	39366.45
279.44768	39052.45
283.68397	38630.95
287.91719	38245.65
292.14735	38048.35
296.37445	37992.15
300.59849	38123.15
304.81948	38330.55
309.03742	38513.55
313.25231	38401.35
317.46415	38003.75
321.67296	37353.15
325.87872	36792.25
330.08145	36453.95
334.28114	36307.55
338.47781	36423.65
342.67145	36773.55
346.86207	37391.25
351.04966	37970.95
355.23424	38697.25
359.4158	39333.75
363.59435	39773.85
367.76989	40102.95
371.94243	40248.45
376.11196	40314.35
380.27849	40342.65
384.44203	40542.15
388.60257	40880.65
392.76012	41373.95
396.91468	42004.35
401.06626	42726.15
405.21485	43138.95
409.36047	43023.25
413.50311	42683.85
417.64277	42798.75
421.77947	43220.45
425.9132	43549.15
430.04396	43776.35
434.17176	43903.25
438.2966	44015.75
442.41849	44655.15
446.53742	45968.05
450.6534	47396.75
454.76644	48239.55
458.87653	48396.65
462.98368	48008.25
467.08789	47131.05
471.18916	46118.85
475.2875	45129.85
479.38291	44577.65
483.4754	44239.55
487.56496	43812.35
491.6516	43259.15
495.73531	42686.45
499.81612	42376.25
503.89401	42595.25
507.96899	42752.45
512.04106	42656.15
516.11023	42212.45
520.1765	41586.35
524.23987	41164.75
528.30034	40760.95
532.35792	40423.45
536.41261	39915.45
540.46441	39326.45
544.51333	39173.75
548.55936	39536.25
552.60252	40412.75
556.64279	41520.55
560.6802	42571.55
564.71473	43116.55
568.7464	43917.25
572.7752	45435.35
576.80114	47342.35
580.82422	49698.15
584.84444	52881.65
588.86181	57035.85
592.87633	60329.15
596.888	59585.55
600.89682	55040.55
604.9028	52240.15
608.90594	53921.25
612.90624	56430.25
616.90371	52711.15
620.89834	44960.55
624.89015	41405.15
628.87913	41035.35
632.86528	41227.35
636.84862	40902.35
640.82913	39828.75
644.80683	38792.85
648.78172	38294.15
652.75379	38459.65
656.72306	38930.95
660.68952	39463.55
664.65319	38982.85
668.61405	38267.05
672.57211	38208.55
676.52738	38409.85
680.47986	38422.35
684.42955	38092.95
688.37646	37872.65
692.32058	38227.55
696.26192	39020.65
700.20048	39813.15
704.13626	40215.95
708.06928	40223.65
711.99952	40069.85
715.927	40174.05
719.85171	40424.25
723.77365	40153.85
727.69284	39312.85
731.60928	38539.25
735.52295	38267.35
739.43388	38243.05
743.34206	38491.55
747.24749	38791.55
751.15017	39326.95
755.05012	40087.55
758.94733	41338.05
762.8418	43270.35
766.73354	45972.85
770.62254	48265.65
774.50882	48135.95
778.39237	45832.75
782.27321	42959.55
786.15132	40731.75
790.02671	39314.95
793.89938	38620.95
797.76935	38422.25
801.6366	38337.05
805.50115	38293.25
809.36299	38136.05
813.22213	37805.15
817.07857	37509.65
820.93231	37272.75
824.78336	37003.55
828.63172	36752.95
832.47738	36680.25
836.32036	36809.35
840.16066	36931.65
843.99827	36998.95
847.8332	36958.75
851.66546	36854.05
855.49504	36868.55
859.32195	36865.45
863.1462	36669.55
866.96777	36525.15
870.78668	36449.25
874.60293	36426.25
878.41652	36512.95
882.22745	36749.55
886.03573	36852.15
889.84136	36897.85
893.64433	36717.85
897.44466	36481.75
901.24235	36416.15
905.0374	36323.15
908.8298	36293.55
912.61957	36374.85
916.40671	36774.45
920.19121	37430.15
923.97308	38080.05
927.75233	38344.35
931.52895	37893.35
935.30295	37069.45
939.07433	36214.85
942.84309	35680.85
946.60924	35422.25
950.37278	35386.35
954.13371	35370.75
957.89203	35362.65
961.64774	35328.95
965.40086	35389.15
969.15137	35341.55
972.89929	35092.75
976.64461	35066.25
980.38733	35094.55
984.12747	35192.85
987.86502	35413.55
991.59999	35743.15
995.33237	36199.65
999.06217	37026.15
1002.78939	38152.85
1006.51404	39258.95
1010.23611	40172.85
1013.95561	40660.55
1017.67255	40615.05
1021.38692	39930.55
1025.09872	39114.75
1028.80796	38818.75
1032.51465	39371.15
1036.21877	40221.85
1039.92035	40577.15
1043.61937	40364.35
1047.31584	39812.45
1051.00976	39150.45
1054.70114	38857.65
1058.38998	38835.75
1062.07627	39086.25
1065.76003	39387.25
1069.44126	40014.15
1073.11995	40766.55
1076.79611	41473.15
1080.46974	41872.15
1084.14085	42219.85
1087.80943	42682.25
1091.47549	43120.35
1095.13903	43129.45
1098.80005	42417.35
1102.45857	41173.05
1106.11456	40193.35
1109.76805	39753.25
1113.41903	39595.05
1117.06751	39695.55
1120.71348	39983.55
1124.35696	40360.05
1127.99793	40879.05
1131.63641	41242.05
1135.2724	41250.95
1138.90589	41247.55
1142.5369	41518.35
1146.16542	42024.65
1149.79145	42654.45
1153.415	43198.65
1157.03607	43905.45
1160.65467	45569.25
1164.27079	48168.95
1167.88443	51201.45
1171.49561	54112.45
1175.10432	57439.05
1178.71056	61740.45
1182.31434	65997.25
1185.91565	67852.85
1189.51451	67014.45
1193.11091	65067.45
1196.70485	62848.05
1200.29634	60713.45
1203.88538	59453.65
1207.47197	59075.55
1211.05612	58932.45
1214.63782	57993.35
1218.21708	56292.45
1221.79391	54409.95
1225.36829	53017.45
1228.94024	52077.35
1232.50976	51117.85
1236.07685	50023.35
1239.6415	49296.85
1243.20374	49130.15
1246.76355	49616.25
1250.32093	50630.05
1253.8759	52016.45
1257.42845	53648.45
1260.97859	55461.55
1264.52631	57385.75
1268.07163	59395.85
1271.61453	61375.25
1275.15503	63477.15
1278.69312	65747.75
1282.22882	68336.65
1285.76211	71600.05
1289.29301	74950.35
1292.82151	78960.05
1296.34761	83706.25
1299.87133	89457.55
1303.39266	95197.65
1306.9116	99985.65
1310.42815	102912.45
1313.94233	103729.45
1317.45412	102288.75
1320.96354	99809.85
1324.47058	97852.25
1327.97525	96568.65
1331.47754	95887.95
1334.97747	94829.45
1338.47502	93017.75
1341.97022	90308.95
1345.46305	87322.45
1348.95352	85169.55
1352.44163	85182.25
1355.92738	88035.95
1359.41078	93209.85
1362.89183	97422.35
1366.37053	97252.55
1369.84688	90645.55
1373.32088	80008.05
1376.79254	72134.05
1380.26186	69533.85
1383.72883	69970.05
1387.19347	70331.65
1390.65578	69524.95
1394.11575	69192.55
1397.57339	70211.05
1401.0287	71970.55
1404.48168	73452.05
1407.93234	73519.45
1411.38068	71888.25
1414.82669	69142.35
1418.27039	65899.75
1421.71177	62733.15
1425.15083	60255.75
1428.58758	59276.65
1432.02203	60232.15
1435.45416	62591.15
1438.88399	65032.05
1442.31151	66780.05
1445.73673	67326.65
1449.15965	67549.85
1452.58027	67107.75
1455.9986	66429.75
1459.41463	66330.85
1462.82837	67380.85
1466.23982	68932.55
1469.64898	70389.25
1473.05586	71370.05
1476.46045	71632.65
1479.86276	71165.75
1483.26279	70303.35
1486.66054	69767.75
1490.05602	69985.45
1493.44922	70587.55
1496.84016	70875.75
1500.22882	71087.65
1503.61521	71576.65
1506.99934	72231.75
1510.38121	72874.45
1513.76081	72964.55
1517.13816	72178.85
1520.51324	71134.05
1523.88607	70819.55
1527.25665	71467.15
1530.62498	72143.65
1533.99105	72045.45
1537.35488	70893.35
1540.71647	68905.15
1544.07581	66585.65
1547.4329	64216.05
1550.78776	62155.15
1554.14038	60773.45
1557.49077	59900.75
1560.83892	59147.45
1564.18484	58775.15
1567.52853	58588.05
1570.86999	59088.85
1574.20922	60393.25
1577.54624	61781.85
1580.88103	62892.65
1584.2136	64778.65
1587.54395	68399.15
1590.87208	73628.95
1594.19801	79600.85
1597.52172	84362.05
1600.84321	84875.65
1604.16251	79524.45
1607.47959	70875.45
1610.79447	62550.25
1614.10715	55792.25
1617.41763	50951.05
1620.7259	47982.15
1624.03199	46843.95
1627.33587	47307.65
1630.63757	49438.65
1633.93707	53585.75
1637.23439	60485.05
1640.52951	70582.45
1643.82246	82744.65
1647.11321	91731.75
1650.40179	91971.85
1653.68819	82484.05
1656.97241	68663.75
1660.25446	56531.55
1663.53433	48093.45
1666.81203	42948.35
1670.08756	39895.45
1673.36092	37990.95
1676.63211	36744.55
1679.90115	35934.65
1683.16801	35228.85
1686.43272	34765.05
1689.69527	34473.95
1692.95567	34152.65
1696.2139	33916.15
1699.46999	33777.35
1702.72392	33662.15
1705.97571	33548.65
1709.22535	33462.05
1712.47284	33382.75
1715.71819	33304.75
1718.96139	33251.05
1722.20246	33126.05
1725.44139	32981.05
1728.67818	32805.05
1731.91284	32557.15
1735.14537	32364.75
1738.37576	32221.55
1741.60403	32082.95
1744.83017	31948.65
1748.05418	31862.95
1751.27607	31806.95
1754.49584	31764.85
1757.71349	31743.05
1760.92903	31704.25
1764.14244	31686.85
1767.35375	31640.05
1770.56294	31591.25
1773.77002	31483.75
1776.97499	31469.65
1780.17785	31376.05
1783.37861	31320.05
1786.57727	31318.75
1789.77382	31215.25
1792.96828	31192.65
1796.16064	31086.95
1799.3509	31061.85
1802.53907	30966.35
1805.72514	30904.55
1808.90913	30814.75
1812.09102	30767.15
1815.27083	30703.85
1818.44856	30709.25
1821.6242	30683.35
1824.79776	30692.15
1827.96924	30636.55
1831.13864	30674.25
1834.30597	30712.25
1837.47122	30642.75
1840.6344	30635.65
1843.7955	30632.85
1846.95454	30636.05
1850.11151	30600.45
1853.26642	30547.45
1856.41926	30507.25
1859.57004	30500.45
1862.71876	30490.35
1865.86542	30490.15
1869.01003	30441.85
1872.15258	30408.45
1875.29308	30367.45
1878.43152	30348.65
1881.56792	30313.75
1884.70227	30312.65
1887.83457	30347.75
1890.96482	30301.15
1894.09304	30232.15
1897.21921	30198.95
1900.34335	30214.85
1903.46544	30118.85
1906.58551	30076.15
1909.70353	30030.45
1912.81953	29937.05
1915.93349	29870.65
1919.04543	29842.55
1922.15534	29764.45
1925.26322	29702.05
1928.36908	29602.55
1931.47292	29514.25
1934.57473	29423.55
1937.67453	29347.25
1940.77232	29283.55
1943.86808	29223.05
1946.96184	29176.25
1950.05358	29073.45
1953.14331	29017.75
1956.23103	28936.05
1959.31675	28864.25
1962.40046	28783.55
1965.48217	28675.65
1968.56188	28598.05
1971.63959	28534.35
1974.7153	28452.75
1977.78901	28375.95
1980.86073	28270.75
1983.93046	28179.05
1986.99819	28064.55
1990.06394	28018.15
1993.1277	27927.55
1996.18947	27839.45
1999.24925	27818.85
2002.30706	27732.45
2005.36288	27607.35
2008.41672	27589.15
2011.46859	27487.65
2014.51848	27449.15
2017.56639	27399.65
2020.61233	27307.35
2023.6563	27280.35
2026.6983	27260.15
2029.73833	27196.25
2032.7764	27156.75
2035.8125	27100.55
2038.84664	27068.45
2041.87881	27076.85
2044.90903	27000.35
2047.93729	26935.45
2050.96359	26912.75
2053.98794	26885.65
2057.01034	26853.15
2060.03078	26862.55
2063.04927	26822.35
2066.06582	26824.15
2069.08042	26789.65
2072.09307	26717.25
2075.10378	26679.15
2078.11255	26762.45
2081.11938	26736.65
2084.12426	26662.35
2087.12722	26690.75
2090.12824	26659.75
2093.12732	26637.35
2096.12447	26687.95
2099.11969	26681.05
2102.11299	26698.65
2105.10435	26744.85
2108.09379	26744.95
2111.08131	26778.25
2114.0669	26712.85
2117.05057	26771.35
2120.03233	26810.55
2123.01216	26794.55
2125.99008	26821.45
2128.96609	26802.85
2131.94018	26835.35
2134.91236	26822.25
2137.88263	26828.75
2140.851	26828.55
2143.81746	26865.45
2146.78201	26835.05
2149.74466	26863.65
2152.7054	26861.15
2155.66425	26827.75
2158.6212	26849.35
2161.57625	26864.85
2164.52941	26863.65
2167.48067	26856.15
2170.43004	26787.85
2173.37752	26850.65
2176.32311	26824.25
2179.26681	26836.15
2182.20863	26873.75
2185.14856	26902.35
2188.08661	26916.65
2191.02278	26907.65
2193.95707	26875.45
2196.88948	26858.15
2199.82001	26830.05
2202.74867	26847.55
2205.67545	26821.45
2208.60037	26780.35
2211.52341	26711.35
2214.44458	26715.35
2217.36388	26668.45
2220.28132	26662.35
2223.1969	26578.05
2226.11061	26558.45
2229.02246	26507.35
2231.93245	26530.45
2234.84058	26521.45
2237.74686	26508.55
2240.65128	26494.55
2243.55385	26370.75
2246.45456	26350.35
2249.35343	26303.25
2252.25044	26211.35
2255.14561	26154.05
2258.03893	26131.75
2260.93041	26059.15
2263.82004	25987.85
2266.70783	25912.35
2269.59378	25848.45
2272.4779	25773.95
2275.36017	25681.85
2278.24061	25707.15
2281.11922	25643.35
2283.996	25665.85
2286.87094	25634.05
2289.74405	25593.75
2292.61534	25578.95
2295.4848	25567.15
2298.35243	25541.85
2301.21824	25485.35
2304.08223	25519.45
2306.94439	25569.15
2309.80474	25605.85
2312.66327	25540.25
2315.51999	25560.85
2318.37489	25569.55
2321.22797	25556.15
2324.07925	25491.45
2326.92871	25462.65
2329.77637	25487.85
2332.62222	25440.85
2335.46626	25411.85
2338.3085	25383.05
2341.14893	25393.85
2343.98756	25387.05
2346.8244	25406.35
2349.65943	25417.55
2352.49267	25420.45
2355.32411	25429.45
2358.15376	25391.75
2360.98161	25384.05
2363.80768	25347.85
2366.63195	25285.05
2369.45444	25304.05
2372.27514	25236.75
2375.09405	25144.35
2377.91118	25099.75
2380.72652	25032.05
2383.54009	25033.05
2386.35187	25037.65
2389.16188	24959.75
2391.97011	24945.75
2394.77657	24901.35
2397.58125	24847.55
2400.38416	24843.45
2403.18529	24775.55
2405.98466	24803.35
2408.78226	24763.95
2411.57809	24732.75
2414.37216	24750.75
2417.16446	24745.85
2419.955	24674.25
2422.74378	24658.05
2425.5308	24620.05
2428.31606	24644.85
2431.09956	24593.05
2433.88131	24606.95
2436.6613	24608.45
2439.43954	24621.65
2442.21603	24578.45
2444.99077	24584.15
2447.76377	24576.55
2450.53501	24528.05
2453.30451	24570.45
2456.07226	24551.85
2458.83827	24581.35
2461.60254	24542.05
2464.36507	24568.05
2467.12586	24525.15
2469.88492	24524.55
2472.64224	24526.65
2475.39782	24560.55
2478.15167	24575.95
2480.90379	24525.75
2483.65417	24593.25
2486.40283	24569.75
2489.14976	24564.15
2491.89497	24583.85
2494.63845	24575.65
2497.3802	24558.45
2500.12024	24583.45
2502.85855	24597.25
2505.59514	24584.75
2508.33002	24575.45
2511.06318	24535.25
2513.79462	24539.15
2516.52435	24487.75
2519.25237	24499.95
2521.97867	24421.55
2524.70327	24446.55
2527.42616	24474.65
2530.14734	24470.05
2532.86681	24391.75
2535.58458	24429.35
2538.30065	24370.85
2541.01501	24338.15
2543.72768	24340.85
2546.43864	24372.75
2549.14791	24322.75
2551.85548	24305.65
2554.56136	24367.45
2557.26554	24327.05
2559.96803	24312.75
2562.66883	24324.55
2565.36794	24277.45
2568.06536	24282.65
2570.7611	24243.05
2573.45514	24270.15
2576.14751	24210.95
2578.83819	24201.65
2581.52719	24199.45
2584.21451	24190.05
2586.90015	24206.95
2589.58411	24165.75
2592.2664	24150.75
2594.94701	24098.75
2597.62594	24076.05
2600.30321	24079.15
2602.9788	24121.85
2605.65273	24071.85
2608.32498	24109.15
2610.99557	24034.55
2613.66449	24105.55
2616.33175	24045.45
2618.99734	24061.15
2621.66128	24068.95
2624.32355	24025.55
2626.98416	24034.15
2629.64311	23997.45
2632.30041	23996.85
2634.95605	23979.65
2637.61004	23979.95
2640.26238	23954.85
2642.91306	23944.75
2645.56209	23960.15
2648.20948	23959.55
2650.85521	23965.65
2653.4993	23961.85
2656.14175	23974.65
2658.78255	23940.65
2661.42171	23940.95
2664.05923	24049.05
2666.6951	24039.85
2669.32934	24033.05
2671.96194	24000.85
2674.59291	24075.15
2677.22224	24050.05
2679.84993	24042.85
2682.476	24013.15
2685.10043	24041.55
2687.72324	23985.25
2690.34441	24029.35
2692.96396	24025.95
2695.58188	24031.25
2698.19818	23980.95
2700.81285	24045.05
2703.4259	23985.95
2706.03733	24075.25
2708.64714	24025.75
2711.25533	24041.35
2713.86191	24060.75
2716.46687	24155.95
2719.07021	24137.75
2721.67194	24172.75
2724.27206	24160.05
2726.87057	24153.85
2729.46747	24189.35
2732.06276	24224.85
2734.65644	24225.75
2737.24852	24212.45
2739.83899	24190.55
2742.42786	24262.15
2745.01513	24192.15
2747.60079	24184.95
2750.18486	24142.75
2752.76733	24153.75
2755.3482	24150.35
2757.92747	24128.05
2760.50515	24093.45
2763.08123	24140.65
2765.65573	24145.15
2768.22863	24176.85
2770.79994	24114.95
2773.36967	24088.25
2775.9378	24106.35
2778.50435	24087.75
2781.06932	24122.65
2783.6327	24084.65
2786.1945	24045.15
2788.75471	24031.05
2791.31335	23942.55
2793.87041	23988.95
2796.42589	23943.15
2798.97979	23958.65
2801.53212	23908.85
2804.08288	23913.35
2806.63206	23793.45
2809.17967	23721.55
2811.72571	23654.65
2814.27018	23659.75
2816.81308	23628.35
2819.35442	23614.85
2821.89419	23527.75
2824.43239	23567.15
2826.96904	23532.85
2829.50412	23540.85
2832.03763	23479.95
2834.56959	23497.45
2837.1	23470.65
2839.62884	23455.05
2842.15613	23462.35
2844.68186	23477.85
2847.20604	23530.55
2849.72867	23568.05
2852.24974	23516.55
2854.76927	23563.25
2857.28724	23502.25
2859.80367	23483.05
2862.31855	23428.15
2864.83189	23406.35
2867.34368	23402.75
2869.85393	23383.75
2872.36264	23372.45
2874.8698	23398.75
2877.37543	23408.45
2879.87952	23438.45
2882.38207	23427.25
2884.88308	23390.55
2887.38256	23436.85
2889.88051	23455.55
2892.37692	23482.25
2894.8718	23501.45
2897.36515	23542.95
2899.85698	23532.45
2902.34727	23542.65
2904.83604	23559.55
2907.32328	23567.35
2909.809	23533.05
2912.29319	23562.35
2914.77587	23537.35
2917.25702	23570.45
2919.73665	23555.85
2922.21476	23566.25
2924.69136	23568.55
2927.16644	23537.45
2929.64	23512.95
2932.11205	23458.45
2934.58258	23409.25
2937.05161	23427.65
2939.51912	23379.55
2941.98513	23361.25
2944.44962	23323.45
2946.91261	23237.05
2949.37409	23272.25
2951.83407	23264.75
2954.29254	23256.85
2956.74951	23212.35
2959.20498	23150.75
2961.65895	23128.05
2964.11142	23135.85
2966.56239	23068.65
2969.01186	23034.65
2971.45984	22945.75
2973.90632	22947.45
2976.35131	22869.65
2978.7948	22838.65
2981.23681	22740.35
2983.67732	22652.65
2986.11635	22567.95
2988.55388	22539.15
2990.98993	22521.45
2993.4245	22426.95
2995.85758	22381.15
2998.28917	22358.55
3000.71928	22383.05
3003.14791	22289.15
3005.57506	22215.25
3008.00073	22179.75
3010.42493	22185.15
3012.84764	22122.85
3015.26888	22134.25
3017.68865	22074.05
3020.10694	22044.05
3022.52376	21968.65
3024.9391	21959.45
3027.35298	21938.05
3029.76539	21929.95
3032.17632	21893.05
3034.5858	21849.55
3036.9938	21805.35
3039.40034	21801.25
3041.80542	21851.05
3044.20903	21757.05
3046.61118	21747.55
3049.01187	21700.95
3051.4111	21702.65
3053.80888	21643.25
3056.20519	21580.55
3058.60005	21506.75
3060.99345	21467.05
3063.3854	21435.05
3065.7759	21337.45
3068.16494	21272.25
3070.55254	21242.15
3072.93868	21214.35
3075.32338	21112.05
3077.70662	21121.95
3080.08842	21049.75
3082.46878	21015.35
3084.84769	20958.95
3087.22515	20963.75
3089.60118	20942.55
3091.97576	20886.55
3094.3489	20925.65
3096.72061	20903.55
3099.09087	20887.75
3101.4597	20814.15
3103.82709	20813.85
3106.19305	20747.35
3108.55757	20763.05
3110.92066	20681.85
3113.28232	20637.95
3115.64255	20589.55
3118.00134	20545.35
3120.35871	20527.75
3122.71466	20451.95
3125.06917	20410.95
3127.42226	20401.45
3129.77393	20376.05
3132.12417	20363.65
3134.47299	20391.25
3136.82039	20383.65
3139.16636	20347.05
3141.51092	20354.45
3143.85406	20350.65
3146.19579	20329.65
3148.53609	20289.45
3150.87499	20324.35
3153.21246	20325.05
3155.54853	20322.25
3157.88318	20306.85
3160.21642	20226.85
3162.54826	20264.95
3164.87868	20237.25
3167.2077	20158.25
3169.5353	20199.95
3171.86151	20170.25
3174.18631	20145.55
3176.5097	20145.35
3178.83169	20107.85
3181.15228	20122.65
3183.47147	20057.55
3185.78926	20018.25
3188.10565	20011.75
3190.42065	20018.45
3192.73424	20047.85
3195.04645	19996.45
3197.35725	19991.75
3199.66667	19946.25
3201.97469	19926.65
3204.28132	19881.15
3206.58656	19923.15
3208.8904	19902.25
3211.19287	19929.85
3213.49394	19928.15
3215.79363	19925.35
3218.09193	19891.85
3220.38884	19859.65
3222.68438	19903.05
3224.97853	19847.45
3227.2713	19848.35
3229.56269	19808.65
3231.8527	19764.05
3234.14133	19744.75
3236.42858	19715.65
3238.71446	19735.55
3240.99896	19691.35
3243.28209	19703.15
3245.56384	19683.75
3247.84423	19671.85
3250.12324	19616.05
3252.40088	19586.05
3254.67715	19511.35
3256.95205	19468.45
3259.22558	19463.55
3261.49775	19429.55
3263.76855	19412.95
3266.03799	19317.75
3268.30606	19302.15
3270.57277	19289.35
3272.83812	19257.85
3275.10211	19229.75
3277.36474	19229.75
3279.62601	19224.35
3281.88593	19211.05
3284.14448	19229.15
3286.40168	19241.55
3288.65753	19230.95
3290.91202	19184.55
3293.16516	19147.55
3295.41695	19065.55
3297.66738	18924.25
3299.91647	18900.55
3302.16421	18784.15
3304.4106	18647.35
3306.65564	18566.95
3308.89933	18424.05
3311.14169	18317.15
3313.38269	18157.35
3315.62236	18083.85
3317.86068	17912.15
3320.09766	17740.25
3322.3333	17592.35
3324.5676	17579.45
3326.80056	17302.35
3329.03219	17211.65
3331.26248	2.35
3333.49143	0.15
3335.71905	-0.95
