Data from AgNPs_FTO_APTES_UA_2uM_CRN_0uM_R6G_10uM_NaF_0.1M_Addition_RamanShift__12__10-18-24-927.txt Node

Date: Wed Feb 02 10:18:24 GMT 2022
User: TCL
Spectrometer: QEP01345
Trigger mode: 4
Integration Time (sec): 7.000000E0
Scans to average: 10
Electric dark correction enabled: true
Nonlinearity correction enabled: false
Boxcar width: 0
XAxis mode: Raman Shifts
Number of Pixels in Spectrum: 1044
>>>>>Begin Spectral Data<<<<<
46.04893	0.15
50.45542	1.25
54.85868	-1.05
59.25871	-0.45
63.6555	24.25
68.04907	28.75
72.43941	30.85
76.82654	36.95
81.21044	37.25
85.59113	39.35
89.96862	36.55
94.34289	41.75
98.71396	40.75
103.08183	46.95
107.4465	44.95
111.80798	48.35
116.16626	44.85
120.52136	47.75
124.87327	47.85
129.222	48.35
133.56755	50.65
137.90993	48.05
142.24913	55.95
146.58517	62.25
150.91804	67.65
155.24774	79.45
159.57429	91.65
163.89768	119.25
168.21792	153.95
172.53501	197.25
176.84895	273.05
181.15975	371.15
185.46741	516.55
189.77193	714.35
194.07331	963.15
198.37157	1244.05
202.6667	1558.45
206.9587	1852.25
211.24758	2143.85
215.53334	2463.85
219.81599	2798.75
224.09553	3152.25
228.37195	3554.65
232.64527	3967.55
236.91549	4426.35
241.18261	4811.95
245.44663	5142.55
249.70755	5432.65
253.96539	5609.95
258.22014	5805.35
262.4718	5938.95
266.72039	6036.55
270.96589	6058.15
275.20832	5992.35
279.44768	5883.05
283.68397	5740.85
287.91719	5585.25
292.14735	5508.25
296.37445	5520.85
300.59849	5589.35
304.81948	5734.25
309.03742	5837.35
313.25231	5848.05
317.46415	5714.85
321.67296	5464.65
325.87872	5231.25
330.08145	5116.35
334.28114	5076.85
338.47781	5127.55
342.67145	5181.35
346.86207	5287.55
351.04966	5455.55
355.23424	5641.05
359.4158	5809.85
363.59435	5905.35
367.76989	5902.75
371.94243	5923.95
376.11196	5908.85
380.27849	5888.35
384.44203	5858.85
388.60257	5827.95
392.76012	5794.75
396.91468	5821.55
401.06626	5887.75
405.21485	5939.65
409.36047	5850.75
413.50311	5624.25
417.64277	5409.75
421.77947	5298.85
425.9132	5235.75
430.04396	5239.55
434.17176	5269.95
438.2966	5314.05
442.41849	5408.65
446.53742	5520.15
450.6534	5630.75
454.76644	5692.55
458.87653	5664.95
462.98368	5626.75
467.08789	5544.15
471.18916	5466.25
475.2875	5373.75
479.38291	5297.05
483.4754	5264.65
487.56496	5236.05
491.6516	5219.35
495.73531	5238.95
499.81612	5267.25
503.89401	5318.25
507.96899	5376.85
512.04106	5471.55
516.11023	5534.25
520.1765	5604.35
524.23987	5596.75
528.30034	5525.75
532.35792	5478.45
536.41261	5378.15
540.46441	5293.75
544.51333	5222.05
548.55936	5209.25
552.60252	5290.65
556.64279	5380.55
560.6802	5452.15
564.71473	5475.85
568.7464	5590.35
572.7752	5661.75
576.80114	5550.05
580.82422	5407.65
584.84444	5351.25
588.86181	5419.75
592.87633	5602.95
596.888	5749.65
600.89682	5808.35
604.9028	6104.95
608.90594	7218.85
612.90624	8901.25
616.90371	8946.45
620.89834	6878.35
624.89015	5633.95
628.87913	5327.65
632.86528	5317.65
636.84862	5373.55
640.82913	5351.55
644.80683	5218.25
648.78172	5115.35
652.75379	5123.65
656.72306	5248.25
660.68952	5417.15
664.65319	5440.15
668.61405	5227.55
672.57211	5136.95
676.52738	5189.45
680.47986	5236.15
684.42955	5229.55
688.37646	5184.95
692.32058	5159.85
696.26192	5136.15
700.20048	5151.95
704.13626	5206.85
708.06928	5214.95
711.99952	5197.65
715.927	5201.95
719.85171	5216.85
723.77365	5229.35
727.69284	5215.05
731.60928	5185.75
735.52295	5179.45
739.43388	5178.65
743.34206	5174.25
747.24749	5166.05
751.15017	5172.85
755.05012	5218.85
758.94733	5333.75
762.8418	5666.45
766.73354	6318.85
770.62254	7126.65
774.50882	7612.55
778.39237	7354.45
782.27321	6625.55
786.15132	5903.45
790.02671	5430.55
793.89938	5227.45
797.76935	5135.95
801.6366	5109.15
805.50115	5057.45
809.36299	5047.75
813.22213	5021.95
817.07857	4994.65
820.93231	4965.95
824.78336	4965.95
828.63172	4955.75
832.47738	4956.55
836.32036	4951.65
840.16066	4942.85
843.99827	4915.25
847.8332	4924.35
851.66546	4944.55
855.49504	4920.45
859.32195	4921.25
863.1462	4910.85
866.96777	4898.95
870.78668	4909.35
874.60293	4927.45
878.41652	4947.05
882.22745	4972.55
886.03573	5010.35
889.84136	5029.05
893.64433	5049.65
897.44466	5057.95
901.24235	5079.25
905.0374	5101.55
908.8298	5145.35
912.61957	5210.25
916.40671	5292.85
920.19121	5399.35
923.97308	5528.35
927.75233	5640.65
931.52895	5686.85
935.30295	5596.25
939.07433	5435.35
942.84309	5257.25
946.60924	5108.95
950.37278	5003.65
954.13371	4938.15
957.89203	4885.05
961.64774	4826.55
965.40086	4766.25
969.15137	4707.35
972.89929	4675.55
976.64461	4634.25
980.38733	4613.95
984.12747	4575.95
987.86502	4599.55
991.59999	4610.35
995.33237	4621.35
999.06217	4681.85
1002.78939	4752.95
1006.51404	4814.75
1010.23611	4875.45
1013.95561	4903.15
1017.67255	4896.85
1021.38692	4853.45
1025.09872	4797.15
1028.80796	4722.75
1032.51465	4693.55
1036.21877	4694.75
1039.92035	4728.85
1043.61937	4751.05
1047.31584	4806.45
1051.00976	4871.25
1054.70114	4899.35
1058.38998	4917.05
1062.07627	4929.65
1065.76003	4923.15
1069.44126	4871.65
1073.11995	4858.85
1076.79611	4864.15
1080.46974	4910.65
1084.14085	4956.75
1087.80943	5039.25
1091.47549	5084.55
1095.13903	5026.15
1098.80005	4904.65
1102.45857	4788.15
1106.11456	4742.45
1109.76805	4757.55
1113.41903	4795.15
1117.06751	4905.65
1120.71348	5056.65
1124.35696	5211.15
1127.99793	5397.25
1131.63641	5460.45
1135.2724	5251.25
1138.90589	5006.25
1142.5369	4832.75
1146.16542	4725.25
1149.79145	4669.15
1153.415	4628.55
1157.03607	4612.05
1160.65467	4670.05
1164.27079	4799.25
1167.88443	4978.45
1171.49561	5320.55
1175.10432	5884.65
1178.71056	6662.65
1182.31434	7346.75
1185.91565	7520.15
1189.51451	7301.45
1193.11091	6882.45
1196.70485	6380.25
1200.29634	5981.45
1203.88538	5694.45
1207.47197	5347.15
1211.05612	5066.75
1214.63782	4904.25
1218.21708	4863.85
1221.79391	4903.55
1225.36829	4991.35
1228.94024	5047.45
1232.50976	5011.75
1236.07685	4957.55
1239.6415	4912.45
1243.20374	4879.95
1246.76355	4853.65
1250.32093	4852.15
1253.8759	4912.75
1257.42845	5013.15
1260.97859	5121.95
1264.52631	5296.25
1268.07163	5445.55
1271.61453	5584.25
1275.15503	5674.75
1278.69312	5729.45
1282.22882	5757.85
1285.76211	5846.15
1289.29301	6062.85
1292.82151	6262.85
1296.34761	6516.85
1299.87133	6781.65
1303.39266	7214.55
1306.9116	7865.95
1310.42815	8686.45
1313.94233	9241.55
1317.45412	9103.85
1320.96354	8451.25
1324.47058	7661.35
1327.97525	7007.45
1331.47754	6546.75
1334.97747	6342.25
1338.47502	6291.75
1341.97022	6383.15
1345.46305	6607.85
1348.95352	7038.35
1352.44163	7722.75
1355.92738	8645.95
1359.41078	9923.65
1362.89183	11306.95
1366.37053	11589.95
1369.84688	10080.65
1373.32088	8255.15
1376.79254	7041.45
1380.26186	6495.45
1383.72883	6268.75
1387.19347	6130.45
1390.65578	5967.15
1394.11575	5860.25
1397.57339	5755.45
1401.0287	5712.35
1404.48168	5660.95
1407.93234	5626.45
1411.38068	5522.65
1414.82669	5432.35
1418.27039	5400.45
1421.71177	5367.55
1425.15083	5298.65
1428.58758	5230.15
1432.02203	5199.85
1435.45416	5263.95
1438.88399	5309.75
1442.31151	5306.05
1445.73673	5295.95
1449.15965	5303.45
1452.58027	5263.05
1455.9986	5202.55
1459.41463	5151.15
1462.82837	5168.45
1466.23982	5220.05
1469.64898	5283.55
1473.05586	5371.35
1476.46045	5400.85
1479.86276	5433.95
1483.26279	5502.95
1486.66054	5582.95
1490.05602	5695.65
1493.44922	5914.05
1496.84016	6242.55
1500.22882	6816.05
1503.61521	7667.35
1506.99934	8655.25
1510.38121	9673.35
1513.76081	10192.45
1517.13816	9747.45
1520.51324	8556.75
1523.88607	7309.05
1527.25665	6458.05
1530.62498	6017.65
1533.99105	5741.75
1537.35488	5570.65
1540.71647	5417.35
1544.07581	5324.65
1547.4329	5251.25
1550.78776	5251.05
1554.14038	5276.35
1557.49077	5329.75
1560.83892	5425.45
1564.18484	5561.05
1567.52853	5715.15
1570.86999	5898.45
1574.20922	6024.05
1577.54624	6043.95
1580.88103	5783.55
1584.2136	5397.95
1587.54395	5101.95
1590.87208	5010.15
1594.19801	5142.95
1597.52172	5427.45
1600.84321	5591.15
1604.16251	5502.05
1607.47959	5232.75
1610.79447	4954.15
1614.10715	4704.95
1617.41763	4473.15
1620.7259	4345.45
1624.03199	4256.35
1627.33587	4237.45
1630.63757	4268.45
1633.93707	4403.65
1637.23439	4629.15
1640.52951	5022.75
1643.82246	5643.65
1647.11321	6390.65
1650.40179	7019.65
1653.68819	6910.15
1656.97241	6107.05
1660.25446	5129.65
1663.53433	4399.05
1666.81203	3978.25
1670.08756	3732.35
1673.36092	3569.55
1676.63211	3458.95
1679.90115	3383.85
1683.16801	3310.45
1686.43272	3271.95
1689.69527	3220.25
1692.95567	3184.45
1696.2139	3141.35
1699.46999	3123.45
1702.72392	3092.35
1705.97571	3096.35
1709.22535	3084.55
1712.47284	3085.25
1715.71819	3070.45
1718.96139	3064.65
1722.20246	3050.55
1725.44139	3030.25
1728.67818	3014.15
1731.91284	2980.75
1735.14537	2953.65
1738.37576	2946.25
1741.60403	2928.65
1744.83017	2909.85
1748.05418	2909.15
1751.27607	2898.25
1754.49584	2877.35
1757.71349	2877.15
1760.92903	2862.25
1764.14244	2837.35
1767.35375	2817.15
1770.56294	2810.35
1773.77002	2782.45
1776.97499	2761.05
1780.17785	2761.85
1783.37861	2744.95
1786.57727	2740.85
1789.77382	2737.75
1792.96828	2716.05
1796.16064	2716.15
1799.3509	2707.55
1802.53907	2693.45
1805.72514	2695.55
1808.90913	2670.25
1812.09102	2650.55
1815.27083	2644.45
1818.44856	2639.15
1821.6242	2652.05
1824.79776	2629.85
1827.96924	2619.05
1831.13864	2613.35
1834.30597	2605.25
1837.47122	2606.95
1840.6344	2600.85
1843.7955	2608.35
1846.95454	2601.75
1850.11151	2590.05
1853.26642	2582.45
1856.41926	2593.55
1859.57004	2582.35
1862.71876	2567.05
1865.86542	2564.15
1869.01003	2566.25
1872.15258	2559.95
1875.29308	2553.75
1878.43152	2544.65
1881.56792	2548.15
1884.70227	2530.05
1887.83457	2531.55
1890.96482	2519.85
1894.09304	2524.65
1897.21921	2515.05
1900.34335	2512.95
1903.46544	2514.05
1906.58551	2511.55
1909.70353	2496.75
1912.81953	2495.75
1915.93349	2487.35
1919.04543	2479.95
1922.15534	2470.55
1925.26322	2447.15
1928.36908	2454.55
1931.47292	2447.05
1934.57473	2432.05
1937.67453	2424.05
1940.77232	2429.35
1943.86808	2413.45
1946.96184	2401.35
1950.05358	2393.25
1953.14331	2376.35
1956.23103	2372.95
1959.31675	2363.65
1962.40046	2363.55
1965.48217	2350.35
1968.56188	2340.05
1971.63959	2320.65
1974.7153	2328.45
1977.78901	2310.25
1980.86073	2317.05
1983.93046	2298.95
1986.99819	2288.55
1990.06394	2282.75
1993.1277	2269.95
1996.18947	2255.35
1999.24925	2250.55
2002.30706	2244.55
2005.36288	2230.45
2008.41672	2234.65
2011.46859	2219.55
2014.51848	2211.15
2017.56639	2206.15
2020.61233	2193.65
2023.6563	2180.35
2026.6983	2178.55
2029.73833	2177.95
2032.7764	2155.85
2035.8125	2163.35
2038.84664	2155.55
2041.87881	2153.05
2044.90903	2146.75
2047.93729	2137.95
2050.96359	2145.95
2053.98794	2130.55
2057.01034	2123.55
2060.03078	2129.75
2063.04927	2117.45
2066.06582	2124.45
2069.08042	2112.75
2072.09307	2123.55
2075.10378	2118.05
2078.11255	2114.85
2081.11938	2116.25
2084.12426	2100.35
2087.12722	2111.05
2090.12824	2111.95
2093.12732	2098.75
2096.12447	2121.95
2099.11969	2106.75
2102.11299	2109.45
2105.10435	2105.45
2108.09379	2108.55
2111.08131	2095.55
2114.0669	2096.35
2117.05057	2101.95
2120.03233	2093.25
2123.01216	2099.75
2125.99008	2104.45
2128.96609	2098.55
2131.94018	2096.35
2134.91236	2092.65
2137.88263	2084.65
2140.851	2090.75
2143.81746	2082.95
2146.78201	2079.75
2149.74466	2072.25
2152.7054	2076.05
2155.66425	2077.05
2158.6212	2072.75
2161.57625	2079.95
2164.52941	2067.15
2167.48067	2060.55
2170.43004	2065.45
2173.37752	2063.15
2176.32311	2060.25
2179.26681	2053.95
2182.20863	2049.75
2185.14856	2051.05
2188.08661	2049.65
2191.02278	2038.95
2193.95707	2036.25
2196.88948	2044.65
2199.82001	2039.75
2202.74867	2034.65
2205.67545	2015.75
2208.60037	2022.35
2211.52341	2028.45
2214.44458	2027.05
2217.36388	2010.55
2220.28132	2011.75
2223.1969	1994.65
2226.11061	1984.45
2229.02246	1981.95
2231.93245	1979.95
2234.84058	1986.65
2237.74686	1980.85
2240.65128	1960.05
2243.55385	1962.55
2246.45456	1953.45
2249.35343	1953.85
2252.25044	1944.95
2255.14561	1947.75
2258.03893	1938.05
2260.93041	1933.55
2263.82004	1932.35
2266.70783	1929.85
2269.59378	1929.95
2272.4779	1932.45
2275.36017	1904.25
2278.24061	1909.55
2281.11922	1908.85
2283.996	1901.95
2286.87094	1899.65
2289.74405	1884.95
2292.61534	1882.95
2295.4848	1875.75
2298.35243	1875.75
2301.21824	1875.15
2304.08223	1869.35
2306.94439	1855.75
2309.80474	1857.35
2312.66327	1853.95
2315.51999	1852.95
2318.37489	1854.15
2321.22797	1849.55
2324.07925	1842.75
2326.92871	1840.25
2329.77637	1838.45
2332.62222	1836.75
2335.46626	1831.55
2338.3085	1826.85
2341.14893	1826.75
2343.98756	1823.75
2346.8244	1821.15
2349.65943	1825.15
2352.49267	1818.85
2355.32411	1812.05
2358.15376	1816.95
2360.98161	1823.95
2363.80768	1832.05
2366.63195	1828.75
2369.45444	1831.95
2372.27514	1823.45
2375.09405	1829.75
2377.91118	1818.75
2380.72652	1804.35
2383.54009	1797.65
2386.35187	1785.95
2389.16188	1774.25
2391.97011	1778.05
2394.77657	1759.15
2397.58125	1757.95
2400.38416	1758.45
2403.18529	1747.75
2405.98466	1743.55
2408.78226	1730.25
2411.57809	1730.45
2414.37216	1735.95
2417.16446	1726.75
2419.955	1734.85
2422.74378	1725.45
2425.5308	1723.35
2428.31606	1731.45
2431.09956	1725.05
2433.88131	1714.75
2436.6613	1725.25
2439.43954	1714.75
2442.21603	1712.25
2444.99077	1712.05
2447.76377	1710.65
2450.53501	1714.45
2453.30451	1706.55
2456.07226	1705.85
2458.83827	1698.45
2461.60254	1703.75
2464.36507	1711.85
2467.12586	1695.45
2469.88492	1693.05
2472.64224	1702.95
2475.39782	1688.65
2478.15167	1686.75
2480.90379	1693.15
2483.65417	1703.15
2486.40283	1698.55
2489.14976	1697.95
2491.89497	1701.55
2494.63845	1694.85
2497.3802	1692.55
2500.12024	1690.45
2502.85855	1686.75
2505.59514	1676.55
2508.33002	1680.35
2511.06318	1672.55
2513.79462	1660.85
2516.52435	1651.25
2519.25237	1643.65
2521.97867	1640.55
2524.70327	1627.85
2527.42616	1625.25
2530.14734	1623.35
2532.86681	1620.85
2535.58458	1619.95
2538.30065	1613.55
2541.01501	1607.35
2543.72768	1605.05
2546.43864	1603.65
2549.14791	1596.25
2551.85548	1597.55
2554.56136	1593.05
2557.26554	1596.95
2559.96803	1590.45
2562.66883	1585.65
2565.36794	1587.05
2568.06536	1591.75
2570.7611	1582.05
2573.45514	1587.65
2576.14751	1575.05
2578.83819	1569.15
2581.52719	1570.65
2584.21451	1563.25
2586.90015	1558.35
2589.58411	1552.95
2592.2664	1544.95
2594.94701	1550.05
2597.62594	1543.65
2600.30321	1539.25
2602.9788	1539.45
2605.65273	1533.05
2608.32498	1533.55
2610.99557	1530.25
2613.66449	1522.15
2616.33175	1522.15
2618.99734	1529.35
2621.66128	1532.15
2624.32355	1528.35
2626.98416	1520.25
2629.64311	1522.25
2632.30041	1521.25
2634.95605	1516.15
2637.61004	1506.15
2640.26238	1514.75
2642.91306	1508.95
2645.56209	1492.35
2648.20948	1500.65
2650.85521	1494.75
2653.4993	1504.75
2656.14175	1508.35
2658.78255	1507.25
2661.42171	1498.95
2664.05923	1502.25
2666.6951	1501.55
2669.32934	1510.15
2671.96194	1511.25
2674.59291	1508.75
2677.22224	1499.85
2679.84993	1509.25
2682.476	1510.25
2685.10043	1502.85
2687.72324	1501.55
2690.34441	1503.25
2692.96396	1497.85
2695.58188	1503.65
2698.19818	1503.65
2700.81285	1511.95
2703.4259	1500.55
2706.03733	1488.05
2708.64714	1500.65
2711.25533	1511.95
2713.86191	1508.75
2716.46687	1514.55
2719.07021	1510.15
2721.67194	1523.25
2724.27206	1515.55
2726.87057	1520.65
2729.46747	1523.25
2732.06276	1514.05
2734.65644	1519.75
2737.24852	1524.45
2739.83899	1530.95
2742.42786	1520.45
2745.01513	1520.75
2747.60079	1519.15
2750.18486	1505.45
2752.76733	1520.95
2755.3482	1512.25
2757.92747	1523.15
2760.50515	1520.85
2763.08123	1517.15
2765.65573	1526.05
2768.22863	1515.85
2770.79994	1508.85
2773.36967	1517.45
2775.9378	1515.25
2778.50435	1514.95
2781.06932	1507.45
2783.6327	1516.85
2786.1945	1523.75
2788.75471	1518.95
2791.31335	1521.25
2793.87041	1519.05
2796.42589	1510.65
2798.97979	1513.95
2801.53212	1509.45
2804.08288	1512.15
2806.63206	1508.45
2809.17967	1510.45
2811.72571	1512.35
2814.27018	1506.55
2816.81308	1511.05
2819.35442	1512.95
2821.89419	1510.35
2824.43239	1515.15
2826.96904	1510.65
2829.50412	1514.35
2832.03763	1520.25
2834.56959	1518.05
2837.1	1529.95
2839.62884	1542.95
2842.15613	1579.25
2844.68186	1603.95
2847.20604	1644.95
2849.72867	1668.75
2852.24974	1690.05
2854.76927	1703.95
2857.28724	1716.85
2859.80367	1714.25
2862.31855	1728.55
2864.83189	1736.65
2867.34368	1743.45
2869.85393	1764.05
2872.36264	1774.95
2874.8698	1790.25
2877.37543	1793.75
2879.87952	1815.65
2882.38207	1830.95
2884.88308	1821.85
2887.38256	1828.35
2889.88051	1840.25
2892.37692	1840.65
2894.8718	1853.85
2897.36515	1857.15
2899.85698	1868.55
2902.34727	1873.65
2904.83604	1879.65
2907.32328	1882.65
2909.809	1880.75
2912.29319	1883.95
2914.77587	1893.55
2917.25702	1879.95
2919.73665	1882.65
2922.21476	1885.35
2924.69136	1877.55
2927.16644	1881.05
2929.64	1887.45
2932.11205	1874.05
2934.58258	1863.55
2937.05161	1856.35
2939.51912	1841.95
2941.98513	1814.65
2944.44962	1790.95
2946.91261	1748.15
2949.37409	1730.15
2951.83407	1693.45
2954.29254	1674.35
2956.74951	1634.85
2959.20498	1633.35
2961.65895	1602.15
2964.11142	1589.15
2966.56239	1568.05
2969.01186	1565.45
2971.45984	1531.25
2973.90632	1512.25
2976.35131	1495.85
2978.7948	1481.45
2981.23681	1466.95
2983.67732	1448.15
2986.11635	1441.55
2988.55388	1422.05
2990.98993	1419.65
2993.4245	1411.45
2995.85758	1401.85
2998.28917	1393.85
3000.71928	1394.05
3003.14791	1389.85
3005.57506	1387.65
3008.00073	1373.75
3010.42493	1373.95
3012.84764	1380.05
3015.26888	1360.75
3017.68865	1369.55
3020.10694	1369.85
3022.52376	1368.45
3024.9391	1353.75
3027.35298	1353.25
3029.76539	1351.35
3032.17632	1355.15
3034.5858	1341.35
3036.9938	1338.55
3039.40034	1339.15
3041.80542	1343.35
3044.20903	1339.95
3046.61118	1335.25
3049.01187	1334.35
3051.4111	1329.95
3053.80888	1326.45
3056.20519	1330.45
3058.60005	1325.45
3060.99345	1331.85
3063.3854	1340.95
3065.7759	1328.45
3068.16494	1337.05
3070.55254	1322.95
3072.93868	1333.85
3075.32338	1325.05
3077.70662	1322.75
3080.08842	1325.75
3082.46878	1327.95
3084.84769	1336.65
3087.22515	1326.25
3089.60118	1334.25
3091.97576	1337.95
3094.3489	1339.05
3096.72061	1341.15
3099.09087	1348.55
3101.4597	1351.65
3103.82709	1353.85
3106.19305	1350.25
3108.55757	1361.25
3110.92066	1365.45
3113.28232	1356.85
3115.64255	1351.45
3118.00134	1363.05
3120.35871	1362.75
3122.71466	1364.85
3125.06917	1374.75
3127.42226	1370.85
3129.77393	1381.15
3132.12417	1392.45
3134.47299	1390.35
3136.82039	1390.35
3139.16636	1409.55
3141.51092	1399.85
3143.85406	1402.65
3146.19579	1423.95
3148.53609	1425.25
3150.87499	1430.35
3153.21246	1434.55
3155.54853	1443.75
3157.88318	1445.05
3160.21642	1449.25
3162.54826	1455.65
3164.87868	1467.85
3167.2077	1456.15
3169.5353	1469.75
3171.86151	1481.45
3174.18631	1465.95
3176.5097	1484.95
3178.83169	1482.65
3181.15228	1488.05
3183.47147	1481.85
3185.78926	1486.95
3188.10565	1508.65
3190.42065	1502.05
3192.73424	1504.95
3195.04645	1506.15
3197.35725	1514.15
3199.66667	1519.85
3201.97469	1525.45
3204.28132	1528.55
3206.58656	1543.65
3208.8904	1544.65
3211.19287	1546.25
3213.49394	1549.65
3215.79363	1553.25
3218.09193	1550.35
3220.38884	1553.15
3222.68438	1553.95
3224.97853	1552.35
3227.2713	1568.75
3229.56269	1562.85
3231.8527	1554.95
3234.14133	1553.55
3236.42858	1562.65
3238.71446	1567.95
3240.99896	1566.15
3243.28209	1569.25
3245.56384	1581.15
3247.84423	1581.95
3250.12324	1578.35
3252.40088	1588.85
3254.67715	1577.15
3256.95205	1575.35
3259.22558	1581.55
3261.49775	1586.55
3263.76855	1596.85
3266.03799	1586.35
3268.30606	1582.05
3270.57277	1581.05
3272.83812	1585.35
3275.10211	1574.35
3277.36474	1573.45
3279.62601	1564.75
3281.88593	1568.35
3284.14448	1578.15
3286.40168	1571.45
3288.65753	1567.65
3290.91202	1552.55
3293.16516	1552.25
3295.41695	1556.95
3297.66738	1542.55
3299.91647	1537.85
3302.16421	1534.25
3304.4106	1520.85
3306.65564	1529.85
3308.89933	1519.45
3311.14169	1506.05
3313.38269	1486.55
3315.62236	1480.45
3317.86068	1464.45
3320.09766	1464.15
3322.3333	1447.35
3324.5676	1449.85
3326.80056	1426.15
3329.03219	1415.55
3331.26248	-1.55
3333.49143	0.05
3335.71905	0.65
