Data from AgNPs_FTO_APTES_UA_2uM_CRN_50uM_R6G_10uM_NaF_0.1M_Addition_RamanShift__43__15-26-25-286.txt Node

Date: Wed Feb 02 15:26:25 GMT 2022
User: TCL
Spectrometer: QEP01345
Trigger mode: 4
Integration Time (sec): 7.000000E0
Scans to average: 10
Electric dark correction enabled: true
Nonlinearity correction enabled: false
Boxcar width: 0
XAxis mode: Raman Shifts
Number of Pixels in Spectrum: 1044
>>>>>Begin Spectral Data<<<<<
46.04893	0.85
50.45542	-0.45
54.85868	-1.85
59.25871	-0.85
63.6555	80.55
68.04907	87.15
72.43941	90.45
76.82654	100.25
81.21044	101.85
85.59113	107.05
89.96862	108.05
94.34289	109.85
98.71396	116.05
103.08183	123.25
107.4465	122.65
111.80798	124.55
116.16626	126.05
120.52136	132.75
124.87327	138.25
129.222	141.45
133.56755	151.15
137.90993	165.35
142.24913	179.35
146.58517	201.55
150.91804	228.45
155.24774	275.65
159.57429	338.85
163.89768	434.55
168.21792	580.15
172.53501	780.05
176.84895	1079.15
181.15975	1507.85
185.46741	2114.75
189.77193	2906.45
194.07331	3870.95
198.37157	5014.15
202.6667	6196.95
206.9587	7349.25
211.24758	8481.25
215.53334	9643.25
219.81599	10857.15
224.09553	12169.75
228.37195	13599.25
232.64527	15193.45
236.91549	16819.05
241.18261	18466.35
245.44663	19997.15
249.70755	21403.45
253.96539	22669.05
258.22014	23715.35
262.4718	24564.15
266.72039	25204.35
270.96589	25558.65
275.20832	25693.45
279.44768	25634.95
283.68397	25594.15
287.91719	25505.05
292.14735	25533.35
296.37445	25600.85
300.59849	25758.55
304.81948	25816.65
309.03742	25739.55
313.25231	25470.85
317.46415	24841.95
321.67296	24135.65
325.87872	23539.55
330.08145	23150.85
334.28114	23019.65
338.47781	23075.95
342.67145	23224.65
346.86207	23550.55
351.04966	23803.45
355.23424	24104.05
359.4158	24365.55
363.59435	24607.65
367.76989	24783.45
371.94243	24842.35
376.11196	24888.85
380.27849	24835.45
384.44203	24898.85
388.60257	25128.85
392.76012	25431.85
396.91468	25927.05
401.06626	26371.65
405.21485	26574.25
409.36047	26448.75
413.50311	26171.95
417.64277	26043.75
421.77947	26143.75
425.9132	26258.45
430.04396	26440.65
434.17176	26566.35
438.2966	26688.45
442.41849	27001.85
446.53742	27611.95
450.6534	28385.25
454.76644	28952.05
458.87653	29251.85
462.98368	29292.95
467.08789	29111.65
471.18916	28907.25
475.2875	28793.65
479.38291	28852.75
483.4754	28941.05
487.56496	28502.85
491.6516	27799.65
495.73531	27006.85
499.81612	26490.35
503.89401	26423.85
507.96899	26522.95
512.04106	26470.35
516.11023	26261.75
520.1765	25837.35
524.23987	25341.25
528.30034	24956.15
532.35792	24646.25
536.41261	24340.55
540.46441	24158.05
544.51333	24326.75
548.55936	24730.45
552.60252	25382.85
556.64279	26138.05
560.6802	26787.45
564.71473	27291.25
568.7464	28085.65
572.7752	29419.15
576.80114	30841.45
580.82422	31987.35
584.84444	32905.85
588.86181	33959.75
592.87633	34641.85
596.888	33993.65
600.89682	32237.35
604.9028	31452.55
608.90594	32196.45
612.90624	33005.15
616.90371	30630.35
620.89834	26359.25
624.89015	24559.95
628.87913	24509.45
632.86528	24807.55
636.84862	24784.55
640.82913	24328.75
644.80683	23744.35
648.78172	23337.85
652.75379	23272.65
656.72306	23386.85
660.68952	23602.85
664.65319	23457.65
668.61405	23157.35
672.57211	23054.65
676.52738	23152.25
680.47986	23125.85
684.42955	23030.15
688.37646	22947.05
692.32058	23081.45
696.26192	23344.95
700.20048	23712.05
704.13626	23959.45
708.06928	24130.85
711.99952	24128.65
715.927	24117.95
719.85171	23995.45
723.77365	23821.75
727.69284	23365.95
731.60928	23023.95
735.52295	22791.05
739.43388	22730.45
743.34206	22776.25
747.24749	22952.05
751.15017	23281.65
755.05012	23872.45
758.94733	24697.75
762.8418	26068.95
766.73354	27848.35
770.62254	29277.85
774.50882	29020.65
778.39237	27404.75
782.27321	25515.25
786.15132	24090.35
790.02671	23219.15
793.89938	22713.65
797.76935	22474.25
801.6366	22430.95
805.50115	22427.25
809.36299	22295.05
813.22213	22189.25
817.07857	22132.45
820.93231	22096.45
824.78336	21912.85
828.63172	21687.95
832.47738	21493.95
836.32036	21479.05
840.16066	21414.15
843.99827	21446.45
847.8332	21361.95
851.66546	21373.45
855.49504	21435.15
859.32195	21395.75
863.1462	21325.65
866.96777	21228.65
870.78668	21209.75
874.60293	21156.05
878.41652	21148.05
882.22745	21176.85
886.03573	21203.25
889.84136	21212.25
893.64433	21134.55
897.44466	21100.95
901.24235	21064.85
905.0374	20990.45
908.8298	20996.65
912.61957	21089.55
916.40671	21494.45
920.19121	21964.25
923.97308	22236.85
927.75233	22066.55
931.52895	21632.85
935.30295	21099.65
939.07433	20608.25
942.84309	20241.25
946.60924	20010.85
950.37278	19929.25
954.13371	20001.75
957.89203	20021.95
961.64774	20099.15
965.40086	20092.35
969.15137	20011.15
972.89929	19809.65
976.64461	19618.45
980.38733	19574.75
984.12747	19560.85
987.86502	19589.95
991.59999	19707.15
995.33237	19817.95
999.06217	20093.25
1002.78939	20445.95
1006.51404	20780.15
1010.23611	21080.65
1013.95561	21414.05
1017.67255	21416.05
1021.38692	21295.55
1025.09872	20953.05
1028.80796	20756.95
1032.51465	20655.75
1036.21877	20743.95
1039.92035	20880.55
1043.61937	20979.55
1047.31584	21069.15
1051.00976	21119.25
1054.70114	21261.35
1058.38998	21527.05
1062.07627	21887.85
1065.76003	22364.85
1069.44126	22732.95
1073.11995	23111.25
1076.79611	23341.15
1080.46974	23463.45
1084.14085	23496.95
1087.80943	23746.05
1091.47549	24041.35
1095.13903	24252.35
1098.80005	23972.85
1102.45857	23225.25
1106.11456	22543.15
1109.76805	22103.45
1113.41903	22040.75
1117.06751	22170.25
1120.71348	22400.75
1124.35696	22709.95
1127.99793	23071.85
1131.63641	23339.65
1135.2724	23325.95
1138.90589	23375.05
1142.5369	23581.05
1146.16542	24020.65
1149.79145	24502.55
1153.415	25014.05
1157.03607	25605.25
1160.65467	26669.45
1164.27079	28242.45
1167.88443	30047.55
1171.49561	31857.25
1175.10432	33741.25
1178.71056	36127.95
1182.31434	38293.05
1185.91565	39379.55
1189.51451	39408.15
1193.11091	38838.95
1196.70485	37790.25
1200.29634	36487.45
1203.88538	35661.15
1207.47197	35593.35
1211.05612	35679.55
1214.63782	35123.55
1218.21708	33711.05
1221.79391	31932.35
1225.36829	30562.75
1228.94024	29710.45
1232.50976	29218.55
1236.07685	28883.65
1239.6415	28720.05
1243.20374	28875.85
1246.76355	29136.85
1250.32093	29629.35
1253.8759	30335.75
1257.42845	31250.35
1260.97859	32221.75
1264.52631	33157.55
1268.07163	34194.05
1271.61453	35197.65
1275.15503	36336.05
1278.69312	37721.25
1282.22882	39294.45
1285.76211	41139.75
1289.29301	43525.35
1292.82151	46316.25
1296.34761	49537.65
1299.87133	52992.95
1303.39266	55963.55
1306.9116	58034.55
1310.42815	59064.65
1313.94233	59236.05
1317.45412	58963.75
1320.96354	58638.65
1324.47058	58789.85
1327.97525	59219.55
1331.47754	59571.25
1334.97747	59491.45
1338.47502	59046.15
1341.97022	58173.35
1345.46305	56946.05
1348.95352	55574.05
1352.44163	54298.55
1355.92738	53780.75
1359.41078	54211.85
1362.89183	54583.25
1366.37053	53561.75
1369.84688	50118.55
1373.32088	45578.95
1376.79254	42362.85
1380.26186	41636.65
1383.72883	42336.95
1387.19347	43089.65
1390.65578	43241.75
1394.11575	43374.55
1397.57339	43854.45
1401.0287	44586.95
1404.48168	44957.05
1407.93234	44365.65
1411.38068	42649.95
1414.82669	40327.95
1418.27039	37895.15
1421.71177	35601.15
1425.15083	33950.45
1428.58758	33187.65
1432.02203	33553.25
1435.45416	34653.85
1438.88399	36094.35
1442.31151	37296.55
1445.73673	38083.65
1449.15965	38853.15
1452.58027	39398.65
1455.9986	39659.25
1459.41463	39892.65
1462.82837	40401.55
1466.23982	40858.85
1469.64898	41247.35
1473.05586	41384.25
1476.46045	41162.95
1479.86276	40652.15
1483.26279	40024.05
1486.66054	39594.55
1490.05602	39659.55
1493.44922	40018.05
1496.84016	40523.55
1500.22882	41284.95
1503.61521	42248.15
1506.99934	43281.35
1510.38121	44152.45
1513.76081	44527.15
1517.13816	44298.45
1520.51324	43989.05
1523.88607	44062.05
1527.25665	44607.25
1530.62498	44968.65
1533.99105	44888.05
1537.35488	43997.75
1540.71647	42596.55
1544.07581	40777.95
1547.4329	39010.35
1550.78776	37609.85
1554.14038	36679.25
1557.49077	36150.85
1560.83892	35871.95
1564.18484	35769.15
1567.52853	35866.95
1570.86999	36327.25
1574.20922	37479.65
1577.54624	38709.15
1580.88103	39679.15
1584.2136	40778.15
1587.54395	42275.65
1590.87208	44364.65
1594.19801	46432.65
1597.52172	48092.35
1600.84321	47733.55
1604.16251	44848.55
1607.47959	40699.05
1610.79447	36706.75
1614.10715	33256.15
1617.41763	30460.65
1620.7259	28571.65
1624.03199	27601.15
1627.33587	27634.35
1630.63757	28726.45
1633.93707	31075.85
1637.23439	34955.85
1640.52951	40465.75
1643.82246	46867.25
1647.11321	51800.05
1650.40179	52611.35
1653.68819	48533.25
1656.97241	41516.25
1660.25446	34477.55
1663.53433	29067.25
1666.81203	25392.15
1670.08756	23023.15
1673.36092	21560.65
1676.63211	20580.85
1679.90115	19936.05
1683.16801	19437.15
1686.43272	19088.65
1689.69527	18809.25
1692.95567	18634.15
1696.2139	18504.55
1699.46999	18337.45
1702.72392	18213.55
1705.97571	18116.85
1709.22535	18002.75
1712.47284	17923.35
1715.71819	17872.45
1718.96139	17775.15
1722.20246	17688.25
1725.44139	17592.75
1728.67818	17474.45
1731.91284	17313.35
1735.14537	17196.35
1738.37576	17129.55
1741.60403	17055.75
1744.83017	16978.65
1748.05418	16935.05
1751.27607	16866.65
1754.49584	16831.25
1757.71349	16827.35
1760.92903	16808.55
1764.14244	16788.25
1767.35375	16723.85
1770.56294	16690.15
1773.77002	16626.75
1776.97499	16559.45
1780.17785	16507.95
1783.37861	16488.95
1786.57727	16407.25
1789.77382	16363.65
1792.96828	16355.25
1796.16064	16293.05
1799.3509	16222.25
1802.53907	16178.25
1805.72514	16120.45
1808.90913	16116.05
1812.09102	16065.75
1815.27083	16033.15
1818.44856	16005.55
1821.6242	15945.95
1824.79776	15943.05
1827.96924	15928.45
1831.13864	15883.15
1834.30597	15902.65
1837.47122	15922.65
1840.6344	15925.25
1843.7955	15908.55
1846.95454	15870.05
1850.11151	15878.45
1853.26642	15870.55
1856.41926	15808.25
1859.57004	15821.25
1862.71876	15746.45
1865.86542	15714.25
1869.01003	15710.95
1872.15258	15679.45
1875.29308	15675.35
1878.43152	15622.15
1881.56792	15607.55
1884.70227	15551.05
1887.83457	15569.45
1890.96482	15527.25
1894.09304	15498.55
1897.21921	15487.05
1900.34335	15463.55
1903.46544	15446.85
1906.58551	15399.25
1909.70353	15363.55
1912.81953	15331.05
1915.93349	15282.25
1919.04543	15235.15
1922.15534	15194.25
1925.26322	15188.65
1928.36908	15137.75
1931.47292	15108.45
1934.57473	15041.75
1937.67453	15013.45
1940.77232	14939.15
1943.86808	14915.95
1946.96184	14848.05
1950.05358	14827.55
1953.14331	14787.35
1956.23103	14739.45
1959.31675	14700.05
1962.40046	14673.55
1965.48217	14606.45
1968.56188	14542.85
1971.63959	14456.15
1974.7153	14460.85
1977.78901	14386.55
1980.86073	14337.65
1983.93046	14267.95
1986.99819	14220.25
1990.06394	14206.05
1993.1277	14134.65
1996.18947	14054.55
1999.24925	14043.85
2002.30706	14006.95
2005.36288	13961.85
2008.41672	13942.75
2011.46859	13870.65
2014.51848	13829.75
2017.56639	13769.85
2020.61233	13701.15
2023.6563	13716.85
2026.6983	13653.55
2029.73833	13641.95
2032.7764	13621.05
2035.8125	13595.05
2038.84664	13545.05
2041.87881	13526.55
2044.90903	13513.55
2047.93729	13488.55
2050.96359	13463.65
2053.98794	13431.55
2057.01034	13448.65
2060.03078	13399.35
2063.04927	13389.15
2066.06582	13378.85
2069.08042	13373.45
2072.09307	13364.95
2075.10378	13332.25
2078.11255	13327.65
2081.11938	13330.15
2084.12426	13291.65
2087.12722	13278.95
2090.12824	13266.25
2093.12732	13291.35
2096.12447	13303.55
2099.11969	13304.05
2102.11299	13277.45
2105.10435	13282.55
2108.09379	13285.45
2111.08131	13311.05
2114.0669	13312.55
2117.05057	13304.45
2120.03233	13315.15
2123.01216	13315.35
2125.99008	13307.95
2128.96609	13291.65
2131.94018	13262.75
2134.91236	13256.35
2137.88263	13292.45
2140.851	13286.45
2143.81746	13311.45
2146.78201	13288.05
2149.74466	13245.85
2152.7054	13250.15
2155.66425	13237.85
2158.6212	13241.05
2161.57625	13233.95
2164.52941	13217.85
2167.48067	13221.85
2170.43004	13181.55
2173.37752	13181.25
2176.32311	13171.05
2179.26681	13177.15
2182.20863	13130.05
2185.14856	13179.15
2188.08661	13144.25
2191.02278	13141.35
2193.95707	13135.95
2196.88948	13097.05
2199.82001	13106.45
2202.74867	13078.65
2205.67545	13043.25
2208.60037	13030.05
2211.52341	12995.75
2214.44458	12981.45
2217.36388	12965.55
2220.28132	12939.05
2223.1969	12918.65
2226.11061	12896.95
2229.02246	12872.45
2231.93245	12855.65
2234.84058	12827.95
2237.74686	12805.45
2240.65128	12787.75
2243.55385	12781.35
2246.45456	12750.75
2249.35343	12715.45
2252.25044	12651.45
2255.14561	12634.65
2258.03893	12637.55
2260.93041	12588.85
2263.82004	12537.85
2266.70783	12473.45
2269.59378	12450.95
2272.4779	12391.65
2275.36017	12376.65
2278.24061	12338.45
2281.11922	12307.95
2283.996	12297.95
2286.87094	12246.35
2289.74405	12248.75
2292.61534	12250.05
2295.4848	12213.75
2298.35243	12246.45
2301.21824	12212.25
2304.08223	12198.75
2306.94439	12196.05
2309.80474	12178.95
2312.66327	12148.25
2315.51999	12155.25
2318.37489	12118.05
2321.22797	12120.15
2324.07925	12092.85
2326.92871	12068.55
2329.77637	12052.05
2332.62222	12042.85
2335.46626	12030.65
2338.3085	12036.35
2341.14893	12008.95
2343.98756	11986.55
2346.8244	12015.15
2349.65943	12029.45
2352.49267	12005.75
2355.32411	11987.65
2358.15376	11998.45
2360.98161	11979.25
2363.80768	11978.55
2366.63195	11961.25
2369.45444	11933.45
2372.27514	11938.05
2375.09405	11913.55
2377.91118	11900.85
2380.72652	11857.05
2383.54009	11849.15
2386.35187	11825.15
2389.16188	11759.15
2391.97011	11782.35
2394.77657	11742.55
2397.58125	11716.15
2400.38416	11723.65
2403.18529	11665.15
2405.98466	11680.55
2408.78226	11648.75
2411.57809	11663.55
2414.37216	11633.75
2417.16446	11610.15
2419.955	11617.15
2422.74378	11630.15
2425.5308	11577.55
2428.31606	11596.25
2431.09956	11575.95
2433.88131	11543.75
2436.6613	11531.85
2439.43954	11562.25
2442.21603	11523.25
2444.99077	11523.15
2447.76377	11510.45
2450.53501	11505.85
2453.30451	11498.65
2456.07226	11491.65
2458.83827	11489.55
2461.60254	11502.95
2464.36507	11484.35
2467.12586	11470.15
2469.88492	11488.25
2472.64224	11469.05
2475.39782	11484.75
2478.15167	11477.55
2480.90379	11444.55
2483.65417	11467.35
2486.40283	11440.35
2489.14976	11470.15
2491.89497	11481.65
2494.63845	11465.25
2497.3802	11441.05
2500.12024	11458.15
2502.85855	11437.15
2505.59514	11449.85
2508.33002	11438.35
2511.06318	11458.25
2513.79462	11442.75
2516.52435	11417.25
2519.25237	11399.35
2521.97867	11415.55
2524.70327	11395.85
2527.42616	11375.65
2530.14734	11382.45
2532.86681	11356.55
2535.58458	11356.15
2538.30065	11365.95
2541.01501	11334.25
2543.72768	11303.85
2546.43864	11293.55
2549.14791	11272.85
2551.85548	11277.75
2554.56136	11257.45
2557.26554	11275.15
2559.96803	11256.15
2562.66883	11271.15
2565.36794	11275.95
2568.06536	11255.05
2570.7611	11233.35
2573.45514	11239.35
2576.14751	11207.55
2578.83819	11159.65
2581.52719	11181.15
2584.21451	11183.05
2586.90015	11169.45
2589.58411	11178.85
2592.2664	11147.35
2594.94701	11148.15
2597.62594	11142.15
2600.30321	11116.55
2602.9788	11137.55
2605.65273	11109.85
2608.32498	11121.15
2610.99557	11117.95
2613.66449	11148.15
2616.33175	11114.15
2618.99734	11134.45
2621.66128	11104.95
2624.32355	11112.65
2626.98416	11114.25
2629.64311	11079.75
2632.30041	11088.05
2634.95605	11095.75
2637.61004	11082.75
2640.26238	11079.05
2642.91306	11067.05
2645.56209	11071.75
2648.20948	11068.55
2650.85521	11076.55
2653.4993	11071.15
2656.14175	11071.45
2658.78255	11079.95
2661.42171	11070.45
2664.05923	11100.95
2666.6951	11102.55
2669.32934	11123.25
2671.96194	11093.25
2674.59291	11082.95
2677.22224	11101.85
2679.84993	11098.45
2682.476	11075.05
2685.10043	11088.85
2687.72324	11086.65
2690.34441	11078.95
2692.96396	11093.85
2695.58188	11075.45
2698.19818	11062.45
2700.81285	11096.75
2703.4259	11115.85
2706.03733	11145.95
2708.64714	11113.25
2711.25533	11109.85
2713.86191	11084.75
2716.46687	11133.95
2719.07021	11127.65
2721.67194	11156.65
2724.27206	11152.65
2726.87057	11165.95
2729.46747	11164.55
2732.06276	11155.85
2734.65644	11139.85
2737.24852	11155.15
2739.83899	11126.15
2742.42786	11139.45
2745.01513	11128.85
2747.60079	11104.05
2750.18486	11095.55
2752.76733	11132.65
2755.3482	11113.45
2757.92747	11138.05
2760.50515	11148.55
2763.08123	11134.05
2765.65573	11119.65
2768.22863	11111.95
2770.79994	11086.65
2773.36967	11091.25
2775.9378	11082.25
2778.50435	11107.65
2781.06932	11066.85
2783.6327	11105.45
2786.1945	11080.25
2788.75471	11075.65
2791.31335	11049.05
2793.87041	11056.95
2796.42589	11030.45
2798.97979	11054.15
2801.53212	10985.25
2804.08288	10999.95
2806.63206	10957.25
2809.17967	10964.75
2811.72571	10910.05
2814.27018	10911.55
2816.81308	10887.25
2819.35442	10860.65
2821.89419	10831.05
2824.43239	10830.65
2826.96904	10838.75
2829.50412	10819.25
2832.03763	10803.85
2834.56959	10812.25
2837.1	10803.85
2839.62884	10807.25
2842.15613	10785.05
2844.68186	10843.25
2847.20604	10845.05
2849.72867	10871.95
2852.24974	10880.75
2854.76927	10872.35
2857.28724	10843.15
2859.80367	10835.35
2862.31855	10828.25
2864.83189	10770.45
2867.34368	10779.95
2869.85393	10795.35
2872.36264	10745.85
2874.8698	10752.55
2877.37543	10757.25
2879.87952	10742.95
2882.38207	10724.85
2884.88308	10701.55
2887.38256	10710.65
2889.88051	10721.25
2892.37692	10724.85
2894.8718	10749.35
2897.36515	10721.75
2899.85698	10732.35
2902.34727	10750.95
2904.83604	10748.05
2907.32328	10765.35
2909.809	10762.35
2912.29319	10766.15
2914.77587	10767.85
2917.25702	10750.45
2919.73665	10739.05
2922.21476	10744.85
2924.69136	10760.75
2927.16644	10759.85
2929.64	10765.25
2932.11205	10757.45
2934.58258	10751.15
2937.05161	10763.55
2939.51912	10737.25
2941.98513	10712.15
2944.44962	10623.35
2946.91261	10599.55
2949.37409	10593.35
2951.83407	10574.15
2954.29254	10568.75
2956.74951	10547.75
2959.20498	10530.55
2961.65895	10504.45
2964.11142	10504.85
2966.56239	10467.05
2969.01186	10459.65
2971.45984	10440.95
2973.90632	10428.65
2976.35131	10388.25
2978.7948	10356.85
2981.23681	10319.05
2983.67732	10286.35
2986.11635	10277.65
2988.55388	10249.55
2990.98993	10218.15
2993.4245	10193.35
2995.85758	10157.75
2998.28917	10120.15
3000.71928	10125.15
3003.14791	10106.35
3005.57506	10070.95
3008.00073	10010.05
3010.42493	9992.15
3012.84764	9970.65
3015.26888	9967.85
3017.68865	9948.65
3020.10694	9931.05
3022.52376	9914.15
3024.9391	9886.55
3027.35298	9865.15
3029.76539	9854.45
3032.17632	9851.95
3034.5858	9820.55
3036.9938	9850.85
3039.40034	9839.95
3041.80542	9829.35
3044.20903	9788.45
3046.61118	9766.75
3049.01187	9775.05
3051.4111	9729.45
3053.80888	9719.25
3056.20519	9701.15
3058.60005	9683.25
3060.99345	9618.75
3063.3854	9620.85
3065.7759	9582.25
3068.16494	9561.05
3070.55254	9516.05
3072.93868	9497.85
3075.32338	9449.95
3077.70662	9438.25
3080.08842	9395.85
3082.46878	9389.25
3084.84769	9372.55
3087.22515	9371.05
3089.60118	9352.65
3091.97576	9355.65
3094.3489	9328.65
3096.72061	9314.45
3099.09087	9325.95
3101.4597	9283.35
3103.82709	9289.45
3106.19305	9276.95
3108.55757	9282.35
3110.92066	9227.15
3113.28232	9191.05
3115.64255	9175.75
3118.00134	9124.95
3120.35871	9110.45
3122.71466	9127.35
3125.06917	9107.45
3127.42226	9093.45
3129.77393	9073.15
3132.12417	9052.85
3134.47299	9056.25
3136.82039	9037.15
3139.16636	9043.85
3141.51092	9030.15
3143.85406	9034.55
3146.19579	9041.75
3148.53609	9016.75
3150.87499	9039.75
3153.21246	9027.05
3155.54853	9045.05
3157.88318	9002.95
3160.21642	9007.25
3162.54826	9001.75
3164.87868	8993.95
3167.2077	8989.95
3169.5353	8991.95
3171.86151	9008.85
3174.18631	8961.05
3176.5097	8975.65
3178.83169	8946.75
3181.15228	8970.85
3183.47147	8927.65
3185.78926	8934.45
3188.10565	8919.55
3190.42065	8910.15
3192.73424	8904.65
3195.04645	8873.25
3197.35725	8873.65
3199.66667	8862.55
3201.97469	8873.75
3204.28132	8836.15
3206.58656	8858.35
3208.8904	8830.85
3211.19287	8825.95
3213.49394	8850.05
3215.79363	8830.45
3218.09193	8829.75
3220.38884	8806.95
3222.68438	8819.85
3224.97853	8834.05
3227.2713	8807.75
3229.56269	8808.05
3231.8527	8776.25
3234.14133	8771.65
3236.42858	8769.65
3238.71446	8770.65
3240.99896	8751.85
3243.28209	8716.85
3245.56384	8722.25
3247.84423	8719.75
3250.12324	8691.35
3252.40088	8694.85
3254.67715	8666.65
3256.95205	8665.95
3259.22558	8630.55
3261.49775	8601.25
3263.76855	8586.85
3266.03799	8542.35
3268.30606	8539.55
3270.57277	8521.25
3272.83812	8520.05
3275.10211	8505.05
3277.36474	8469.75
3279.62601	8445.25
3281.88593	8480.95
3284.14448	8496.45
3286.40168	8487.95
3288.65753	8479.95
3290.91202	8450.25
3293.16516	8422.65
3295.41695	8404.65
3297.66738	8344.05
3299.91647	8303.75
3302.16421	8236.85
3304.4106	8207.05
3306.65564	8134.85
3308.89933	8101.15
3311.14169	8028.85
3313.38269	7992.85
3315.62236	7927.55
3317.86068	7855.85
3320.09766	7773.15
3322.3333	7698.15
3324.5676	7691.05
3326.80056	7589.35
3329.03219	7536.55
3331.26248	3.25
3333.49143	-0.65
3335.71905	0.25
