Data from AgNPs_FTO_APTES_UA_2uM_CRN_10uM_R6G_10uM_NaF_0.1M_Addition_RamanShift__2__13-20-25-139.txt Node

Date: Wed Feb 02 13:20:25 GMT 2022
User: TCL
Spectrometer: QEP01345
Trigger mode: 4
Integration Time (sec): 7.000000E0
Scans to average: 10
Electric dark correction enabled: true
Nonlinearity correction enabled: false
Boxcar width: 0
XAxis mode: Raman Shifts
Number of Pixels in Spectrum: 1044
>>>>>Begin Spectral Data<<<<<
46.04893	0.25
50.45542	0.15
54.85868	-0.95
59.25871	-1.85
63.6555	86.45
68.04907	90.45
72.43941	92.35
76.82654	98.45
81.21044	106.45
85.59113	109.55
89.96862	111.25
94.34289	114.25
98.71396	118.85
103.08183	124.05
107.4465	126.45
111.80798	127.65
116.16626	136.05
120.52136	137.45
124.87327	141.15
129.222	149.25
133.56755	163.85
137.90993	171.25
142.24913	192.15
146.58517	217.35
150.91804	250.55
155.24774	300.75
159.57429	373.55
163.89768	488.75
168.21792	635.85
172.53501	884.75
176.84895	1227.65
181.15975	1724.55
185.46741	2410.45
189.77193	3331.55
194.07331	4465.05
198.37157	5758.85
202.6667	7124.95
206.9587	8482.45
211.24758	9832.85
215.53334	11147.65
219.81599	12601.25
224.09553	14211.95
228.37195	15969.15
232.64527	17917.55
236.91549	19900.55
241.18261	21889.55
245.44663	23619.55
249.70755	25240.35
253.96539	26609.65
258.22014	27832.45
262.4718	28794.35
266.72039	29517.95
270.96589	29889.15
275.20832	29863.75
279.44768	29608.15
283.68397	29267.05
287.91719	28933.55
292.14735	28820.05
296.37445	28816.35
300.59849	28989.45
304.81948	29374.45
309.03742	29546.95
313.25231	29450.05
317.46415	28922.25
321.67296	28150.35
325.87872	27410.45
330.08145	27088.15
334.28114	27087.55
338.47781	27252.25
342.67145	27508.95
346.86207	28032.55
351.04966	28667.95
355.23424	29385.35
359.4158	29948.55
363.59435	30293.25
367.76989	30611.55
371.94243	30803.15
376.11196	30936.65
380.27849	31037.25
384.44203	31133.95
388.60257	31344.55
392.76012	31569.15
396.91468	31958.65
401.06626	32486.65
405.21485	32862.75
409.36047	32769.85
413.50311	32270.35
417.64277	31924.55
421.77947	31765.25
425.9132	31724.95
430.04396	31776.35
434.17176	31925.85
438.2966	32201.15
442.41849	32780.35
446.53742	33755.75
450.6534	34830.55
454.76644	35507.75
458.87653	35689.85
462.98368	35348.45
467.08789	34811.55
471.18916	34234.55
475.2875	33661.85
479.38291	33281.25
483.4754	33098.75
487.56496	32806.45
491.6516	32420.55
495.73531	32006.35
499.81612	31813.25
503.89401	31894.65
507.96899	31919.95
512.04106	31801.85
516.11023	31681.15
520.1765	31533.85
524.23987	31456.55
528.30034	31308.65
532.35792	31095.85
536.41261	30636.25
540.46441	30214.05
544.51333	30115.95
548.55936	30377.75
552.60252	30945.05
556.64279	31741.55
560.6802	32313.75
564.71473	32606.85
568.7464	33172.75
572.7752	33919.95
576.80114	34433.15
580.82422	35000.15
584.84444	36009.55
588.86181	37406.95
592.87633	38559.45
596.888	38555.75
600.89682	37549.65
604.9028	37851.65
608.90594	41254.85
612.90624	45379.35
616.90371	43095.25
620.89834	35753.55
624.89015	32441.75
628.87913	31966.95
632.86528	31976.75
636.84862	31766.15
640.82913	31121.65
644.80683	30236.45
648.78172	29842.35
652.75379	29828.85
656.72306	30365.75
660.68952	30994.35
664.65319	30819.75
668.61405	30152.25
672.57211	30036.75
676.52738	30162.65
680.47986	30086.95
684.42955	29835.15
688.37646	29708.15
692.32058	29993.75
696.26192	30478.95
700.20048	30938.45
704.13626	31211.15
708.06928	31091.15
711.99952	30862.45
715.927	30915.95
719.85171	31128.65
723.77365	31062.75
727.69284	30622.65
731.60928	30265.35
735.52295	30092.75
739.43388	30082.75
743.34206	30212.05
747.24749	30364.55
751.15017	30596.75
755.05012	31072.15
758.94733	31987.85
762.8418	33461.85
766.73354	35801.85
770.62254	38169.45
774.50882	38872.85
778.39237	37426.45
782.27321	34970.45
786.15132	32707.35
790.02671	31304.85
793.89938	30650.25
797.76935	30398.85
801.6366	30304.15
805.50115	30190.85
809.36299	30024.75
813.22213	29829.05
817.07857	29682.85
820.93231	29605.65
824.78336	29576.65
828.63172	29591.65
832.47738	29658.45
836.32036	29775.25
840.16066	29971.25
843.99827	30098.75
847.8332	30045.65
851.66546	29828.45
855.49504	29715.15
859.32195	29758.95
863.1462	29633.55
866.96777	29506.65
870.78668	29440.85
874.60293	29419.55
878.41652	29465.95
882.22745	29551.75
886.03573	29649.35
889.84136	29670.85
893.64433	29499.95
897.44466	29334.15
901.24235	29263.65
905.0374	29202.35
908.8298	29207.25
912.61957	29255.45
916.40671	29463.85
920.19121	29847.65
923.97308	30251.05
927.75233	30520.15
931.52895	30533.35
935.30295	30162.85
939.07433	29624.95
942.84309	29220.75
946.60924	29035.85
950.37278	28971.45
954.13371	28870.45
957.89203	28742.05
961.64774	28661.95
965.40086	28660.45
969.15137	28656.35
972.89929	28630.15
976.64461	28665.55
980.38733	28787.25
984.12747	28869.15
987.86502	29199.45
991.59999	29638.25
995.33237	30118.35
999.06217	30936.35
1002.78939	31898.75
1006.51404	32406.55
1010.23611	32720.65
1013.95561	32948.75
1017.67255	32863.15
1021.38692	32407.55
1025.09872	32076.75
1028.80796	32379.75
1032.51465	33448.35
1036.21877	34635.95
1039.92035	35002.45
1043.61937	34517.25
1047.31584	33629.05
1051.00976	32647.95
1054.70114	32014.75
1058.38998	31840.45
1062.07627	31815.75
1065.76003	31911.85
1069.44126	32104.85
1073.11995	32562.35
1076.79611	32996.65
1080.46974	33320.75
1084.14085	33654.35
1087.80943	34036.75
1091.47549	34271.85
1095.13903	34248.25
1098.80005	33703.55
1102.45857	33020.35
1106.11456	32548.65
1109.76805	32338.25
1113.41903	32369.05
1117.06751	32512.95
1120.71348	32804.15
1124.35696	33158.15
1127.99793	33616.95
1131.63641	33785.65
1135.2724	33499.25
1138.90589	33169.75
1142.5369	33045.15
1146.16542	33094.25
1149.79145	33213.45
1153.415	33435.25
1157.03607	33814.85
1160.65467	34690.55
1164.27079	36072.15
1167.88443	37791.55
1171.49561	39845.75
1175.10432	42567.95
1178.71056	46182.05
1182.31434	49443.35
1185.91565	50886.35
1189.51451	50283.35
1193.11091	48395.25
1196.70485	46385.75
1200.29634	44713.05
1203.88538	43590.05
1207.47197	42797.25
1211.05612	42089.15
1214.63782	41263.25
1218.21708	40563.05
1221.79391	40007.85
1225.36829	39582.15
1228.94024	39068.25
1232.50976	38261.25
1236.07685	37646.85
1239.6415	37327.05
1243.20374	37394.15
1246.76355	37786.95
1250.32093	38535.95
1253.8759	39425.85
1257.42845	40489.85
1260.97859	41711.25
1264.52631	42869.55
1268.07163	44158.75
1271.61453	45540.55
1275.15503	46955.95
1278.69312	48309.65
1282.22882	49393.65
1285.76211	50757.65
1289.29301	52230.95
1292.82151	54211.95
1296.34761	56749.85
1299.87133	60116.25
1303.39266	64138.45
1306.9116	68126.75
1310.42815	71408.25
1313.94233	72927.05
1317.45412	71974.45
1320.96354	69573.05
1324.47058	67169.95
1327.97525	65115.45
1331.47754	63655.35
1334.97747	62661.95
1338.47502	61729.75
1341.97022	60446.55
1345.46305	59109.65
1348.95352	58665.65
1352.44163	59526.35
1355.92738	62307.45
1359.41078	66770.15
1362.89183	70662.45
1366.37053	70241.25
1369.84688	64370.25
1373.32088	56701.25
1376.79254	51400.15
1380.26186	49398.45
1383.72883	49172.65
1387.19347	48897.25
1390.65578	48104.75
1394.11575	47632.75
1397.57339	47787.25
1401.0287	48494.35
1404.48168	49026.05
1407.93234	49072.15
1411.38068	48399.45
1414.82669	47244.95
1418.27039	45810.55
1421.71177	44169.65
1425.15083	42777.55
1428.58758	42145.75
1432.02203	42624.85
1435.45416	43762.15
1438.88399	44957.55
1442.31151	45775.95
1445.73673	46172.05
1449.15965	46474.85
1452.58027	46514.15
1455.9986	46108.65
1459.41463	45925.05
1462.82837	46360.95
1466.23982	47306.85
1469.64898	48289.05
1473.05586	49024.65
1476.46045	49338.75
1479.86276	49416.15
1483.26279	49260.55
1486.66054	49087.95
1490.05602	49417.15
1493.44922	49989.05
1496.84016	50652.15
1500.22882	51588.05
1503.61521	53176.95
1506.99934	55126.95
1510.38121	56955.65
1513.76081	57757.45
1517.13816	56622.35
1520.51324	54103.15
1523.88607	51731.15
1527.25665	50255.35
1530.62498	49614.75
1533.99105	49109.55
1537.35488	48409.45
1540.71647	47511.05
1544.07581	46478.55
1547.4329	45493.15
1550.78776	44671.65
1554.14038	44133.85
1557.49077	43828.65
1560.83892	43721.25
1564.18484	43757.75
1567.52853	43980.65
1570.86999	44474.15
1574.20922	45169.75
1577.54624	45714.05
1580.88103	45820.55
1584.2136	46218.35
1587.54395	47664.85
1590.87208	50329.85
1594.19801	53691.05
1597.52172	56616.05
1600.84321	57161.85
1604.16251	54466.85
1607.47959	49820.55
1610.79447	45056.15
1614.10715	41036.15
1617.41763	38139.65
1620.7259	36458.95
1624.03199	35757.25
1627.33587	36113.15
1630.63757	37205.75
1633.93707	39377.25
1637.23439	42840.55
1640.52951	47831.85
1643.82246	53996.75
1647.11321	59082.35
1650.40179	60184.85
1653.68819	56165.25
1656.97241	48920.15
1660.25446	41841.75
1663.53433	36798.95
1666.81203	33633.35
1670.08756	31753.85
1673.36092	30611.95
1676.63211	29856.55
1679.90115	29326.55
1683.16801	28924.25
1686.43272	28639.55
1689.69527	28413.55
1692.95567	28275.15
1696.2139	28205.45
1699.46999	28163.55
1702.72392	28130.85
1705.97571	28067.65
1709.22535	28008.25
1712.47284	27920.45
1715.71819	27916.75
1718.96139	27878.15
1722.20246	27789.45
1725.44139	27692.75
1728.67818	27569.55
1731.91284	27415.35
1735.14537	27287.05
1738.37576	27207.25
1741.60403	27139.15
1744.83017	27042.95
1748.05418	26996.85
1751.27607	26993.05
1754.49584	26930.05
1757.71349	26927.75
1760.92903	26898.65
1764.14244	26852.85
1767.35375	26810.35
1770.56294	26850.35
1773.77002	26791.35
1776.97499	26754.45
1780.17785	26698.65
1783.37861	26652.75
1786.57727	26616.45
1789.77382	26551.85
1792.96828	26527.55
1796.16064	26558.75
1799.3509	26533.15
1802.53907	26443.85
1805.72514	26388.45
1808.90913	26341.05
1812.09102	26256.65
1815.27083	26281.65
1818.44856	26235.35
1821.6242	26206.75
1824.79776	26160.25
1827.96924	26122.85
1831.13864	26132.75
1834.30597	26104.45
1837.47122	26102.65
1840.6344	26104.25
1843.7955	26147.55
1846.95454	26127.55
1850.11151	26106.25
1853.26642	26126.75
1856.41926	26074.45
1859.57004	26088.75
1862.71876	26079.95
1865.86542	26051.85
1869.01003	26063.25
1872.15258	26246.25
1875.29308	26073.95
1878.43152	26017.05
1881.56792	26013.45
1884.70227	25991.35
1887.83457	25939.15
1890.96482	25938.85
1894.09304	25949.15
1897.21921	25915.75
1900.34335	25889.05
1903.46544	25901.25
1906.58551	25817.85
1909.70353	25780.35
1912.81953	25758.85
1915.93349	25701.15
1919.04543	25697.15
1922.15534	25641.45
1925.26322	25576.75
1928.36908	25544.15
1931.47292	25531.95
1934.57473	25429.35
1937.67453	25349.45
1940.77232	25305.15
1943.86808	25274.05
1946.96184	25208.25
1950.05358	25143.85
1953.14331	25085.25
1956.23103	25029.75
1959.31675	24967.75
1962.40046	24897.65
1965.48217	24845.35
1968.56188	24803.25
1971.63959	24730.95
1974.7153	24676.95
1977.78901	24646.55
1980.86073	24497.85
1983.93046	24456.05
1986.99819	24419.35
1990.06394	24366.95
1993.1277	24318.65
1996.18947	24207.65
1999.24925	24149.75
2002.30706	24055.45
2005.36288	23981.35
2008.41672	23930.55
2011.46859	23869.55
2014.51848	23848.55
2017.56639	23789.85
2020.61233	23733.05
2023.6563	23727.05
2026.6983	23667.85
2029.73833	23644.75
2032.7764	23569.25
2035.8125	23563.05
2038.84664	23523.65
2041.87881	23568.85
2044.90903	23487.05
2047.93729	23426.95
2050.96359	23437.15
2053.98794	23407.55
2057.01034	23405.45
2060.03078	23378.25
2063.04927	23383.95
2066.06582	23381.25
2069.08042	23313.65
2072.09307	23337.25
2075.10378	23320.75
2078.11255	23295.45
2081.11938	23295.15
2084.12426	23276.85
2087.12722	23246.15
2090.12824	23306.25
2093.12732	23276.65
2096.12447	23310.05
2099.11969	23370.35
2102.11299	23366.65
2105.10435	23351.85
2108.09379	23343.55
2111.08131	23375.05
2114.0669	23392.35
2117.05057	23415.95
2120.03233	23455.05
2123.01216	23462.15
2125.99008	23478.85
2128.96609	23487.55
2131.94018	23538.55
2134.91236	23529.55
2137.88263	23620.35
2140.851	23643.95
2143.81746	23662.55
2146.78201	23640.15
2149.74466	23689.35
2152.7054	23652.45
2155.66425	23626.85
2158.6212	23573.45
2161.57625	23604.15
2164.52941	23623.85
2167.48067	23641.25
2170.43004	23638.75
2173.37752	23587.85
2176.32311	23601.55
2179.26681	23639.75
2182.20863	23603.55
2185.14856	23651.15
2188.08661	23678.05
2191.02278	23689.95
2193.95707	23689.55
2196.88948	23643.95
2199.82001	23677.65
2202.74867	23704.05
2205.67545	23718.45
2208.60037	23642.15
2211.52341	23675.65
2214.44458	23640.45
2217.36388	23597.85
2220.28132	23572.25
2223.1969	23537.35
2226.11061	23581.75
2229.02246	23482.25
2231.93245	23460.05
2234.84058	23438.95
2237.74686	23410.75
2240.65128	23347.25
2243.55385	23333.35
2246.45456	23312.75
2249.35343	23314.85
2252.25044	23240.35
2255.14561	23211.25
2258.03893	23222.05
2260.93041	23170.05
2263.82004	23120.05
2266.70783	23081.85
2269.59378	22988.65
2272.4779	22961.65
2275.36017	22899.25
2278.24061	22911.55
2281.11922	22842.95
2283.996	22849.35
2286.87094	22818.85
2289.74405	22836.65
2292.61534	22844.05
2295.4848	22774.05
2298.35243	22820.25
2301.21824	22825.65
2304.08223	22874.85
2306.94439	22872.05
2309.80474	22863.25
2312.66327	22864.35
2315.51999	22846.95
2318.37489	22844.35
2321.22797	22802.65
2324.07925	22782.05
2326.92871	22757.05
2329.77637	22782.35
2332.62222	22774.35
2335.46626	22744.65
2338.3085	22727.75
2341.14893	22757.75
2343.98756	22785.55
2346.8244	22779.05
2349.65943	22779.15
2352.49267	22739.15
2355.32411	22745.95
2358.15376	22718.45
2360.98161	22685.35
2363.80768	22661.25
2366.63195	22656.45
2369.45444	22625.25
2372.27514	22586.15
2375.09405	22583.95
2377.91118	22538.75
2380.72652	22493.05
2383.54009	22450.35
2386.35187	22419.55
2389.16188	22402.05
2391.97011	22373.25
2394.77657	22303.65
2397.58125	22329.95
2400.38416	22323.55
2403.18529	22294.15
2405.98466	22263.35
2408.78226	22248.45
2411.57809	22205.25
2414.37216	22178.65
2417.16446	22177.95
2419.955	22170.05
2422.74378	22156.85
2425.5308	22143.75
2428.31606	22151.35
2431.09956	22110.95
2433.88131	22078.15
2436.6613	22053.05
2439.43954	22078.65
2442.21603	22022.55
2444.99077	22037.85
2447.76377	22009.65
2450.53501	21994.25
2453.30451	22028.75
2456.07226	22020.75
2458.83827	22027.75
2461.60254	22048.75
2464.36507	22065.95
2467.12586	22057.15
2469.88492	22053.05
2472.64224	22026.85
2475.39782	22051.55
2478.15167	22028.85
2480.90379	22054.15
2483.65417	22050.15
2486.40283	22091.15
2489.14976	22053.75
2491.89497	22102.95
2494.63845	22176.85
2497.3802	22102.35
2500.12024	22121.95
2502.85855	22114.35
2505.59514	22097.95
2508.33002	22067.35
2511.06318	22078.85
2513.79462	22026.95
2516.52435	21955.85
2519.25237	21988.25
2521.97867	22002.25
2524.70327	21986.15
2527.42616	21972.75
2530.14734	21986.95
2532.86681	21926.85
2535.58458	21915.95
2538.30065	21866.35
2541.01501	21886.85
2543.72768	21849.35
2546.43864	21852.95
2549.14791	21812.25
2551.85548	21850.75
2554.56136	21836.45
2557.26554	21842.65
2559.96803	21806.35
2562.66883	21809.55
2565.36794	21789.95
2568.06536	21761.05
2570.7611	21767.65
2573.45514	21714.65
2576.14751	21721.55
2578.83819	21743.75
2581.52719	21727.15
2584.21451	21683.85
2586.90015	21669.25
2589.58411	21648.65
2592.2664	21666.45
2594.94701	21640.05
2597.62594	21644.75
2600.30321	21591.25
2602.9788	21552.85
2605.65273	21552.15
2608.32498	21547.65
2610.99557	21539.65
2613.66449	21576.95
2616.33175	21564.05
2618.99734	21563.65
2621.66128	21554.95
2624.32355	21563.25
2626.98416	21540.05
2629.64311	21531.25
2632.30041	21498.75
2634.95605	21479.05
2637.61004	21472.65
2640.26238	21428.55
2642.91306	21418.45
2645.56209	21336.45
2648.20948	21354.45
2650.85521	21371.85
2653.4993	21408.85
2656.14175	21404.05
2658.78255	21438.65
2661.42171	21388.25
2664.05923	21444.15
2666.6951	21463.75
2669.32934	21467.25
2671.96194	21500.75
2674.59291	21442.55
2677.22224	21476.05
2679.84993	21497.05
2682.476	21442.95
2685.10043	21431.05
2687.72324	21448.75
2690.34441	21465.25
2692.96396	21440.45
2695.58188	21453.75
2698.19818	21402.65
2700.81285	21448.55
2703.4259	21442.55
2706.03733	21477.15
2708.64714	21489.05
2711.25533	21504.35
2713.86191	21444.85
2716.46687	21486.25
2719.07021	21496.65
2721.67194	21543.45
2724.27206	21504.15
2726.87057	21511.95
2729.46747	21544.95
2732.06276	21561.05
2734.65644	21543.75
2737.24852	21541.55
2739.83899	21506.15
2742.42786	21500.35
2745.01513	21449.15
2747.60079	21492.55
2750.18486	21476.15
2752.76733	21514.35
2755.3482	21526.65
2757.92747	21524.35
2760.50515	21520.05
2763.08123	21507.35
2765.65573	21460.05
2768.22863	21427.55
2770.79994	21412.55
2773.36967	21410.35
2775.9378	21418.15
2778.50435	21389.85
2781.06932	21418.25
2783.6327	21387.45
2786.1945	21383.55
2788.75471	21386.95
2791.31335	21331.45
2793.87041	21281.05
2796.42589	21243.95
2798.97979	21229.95
2801.53212	21198.95
2804.08288	21185.35
2806.63206	21183.05
2809.17967	21135.55
2811.72571	21088.25
2814.27018	21066.95
2816.81308	21052.05
2819.35442	21000.25
2821.89419	20962.45
2824.43239	20944.85
2826.96904	20970.45
2829.50412	20969.55
2832.03763	20938.65
2834.56959	20932.85
2837.1	20918.05
2839.62884	20955.95
2842.15613	20930.95
2844.68186	20942.95
2847.20604	20974.15
2849.72867	20981.65
2852.24974	20946.75
2854.76927	20958.25
2857.28724	20929.75
2859.80367	20958.45
2862.31855	20878.55
2864.83189	20855.25
2867.34368	20827.45
2869.85393	20850.45
2872.36264	20840.55
2874.8698	20856.45
2877.37543	20843.75
2879.87952	20846.05
2882.38207	20849.45
2884.88308	20842.75
2887.38256	20900.45
2889.88051	20903.65
2892.37692	20943.55
2894.8718	20928.55
2897.36515	20944.15
2899.85698	20960.35
2902.34727	21005.35
2904.83604	20979.65
2907.32328	21033.15
2909.809	21043.05
2912.29319	20974.15
2914.77587	20928.35
2917.25702	20939.75
2919.73665	20925.95
2922.21476	20955.55
2924.69136	20955.65
2927.16644	20977.05
2929.64	20948.55
2932.11205	20944.45
2934.58258	20871.35
2937.05161	20894.15
2939.51912	20920.05
2941.98513	20910.95
2944.44962	20814.65
2946.91261	20788.55
2949.37409	20795.85
2951.83407	20792.35
2954.29254	20778.05
2956.74951	20760.95
2959.20498	20768.55
2961.65895	20749.45
2964.11142	20708.25
2966.56239	20675.75
2969.01186	20692.55
2971.45984	20641.55
2973.90632	20608.75
2976.35131	20597.25
2978.7948	20519.95
2981.23681	20487.15
2983.67732	20459.15
2986.11635	20456.75
2988.55388	20370.05
2990.98993	20394.05
2993.4245	20311.25
2995.85758	20241.65
2998.28917	20240.05
3000.71928	20230.15
3003.14791	20187.55
3005.57506	20195.65
3008.00073	20163.25
3010.42493	20151.95
3012.84764	20109.45
3015.26888	20089.75
3017.68865	20085.85
3020.10694	20004.15
3022.52376	20004.25
3024.9391	19949.25
3027.35298	19910.45
3029.76539	19914.25
3032.17632	19850.05
3034.5858	19852.05
3036.9938	19849.85
3039.40034	19857.65
3041.80542	19825.95
3044.20903	19774.15
3046.61118	19780.55
3049.01187	19713.95
3051.4111	19738.35
3053.80888	19728.05
3056.20519	19655.15
3058.60005	19585.45
3060.99345	19593.25
3063.3854	19557.35
3065.7759	19511.15
3068.16494	19473.05
3070.55254	19408.85
3072.93868	19391.55
3075.32338	19340.55
3077.70662	19326.35
3080.08842	19319.35
3082.46878	19259.25
3084.84769	19231.75
3087.22515	19242.45
3089.60118	19259.65
3091.97576	19218.05
3094.3489	19208.25
3096.72061	19163.85
3099.09087	19250.65
3101.4597	19208.55
3103.82709	19242.55
3106.19305	19189.05
3108.55757	19153.25
3110.92066	19087.55
3113.28232	19034.45
3115.64255	19020.15
3118.00134	18972.85
3120.35871	18945.55
3122.71466	18955.75
3125.06917	18911.45
3127.42226	18840.85
3129.77393	18866.65
3132.12417	18856.65
3134.47299	18842.05
3136.82039	18851.75
3139.16636	18880.65
3141.51092	18868.35
3143.85406	18882.45
3146.19579	18855.15
3148.53609	18846.75
3150.87499	18842.55
3153.21246	18838.75
3155.54853	18884.15
3157.88318	18852.55
3160.21642	18857.35
3162.54826	18798.85
3164.87868	18819.65
3167.2077	18817.35
3169.5353	18809.85
3171.86151	18791.65
3174.18631	18771.45
3176.5097	18778.15
3178.83169	18784.65
3181.15228	18769.05
3183.47147	18744.55
3185.78926	18758.25
3188.10565	18707.05
3190.42065	18718.55
3192.73424	18691.75
3195.04645	18679.45
3197.35725	18691.95
3199.66667	18709.05
3201.97469	18723.95
3204.28132	18688.65
3206.58656	18737.75
3208.8904	18720.75
3211.19287	18750.95
3213.49394	18756.75
3215.79363	18731.45
3218.09193	18715.45
3220.38884	18670.45
3222.68438	18712.05
3224.97853	18643.35
3227.2713	18690.45
3229.56269	18647.85
3231.8527	18625.85
3234.14133	18595.25
3236.42858	18565.65
3238.71446	18529.45
3240.99896	18512.25
3243.28209	18514.25
3245.56384	18541.75
3247.84423	18537.65
3250.12324	18517.35
3252.40088	18475.75
3254.67715	18454.45
3256.95205	18447.45
3259.22558	18423.95
3261.49775	18421.95
3263.76855	18354.45
3266.03799	18313.45
3268.30606	18326.15
3270.57277	18316.05
3272.83812	18299.05
3275.10211	18285.35
3277.36474	18272.75
3279.62601	18244.75
3281.88593	18209.65
3284.14448	18227.05
3286.40168	18217.35
3288.65753	18215.25
3290.91202	18148.35
3293.16516	18109.05
3295.41695	18082.55
3297.66738	18019.25
3299.91647	17955.15
3302.16421	17847.65
3304.4106	17764.95
3306.65564	17691.25
3308.89933	17546.75
3311.14169	17465.45
3313.38269	17383.25
3315.62236	17260.85
3317.86068	17156.05
3320.09766	16983.15
3322.3333	16800.55
3324.5676	16820.35
3326.80056	16563.75
3329.03219	16516.45
3331.26248	3.65
3333.49143	-0.05
3335.71905	-1.65
