Data from AgNPs_FTO_APTES_UA_2uM_CRN_2uM_R6G_10uM_NaF_0.1M_Addition_RamanShift__20__12-22-05-071.txt Node

Date: Wed Feb 02 12:22:05 GMT 2022
User: TCL
Spectrometer: QEP01345
Trigger mode: 4
Integration Time (sec): 7.000000E0
Scans to average: 10
Electric dark correction enabled: true
Nonlinearity correction enabled: false
Boxcar width: 0
XAxis mode: Raman Shifts
Number of Pixels in Spectrum: 1044
>>>>>Begin Spectral Data<<<<<
46.04893	1.35
50.45542	0.05
54.85868	-0.55
59.25871	-1.45
63.6555	105.35
68.04907	108.85
72.43941	109.45
76.82654	117.05
81.21044	120.65
85.59113	125.45
89.96862	131.15
94.34289	134.35
98.71396	137.95
103.08183	146.25
107.4465	143.95
111.80798	151.25
116.16626	158.95
120.52136	165.55
124.87327	175.15
129.222	184.35
133.56755	202.65
137.90993	225.35
142.24913	243.45
146.58517	284.65
150.91804	335.75
155.24774	415.25
159.57429	512.45
163.89768	672.85
168.21792	895.55
172.53501	1238.15
176.84895	1731.35
181.15975	2450.55
185.46741	3439.85
189.77193	4723.95
194.07331	6324.85
198.37157	8152.55
202.6667	10030.75
206.9587	11915.55
211.24758	13798.15
215.53334	15688.15
219.81599	17746.15
224.09553	20023.55
228.37195	22527.55
232.64527	25330.25
236.91549	28223.15
241.18261	31037.05
245.44663	33593.65
249.70755	35752.55
253.96539	37644.05
258.22014	39335.65
262.4718	40770.15
266.72039	41829.55
270.96589	42429.35
275.20832	42625.35
279.44768	42394.05
283.68397	42122.45
287.91719	41942.45
292.14735	41927.35
296.37445	42141.35
300.59849	42403.85
304.81948	42795.45
309.03742	42880.15
313.25231	42349.55
317.46415	41119.15
321.67296	39361.05
325.87872	37941.85
330.08145	37169.75
334.28114	37009.95
338.47781	37247.25
342.67145	37744.05
346.86207	38565.05
351.04966	39567.35
355.23424	40737.15
359.4158	41669.95
363.59435	42229.15
367.76989	42560.05
371.94243	42713.95
376.11196	42809.45
380.27849	42872.85
384.44203	43002.95
388.60257	43216.85
392.76012	43571.85
396.91468	44190.75
401.06626	45033.55
405.21485	45672.15
409.36047	45405.05
413.50311	44399.25
417.64277	43571.25
421.77947	43322.95
425.9132	43408.25
430.04396	43678.15
434.17176	43881.95
438.2966	44264.85
442.41849	45089.35
446.53742	46401.05
450.6534	47901.45
454.76644	49170.85
458.87653	49507.05
462.98368	49301.85
467.08789	48652.35
471.18916	47677.45
475.2875	46814.55
479.38291	46447.85
483.4754	46106.75
487.56496	45537.75
491.6516	44820.55
495.73531	44062.15
499.81612	43705.75
503.89401	43825.75
507.96899	43865.15
512.04106	43797.15
516.11023	43494.95
520.1765	43141.65
524.23987	42795.45
528.30034	42283.45
532.35792	41757.25
536.41261	41007.05
540.46441	40366.55
544.51333	40292.85
548.55936	40915.15
552.60252	42002.75
556.64279	43290.05
560.6802	44074.95
564.71473	44473.85
568.7464	45428.65
572.7752	46622.55
576.80114	47401.45
580.82422	47981.15
584.84444	48606.05
588.86181	49319.15
592.87633	50102.65
596.888	50709.45
600.89682	50907.65
604.9028	52860.65
608.90594	59095.75
612.90624	65946.65
616.90371	61852.75
620.89834	49440.65
624.89015	43840.45
628.87913	43221.95
632.86528	43260.85
636.84862	42895.55
640.82913	41899.05
644.80683	40400.25
648.78172	39194.25
652.75379	38988.55
656.72306	39693.55
660.68952	40713.85
664.65319	40599.25
668.61405	39606.05
672.57211	39176.05
676.52738	39187.15
680.47986	39147.25
684.42955	38885.85
688.37646	38782.75
692.32058	39001.95
696.26192	39466.55
700.20048	40051.35
704.13626	40475.15
708.06928	40326.85
711.99952	39911.45
715.927	39724.85
719.85171	39805.65
723.77365	39610.95
727.69284	39008.85
731.60928	38516.05
735.52295	38469.45
739.43388	38558.25
743.34206	38730.85
747.24749	38993.15
751.15017	39442.65
755.05012	40349.65
758.94733	41908.55
762.8418	44745.85
766.73354	49375.65
770.62254	53857.65
774.50882	55036.05
778.39237	51928.55
782.27321	47003.45
786.15132	42846.55
790.02671	40409.15
793.89938	39259.65
797.76935	38798.15
801.6366	38691.15
805.50115	38578.05
809.36299	38304.15
813.22213	37918.05
817.07857	37785.65
820.93231	37724.15
824.78336	37589.85
828.63172	37484.45
832.47738	37514.65
836.32036	37642.75
840.16066	37838.55
843.99827	38002.35
847.8332	37856.95
851.66546	37580.55
855.49504	37448.85
859.32195	37362.25
863.1462	37072.85
866.96777	36839.75
870.78668	36746.25
874.60293	36662.85
878.41652	36700.75
882.22745	36859.55
886.03573	37063.35
889.84136	37084.95
893.64433	36851.85
897.44466	36646.75
901.24235	36479.05
905.0374	36368.35
908.8298	36270.35
912.61957	36349.75
916.40671	36754.05
920.19121	37444.35
923.97308	38158.45
927.75233	38459.15
931.52895	38349.95
935.30295	37782.75
939.07433	36849.35
942.84309	35974.25
946.60924	35621.95
950.37278	35455.95
954.13371	35265.05
957.89203	35050.75
961.64774	34960.85
965.40086	34886.35
969.15137	34670.65
972.89929	34519.55
976.64461	34414.75
980.38733	34397.85
984.12747	34610.05
987.86502	35010.45
991.59999	35697.95
995.33237	36670.55
999.06217	38160.45
1002.78939	39945.95
1006.51404	41044.25
1010.23611	41607.05
1013.95561	41908.35
1017.67255	41884.25
1021.38692	41277.75
1025.09872	40887.75
1028.80796	41408.95
1032.51465	43040.45
1036.21877	44713.95
1039.92035	44937.75
1043.61937	44040.45
1047.31584	42419.25
1051.00976	40656.95
1054.70114	39661.95
1058.38998	39466.55
1062.07627	39547.35
1065.76003	39762.05
1069.44126	40132.55
1073.11995	40678.85
1076.79611	41199.05
1080.46974	41551.55
1084.14085	42020.55
1087.80943	42633.85
1091.47549	43044.85
1095.13903	42848.15
1098.80005	42026.95
1102.45857	40894.55
1106.11456	40041.75
1109.76805	39787.95
1113.41903	39930.05
1117.06751	40368.55
1120.71348	40981.15
1124.35696	41688.15
1127.99793	42369.55
1131.63641	42671.55
1135.2724	42222.45
1138.90589	41616.35
1142.5369	41308.45
1146.16542	41191.35
1149.79145	41298.35
1153.415	41656.85
1157.03607	42301.75
1160.65467	43463.55
1164.27079	45356.15
1167.88443	48195.55
1171.49561	52016.05
1175.10432	57219.45
1178.71056	63825.55
1182.31434	69860.35
1185.91565	73095.15
1189.51451	73145.25
1193.11091	70524.35
1196.70485	66439.55
1200.29634	62491.05
1203.88538	59362.35
1207.47197	56997.45
1211.05612	55261.15
1214.63782	54202.25
1218.21708	53663.25
1221.79391	53396.05
1225.36829	53379.15
1228.94024	52787.15
1232.50976	51851.35
1236.07685	51052.55
1239.6415	50454.05
1243.20374	50212.75
1246.76355	50325.45
1250.32093	51140.25
1253.8759	52530.55
1257.42845	54409.05
1260.97859	56398.85
1264.52631	58163.35
1268.07163	60056.95
1271.61453	62140.45
1275.15503	64553.05
1278.69312	66940.75
1282.22882	68874.65
1285.76211	70783.55
1289.29301	72824.85
1292.82151	75295.55
1296.34761	78674.55
1299.87133	83206.35
1303.39266	88846.45
1306.9116	95693.45
1310.42815	102763.55
1313.94233	107465.65
1317.45412	107978.35
1320.96354	105573.35
1324.47058	102190.25
1327.97525	98896.25
1331.47754	96490.35
1334.97747	95286.45
1338.47502	94732.55
1341.97022	94157.95
1345.46305	92883.65
1348.95352	91052.45
1352.44163	89941.15
1355.92738	91630.45
1359.41078	96638.15
1362.89183	101966.35
1366.37053	100865.85
1369.84688	92059.85
1373.32088	81042.55
1376.79254	73241.15
1380.26186	69831.55
1383.72883	68887.95
1387.19347	68466.65
1390.65578	67791.25
1394.11575	67669.05
1397.57339	68629.65
1401.0287	70368.35
1404.48168	72023.15
1407.93234	72846.65
1411.38068	72383.35
1414.82669	70651.55
1418.27039	67662.15
1421.71177	64312.55
1425.15083	61596.55
1428.58758	60070.35
1432.02203	59887.35
1435.45416	60958.75
1438.88399	62423.95
1442.31151	63695.25
1445.73673	64788.75
1449.15965	65852.55
1452.58027	66517.65
1455.9986	66726.15
1459.41463	67166.25
1462.82837	68224.05
1466.23982	69658.35
1469.64898	70892.45
1473.05586	71689.75
1476.46045	71824.45
1479.86276	71543.65
1483.26279	71124.15
1486.66054	70925.95
1490.05602	71340.75
1493.44922	72213.15
1496.84016	73063.85
1500.22882	74415.75
1503.61521	76909.95
1506.99934	80146.05
1510.38121	83554.05
1513.76081	85213.65
1517.13816	83477.85
1520.51324	79301.15
1523.88607	74943.95
1527.25665	72046.65
1530.62498	70505.85
1533.99105	69618.05
1537.35488	68991.85
1540.71647	68192.45
1544.07581	67062.75
1547.4329	65707.05
1550.78776	64379.75
1554.14038	63544.35
1557.49077	63207.65
1560.83892	63151.05
1564.18484	63196.05
1567.52853	63234.45
1570.86999	63535.75
1574.20922	64103.75
1577.54624	64744.55
1580.88103	64755.45
1584.2136	64920.05
1587.54395	66746.95
1590.87208	70587.45
1594.19801	75744.15
1597.52172	80970.65
1600.84321	82809.65
1604.16251	78944.75
1607.47959	71947.05
1610.79447	64524.75
1614.10715	57926.45
1617.41763	52777.45
1620.7259	49447.15
1624.03199	47750.35
1627.33587	47856.35
1630.63757	49688.05
1633.93707	53273.75
1637.23439	58765.05
1640.52951	66060.35
1643.82246	74000.05
1647.11321	80028.65
1650.40179	81168.75
1653.68819	75740.15
1656.97241	65738.55
1660.25446	55435.75
1663.53433	47552.25
1666.81203	42482.15
1670.08756	39470.05
1673.36092	37461.05
1676.63211	36207.45
1679.90115	35294.75
1683.16801	34626.85
1686.43272	34162.75
1689.69527	33794.85
1692.95567	33584.75
1696.2139	33331.35
1699.46999	33235.95
1702.72392	33091.95
1705.97571	33002.55
1709.22535	32896.55
1712.47284	32831.75
1715.71819	32810.95
1718.96139	32628.25
1722.20246	32589.35
1725.44139	32415.85
1728.67818	32260.55
1731.91284	32032.45
1735.14537	31820.55
1738.37576	31686.75
1741.60403	31574.35
1744.83017	31477.85
1748.05418	31432.25
1751.27607	31351.05
1754.49584	31287.35
1757.71349	31250.95
1760.92903	31187.15
1764.14244	31212.45
1767.35375	31169.05
1770.56294	31112.05
1773.77002	31058.15
1776.97499	31004.55
1780.17785	30892.45
1783.37861	30865.35
1786.57727	30820.65
1789.77382	30794.95
1792.96828	30731.45
1796.16064	30670.05
1799.3509	30602.25
1802.53907	30580.75
1805.72514	30504.05
1808.90913	30427.05
1812.09102	30351.95
1815.27083	30319.05
1818.44856	30306.85
1821.6242	30209.35
1824.79776	30281.55
1827.96924	30253.15
1831.13864	30231.95
1834.30597	30224.85
1837.47122	30212.15
1840.6344	30222.05
1843.7955	30246.85
1846.95454	30245.55
1850.11151	30264.65
1853.26642	30241.45
1856.41926	30262.25
1859.57004	30263.55
1862.71876	30289.25
1865.86542	30318.45
1869.01003	30322.85
1872.15258	30339.15
1875.29308	30363.05
1878.43152	30360.95
1881.56792	30363.35
1884.70227	30392.35
1887.83457	30426.55
1890.96482	30467.55
1894.09304	30454.95
1897.21921	30416.35
1900.34335	30482.05
1903.46544	30453.95
1906.58551	30447.75
1909.70353	30404.75
1912.81953	30372.55
1915.93349	30333.15
1919.04543	30216.75
1922.15534	30187.75
1925.26322	30097.05
1928.36908	29930.15
1931.47292	29861.05
1934.57473	29680.15
1937.67453	29515.15
1940.77232	29407.65
1943.86808	29283.45
1946.96184	29169.45
1950.05358	29029.45
1953.14331	28871.05
1956.23103	28783.55
1959.31675	28731.65
1962.40046	28618.45
1965.48217	28508.65
1968.56188	28475.25
1971.63959	28372.45
1974.7153	28301.75
1977.78901	28223.25
1980.86073	28094.85
1983.93046	27968.05
1986.99819	27878.55
1990.06394	27758.05
1993.1277	27741.55
1996.18947	27625.55
1999.24925	27547.25
2002.30706	27472.15
2005.36288	27399.65
2008.41672	27331.05
2011.46859	27270.75
2014.51848	27155.95
2017.56639	27162.25
2020.61233	27103.05
2023.6563	27029.85
2026.6983	26988.75
2029.73833	26940.05
2032.7764	26932.35
2035.8125	26865.55
2038.84664	26786.85
2041.87881	26881.95
2044.90903	26795.65
2047.93729	26713.85
2050.96359	26695.25
2053.98794	26668.15
2057.01034	26659.35
2060.03078	26612.15
2063.04927	26544.95
2066.06582	26536.45
2069.08042	26533.95
2072.09307	26469.55
2075.10378	26461.25
2078.11255	26484.45
2081.11938	26448.75
2084.12426	26361.45
2087.12722	26386.25
2090.12824	26359.45
2093.12732	26344.75
2096.12447	26413.75
2099.11969	26386.75
2102.11299	26360.75
2105.10435	26395.55
2108.09379	26416.75
2111.08131	26441.55
2114.0669	26377.65
2117.05057	26402.55
2120.03233	26430.65
2123.01216	26467.55
2125.99008	26459.25
2128.96609	26485.95
2131.94018	26510.45
2134.91236	26483.25
2137.88263	26484.25
2140.851	26479.65
2143.81746	26514.95
2146.78201	26524.85
2149.74466	26559.65
2152.7054	26572.75
2155.66425	26594.55
2158.6212	26586.45
2161.57625	26591.25
2164.52941	26578.55
2167.48067	26533.05
2170.43004	26493.65
2173.37752	26491.15
2176.32311	26545.65
2179.26681	26563.35
2182.20863	26538.25
2185.14856	26586.15
2188.08661	26599.35
2191.02278	26617.15
2193.95707	26604.05
2196.88948	26578.35
2199.82001	26571.45
2202.74867	26602.15
2205.67545	26563.55
2208.60037	26566.35
2211.52341	26535.85
2214.44458	26549.65
2217.36388	26521.55
2220.28132	26494.55
2223.1969	26429.85
2226.11061	26359.15
2229.02246	26321.25
2231.93245	26339.85
2234.84058	26271.45
2237.74686	26186.25
2240.65128	26138.15
2243.55385	26120.35
2246.45456	26081.25
2249.35343	26021.05
2252.25044	25990.95
2255.14561	25934.15
2258.03893	25923.35
2260.93041	25886.45
2263.82004	25832.25
2266.70783	25749.85
2269.59378	25652.15
2272.4779	25622.75
2275.36017	25544.05
2278.24061	25491.25
2281.11922	25446.35
2283.996	25445.75
2286.87094	25431.95
2289.74405	25401.95
2292.61534	25368.05
2295.4848	25359.55
2298.35243	25360.35
2301.21824	25329.95
2304.08223	25365.45
2306.94439	25422.75
2309.80474	25477.55
2312.66327	25471.05
2315.51999	25463.55
2318.37489	25499.25
2321.22797	25464.15
2324.07925	25436.05
2326.92871	25399.65
2329.77637	25438.45
2332.62222	25423.65
2335.46626	25406.85
2338.3085	25393.85
2341.14893	25401.65
2343.98756	25473.05
2346.8244	25488.35
2349.65943	25526.05
2352.49267	25510.15
2355.32411	25535.65
2358.15376	25489.35
2360.98161	25516.65
2363.80768	25461.45
2366.63195	25414.15
2369.45444	25337.45
2372.27514	25270.65
2375.09405	25197.95
2377.91118	25108.15
2380.72652	25036.45
2383.54009	24970.55
2386.35187	24954.95
2389.16188	24897.05
2391.97011	24894.75
2394.77657	24876.45
2397.58125	24836.15
2400.38416	24790.95
2403.18529	24727.85
2405.98466	24690.35
2408.78226	24702.75
2411.57809	24623.85
2414.37216	24575.15
2417.16446	24565.95
2419.955	24527.75
2422.74378	24476.65
2425.5308	24430.35
2428.31606	24484.15
2431.09956	24449.35
2433.88131	24431.65
2436.6613	24421.75
2439.43954	24413.25
2442.21603	24465.05
2444.99077	24424.05
2447.76377	24424.25
2450.53501	24383.55
2453.30451	24441.15
2456.07226	24366.35
2458.83827	24395.05
2461.60254	24401.45
2464.36507	24385.85
2467.12586	24370.65
2469.88492	24388.65
2472.64224	24416.95
2475.39782	24422.95
2478.15167	24486.45
2480.90379	24448.05
2483.65417	24530.45
2486.40283	24503.85
2489.14976	24539.35
2491.89497	24557.85
2494.63845	24591.05
2497.3802	24580.65
2500.12024	24599.25
2502.85855	24589.65
2505.59514	24582.35
2508.33002	24540.25
2511.06318	24532.05
2513.79462	24475.45
2516.52435	24487.55
2519.25237	24429.85
2521.97867	24397.15
2524.70327	24368.25
2527.42616	24376.15
2530.14734	24348.25
2532.86681	24323.55
2535.58458	24325.85
2538.30065	24287.35
2541.01501	24316.15
2543.72768	24270.65
2546.43864	24294.15
2549.14791	24248.55
2551.85548	24259.45
2554.56136	24231.55
2557.26554	24249.05
2559.96803	24201.25
2562.66883	24220.45
2565.36794	24171.85
2568.06536	24156.85
2570.7611	24136.95
2573.45514	24138.15
2576.14751	24150.65
2578.83819	24130.05
2581.52719	24138.15
2584.21451	24121.85
2586.90015	24146.45
2589.58411	24123.15
2592.2664	24143.45
2594.94701	24126.15
2597.62594	24095.85
2600.30321	24059.15
2602.9788	24065.85
2605.65273	24041.05
2608.32498	24073.55
2610.99557	24073.85
2613.66449	24079.45
2616.33175	24108.45
2618.99734	24189.95
2621.66128	24106.55
2624.32355	24098.35
2626.98416	24143.65
2629.64311	24172.35
2632.30041	24197.15
2634.95605	24155.25
2637.61004	24131.45
2640.26238	24126.55
2642.91306	24164.65
2645.56209	24071.05
2648.20948	24032.55
2650.85521	24008.05
2653.4993	24018.15
2656.14175	23956.55
2658.78255	23954.65
2661.42171	23982.85
2664.05923	24029.05
2666.6951	24007.35
2669.32934	24074.05
2671.96194	24076.75
2674.59291	24062.55
2677.22224	24072.85
2679.84993	24041.75
2682.476	24031.75
2685.10043	24029.95
2687.72324	23981.85
2690.34441	23999.25
2692.96396	23985.55
2695.58188	23961.95
2698.19818	23921.85
2700.81285	23935.35
2703.4259	23934.95
2706.03733	23985.35
2708.64714	23920.15
2711.25533	23946.35
2713.86191	23979.65
2716.46687	24014.55
2719.07021	24018.55
2721.67194	24052.15
2724.27206	24009.25
2726.87057	24023.75
2729.46747	24019.95
2732.06276	24094.65
2734.65644	24065.25
2737.24852	24072.55
2739.83899	24032.05
2742.42786	24075.25
2745.01513	24041.95
2747.60079	24035.15
2750.18486	23981.95
2752.76733	23989.85
2755.3482	24024.55
2757.92747	23972.45
2760.50515	23929.25
2763.08123	23979.85
2765.65573	23968.95
2768.22863	23991.15
2770.79994	23941.35
2773.36967	23960.65
2775.9378	23964.85
2778.50435	23946.55
2781.06932	23971.55
2783.6327	23935.25
2786.1945	23919.35
2788.75471	23887.95
2791.31335	23830.25
2793.87041	23832.55
2796.42589	23763.35
2798.97979	23788.85
2801.53212	23760.55
2804.08288	23740.25
2806.63206	23646.95
2809.17967	23594.35
2811.72571	23570.35
2814.27018	23531.35
2816.81308	23527.55
2819.35442	23522.05
2821.89419	23501.95
2824.43239	23474.85
2826.96904	23465.65
2829.50412	23515.85
2832.03763	23464.05
2834.56959	23465.65
2837.1	23500.05
2839.62884	23413.05
2842.15613	23420.45
2844.68186	23480.15
2847.20604	23501.35
2849.72867	23517.05
2852.24974	23539.65
2854.76927	23523.35
2857.28724	23449.15
2859.80367	23445.15
2862.31855	23381.55
2864.83189	23411.95
2867.34368	23409.05
2869.85393	23389.25
2872.36264	23372.95
2874.8698	23432.65
2877.37543	23454.95
2879.87952	23469.85
2882.38207	23488.75
2884.88308	23405.25
2887.38256	23424.85
2889.88051	23436.45
2892.37692	23527.95
2894.8718	23494.05
2897.36515	23524.95
2899.85698	23518.45
2902.34727	23590.35
2904.83604	23583.15
2907.32328	23654.85
2909.809	23611.95
2912.29319	23642.55
2914.77587	23632.95
2917.25702	23622.35
2919.73665	23616.45
2922.21476	23640.85
2924.69136	23567.95
2927.16644	23600.45
2929.64	23499.55
2932.11205	23466.25
2934.58258	23357.25
2937.05161	23365.45
2939.51912	23349.55
2941.98513	23340.95
2944.44962	23275.55
2946.91261	23173.95
2949.37409	23246.45
2951.83407	23220.45
2954.29254	23181.55
2956.74951	23128.25
2959.20498	23125.35
2961.65895	23102.25
2964.11142	23065.35
2966.56239	22996.75
2969.01186	22940.75
2971.45984	22871.95
2973.90632	22818.05
2976.35131	22801.45
2978.7948	22747.15
2981.23681	22646.65
2983.67732	22576.15
2986.11635	22539.25
2988.55388	22431.55
2990.98993	22424.25
2993.4245	22370.05
2995.85758	22333.55
2998.28917	22274.15
3000.71928	22279.45
3003.14791	22199.15
3005.57506	22189.55
3008.00073	22113.15
3010.42493	22116.35
3012.84764	22071.25
3015.26888	22083.45
3017.68865	21982.85
3020.10694	21960.85
3022.52376	21919.15
3024.9391	21867.05
3027.35298	21864.55
3029.76539	21836.55
3032.17632	21823.95
3034.5858	21759.95
3036.9938	21735.55
3039.40034	21730.65
3041.80542	21723.55
3044.20903	21703.75
3046.61118	21660.55
3049.01187	21572.65
3051.4111	21616.75
3053.80888	21557.95
3056.20519	21475.55
3058.60005	21444.75
3060.99345	21375.25
3063.3854	21343.85
3065.7759	21230.25
3068.16494	21210.45
3070.55254	21129.45
3072.93868	21131.75
3075.32338	21076.85
3077.70662	21011.15
3080.08842	20932.55
3082.46878	20952.55
3084.84769	20877.15
3087.22515	20892.65
3089.60118	20876.25
3091.97576	20864.25
3094.3489	20827.15
3096.72061	20855.25
3099.09087	20801.25
3101.4597	20771.05
3103.82709	20756.85
3106.19305	20701.25
3108.55757	20691.65
3110.92066	20607.05
3113.28232	20607.35
3115.64255	20557.65
3118.00134	20500.35
3120.35871	20445.05
3122.71466	20438.55
3125.06917	20373.65
3127.42226	20313.25
3129.77393	20356.85
3132.12417	20344.85
3134.47299	20314.85
3136.82039	20293.55
3139.16636	20338.05
3141.51092	20278.85
3143.85406	20332.15
3146.19579	20304.95
3148.53609	20298.05
3150.87499	20298.25
3153.21246	20312.65
3155.54853	20322.25
3157.88318	20284.05
3160.21642	20296.75
3162.54826	20279.45
3164.87868	20247.65
3167.2077	20221.25
3169.5353	20224.35
3171.86151	20212.05
3174.18631	20182.45
3176.5097	20145.15
3178.83169	20126.15
3181.15228	20124.15
3183.47147	20092.25
3185.78926	20091.35
3188.10565	20069.65
3190.42065	20064.35
3192.73424	20064.65
3195.04645	20090.95
3197.35725	20090.45
3199.66667	20090.65
3201.97469	20090.95
3204.28132	20063.55
3206.58656	20068.15
3208.8904	20055.25
3211.19287	20104.55
3213.49394	20108.45
3215.79363	20138.15
3218.09193	20085.65
3220.38884	20076.85
3222.68438	20090.25
3224.97853	20056.75
3227.2713	20019.35
3229.56269	20004.15
3231.8527	19983.05
3234.14133	19918.25
3236.42858	19959.05
3238.71446	19917.55
3240.99896	19879.35
3243.28209	19878.85
3245.56384	19873.45
3247.84423	19878.45
3250.12324	19816.75
3252.40088	19784.65
3254.67715	19771.25
3256.95205	19680.95
3259.22558	19669.15
3261.49775	19672.45
3263.76855	19682.15
3266.03799	19600.75
3268.30606	19608.85
3270.57277	19560.85
3272.83812	19539.35
3275.10211	19478.55
3277.36474	19455.95
3279.62601	19524.15
3281.88593	19478.75
3284.14448	19511.95
3286.40168	19484.75
3288.65753	19480.55
3290.91202	19446.05
3293.16516	19374.85
3295.41695	19328.15
3297.66738	19219.45
3299.91647	19149.05
3302.16421	19052.25
3304.4106	18957.85
3306.65564	18845.65
3308.89933	18725.85
3311.14169	18612.15
3313.38269	18446.55
3315.62236	18403.95
3317.86068	18245.05
3320.09766	18042.05
3322.3333	17944.65
3324.5676	17965.95
3326.80056	17652.75
3329.03219	17561.45
3331.26248	3.15
3333.49143	-0.15
3335.71905	-1.75
