Data from AgNPs_FTO_APTES_UA_2uM_CRN_500uM_R6G_10uM_NaF_0.1M_Addition_RamanShift__5__17-04-25-401.txt Node

Date: Wed Feb 02 17:04:25 GMT 2022
User: TCL
Spectrometer: QEP01345
Trigger mode: 4
Integration Time (sec): 7.000000E0
Scans to average: 10
Electric dark correction enabled: true
Nonlinearity correction enabled: false
Boxcar width: 0
XAxis mode: Raman Shifts
Number of Pixels in Spectrum: 1044
>>>>>Begin Spectral Data<<<<<
46.04893	-0.65
50.45542	1.25
54.85868	-1.05
59.25871	0.15
63.6555	63.65
68.04907	70.45
72.43941	70.65
76.82654	80.65
81.21044	81.85
85.59113	89.85
89.96862	87.15
94.34289	89.75
98.71396	91.35
103.08183	99.25
107.4465	101.75
111.80798	106.25
116.16626	106.35
120.52136	107.85
124.87327	111.65
129.222	118.35
133.56755	122.25
137.90993	129.95
142.24913	151.25
146.58517	160.85
150.91804	190.65
155.24774	223.15
159.57429	274.55
163.89768	353.75
168.21792	461.45
172.53501	622.55
176.84895	873.35
181.15975	1223.75
185.46741	1707.75
189.77193	2350.15
194.07331	3117.45
198.37157	4038.55
202.6667	4957.85
206.9587	5911.75
211.24758	6822.15
215.53334	7744.35
219.81599	8753.95
224.09553	9802.45
228.37195	10995.45
232.64527	12251.15
236.91549	13574.55
241.18261	14881.65
245.44663	16102.15
249.70755	17235.55
253.96539	18236.35
258.22014	19099.15
262.4718	19734.95
266.72039	20218.55
270.96589	20516.45
275.20832	20570.75
279.44768	20523.95
283.68397	20429.25
287.91719	20308.85
292.14735	20296.25
296.37445	20428.95
300.59849	20493.15
304.81948	20628.45
309.03742	20584.75
313.25231	20345.15
317.46415	19841.35
321.67296	19271.95
325.87872	18761.75
330.08145	18469.35
334.28114	18316.55
338.47781	18357.35
342.67145	18475.45
346.86207	18704.95
351.04966	18957.85
355.23424	19291.25
359.4158	19586.95
363.59435	19797.35
367.76989	19910.45
371.94243	19981.75
376.11196	20076.15
380.27849	20118.65
384.44203	20237.35
388.60257	20461.05
392.76012	20711.05
396.91468	21041.65
401.06626	21323.85
405.21485	21563.75
409.36047	21479.15
413.50311	21271.25
417.64277	21139.05
421.77947	21182.35
425.9132	21279.35
430.04396	21421.05
434.17176	21527.25
438.2966	21665.35
442.41849	22086.75
446.53742	22805.55
450.6534	23560.45
454.76644	24122.15
458.87653	24309.25
462.98368	24124.25
467.08789	23873.55
471.18916	23570.05
475.2875	23433.45
479.38291	23561.55
483.4754	23604.05
487.56496	23275.05
491.6516	22595.25
495.73531	21858.35
499.81612	21322.05
503.89401	21228.45
507.96899	21246.65
512.04106	21163.75
516.11023	20884.75
520.1765	20540.75
524.23987	20260.55
528.30034	20013.35
532.35792	19777.85
536.41261	19524.65
540.46441	19336.05
544.51333	19389.75
548.55936	19775.85
552.60252	20340.55
556.64279	21111.45
560.6802	21720.05
564.71473	22197.75
568.7464	22828.25
572.7752	23831.85
576.80114	24784.45
580.82422	25542.55
584.84444	26366.55
588.86181	27440.85
592.87633	28209.95
596.888	27600.05
600.89682	26011.55
604.9028	25182.45
608.90594	26052.85
612.90624	27157.05
616.90371	25302.75
620.89834	21402.45
624.89015	19591.15
628.87913	19403.75
632.86528	19556.55
636.84862	19551.85
640.82913	19204.45
644.80683	18787.75
648.78172	18453.75
652.75379	18405.75
656.72306	18576.55
660.68952	18707.55
664.65319	18561.35
668.61405	18247.65
672.57211	18178.15
676.52738	18232.45
680.47986	18303.95
684.42955	18220.65
688.37646	18133.95
692.32058	18194.65
696.26192	18470.95
700.20048	18717.95
704.13626	18953.15
708.06928	19041.35
711.99952	19009.25
715.927	19015.15
719.85171	19083.75
723.77365	18986.65
727.69284	18696.75
731.60928	18416.15
735.52295	18315.15
739.43388	18262.05
743.34206	18331.55
747.24749	18470.65
751.15017	18713.85
755.05012	19126.55
758.94733	19801.25
762.8418	20916.85
766.73354	22331.65
770.62254	23582.95
774.50882	23555.65
778.39237	22356.85
782.27321	20693.05
786.15132	19348.35
790.02671	18559.65
793.89938	18177.45
797.76935	18065.95
801.6366	18043.75
805.50115	17997.95
809.36299	17922.85
813.22213	17769.65
817.07857	17776.95
820.93231	17705.35
824.78336	17515.75
828.63172	17326.05
832.47738	17174.15
836.32036	17177.65
840.16066	17179.45
843.99827	17195.75
847.8332	17139.15
851.66546	17115.45
855.49504	17076.65
859.32195	17078.65
863.1462	17005.95
866.96777	16938.15
870.78668	16915.15
874.60293	16887.85
878.41652	16896.95
882.22745	16945.15
886.03573	16971.15
889.84136	17000.75
893.64433	16945.95
897.44466	16874.75
901.24235	16794.65
905.0374	16760.05
908.8298	16696.55
912.61957	16762.65
916.40671	17003.95
920.19121	17340.85
923.97308	17563.55
927.75233	17470.65
931.52895	17178.05
935.30295	16815.65
939.07433	16436.85
942.84309	16151.25
946.60924	15997.65
950.37278	15936.15
954.13371	15962.75
957.89203	15991.65
961.64774	16043.35
965.40086	16015.55
969.15137	15918.15
972.89929	15725.35
976.64461	15613.15
980.38733	15487.95
984.12747	15498.65
987.86502	15580.95
991.59999	15670.95
995.33237	15807.85
999.06217	16110.75
1002.78939	16502.85
1006.51404	16795.85
1010.23611	17103.35
1013.95561	17377.45
1017.67255	17440.65
1021.38692	17275.55
1025.09872	16914.75
1028.80796	16649.05
1032.51465	16672.55
1036.21877	16786.15
1039.92035	16940.75
1043.61937	16961.25
1047.31584	16891.85
1051.00976	16882.65
1054.70114	16963.35
1058.38998	17053.15
1062.07627	17267.55
1065.76003	17512.85
1069.44126	17745.55
1073.11995	17992.65
1076.79611	18180.35
1080.46974	18291.65
1084.14085	18353.65
1087.80943	18575.35
1091.47549	18801.65
1095.13903	18978.35
1098.80005	18820.55
1102.45857	18333.95
1106.11456	17829.15
1109.76805	17613.45
1113.41903	17566.75
1117.06751	17712.75
1120.71348	17969.25
1124.35696	18195.55
1127.99793	18513.15
1131.63641	18775.05
1135.2724	18701.95
1138.90589	18650.25
1142.5369	18807.15
1146.16542	19154.75
1149.79145	19516.75
1153.415	19991.35
1157.03607	20492.75
1160.65467	21412.95
1164.27079	22762.85
1167.88443	24311.25
1171.49561	25869.75
1175.10432	27705.75
1178.71056	29986.35
1182.31434	32143.05
1185.91565	33124.75
1189.51451	32678.75
1193.11091	31675.45
1196.70485	30628.45
1200.29634	29527.65
1203.88538	28924.45
1207.47197	28753.35
1211.05612	28679.65
1214.63782	28143.25
1218.21708	27079.25
1221.79391	25877.65
1225.36829	25022.35
1228.94024	24409.45
1232.50976	23845.85
1236.07685	23377.55
1239.6415	23067.55
1243.20374	23106.75
1246.76355	23298.25
1250.32093	23723.05
1253.8759	24267.85
1257.42845	24976.45
1260.97859	25753.95
1264.52631	26570.05
1268.07163	27317.75
1271.61453	28131.95
1275.15503	29163.35
1278.69312	30331.25
1282.22882	31647.35
1285.76211	33235.95
1289.29301	35352.85
1292.82151	37823.65
1296.34761	40875.45
1299.87133	44147.05
1303.39266	46989.35
1306.9116	49172.35
1310.42815	50734.05
1313.94233	51432.55
1317.45412	51243.65
1320.96354	50567.75
1324.47058	50072.25
1327.97525	49749.15
1331.47754	49468.45
1334.97747	49049.95
1338.47502	48235.65
1341.97022	47071.85
1345.46305	45564.55
1348.95352	44351.65
1352.44163	43858.85
1355.92738	44411.25
1359.41078	45779.05
1362.89183	46861.25
1366.37053	45999.65
1369.84688	42469.55
1373.32088	37847.45
1376.79254	34763.95
1380.26186	34059.75
1383.72883	34733.35
1387.19347	35321.15
1390.65578	35431.55
1394.11575	35788.55
1397.57339	36640.85
1401.0287	37634.75
1404.48168	38369.15
1407.93234	38065.15
1411.38068	36689.95
1414.82669	34658.85
1418.27039	32425.95
1421.71177	30258.05
1425.15083	28509.35
1428.58758	27622.95
1432.02203	27855.25
1435.45416	28886.95
1438.88399	30219.55
1442.31151	31241.25
1445.73673	31993.65
1449.15965	32610.45
1452.58027	32981.45
1455.9986	33062.75
1459.41463	33152.05
1462.82837	33463.85
1466.23982	33848.55
1469.64898	34375.85
1473.05586	34570.25
1476.46045	34405.55
1479.86276	34018.55
1483.26279	33333.05
1486.66054	32824.35
1490.05602	32716.25
1493.44922	32776.55
1496.84016	33010.05
1500.22882	33341.15
1503.61521	33982.05
1506.99934	34834.45
1510.38121	35574.45
1513.76081	35862.05
1517.13816	35544.35
1520.51324	34962.45
1523.88607	34628.35
1527.25665	34876.05
1530.62498	35236.15
1533.99105	35373.05
1537.35488	34983.35
1540.71647	33966.75
1544.07581	32712.45
1547.4329	31291.35
1550.78776	30065.55
1554.14038	29189.45
1557.49077	28688.65
1560.83892	28464.65
1564.18484	28409.95
1567.52853	28527.15
1570.86999	29010.85
1574.20922	29886.25
1577.54624	30981.65
1580.88103	31815.85
1584.2136	32814.85
1587.54395	34379.55
1590.87208	36546.55
1594.19801	38836.65
1597.52172	40736.95
1600.84321	40869.15
1604.16251	38471.85
1607.47959	34534.35
1610.79447	30472.25
1614.10715	26987.25
1617.41763	24418.85
1620.7259	22803.15
1624.03199	22076.75
1627.33587	22203.65
1630.63757	23202.95
1633.93707	25224.45
1637.23439	28622.85
1640.52951	33484.85
1643.82246	39276.35
1647.11321	43872.25
1650.40179	44604.35
1653.68819	40598.15
1656.97241	34144.15
1660.25446	27881.35
1663.53433	23260.25
1666.81203	20256.65
1670.08756	18360.65
1673.36092	17186.15
1676.63211	16452.75
1679.90115	15919.05
1683.16801	15526.95
1686.43272	15272.05
1689.69527	15057.15
1692.95567	14878.35
1696.2139	14764.85
1699.46999	14697.05
1702.72392	14636.05
1705.97571	14530.75
1709.22535	14442.05
1712.47284	14376.85
1715.71819	14285.45
1718.96139	14281.55
1722.20246	14183.75
1725.44139	14070.45
1728.67818	13985.45
1731.91284	13896.35
1735.14537	13797.75
1738.37576	13759.55
1741.60403	13671.05
1744.83017	13629.85
1748.05418	13608.75
1751.27607	13564.15
1754.49584	13558.45
1757.71349	13562.65
1760.92903	13537.15
1764.14244	13524.65
1767.35375	13464.65
1770.56294	13454.45
1773.77002	13386.95
1776.97499	13350.95
1780.17785	13302.85
1783.37861	13249.05
1786.57727	13226.55
1789.77382	13184.75
1792.96828	13144.15
1796.16064	13087.65
1799.3509	13083.75
1802.53907	13053.35
1805.72514	13008.15
1808.90913	12980.45
1812.09102	12959.15
1815.27083	12887.75
1818.44856	12867.95
1821.6242	12832.95
1824.79776	12823.85
1827.96924	12819.45
1831.13864	12813.95
1834.30597	12823.95
1837.47122	12807.55
1840.6344	12816.65
1843.7955	12808.75
1846.95454	12763.65
1850.11151	12789.35
1853.26642	12758.05
1856.41926	12751.75
1859.57004	12754.35
1862.71876	12710.75
1865.86542	12674.25
1869.01003	12675.55
1872.15258	12623.75
1875.29308	12642.85
1878.43152	12648.05
1881.56792	12625.75
1884.70227	12581.05
1887.83457	12573.85
1890.96482	12556.35
1894.09304	12520.65
1897.21921	12541.55
1900.34335	12526.55
1903.46544	12512.05
1906.58551	12502.55
1909.70353	12481.75
1912.81953	12469.05
1915.93349	12394.95
1919.04543	12369.05
1922.15534	12356.95
1925.26322	12308.75
1928.36908	12271.85
1931.47292	12266.05
1934.57473	12222.55
1937.67453	12171.55
1940.77232	12102.55
1943.86808	12070.45
1946.96184	12050.35
1950.05358	12009.55
1953.14331	11977.05
1956.23103	11962.15
1959.31675	11918.75
1962.40046	11880.25
1965.48217	11829.05
1968.56188	11784.15
1971.63959	11737.15
1974.7153	11722.25
1977.78901	11690.45
1980.86073	11633.15
1983.93046	11616.25
1986.99819	11570.65
1990.06394	11528.25
1993.1277	11505.55
1996.18947	11461.45
1999.24925	11445.75
2002.30706	11399.45
2005.36288	11349.45
2008.41672	11320.25
2011.46859	11300.15
2014.51848	11235.55
2017.56639	11225.85
2020.61233	11184.95
2023.6563	11153.75
2026.6983	11155.95
2029.73833	11150.35
2032.7764	11112.55
2035.8125	11087.95
2038.84664	11063.15
2041.87881	11032.65
2044.90903	11001.25
2047.93729	10983.45
2050.96359	10986.45
2053.98794	10977.95
2057.01034	10965.35
2060.03078	10928.25
2063.04927	10946.15
2066.06582	10916.85
2069.08042	10927.05
2072.09307	10902.85
2075.10378	10899.25
2078.11255	10876.75
2081.11938	10887.45
2084.12426	10865.35
2087.12722	10865.35
2090.12824	10832.85
2093.12732	10865.25
2096.12447	10853.35
2099.11969	10874.55
2102.11299	10847.45
2105.10435	10863.85
2108.09379	10846.45
2111.08131	10887.25
2114.0669	10862.05
2117.05057	10855.85
2120.03233	10864.45
2123.01216	10883.25
2125.99008	10866.05
2128.96609	10861.55
2131.94018	10850.45
2134.91236	10836.85
2137.88263	10844.05
2140.851	10860.55
2143.81746	10849.85
2146.78201	10846.25
2149.74466	10854.05
2152.7054	10846.95
2155.66425	10797.85
2158.6212	10840.35
2161.57625	10812.35
2164.52941	10791.65
2167.48067	10779.05
2170.43004	10811.55
2173.37752	10792.85
2176.32311	10798.55
2179.26681	10803.85
2182.20863	10791.75
2185.14856	10822.45
2188.08661	10789.25
2191.02278	10774.15
2193.95707	10757.15
2196.88948	10763.75
2199.82001	10734.65
2202.74867	10719.85
2205.67545	10691.95
2208.60037	10696.95
2211.52341	10684.65
2214.44458	10638.85
2217.36388	10639.05
2220.28132	10628.85
2223.1969	10599.75
2226.11061	10600.85
2229.02246	10582.75
2231.93245	10575.35
2234.84058	10558.75
2237.74686	10529.85
2240.65128	10518.05
2243.55385	10493.75
2246.45456	10496.45
2249.35343	10464.45
2252.25044	10395.95
2255.14561	10374.85
2258.03893	10358.25
2260.93041	10336.35
2263.82004	10299.55
2266.70783	10283.05
2269.59378	10225.35
2272.4779	10209.15
2275.36017	10200.15
2278.24061	10171.95
2281.11922	10188.35
2283.996	10140.65
2286.87094	10124.45
2289.74405	10116.95
2292.61534	10083.05
2295.4848	10097.05
2298.35243	10084.65
2301.21824	10071.15
2304.08223	10055.15
2306.94439	10067.35
2309.80474	10046.65
2312.66327	10063.15
2315.51999	10017.85
2318.37489	9997.85
2321.22797	10000.65
2324.07925	10005.05
2326.92871	9996.95
2329.77637	9971.15
2332.62222	9952.55
2335.46626	9956.55
2338.3085	9936.35
2341.14893	9938.25
2343.98756	9945.85
2346.8244	9945.25
2349.65943	9928.85
2352.49267	9939.15
2355.32411	9963.95
2358.15376	9918.55
2360.98161	9917.75
2363.80768	9908.25
2366.63195	9895.05
2369.45444	9903.55
2372.27514	9879.55
2375.09405	9852.05
2377.91118	9825.75
2380.72652	9825.55
2383.54009	9800.45
2386.35187	9802.95
2389.16188	9756.65
2391.97011	9738.15
2394.77657	9721.55
2397.58125	9709.55
2400.38416	9692.85
2403.18529	9676.05
2405.98466	9667.65
2408.78226	9649.05
2411.57809	9653.15
2414.37216	9632.45
2417.16446	9627.45
2419.955	9606.15
2422.74378	9611.15
2425.5308	9600.25
2428.31606	9606.95
2431.09956	9593.25
2433.88131	9551.55
2436.6613	9579.15
2439.43954	9552.35
2442.21603	9546.65
2444.99077	9537.25
2447.76377	9577.65
2450.53501	9551.05
2453.30451	9563.45
2456.07226	9546.05
2458.83827	9534.05
2461.60254	9531.35
2464.36507	9533.85
2467.12586	9535.85
2469.88492	9534.55
2472.64224	9539.15
2475.39782	9533.05
2478.15167	9543.25
2480.90379	9555.85
2483.65417	9542.75
2486.40283	9549.85
2489.14976	9536.55
2491.89497	9550.55
2494.63845	9552.05
2497.3802	9539.95
2500.12024	9526.85
2502.85855	9547.95
2505.59514	9559.65
2508.33002	9509.65
2511.06318	9522.25
2513.79462	9501.15
2516.52435	9503.15
2519.25237	9477.55
2521.97867	9481.05
2524.70327	9477.35
2527.42616	9455.45
2530.14734	9470.85
2532.86681	9420.45
2535.58458	9445.45
2538.30065	9419.75
2541.01501	9423.65
2543.72768	9395.35
2546.43864	9397.85
2549.14791	9391.45
2551.85548	9385.45
2554.56136	9391.95
2557.26554	9371.55
2559.96803	9371.25
2562.66883	9372.25
2565.36794	9366.15
2568.06536	9379.25
2570.7611	9354.05
2573.45514	9346.05
2576.14751	9337.55
2578.83819	9334.85
2581.52719	9330.85
2584.21451	9316.05
2586.90015	9314.95
2589.58411	9321.55
2592.2664	9318.05
2594.94701	9310.65
2597.62594	9332.75
2600.30321	9296.65
2602.9788	9293.15
2605.65273	9303.85
2608.32498	9296.15
2610.99557	9283.65
2613.66449	9322.25
2616.33175	9301.55
2618.99734	9291.05
2621.66128	9317.65
2624.32355	9292.15
2626.98416	9309.05
2629.64311	9278.45
2632.30041	9270.05
2634.95605	9264.75
2637.61004	9289.15
2640.26238	9256.55
2642.91306	9276.55
2645.56209	9273.45
2648.20948	9271.55
2650.85521	9267.75
2653.4993	9252.05
2656.14175	9252.85
2658.78255	9279.45
2661.42171	9278.65
2664.05923	9297.75
2666.6951	9288.35
2669.32934	9282.55
2671.96194	9278.65
2674.59291	9296.55
2677.22224	9292.65
2679.84993	9280.75
2682.476	9284.05
2685.10043	9316.55
2687.72324	9313.95
2690.34441	9303.85
2692.96396	9279.85
2695.58188	9320.45
2698.19818	9288.85
2700.81285	9311.95
2703.4259	9321.75
2706.03733	9335.15
2708.64714	9340.55
2711.25533	9336.65
2713.86191	9313.85
2716.46687	9339.15
2719.07021	9333.05
2721.67194	9331.75
2724.27206	9332.65
2726.87057	9361.35
2729.46747	9348.65
2732.06276	9356.15
2734.65644	9363.55
2737.24852	9358.95
2739.83899	9369.45
2742.42786	9353.65
2745.01513	9341.75
2747.60079	9337.95
2750.18486	9342.85
2752.76733	9385.05
2755.3482	9338.55
2757.92747	9353.45
2760.50515	9348.55
2763.08123	9384.15
2765.65573	9349.95
2768.22863	9391.05
2770.79994	9329.55
2773.36967	9329.05
2775.9378	9365.65
2778.50435	9335.35
2781.06932	9344.55
2783.6327	9358.45
2786.1945	9344.05
2788.75471	9340.45
2791.31335	9323.95
2793.87041	9335.75
2796.42589	9309.95
2798.97979	9267.35
2801.53212	9263.15
2804.08288	9264.95
2806.63206	9255.75
2809.17967	9230.55
2811.72571	9212.05
2814.27018	9214.25
2816.81308	9192.05
2819.35442	9178.05
2821.89419	9155.25
2824.43239	9155.05
2826.96904	9141.75
2829.50412	9161.55
2832.03763	9147.75
2834.56959	9168.05
2837.1	9194.75
2839.62884	9196.25
2842.15613	9182.75
2844.68186	9223.75
2847.20604	9245.85
2849.72867	9286.95
2852.24974	9262.85
2854.76927	9275.25
2857.28724	9244.55
2859.80367	9237.85
2862.31855	9221.45
2864.83189	9201.55
2867.34368	9175.25
2869.85393	9188.15
2872.36264	9186.65
2874.8698	9174.25
2877.37543	9182.55
2879.87952	9184.05
2882.38207	9187.05
2884.88308	9128.85
2887.38256	9160.95
2889.88051	9168.05
2892.37692	9156.95
2894.8718	9175.35
2897.36515	9197.15
2899.85698	9192.95
2902.34727	9229.25
2904.83604	9213.35
2907.32328	9259.95
2909.809	9240.15
2912.29319	9257.95
2914.77587	9225.65
2917.25702	9221.15
2919.73665	9216.05
2922.21476	9245.65
2924.69136	9232.05
2927.16644	9240.45
2929.64	9215.35
2932.11205	9215.75
2934.58258	9196.05
2937.05161	9214.35
2939.51912	9204.95
2941.98513	9181.65
2944.44962	9136.45
2946.91261	9099.95
2949.37409	9098.45
2951.83407	9080.75
2954.29254	9086.45
2956.74951	9028.35
2959.20498	9034.75
2961.65895	9018.65
2964.11142	8967.55
2966.56239	8960.35
2969.01186	8957.15
2971.45984	8921.15
2973.90632	8892.45
2976.35131	8849.65
2978.7948	8854.75
2981.23681	8833.65
2983.67732	8816.55
2986.11635	8779.15
2988.55388	8771.55
2990.98993	8705.75
2993.4245	8701.85
2995.85758	8681.65
2998.28917	8655.35
3000.71928	8642.45
3003.14791	8627.15
3005.57506	8621.55
3008.00073	8583.85
3010.42493	8568.75
3012.84764	8555.35
3015.26888	8557.65
3017.68865	8514.75
3020.10694	8500.95
3022.52376	8476.05
3024.9391	8473.85
3027.35298	8457.85
3029.76539	8441.05
3032.17632	8433.65
3034.5858	8422.55
3036.9938	8432.55
3039.40034	8409.75
3041.80542	8434.05
3044.20903	8402.75
3046.61118	8401.35
3049.01187	8387.95
3051.4111	8357.25
3053.80888	8372.95
3056.20519	8333.75
3058.60005	8322.15
3060.99345	8287.75
3063.3854	8268.45
3065.7759	8244.95
3068.16494	8238.05
3070.55254	8199.35
3072.93868	8168.45
3075.32338	8139.35
3077.70662	8114.95
3080.08842	8116.65
3082.46878	8101.45
3084.84769	8085.15
3087.22515	8089.45
3089.60118	8081.45
3091.97576	8058.35
3094.3489	8043.25
3096.72061	8049.55
3099.09087	8036.95
3101.4597	8004.65
3103.82709	7996.65
3106.19305	8018.15
3108.55757	7992.75
3110.92066	7989.55
3113.28232	7958.85
3115.64255	7948.95
3118.00134	7912.65
3120.35871	7909.15
3122.71466	7903.25
3125.06917	7869.55
3127.42226	7854.25
3129.77393	7872.85
3132.12417	7859.35
3134.47299	7865.35
3136.82039	7836.65
3139.16636	7854.85
3141.51092	7842.15
3143.85406	7860.05
3146.19579	7852.15
3148.53609	7853.65
3150.87499	7850.25
3153.21246	7835.75
3155.54853	7830.05
3157.88318	7829.25
3160.21642	7859.25
3162.54826	7817.05
3164.87868	7833.05
3167.2077	7802.65
3169.5353	7810.25
3171.86151	7812.35
3174.18631	7807.55
3176.5097	7801.25
3178.83169	7799.65
3181.15228	7793.55
3183.47147	7772.15
3185.78926	7770.25
3188.10565	7783.35
3190.42065	7771.25
3192.73424	7769.65
3195.04645	7755.25
3197.35725	7765.75
3199.66667	7758.25
3201.97469	7760.55
3204.28132	7747.55
3206.58656	7776.75
3208.8904	7745.85
3211.19287	7769.15
3213.49394	7743.15
3215.79363	7723.75
3218.09193	7736.05
3220.38884	7756.65
3222.68438	7748.55
3224.97853	7736.15
3227.2713	7730.55
3229.56269	7723.05
3231.8527	7706.65
3234.14133	7713.35
3236.42858	7684.45
3238.71446	7706.75
3240.99896	7667.15
3243.28209	7658.65
3245.56384	7676.45
3247.84423	7672.55
3250.12324	7654.55
3252.40088	7636.75
3254.67715	7621.55
3256.95205	7616.45
3259.22558	7597.25
3261.49775	7575.55
3263.76855	7550.35
3266.03799	7508.85
3268.30606	7527.15
3270.57277	7505.25
3272.83812	7482.05
3275.10211	7481.05
3277.36474	7473.45
3279.62601	7469.55
3281.88593	7467.35
3284.14448	7486.95
3286.40168	7457.15
3288.65753	7470.55
3290.91202	7469.05
3293.16516	7428.45
3295.41695	7435.95
3297.66738	7364.05
3299.91647	7322.15
3302.16421	7286.35
3304.4106	7272.95
3306.65564	7237.25
3308.89933	7164.55
3311.14169	7131.45
3313.38269	7070.35
3315.62236	7016.75
3317.86068	6964.45
3320.09766	6867.35
3322.3333	6809.35
3324.5676	6808.15
3326.80056	6721.15
3329.03219	6672.25
3331.26248	0.45
3333.49143	0.05
3335.71905	-0.25
