Data from AgNPs_FTO_APTES_UA_2uM_CRN_100uM_R6G_10uM_NaF_0.1M_Addition_RamanShift__9__15-48-35-312.txt Node

Date: Wed Feb 02 15:48:35 GMT 2022
User: TCL
Spectrometer: QEP01345
Trigger mode: 4
Integration Time (sec): 7.000000E0
Scans to average: 10
Electric dark correction enabled: true
Nonlinearity correction enabled: false
Boxcar width: 0
XAxis mode: Raman Shifts
Number of Pixels in Spectrum: 1044
>>>>>Begin Spectral Data<<<<<
46.04893	0.15
50.45542	0.45
54.85868	-1.65
59.25871	0.15
63.6555	68.65
68.04907	76.45
72.43941	80.25
76.82654	84.85
81.21044	87.75
85.59113	92.95
89.96862	94.75
94.34289	100.85
98.71396	101.55
103.08183	110.65
107.4465	108.25
111.80798	110.75
116.16626	112.35
120.52136	115.55
124.87327	118.65
129.222	121.75
133.56755	136.75
137.90993	142.25
142.24913	154.75
146.58517	173.95
150.91804	200.55
155.24774	241.15
159.57429	293.95
163.89768	373.75
168.21792	488.15
172.53501	664.15
176.84895	928.85
181.15975	1295.45
185.46741	1821.55
189.77193	2493.45
194.07331	3354.95
198.37157	4334.55
202.6667	5365.75
206.9587	6361.75
211.24758	7338.35
215.53334	8345.25
219.81599	9389.45
224.09553	10548.85
228.37195	11824.25
232.64527	13197.85
236.91549	14595.15
241.18261	16039.35
245.44663	17406.65
249.70755	18655.35
253.96539	19697.25
258.22014	20570.85
262.4718	21293.45
266.72039	21834.75
270.96589	22097.75
275.20832	22182.55
279.44768	22176.75
283.68397	22121.05
287.91719	22107.05
292.14735	22133.65
296.37445	22299.65
300.59849	22444.45
304.81948	22566.85
309.03742	22517.55
313.25231	22197.75
317.46415	21590.45
321.67296	20868.35
325.87872	20228.85
330.08145	19818.05
334.28114	19733.65
338.47781	19775.55
342.67145	19934.35
346.86207	20110.25
351.04966	20364.95
355.23424	20552.35
359.4158	20685.75
363.59435	20842.75
367.76989	20862.85
371.94243	20925.85
376.11196	20931.45
380.27849	20931.55
384.44203	20976.45
388.60257	21170.55
392.76012	21466.55
396.91468	21872.15
401.06626	22275.85
405.21485	22493.35
409.36047	22396.45
413.50311	22106.75
417.64277	21929.95
421.77947	21997.45
425.9132	22061.15
430.04396	22197.65
434.17176	22309.25
438.2966	22367.85
442.41849	22622.15
446.53742	23116.15
450.6534	23739.75
454.76644	24182.85
458.87653	24408.15
462.98368	24493.55
467.08789	24437.75
471.18916	24345.85
475.2875	24320.75
479.38291	24442.75
483.4754	24440.15
487.56496	24113.65
491.6516	23423.45
495.73531	22749.45
499.81612	22306.65
503.89401	22277.75
507.96899	22342.45
512.04106	22323.95
516.11023	22138.85
520.1765	21831.95
524.23987	21460.35
528.30034	21132.85
532.35792	20828.95
536.41261	20618.15
540.46441	20439.35
544.51333	20541.75
548.55936	21000.25
552.60252	21583.35
556.64279	22275.65
560.6802	22787.95
564.71473	23252.05
568.7464	23990.05
572.7752	25142.65
576.80114	26438.75
580.82422	27314.25
584.84444	27971.35
588.86181	28591.65
592.87633	28840.15
596.888	28170.05
600.89682	26927.35
604.9028	26387.05
608.90594	27103.05
612.90624	27833.95
616.90371	25831.65
620.89834	22214.15
624.89015	20660.65
628.87913	20606.45
632.86528	20887.65
636.84862	20956.55
640.82913	20650.15
644.80683	20125.35
648.78172	19693.75
652.75379	19577.95
656.72306	19702.05
660.68952	19873.95
664.65319	19802.55
668.61405	19546.75
672.57211	19552.25
676.52738	19645.25
680.47986	19643.85
684.42955	19559.65
688.37646	19447.15
692.32058	19503.95
696.26192	19730.45
700.20048	19982.05
704.13626	20202.55
708.06928	20334.65
711.99952	20376.55
715.927	20295.35
719.85171	20201.65
723.77365	20037.95
727.69284	19696.15
731.60928	19379.55
735.52295	19253.45
739.43388	19132.45
743.34206	19162.85
747.24749	19339.65
751.15017	19595.35
755.05012	20088.05
758.94733	20855.35
762.8418	22028.05
766.73354	23705.85
770.62254	25040.35
774.50882	24841.25
778.39237	23440.25
782.27321	21760.15
786.15132	20476.45
790.02671	19632.55
793.89938	19176.25
797.76935	18975.35
801.6366	18894.85
805.50115	18810.85
809.36299	18773.85
813.22213	18628.85
817.07857	18668.25
820.93231	18647.45
824.78336	18489.35
828.63172	18294.35
832.47738	18165.35
836.32036	18119.35
840.16066	18078.75
843.99827	18069.65
847.8332	18020.45
851.66546	18014.45
855.49504	18034.15
859.32195	18013.35
863.1462	17940.65
866.96777	17905.55
870.78668	17846.95
874.60293	17823.35
878.41652	17792.15
882.22745	17852.35
886.03573	17882.35
889.84136	17910.95
893.64433	17856.05
897.44466	17836.45
901.24235	17781.85
905.0374	17736.25
908.8298	17741.85
912.61957	17896.15
916.40671	18224.45
920.19121	18609.55
923.97308	18760.55
927.75233	18646.25
931.52895	18230.45
935.30295	17819.95
939.07433	17427.05
942.84309	17112.85
946.60924	16904.25
950.37278	16766.75
954.13371	16798.35
957.89203	16872.45
961.64774	16888.35
965.40086	16907.45
969.15137	16805.25
972.89929	16630.55
976.64461	16484.25
980.38733	16419.35
984.12747	16379.45
987.86502	16412.65
991.59999	16482.95
995.33237	16581.55
999.06217	16787.05
1002.78939	17008.55
1006.51404	17257.45
1010.23611	17557.25
1013.95561	17776.55
1017.67255	17831.35
1021.38692	17753.65
1025.09872	17514.75
1028.80796	17263.65
1032.51465	17199.15
1036.21877	17258.15
1039.92035	17388.85
1043.61937	17506.25
1047.31584	17658.65
1051.00976	17734.45
1054.70114	17883.05
1058.38998	18132.05
1062.07627	18503.65
1065.76003	18829.35
1069.44126	19213.35
1073.11995	19596.45
1076.79611	19793.95
1080.46974	19826.75
1084.14085	19808.35
1087.80943	19966.05
1091.47549	20166.15
1095.13903	20311.45
1098.80005	20122.25
1102.45857	19513.45
1106.11456	18820.45
1109.76805	18489.05
1113.41903	18384.55
1117.06751	18486.55
1120.71348	18698.05
1124.35696	18973.85
1127.99793	19308.65
1131.63641	19568.25
1135.2724	19521.15
1138.90589	19532.55
1142.5369	19690.55
1146.16542	20027.65
1149.79145	20454.55
1153.415	20846.45
1157.03607	21329.35
1160.65467	22117.25
1164.27079	23275.05
1167.88443	24706.45
1171.49561	26265.25
1175.10432	28022.35
1178.71056	30147.65
1182.31434	32084.35
1185.91565	33006.85
1189.51451	33068.05
1193.11091	32623.75
1196.70485	31683.55
1200.29634	30372.05
1203.88538	29530.65
1207.47197	29308.05
1211.05612	29289.05
1214.63782	28764.75
1218.21708	27627.85
1221.79391	26245.85
1225.36829	25160.05
1228.94024	24410.25
1232.50976	24085.05
1236.07685	23836.65
1239.6415	23728.45
1243.20374	23794.85
1246.76355	24012.75
1250.32093	24381.85
1253.8759	24906.65
1257.42845	25647.95
1260.97859	26547.65
1264.52631	27294.45
1268.07163	28092.15
1271.61453	28948.05
1275.15503	29883.65
1278.69312	31045.35
1282.22882	32298.75
1285.76211	33825.85
1289.29301	35627.25
1292.82151	37854.35
1296.34761	40429.25
1299.87133	43071.65
1303.39266	45397.45
1306.9116	46889.35
1310.42815	47745.75
1313.94233	48029.55
1317.45412	47812.45
1320.96354	47766.55
1324.47058	47976.75
1327.97525	48385.75
1331.47754	48595.35
1334.97747	48499.05
1338.47502	48172.85
1341.97022	47603.25
1345.46305	46880.65
1348.95352	45852.65
1352.44163	44820.95
1355.92738	44063.75
1359.41078	44199.05
1362.89183	44504.05
1366.37053	43793.45
1369.84688	41093.15
1373.32088	37560.55
1376.79254	35006.75
1380.26186	34235.65
1383.72883	34608.15
1387.19347	35071.75
1390.65578	35220.35
1394.11575	35279.25
1397.57339	35450.35
1401.0287	35842.75
1404.48168	35891.75
1407.93234	35292.65
1411.38068	33969.25
1414.82669	32068.35
1418.27039	30141.95
1421.71177	28420.05
1425.15083	27132.45
1428.58758	26530.55
1432.02203	26782.65
1435.45416	27530.05
1438.88399	28620.05
1442.31151	29516.95
1445.73673	30189.45
1449.15965	30828.35
1452.58027	31398.25
1455.9986	31734.25
1459.41463	32116.95
1462.82837	32459.35
1466.23982	32821.15
1469.64898	33178.25
1473.05586	33232.75
1476.46045	33075.65
1479.86276	32636.35
1483.26279	32182.05
1486.66054	31996.05
1490.05602	32171.85
1493.44922	32607.95
1496.84016	33283.25
1500.22882	34292.95
1503.61521	35539.35
1506.99934	36769.55
1510.38121	37751.15
1513.76081	38011.05
1517.13816	37650.85
1520.51324	37058.75
1523.88607	36842.35
1527.25665	36944.15
1530.62498	37067.95
1533.99105	36827.85
1537.35488	36083.75
1540.71647	34751.25
1544.07581	33251.35
1547.4329	31881.15
1550.78776	30749.45
1554.14038	29975.25
1557.49077	29629.45
1560.83892	29436.65
1564.18484	29425.45
1567.52853	29610.15
1570.86999	30023.45
1574.20922	30873.55
1577.54624	31876.85
1580.88103	32507.15
1584.2136	33114.85
1587.54395	34040.45
1590.87208	35208.15
1594.19801	36666.25
1597.52172	37825.65
1600.84321	37533.35
1604.16251	35451.75
1607.47959	32492.45
1610.79447	29615.85
1614.10715	26972.35
1617.41763	24771.85
1620.7259	23200.95
1624.03199	22388.15
1627.33587	22368.05
1630.63757	23145.85
1633.93707	24933.85
1637.23439	27959.05
1640.52951	32160.85
1643.82246	37184.75
1647.11321	41163.25
1650.40179	42147.15
1653.68819	39346.55
1656.97241	34085.35
1660.25446	28451.45
1663.53433	24009.25
1666.81203	20907.65
1670.08756	18905.25
1673.36092	17649.25
1676.63211	16855.45
1679.90115	16285.85
1683.16801	15894.75
1686.43272	15609.05
1689.69527	15379.95
1692.95567	15191.05
1696.2139	15087.55
1699.46999	14986.35
1702.72392	14903.35
1705.97571	14781.85
1709.22535	14667.25
1712.47284	14607.15
1715.71819	14561.85
1718.96139	14475.45
1722.20246	14432.25
1725.44139	14333.95
1728.67818	14242.05
1731.91284	14106.85
1735.14537	14022.95
1738.37576	13960.55
1741.60403	13875.85
1744.83017	13833.65
1748.05418	13792.15
1751.27607	13748.55
1754.49584	13742.55
1757.71349	13736.15
1760.92903	13739.25
1764.14244	13754.05
1767.35375	13660.55
1770.56294	13578.55
1773.77002	13533.95
1776.97499	13470.25
1780.17785	13438.25
1783.37861	13409.45
1786.57727	13374.85
1789.77382	13310.95
1792.96828	13286.45
1796.16064	13222.85
1799.3509	13198.05
1802.53907	13127.45
1805.72514	13105.75
1808.90913	13017.15
1812.09102	13037.15
1815.27083	13003.25
1818.44856	12983.05
1821.6242	12945.75
1824.79776	12926.75
1827.96924	12918.35
1831.13864	12905.05
1834.30597	12883.75
1837.47122	12895.05
1840.6344	12898.85
1843.7955	12878.65
1846.95454	12873.55
1850.11151	12866.25
1853.26642	12860.95
1856.41926	12830.75
1859.57004	12831.25
1862.71876	12810.65
1865.86542	12759.45
1869.01003	12738.05
1872.15258	12707.65
1875.29308	12696.05
1878.43152	12648.75
1881.56792	12625.55
1884.70227	12600.75
1887.83457	12573.35
1890.96482	12574.45
1894.09304	12545.55
1897.21921	12526.65
1900.34335	12477.85
1903.46544	12483.55
1906.58551	12424.75
1909.70353	12426.25
1912.81953	12376.15
1915.93349	12344.75
1919.04543	12309.55
1922.15534	12261.35
1925.26322	12218.35
1928.36908	12216.35
1931.47292	12180.75
1934.57473	12130.55
1937.67453	12103.65
1940.77232	12070.85
1943.86808	12025.05
1946.96184	11997.15
1950.05358	11973.35
1953.14331	11926.95
1956.23103	11889.05
1959.31675	11834.15
1962.40046	11824.65
1965.48217	11770.35
1968.56188	11700.55
1971.63959	11649.85
1974.7153	11622.95
1977.78901	11592.45
1980.86073	11545.75
1983.93046	11514.35
1986.99819	11437.35
1990.06394	11409.45
1993.1277	11389.15
1996.18947	11340.75
1999.24925	11324.75
2002.30706	11274.25
2005.36288	11214.15
2008.41672	11214.55
2011.46859	11152.65
2014.51848	11111.55
2017.56639	11077.35
2020.61233	11047.85
2023.6563	11020.95
2026.6983	10983.55
2029.73833	10979.65
2032.7764	10948.15
2035.8125	10927.25
2038.84664	10871.05
2041.87881	10883.95
2044.90903	10842.55
2047.93729	10821.05
2050.96359	10836.95
2053.98794	10775.95
2057.01034	10781.45
2060.03078	10759.45
2063.04927	10729.35
2066.06582	10731.25
2069.08042	10744.95
2072.09307	10720.65
2075.10378	10691.65
2078.11255	10689.55
2081.11938	10672.35
2084.12426	10650.25
2087.12722	10632.05
2090.12824	10658.35
2093.12732	10658.25
2096.12447	10647.05
2099.11969	10646.25
2102.11299	10632.65
2105.10435	10658.15
2108.09379	10670.75
2111.08131	10634.55
2114.0669	10631.05
2117.05057	10653.05
2120.03233	10659.85
2123.01216	10677.65
2125.99008	10655.05
2128.96609	10655.45
2131.94018	10646.85
2134.91236	10630.55
2137.88263	10640.75
2140.851	10630.15
2143.81746	10653.65
2146.78201	10614.55
2149.74466	10623.95
2152.7054	10616.75
2155.66425	10581.15
2158.6212	10572.15
2161.57625	10587.95
2164.52941	10590.25
2167.48067	10563.45
2170.43004	10550.35
2173.37752	10544.05
2176.32311	10526.65
2179.26681	10541.25
2182.20863	10514.15
2185.14856	10528.95
2188.08661	10524.65
2191.02278	10517.75
2193.95707	10498.55
2196.88948	10484.55
2199.82001	10464.55
2202.74867	10458.55
2205.67545	10425.05
2208.60037	10387.05
2211.52341	10359.65
2214.44458	10374.95
2217.36388	10352.75
2220.28132	10341.45
2223.1969	10325.95
2226.11061	10291.05
2229.02246	10275.45
2231.93245	10267.05
2234.84058	10231.95
2237.74686	10207.75
2240.65128	10180.75
2243.55385	10191.25
2246.45456	10150.75
2249.35343	10104.45
2252.25044	10099.55
2255.14561	10075.55
2258.03893	10050.25
2260.93041	10023.85
2263.82004	9982.25
2266.70783	9966.25
2269.59378	9925.55
2272.4779	9881.25
2275.36017	9855.55
2278.24061	9837.15
2281.11922	9841.15
2283.996	9808.65
2286.87094	9778.65
2289.74405	9760.85
2292.61534	9734.25
2295.4848	9732.35
2298.35243	9741.15
2301.21824	9710.35
2304.08223	9708.55
2306.94439	9718.45
2309.80474	9684.85
2312.66327	9672.25
2315.51999	9653.65
2318.37489	9638.25
2321.22797	9639.85
2324.07925	9601.15
2326.92871	9584.05
2329.77637	9589.25
2332.62222	9567.05
2335.46626	9575.55
2338.3085	9539.25
2341.14893	9552.25
2343.98756	9528.85
2346.8244	9522.25
2349.65943	9525.45
2352.49267	9546.35
2355.32411	9520.35
2358.15376	9533.25
2360.98161	9520.85
2363.80768	9511.15
2366.63195	9495.85
2369.45444	9493.05
2372.27514	9472.05
2375.09405	9490.35
2377.91118	9435.45
2380.72652	9422.35
2383.54009	9404.65
2386.35187	9433.65
2389.16188	9355.85
2391.97011	9333.95
2394.77657	9297.75
2397.58125	9326.35
2400.38416	9267.95
2403.18529	9259.75
2405.98466	9240.75
2408.78226	9238.05
2411.57809	9220.05
2414.37216	9222.45
2417.16446	9207.85
2419.955	9193.65
2422.74378	9204.45
2425.5308	9194.25
2428.31606	9173.75
2431.09956	9167.65
2433.88131	9137.35
2436.6613	9139.15
2439.43954	9132.15
2442.21603	9141.55
2444.99077	9129.15
2447.76377	9125.15
2450.53501	9107.65
2453.30451	9121.15
2456.07226	9105.05
2458.83827	9096.55
2461.60254	9106.15
2464.36507	9105.55
2467.12586	9089.35
2469.88492	9075.15
2472.64224	9082.05
2475.39782	9089.55
2478.15167	9055.85
2480.90379	9064.55
2483.65417	9068.95
2486.40283	9059.55
2489.14976	9077.25
2491.89497	9044.85
2494.63845	9052.85
2497.3802	9049.55
2500.12024	9036.05
2502.85855	9027.15
2505.59514	9026.45
2508.33002	9027.05
2511.06318	9024.65
2513.79462	9027.25
2516.52435	9012.45
2519.25237	9002.75
2521.97867	8976.25
2524.70327	8964.75
2527.42616	8969.05
2530.14734	8934.45
2532.86681	8936.25
2535.58458	8959.35
2538.30065	8921.15
2541.01501	8912.65
2543.72768	8896.05
2546.43864	8861.35
2549.14791	8858.75
2551.85548	8866.05
2554.56136	8839.35
2557.26554	8839.15
2559.96803	8804.45
2562.66883	8836.05
2565.36794	8824.65
2568.06536	8817.45
2570.7611	8815.05
2573.45514	8786.85
2576.14751	8772.45
2578.83819	8749.15
2581.52719	8760.25
2584.21451	8732.35
2586.90015	8735.75
2589.58411	8727.55
2592.2664	8706.35
2594.94701	8711.05
2597.62594	8712.25
2600.30321	8705.35
2602.9788	8680.05
2605.65273	8701.85
2608.32498	8693.35
2610.99557	8691.35
2613.66449	8706.85
2616.33175	8689.95
2618.99734	8684.05
2621.66128	8682.95
2624.32355	8663.15
2626.98416	8652.45
2629.64311	8662.65
2632.30041	8661.25
2634.95605	8662.05
2637.61004	8648.55
2640.26238	8640.05
2642.91306	8623.45
2645.56209	8634.15
2648.20948	8631.25
2650.85521	8611.85
2653.4993	8620.85
2656.14175	8627.45
2658.78255	8626.95
2661.42171	8629.35
2664.05923	8656.65
2666.6951	8667.25
2669.32934	8647.35
2671.96194	8650.15
2674.59291	8641.75
2677.22224	8644.45
2679.84993	8643.05
2682.476	8635.15
2685.10043	8627.35
2687.72324	8620.55
2690.34441	8604.65
2692.96396	8616.25
2695.58188	8619.65
2698.19818	8614.35
2700.81285	8602.85
2703.4259	8637.55
2706.03733	8673.15
2708.64714	8631.45
2711.25533	8618.95
2713.86191	8632.55
2716.46687	8640.55
2719.07021	8640.35
2721.67194	8643.15
2724.27206	8636.35
2726.87057	8656.55
2729.46747	8645.65
2732.06276	8665.85
2734.65644	8655.95
2737.24852	8663.15
2739.83899	8636.55
2742.42786	8655.25
2745.01513	8630.35
2747.60079	8614.55
2750.18486	8616.35
2752.76733	8614.15
2755.3482	8631.75
2757.92747	8621.15
2760.50515	8639.35
2763.08123	8627.55
2765.65573	8614.35
2768.22863	8607.85
2770.79994	8574.55
2773.36967	8588.45
2775.9378	8605.15
2778.50435	8572.05
2781.06932	8583.95
2783.6327	8566.55
2786.1945	8582.35
2788.75471	8568.55
2791.31335	8544.25
2793.87041	8542.25
2796.42589	8518.35
2798.97979	8520.95
2801.53212	8527.85
2804.08288	8500.55
2806.63206	8477.05
2809.17967	8449.75
2811.72571	8461.35
2814.27018	8438.85
2816.81308	8420.25
2819.35442	8405.85
2821.89419	8368.65
2824.43239	8381.05
2826.96904	8371.85
2829.50412	8351.05
2832.03763	8343.55
2834.56959	8372.45
2837.1	8354.05
2839.62884	8367.35
2842.15613	8372.45
2844.68186	8405.25
2847.20604	8438.65
2849.72867	8435.95
2852.24974	8453.95
2854.76927	8449.85
2857.28724	8448.55
2859.80367	8406.05
2862.31855	8404.65
2864.83189	8395.75
2867.34368	8390.25
2869.85393	8387.85
2872.36264	8355.25
2874.8698	8354.65
2877.37543	8361.45
2879.87952	8348.35
2882.38207	8352.55
2884.88308	8346.75
2887.38256	8340.05
2889.88051	8355.55
2892.37692	8334.45
2894.8718	8325.85
2897.36515	8341.35
2899.85698	8333.35
2902.34727	8374.65
2904.83604	8356.85
2907.32328	8384.45
2909.809	8372.35
2912.29319	8362.65
2914.77587	8357.65
2917.25702	8360.25
2919.73665	8352.25
2922.21476	8366.95
2924.69136	8358.75
2927.16644	8375.05
2929.64	8367.55
2932.11205	8365.45
2934.58258	8344.65
2937.05161	8356.45
2939.51912	8338.15
2941.98513	8320.75
2944.44962	8282.05
2946.91261	8239.15
2949.37409	8207.75
2951.83407	8215.05
2954.29254	8205.35
2956.74951	8164.85
2959.20498	8158.35
2961.65895	8139.25
2964.11142	8124.45
2966.56239	8088.95
2969.01186	8085.55
2971.45984	8061.15
2973.90632	8056.75
2976.35131	8010.45
2978.7948	7983.45
2981.23681	7961.05
2983.67732	7942.15
2986.11635	7930.65
2988.55388	7915.15
2990.98993	7901.85
2993.4245	7856.35
2995.85758	7843.15
2998.28917	7836.35
3000.71928	7803.45
3003.14791	7781.65
3005.57506	7771.95
3008.00073	7744.55
3010.42493	7709.75
3012.84764	7701.15
3015.26888	7702.35
3017.68865	7668.45
3020.10694	7675.35
3022.52376	7655.85
3024.9391	7620.55
3027.35298	7624.95
3029.76539	7594.45
3032.17632	7602.95
3034.5858	7597.65
3036.9938	7592.55
3039.40034	7570.35
3041.80542	7587.05
3044.20903	7551.35
3046.61118	7532.75
3049.01187	7517.05
3051.4111	7497.95
3053.80888	7475.45
3056.20519	7468.25
3058.60005	7437.05
3060.99345	7424.35
3063.3854	7411.65
3065.7759	7375.75
3068.16494	7342.45
3070.55254	7326.65
3072.93868	7310.05
3075.32338	7287.65
3077.70662	7279.65
3080.08842	7250.55
3082.46878	7238.15
3084.84769	7214.35
3087.22515	7229.05
3089.60118	7218.95
3091.97576	7202.95
3094.3489	7186.45
3096.72061	7188.15
3099.09087	7170.65
3101.4597	7175.95
3103.82709	7162.35
3106.19305	7157.25
3108.55757	7161.25
3110.92066	7115.65
3113.28232	7105.85
3115.64255	7078.15
3118.00134	7045.85
3120.35871	7043.15
3122.71466	7031.45
3125.06917	7008.65
3127.42226	7022.05
3129.77393	7005.65
3132.12417	6998.15
3134.47299	6983.25
3136.82039	6990.55
3139.16636	6974.45
3141.51092	6972.25
3143.85406	6973.65
3146.19579	6994.35
3148.53609	6967.75
3150.87499	7001.15
3153.21246	7006.05
3155.54853	7003.95
3157.88318	6989.25
3160.21642	6996.55
3162.54826	6980.25
3164.87868	6972.85
3167.2077	6975.45
3169.5353	6967.95
3171.86151	6982.85
3174.18631	6959.25
3176.5097	6951.35
3178.83169	6946.55
3181.15228	6939.85
3183.47147	6938.15
3185.78926	6938.65
3188.10565	6932.35
3190.42065	6921.55
3192.73424	6928.75
3195.04645	6891.55
3197.35725	6897.05
3199.66667	6896.05
3201.97469	6878.75
3204.28132	6851.35
3206.58656	6868.85
3208.8904	6861.55
3211.19287	6880.05
3213.49394	6879.75
3215.79363	6864.05
3218.09193	6857.95
3220.38884	6877.55
3222.68438	6882.35
3224.97853	6852.85
3227.2713	6849.85
3229.56269	6836.15
3231.8527	6819.55
3234.14133	6820.65
3236.42858	6810.95
3238.71446	6820.45
3240.99896	6790.65
3243.28209	6791.05
3245.56384	6781.05
3247.84423	6792.35
3250.12324	6764.75
3252.40088	6759.95
3254.67715	6730.75
3256.95205	6723.95
3259.22558	6732.95
3261.49775	6696.95
3263.76855	6661.75
3266.03799	6642.05
3268.30606	6633.15
3270.57277	6640.25
3272.83812	6604.25
3275.10211	6606.35
3277.36474	6597.85
3279.62601	6586.15
3281.88593	6588.15
3284.14448	6591.45
3286.40168	6596.85
3288.65753	6586.75
3290.91202	6569.85
3293.16516	6554.95
3295.41695	6544.55
3297.66738	6502.85
3299.91647	6445.95
3302.16421	6416.35
3304.4106	6390.55
3306.65564	6330.85
3308.89933	6314.75
3311.14169	6274.05
3313.38269	6223.45
3315.62236	6179.15
3317.86068	6119.55
3320.09766	6046.95
3322.3333	5981.85
3324.5676	5987.65
3326.80056	5906.75
3329.03219	5877.15
3331.26248	2.05
3333.49143	-0.55
3335.71905	-1.75
