Data from AgNPs_FTO_APTES_UA_2uM_CRN_200uM_R6G_10uM_NaF_0.1M_Addition_RamanShift__6__16-25-55-356.txt Node

Date: Wed Feb 02 16:25:55 GMT 2022
User: TCL
Spectrometer: QEP01345
Trigger mode: 4
Integration Time (sec): 7.000000E0
Scans to average: 10
Electric dark correction enabled: true
Nonlinearity correction enabled: false
Boxcar width: 0
XAxis mode: Raman Shifts
Number of Pixels in Spectrum: 1044
>>>>>Begin Spectral Data<<<<<
46.04893	1.25
50.45542	0.55
54.85868	-0.95
59.25871	-1.25
63.6555	67.35
68.04907	75.05
72.43941	75.15
76.82654	85.35
81.21044	85.65
85.59113	90.55
89.96862	91.65
94.34289	95.55
98.71396	96.95
103.08183	100.85
107.4465	103.35
111.80798	106.95
116.16626	108.05
120.52136	110.75
124.87327	115.35
129.222	118.55
133.56755	127.65
137.90993	140.25
142.24913	152.35
146.58517	164.25
150.91804	195.35
155.24774	233.85
159.57429	287.45
163.89768	368.05
168.21792	478.65
172.53501	653.15
176.84895	909.15
181.15975	1275.65
185.46741	1791.65
189.77193	2445.95
194.07331	3273.25
198.37157	4218.35
202.6667	5210.35
206.9587	6197.65
211.24758	7166.05
215.53334	8142.05
219.81599	9176.85
224.09553	10314.05
228.37195	11546.75
232.64527	12833.55
236.91549	14226.35
241.18261	15635.85
245.44663	16959.65
249.70755	18150.25
253.96539	19218.25
258.22014	20094.15
262.4718	20865.45
266.72039	21334.15
270.96589	21639.95
275.20832	21705.75
279.44768	21672.85
283.68397	21563.95
287.91719	21429.85
292.14735	21409.25
296.37445	21499.15
300.59849	21638.35
304.81948	21686.95
309.03742	21589.85
313.25231	21370.95
317.46415	20941.95
321.67296	20365.05
325.87872	19866.05
330.08145	19540.05
334.28114	19420.05
338.47781	19458.55
342.67145	19609.25
346.86207	19808.75
351.04966	20046.45
355.23424	20297.75
359.4158	20528.75
363.59435	20705.25
367.76989	20829.55
371.94243	20893.05
376.11196	20972.35
380.27849	21042.25
384.44203	21164.95
388.60257	21395.85
392.76012	21677.75
396.91468	22046.65
401.06626	22373.85
405.21485	22566.75
409.36047	22505.35
413.50311	22313.55
417.64277	22232.25
421.77947	22321.35
425.9132	22466.75
430.04396	22658.25
434.17176	22814.05
438.2966	22934.75
442.41849	23277.45
446.53742	23915.55
450.6534	24712.75
454.76644	25297.85
458.87653	25458.75
462.98368	25401.25
467.08789	25175.15
471.18916	24896.35
475.2875	24755.05
479.38291	24844.55
483.4754	24798.65
487.56496	24401.35
491.6516	23715.35
495.73531	22966.35
499.81612	22493.35
503.89401	22446.25
507.96899	22501.25
512.04106	22417.25
516.11023	22175.85
520.1765	21795.55
524.23987	21394.15
528.30034	21099.65
532.35792	20906.85
536.41261	20675.45
540.46441	20512.15
544.51333	20547.15
548.55936	20929.05
552.60252	21494.55
556.64279	22221.45
560.6802	22881.45
564.71473	23326.45
568.7464	23976.45
572.7752	25096.45
576.80114	26267.05
580.82422	27304.85
584.84444	28361.45
588.86181	29776.15
592.87633	30784.55
596.888	30148.85
600.89682	28131.75
604.9028	26875.45
608.90594	27235.65
612.90624	27838.35
616.90371	25841.25
620.89834	22295.05
624.89015	20746.65
628.87913	20656.95
632.86528	20869.55
636.84862	20790.25
640.82913	20414.85
644.80683	19956.25
648.78172	19647.05
652.75379	19590.75
656.72306	19750.45
660.68952	19869.35
664.65319	19698.15
668.61405	19380.35
672.57211	19379.85
676.52738	19462.65
680.47986	19498.05
684.42955	19442.15
688.37646	19336.45
692.32058	19431.55
696.26192	19692.15
700.20048	20035.45
704.13626	20243.15
708.06928	20382.05
711.99952	20365.25
715.927	20375.75
719.85171	20409.55
723.77365	20255.75
727.69284	19910.25
731.60928	19574.05
735.52295	19423.05
739.43388	19425.45
743.34206	19453.75
747.24749	19615.95
751.15017	19915.95
755.05012	20395.95
758.94733	21092.85
762.8418	22172.85
766.73354	23550.65
770.62254	24660.35
774.50882	24517.95
778.39237	23240.95
782.27321	21656.05
786.15132	20438.85
790.02671	19611.75
793.89938	19263.75
797.76935	19130.65
801.6366	19078.95
805.50115	19049.45
809.36299	18967.15
813.22213	18869.35
817.07857	18844.15
820.93231	18748.25
824.78336	18573.45
828.63172	18371.75
832.47738	18288.75
836.32036	18235.25
840.16066	18243.35
843.99827	18240.85
847.8332	18169.95
851.66546	18172.05
855.49504	18184.55
859.32195	18152.05
863.1462	18093.55
866.96777	18004.55
870.78668	18010.15
874.60293	17951.15
878.41652	17978.35
882.22745	17994.35
886.03573	18002.15
889.84136	18023.85
893.64433	17939.55
897.44466	17870.45
901.24235	17833.35
905.0374	17789.15
908.8298	17775.85
912.61957	17890.05
916.40671	18196.65
920.19121	18565.15
923.97308	18797.75
927.75233	18674.85
931.52895	18338.65
935.30295	17871.35
939.07433	17435.25
942.84309	17161.25
946.60924	16972.05
950.37278	16921.65
954.13371	16959.15
957.89203	17043.25
961.64774	17053.05
965.40086	17072.05
969.15137	16985.65
972.89929	16732.45
976.64461	16588.15
980.38733	16509.95
984.12747	16503.65
987.86502	16562.85
991.59999	16614.65
995.33237	16740.05
999.06217	16977.05
1002.78939	17313.55
1006.51404	17640.35
1010.23611	17974.05
1013.95561	18248.55
1017.67255	18320.65
1021.38692	18189.05
1025.09872	17822.15
1028.80796	17527.65
1032.51465	17405.45
1036.21877	17474.75
1039.92035	17556.45
1043.61937	17686.85
1047.31584	17727.95
1051.00976	17823.15
1054.70114	17922.55
1058.38998	18139.15
1062.07627	18389.35
1065.76003	18693.35
1069.44126	19021.65
1073.11995	19323.35
1076.79611	19587.45
1080.46974	19604.35
1084.14085	19614.85
1087.80943	19799.25
1091.47549	20081.35
1095.13903	20280.45
1098.80005	20045.45
1102.45857	19465.05
1106.11456	18921.65
1109.76805	18664.35
1113.41903	18626.55
1117.06751	18769.85
1120.71348	19020.65
1124.35696	19244.15
1127.99793	19546.35
1131.63641	19798.95
1135.2724	19788.15
1138.90589	19785.45
1142.5369	19978.35
1146.16542	20423.75
1149.79145	20934.55
1153.415	21355.95
1157.03607	21965.15
1160.65467	22919.55
1164.27079	24366.45
1167.88443	25978.45
1171.49561	27546.75
1175.10432	29299.45
1178.71056	31381.85
1182.31434	33367.35
1185.91565	34137.95
1189.51451	33735.85
1193.11091	32886.25
1196.70485	31957.25
1200.29634	31031.55
1203.88538	30468.45
1207.47197	30544.95
1211.05612	30605.35
1214.63782	30100.25
1218.21708	28870.35
1221.79391	27382.05
1225.36829	26305.75
1228.94024	25619.35
1232.50976	25131.05
1236.07685	24699.95
1239.6415	24451.25
1243.20374	24518.75
1246.76355	24747.55
1250.32093	25146.65
1253.8759	25641.55
1257.42845	26426.85
1260.97859	27247.05
1264.52631	28082.35
1268.07163	28856.15
1271.61453	29769.65
1275.15503	30803.55
1278.69312	32108.55
1282.22882	33576.35
1285.76211	35424.05
1289.29301	37590.25
1292.82151	40299.55
1296.34761	43409.75
1299.87133	46664.45
1303.39266	49481.85
1306.9116	51522.25
1310.42815	52667.75
1313.94233	53075.65
1317.45412	52916.85
1320.96354	52342.25
1324.47058	52179.15
1327.97525	52085.75
1331.47754	52049.65
1334.97747	51628.45
1338.47502	50838.45
1341.97022	49574.85
1345.46305	47991.75
1348.95352	46700.65
1352.44163	45969.95
1355.92738	46283.05
1359.41078	47434.45
1362.89183	48187.75
1366.37053	47356.45
1369.84688	44130.65
1373.32088	39638.15
1376.79254	36566.95
1380.26186	35927.65
1383.72883	36725.35
1387.19347	37499.05
1390.65578	37688.35
1394.11575	37926.75
1397.57339	38704.05
1401.0287	39694.65
1404.48168	40286.45
1407.93234	39809.45
1411.38068	38288.55
1414.82669	36097.45
1418.27039	33755.05
1421.71177	31507.85
1425.15083	29786.05
1428.58758	28969.05
1432.02203	29215.15
1435.45416	30292.85
1438.88399	31664.75
1442.31151	32858.65
1445.73673	33566.55
1449.15965	34188.55
1452.58027	34589.25
1455.9986	34686.45
1459.41463	34880.85
1462.82837	35203.65
1466.23982	35661.75
1469.64898	36148.75
1473.05586	36425.55
1476.46045	36313.55
1479.86276	35808.75
1483.26279	35127.75
1486.66054	34620.85
1490.05602	34548.15
1493.44922	34634.65
1496.84016	34852.35
1500.22882	35153.65
1503.61521	35631.95
1506.99934	36260.35
1510.38121	36843.45
1513.76081	37111.45
1517.13816	36932.85
1520.51324	36685.25
1523.88607	36871.45
1527.25665	37365.05
1530.62498	37919.85
1533.99105	37943.05
1537.35488	37311.35
1540.71647	36134.55
1544.07581	34664.35
1547.4329	33206.05
1550.78776	31874.05
1554.14038	30952.95
1557.49077	30361.95
1560.83892	30058.85
1564.18484	29962.95
1567.52853	30096.75
1570.86999	30552.15
1574.20922	31487.45
1577.54624	32686.85
1580.88103	33677.45
1584.2136	34796.45
1587.54395	36439.45
1590.87208	38550.65
1594.19801	40827.95
1597.52172	42646.45
1600.84321	42593.85
1604.16251	40020.65
1607.47959	35966.25
1610.79447	31894.25
1614.10715	28415.75
1617.41763	25876.75
1620.7259	24246.45
1624.03199	23493.65
1627.33587	23635.05
1630.63757	24697.65
1633.93707	26943.75
1637.23439	30638.35
1640.52951	35854.65
1643.82246	41992.55
1647.11321	46868.85
1650.40179	47528.55
1653.68819	43298.65
1656.97241	36361.75
1660.25446	29745.25
1663.53433	24816.35
1666.81203	21622.95
1670.08756	19635.85
1673.36092	18366.95
1676.63211	17560.05
1679.90115	17017.25
1683.16801	16592.95
1686.43272	16330.65
1689.69527	16091.65
1692.95567	15892.45
1696.2139	15784.25
1699.46999	15675.85
1702.72392	15591.15
1705.97571	15479.75
1709.22535	15348.35
1712.47284	15328.85
1715.71819	15272.25
1718.96139	15181.45
1722.20246	15135.85
1725.44139	15052.15
1728.67818	14955.55
1731.91284	14851.95
1735.14537	14743.55
1738.37576	14663.55
1741.60403	14591.15
1744.83017	14526.95
1748.05418	14489.15
1751.27607	14475.65
1754.49584	14459.55
1757.71349	14407.05
1760.92903	14412.15
1764.14244	14384.95
1767.35375	14355.05
1770.56294	14284.85
1773.77002	14270.75
1776.97499	14183.05
1780.17785	14145.75
1783.37861	14093.35
1786.57727	14088.75
1789.77382	14030.35
1792.96828	13967.95
1796.16064	13953.15
1799.3509	13910.65
1802.53907	13871.25
1805.72514	13801.75
1808.90913	13784.95
1812.09102	13740.05
1815.27083	13733.15
1818.44856	13700.15
1821.6242	13666.55
1824.79776	13684.05
1827.96924	13607.45
1831.13864	13633.65
1834.30597	13639.85
1837.47122	13614.45
1840.6344	13605.55
1843.7955	13616.25
1846.95454	13592.05
1850.11151	13594.75
1853.26642	13596.75
1856.41926	13562.35
1859.57004	13553.25
1862.71876	13548.05
1865.86542	13486.75
1869.01003	13457.85
1872.15258	13442.25
1875.29308	13439.35
1878.43152	13406.75
1881.56792	13380.35
1884.70227	13364.25
1887.83457	13355.05
1890.96482	13337.25
1894.09304	13307.05
1897.21921	13310.05
1900.34335	13288.55
1903.46544	13264.25
1906.58551	13238.25
1909.70353	13215.25
1912.81953	13183.85
1915.93349	13165.85
1919.04543	13097.85
1922.15534	13063.55
1925.26322	13017.75
1928.36908	12996.95
1931.47292	12969.55
1934.57473	12935.35
1937.67453	12889.05
1940.77232	12855.15
1943.86808	12825.85
1946.96184	12789.75
1950.05358	12746.95
1953.14331	12705.95
1956.23103	12673.95
1959.31675	12626.45
1962.40046	12583.15
1965.48217	12549.05
1968.56188	12491.85
1971.63959	12437.45
1974.7153	12406.35
1977.78901	12398.15
1980.86073	12332.35
1983.93046	12269.35
1986.99819	12213.15
1990.06394	12192.35
1993.1277	12170.35
1996.18947	12129.75
1999.24925	12085.95
2002.30706	12039.95
2005.36288	11991.65
2008.41672	11949.15
2011.46859	11932.05
2014.51848	11889.55
2017.56639	11843.65
2020.61233	11805.25
2023.6563	11800.15
2026.6983	11797.65
2029.73833	11744.85
2032.7764	11716.25
2035.8125	11693.85
2038.84664	11652.65
2041.87881	11663.45
2044.90903	11626.85
2047.93729	11620.45
2050.96359	11600.05
2053.98794	11585.55
2057.01034	11585.85
2060.03078	11554.65
2063.04927	11544.15
2066.06582	11533.05
2069.08042	11515.85
2072.09307	11523.95
2075.10378	11512.45
2078.11255	11468.75
2081.11938	11445.95
2084.12426	11450.05
2087.12722	11467.35
2090.12824	11449.75
2093.12732	11442.25
2096.12447	11455.35
2099.11969	11424.95
2102.11299	11458.75
2105.10435	11453.55
2108.09379	11432.05
2111.08131	11422.85
2114.0669	11439.15
2117.05057	11428.15
2120.03233	11436.65
2123.01216	11438.25
2125.99008	11439.65
2128.96609	11440.95
2131.94018	11434.15
2134.91236	11432.35
2137.88263	11438.35
2140.851	11429.55
2143.81746	11428.05
2146.78201	11424.15
2149.74466	11443.95
2152.7054	11395.35
2155.66425	11395.65
2158.6212	11405.15
2161.57625	11381.95
2164.52941	11381.95
2167.48067	11372.45
2170.43004	11383.25
2173.37752	11351.35
2176.32311	11344.75
2179.26681	11350.05
2182.20863	11314.05
2185.14856	11376.35
2188.08661	11342.55
2191.02278	11306.25
2193.95707	11317.05
2196.88948	11328.25
2199.82001	11283.05
2202.74867	11292.75
2205.67545	11228.45
2208.60037	11193.65
2211.52341	11199.15
2214.44458	11158.35
2217.36388	11181.85
2220.28132	11155.15
2223.1969	11142.15
2226.11061	11122.65
2229.02246	11110.15
2231.93245	11083.15
2234.84058	11055.45
2237.74686	11032.05
2240.65128	11039.45
2243.55385	11007.45
2246.45456	10987.55
2249.35343	10947.95
2252.25044	10906.05
2255.14561	10891.15
2258.03893	10889.95
2260.93041	10852.55
2263.82004	10808.85
2266.70783	10770.05
2269.59378	10724.45
2272.4779	10690.05
2275.36017	10648.95
2278.24061	10645.65
2281.11922	10618.05
2283.996	10609.25
2286.87094	10587.95
2289.74405	10548.85
2292.61534	10542.55
2295.4848	10531.75
2298.35243	10533.95
2301.21824	10510.55
2304.08223	10513.85
2306.94439	10500.85
2309.80474	10489.05
2312.66327	10485.45
2315.51999	10455.65
2318.37489	10479.25
2321.22797	10440.95
2324.07925	10426.95
2326.92871	10413.45
2329.77637	10397.25
2332.62222	10397.15
2335.46626	10370.55
2338.3085	10362.35
2341.14893	10354.75
2343.98756	10334.95
2346.8244	10356.95
2349.65943	10345.25
2352.49267	10355.25
2355.32411	10352.45
2358.15376	10342.95
2360.98161	10316.45
2363.80768	10328.75
2366.63195	10316.15
2369.45444	10301.05
2372.27514	10287.75
2375.09405	10292.45
2377.91118	10244.85
2380.72652	10251.65
2383.54009	10222.85
2386.35187	10182.15
2389.16188	10167.45
2391.97011	10139.35
2394.77657	10128.35
2397.58125	10103.25
2400.38416	10084.85
2403.18529	10042.15
2405.98466	10060.55
2408.78226	10037.85
2411.57809	10017.45
2414.37216	10038.05
2417.16446	10037.65
2419.955	10004.95
2422.74378	10002.15
2425.5308	10012.35
2428.31606	9996.95
2431.09956	9968.95
2433.88131	9968.05
2436.6613	9954.45
2439.43954	9973.35
2442.21603	9926.55
2444.99077	9927.85
2447.76377	9937.25
2450.53501	9929.05
2453.30451	9939.45
2456.07226	9932.95
2458.83827	9905.55
2461.60254	9928.65
2464.36507	9908.95
2467.12586	9913.65
2469.88492	9900.65
2472.64224	9897.65
2475.39782	9903.85
2478.15167	9901.75
2480.90379	9894.55
2483.65417	9899.65
2486.40283	9876.55
2489.14976	9863.15
2491.89497	9878.85
2494.63845	9872.95
2497.3802	9907.55
2500.12024	9856.65
2502.85855	9864.35
2505.59514	9858.05
2508.33002	9861.75
2511.06318	9853.15
2513.79462	9848.95
2516.52435	9833.35
2519.25237	9817.95
2521.97867	9797.75
2524.70327	9791.65
2527.42616	9818.35
2530.14734	9794.85
2532.86681	9780.65
2535.58458	9796.05
2538.30065	9777.95
2541.01501	9755.55
2543.72768	9728.05
2546.43864	9747.35
2549.14791	9714.65
2551.85548	9703.65
2554.56136	9721.35
2557.26554	9708.95
2559.96803	9700.25
2562.66883	9690.75
2565.36794	9694.95
2568.06536	9690.05
2570.7611	9670.55
2573.45514	9673.85
2576.14751	9650.95
2578.83819	9635.85
2581.52719	9614.75
2584.21451	9630.55
2586.90015	9622.65
2589.58411	9620.85
2592.2664	9630.35
2594.94701	9596.55
2597.62594	9621.75
2600.30321	9583.65
2602.9788	9589.65
2605.65273	9575.35
2608.32498	9582.85
2610.99557	9611.45
2613.66449	9616.95
2616.33175	9586.65
2618.99734	9603.95
2621.66128	9583.35
2624.32355	9565.45
2626.98416	9579.75
2629.64311	9572.35
2632.30041	9562.45
2634.95605	9566.95
2637.61004	9552.25
2640.26238	9529.65
2642.91306	9555.55
2645.56209	9549.65
2648.20948	9570.15
2650.85521	9532.45
2653.4993	9549.65
2656.14175	9554.25
2658.78255	9570.35
2661.42171	9570.65
2664.05923	9578.65
2666.6951	9589.35
2669.32934	9609.75
2671.96194	9584.35
2674.59291	9579.55
2677.22224	9554.05
2679.84993	9574.65
2682.476	9555.25
2685.10043	9566.95
2687.72324	9543.25
2690.34441	9537.35
2692.96396	9563.35
2695.58188	9569.75
2698.19818	9566.05
2700.81285	9558.85
2703.4259	9585.95
2706.03733	9616.25
2708.64714	9600.75
2711.25533	9610.75
2713.86191	9579.15
2716.46687	9608.05
2719.07021	9587.95
2721.67194	9597.25
2724.27206	9589.35
2726.87057	9611.85
2729.46747	9633.05
2732.06276	9636.15
2734.65644	9605.05
2737.24852	9608.85
2739.83899	9593.75
2742.42786	9615.35
2745.01513	9604.45
2747.60079	9597.55
2750.18486	9590.15
2752.76733	9607.95
2755.3482	9590.95
2757.92747	9606.95
2760.50515	9612.15
2763.08123	9617.35
2765.65573	9637.25
2768.22863	9619.05
2770.79994	9574.45
2773.36967	9585.65
2775.9378	9584.25
2778.50435	9588.95
2781.06932	9606.05
2783.6327	9552.55
2786.1945	9577.85
2788.75471	9552.15
2791.31335	9555.15
2793.87041	9552.15
2796.42589	9534.85
2798.97979	9535.35
2801.53212	9503.65
2804.08288	9522.35
2806.63206	9506.45
2809.17967	9458.25
2811.72571	9463.05
2814.27018	9426.95
2816.81308	9415.95
2819.35442	9379.95
2821.89419	9389.25
2824.43239	9362.25
2826.96904	9360.25
2829.50412	9353.55
2832.03763	9337.15
2834.56959	9342.65
2837.1	9352.15
2839.62884	9378.85
2842.15613	9352.65
2844.68186	9392.75
2847.20604	9420.25
2849.72867	9445.95
2852.24974	9427.65
2854.76927	9420.95
2857.28724	9446.95
2859.80367	9397.45
2862.31855	9389.15
2864.83189	9390.95
2867.34368	9356.75
2869.85393	9375.65
2872.36264	9338.95
2874.8698	9336.55
2877.37543	9298.55
2879.87952	9327.95
2882.38207	9313.05
2884.88308	9324.95
2887.38256	9329.75
2889.88051	9312.75
2892.37692	9299.95
2894.8718	9308.05
2897.36515	9330.95
2899.85698	9339.45
2902.34727	9374.45
2904.83604	9333.85
2907.32328	9381.65
2909.809	9359.35
2912.29319	9343.75
2914.77587	9350.45
2917.25702	9338.25
2919.73665	9336.85
2922.21476	9324.25
2924.69136	9338.65
2927.16644	9361.35
2929.64	9369.95
2932.11205	9361.85
2934.58258	9327.15
2937.05161	9353.65
2939.51912	9346.15
2941.98513	9318.65
2944.44962	9289.45
2946.91261	9198.25
2949.37409	9210.05
2951.83407	9204.65
2954.29254	9185.35
2956.74951	9173.75
2959.20498	9159.95
2961.65895	9143.85
2964.11142	9143.05
2966.56239	9099.15
2969.01186	9114.25
2971.45984	9066.85
2973.90632	9046.35
2976.35131	9002.65
2978.7948	8967.45
2981.23681	8939.55
2983.67732	8923.65
2986.11635	8916.15
2988.55388	8856.65
2990.98993	8864.55
2993.4245	8832.35
2995.85758	8810.15
2998.28917	8801.05
3000.71928	8770.35
3003.14791	8743.45
3005.57506	8735.75
3008.00073	8689.35
3010.42493	8674.15
3012.84764	8664.45
3015.26888	8646.45
3017.68865	8614.85
3020.10694	8603.75
3022.52376	8587.65
3024.9391	8551.45
3027.35298	8550.25
3029.76539	8541.75
3032.17632	8555.15
3034.5858	8528.85
3036.9938	8530.75
3039.40034	8514.85
3041.80542	8499.25
3044.20903	8497.25
3046.61118	8493.75
3049.01187	8456.45
3051.4111	8430.55
3053.80888	8400.35
3056.20519	8394.25
3058.60005	8353.05
3060.99345	8354.05
3063.3854	8326.25
3065.7759	8294.25
3068.16494	8292.85
3070.55254	8204.85
3072.93868	8238.95
3075.32338	8191.35
3077.70662	8179.85
3080.08842	8127.45
3082.46878	8130.65
3084.84769	8107.05
3087.22515	8107.45
3089.60118	8106.35
3091.97576	8109.55
3094.3489	8087.35
3096.72061	8070.85
3099.09087	8096.35
3101.4597	8071.65
3103.82709	8069.45
3106.19305	8035.35
3108.55757	8029.65
3110.92066	7980.35
3113.28232	7979.15
3115.64255	7936.35
3118.00134	7917.05
3120.35871	7897.15
3122.71466	7885.95
3125.06917	7874.65
3127.42226	7869.35
3129.77393	7882.15
3132.12417	7864.25
3134.47299	7859.75
3136.82039	7851.85
3139.16636	7838.55
3141.51092	7809.65
3143.85406	7826.05
3146.19579	7835.95
3148.53609	7812.55
3150.87499	7839.05
3153.21246	7824.05
3155.54853	7830.05
3157.88318	7801.45
3160.21642	7810.25
3162.54826	7802.55
3164.87868	7807.45
3167.2077	7799.65
3169.5353	7785.65
3171.86151	7789.35
3174.18631	7785.05
3176.5097	7798.15
3178.83169	7760.45
3181.15228	7777.55
3183.47147	7745.45
3185.78926	7754.65
3188.10565	7735.05
3190.42065	7744.75
3192.73424	7724.05
3195.04645	7704.65
3197.35725	7729.35
3199.66667	7698.05
3201.97469	7686.45
3204.28132	7695.65
3206.58656	7682.85
3208.8904	7660.55
3211.19287	7686.55
3213.49394	7658.35
3215.79363	7673.35
3218.09193	7661.85
3220.38884	7653.65
3222.68438	7672.65
3224.97853	7660.85
3227.2713	7640.35
3229.56269	7640.95
3231.8527	7618.45
3234.14133	7615.25
3236.42858	7603.85
3238.71446	7601.45
3240.99896	7579.15
3243.28209	7605.85
3245.56384	7592.15
3247.84423	7585.15
3250.12324	7564.95
3252.40088	7550.45
3254.67715	7535.15
3256.95205	7525.45
3259.22558	7514.55
3261.49775	7488.85
3263.76855	7441.35
3266.03799	7426.95
3268.30606	7422.35
3270.57277	7407.05
3272.83812	7382.95
3275.10211	7379.95
3277.36474	7366.15
3279.62601	7366.85
3281.88593	7356.15
3284.14448	7363.95
3286.40168	7361.95
3288.65753	7370.45
3290.91202	7333.65
3293.16516	7316.75
3295.41695	7310.75
3297.66738	7248.05
3299.91647	7235.85
3302.16421	7160.75
3304.4106	7115.25
3306.65564	7105.05
3308.89933	7059.05
3311.14169	6984.15
3313.38269	6942.55
3315.62236	6886.55
3317.86068	6825.05
3320.09766	6755.15
3322.3333	6689.95
3324.5676	6684.05
3326.80056	6601.85
3329.03219	6541.25
3331.26248	2.55
3333.49143	-0.55
3335.71905	-1.45
