Data from AgNPs_FTO_APTES_UA_2uM_CRN_2uM_R6G_10uM_NaF_0.1M_Addition_RamanShift__31__12-34-55-086.txt Node

Date: Wed Feb 02 12:34:55 GMT 2022
User: TCL
Spectrometer: QEP01345
Trigger mode: 4
Integration Time (sec): 7.000000E0
Scans to average: 10
Electric dark correction enabled: true
Nonlinearity correction enabled: false
Boxcar width: 0
XAxis mode: Raman Shifts
Number of Pixels in Spectrum: 1044
>>>>>Begin Spectral Data<<<<<
46.04893	0.65
50.45542	0.55
54.85868	-0.75
59.25871	0.65
63.6555	41.95
68.04907	46.25
72.43941	47.05
76.82654	53.65
81.21044	53.75
85.59113	55.75
89.96862	56.55
94.34289	60.45
98.71396	60.75
103.08183	67.35
107.4465	68.25
111.80798	72.85
116.16626	71.85
120.52136	73.65
124.87327	78.75
129.222	78.35
133.56755	85.05
137.90993	87.95
142.24913	101.45
146.58517	111.95
150.91804	130.35
155.24774	160.35
159.57429	195.45
163.89768	252.85
168.21792	332.75
172.53501	457.75
176.84895	624.25
181.15975	868.35
185.46741	1213.35
189.77193	1679.65
194.07331	2249.75
198.37157	2885.15
202.6667	3552.05
206.9587	4221.15
211.24758	4908.85
215.53334	5643.15
219.81599	6489.25
224.09553	7468.35
228.37195	8552.45
232.64527	9694.85
236.91549	10789.95
241.18261	11733.25
245.44663	12372.65
249.70755	12831.05
253.96539	13189.45
258.22014	13541.25
262.4718	13930.05
266.72039	14255.85
270.96589	14446.85
275.20832	14427.35
279.44768	14313.65
283.68397	14123.95
287.91719	14024.35
292.14735	14187.95
296.37445	14671.25
300.59849	15478.35
304.81948	16494.75
309.03742	17340.65
313.25231	17410.55
317.46415	16352.35
321.67296	14597.15
325.87872	13095.05
330.08145	12336.65
334.28114	12177.45
338.47781	12436.45
342.67145	12876.65
346.86207	13683.45
351.04966	14883.25
355.23424	16261.95
359.4158	17263.25
363.59435	17651.45
367.76989	17614.45
371.94243	17380.75
376.11196	17068.25
380.27849	16754.75
384.44203	16392.65
388.60257	15998.65
392.76012	15752.05
396.91468	15896.65
401.06626	16498.85
405.21485	16960.15
409.36047	16472.25
413.50311	15221.55
417.64277	14032.05
421.77947	13316.65
425.9132	13021.55
430.04396	12871.15
434.17176	12885.05
438.2966	13067.75
442.41849	13451.15
446.53742	13923.05
450.6534	14378.95
454.76644	14642.15
458.87653	14623.25
462.98368	14423.65
467.08789	14089.05
471.18916	13641.15
475.2875	13167.95
479.38291	12789.85
483.4754	12529.05
487.56496	12300.95
491.6516	12175.75
495.73531	12180.45
499.81612	12303.35
503.89401	12508.25
507.96899	12721.25
512.04106	12990.45
516.11023	13307.95
520.1765	13519.65
524.23987	13458.75
528.30034	13071.45
532.35792	12604.65
536.41261	12136.65
540.46441	11660.75
544.51333	11400.95
548.55936	11511.75
552.60252	11917.65
556.64279	12394.55
560.6802	12726.25
564.71473	13077.25
568.7464	13967.35
572.7752	14613.55
576.80114	14002.55
580.82422	13225.95
584.84444	12868.75
588.86181	12658.45
592.87633	12600.25
596.888	12750.15
600.89682	13435.35
604.9028	15791.25
608.90594	22286.15
612.90624	31141.55
616.90371	30285.75
620.89834	18772.15
624.89015	13099.55
628.87913	12014.35
632.86528	12154.05
636.84862	12515.45
640.82913	12282.65
644.80683	11461.25
648.78172	10889.55
652.75379	10983.65
656.72306	11797.35
660.68952	12817.55
664.65319	12649.15
668.61405	11600.85
672.57211	11023.05
676.52738	10954.25
680.47986	10890.75
684.42955	10729.25
688.37646	10628.45
692.32058	10658.35
696.26192	10836.35
700.20048	11100.55
704.13626	11306.45
708.06928	11351.25
711.99952	11192.75
715.927	11050.65
719.85171	11096.55
723.77365	11063.15
727.69284	10840.15
731.60928	10671.65
735.52295	10646.05
739.43388	10697.75
743.34206	10797.55
747.24749	10877.95
751.15017	11024.55
755.05012	11371.35
758.94733	12244.95
762.8418	14336.75
766.73354	18045.25
770.62254	22005.05
774.50882	23930.85
778.39237	22745.85
782.27321	18913.25
786.15132	14865.25
790.02671	12537.15
793.89938	11488.85
797.76935	11025.25
801.6366	10818.05
805.50115	10669.35
809.36299	10588.35
813.22213	10502.85
817.07857	10458.45
820.93231	10463.25
824.78336	10484.25
828.63172	10582.15
832.47738	10660.75
836.32036	10629.35
840.16066	10504.65
843.99827	10379.75
847.8332	10285.45
851.66546	10297.35
855.49504	10284.05
859.32195	10245.55
863.1462	10113.15
866.96777	10057.25
870.78668	10039.55
874.60293	10064.35
878.41652	10110.95
882.22745	10221.85
886.03573	10313.25
889.84136	10256.75
893.64433	10154.85
897.44466	10124.55
901.24235	10142.35
905.0374	10121.05
908.8298	10031.15
912.61957	10037.45
916.40671	10099.05
920.19121	10258.05
923.97308	10432.55
927.75233	10634.75
931.52895	10811.95
935.30295	10654.85
939.07433	10107.25
942.84309	9673.15
946.60924	9405.75
950.37278	9260.45
954.13371	9197.95
957.89203	9136.65
961.64774	9109.35
965.40086	9043.85
969.15137	9025.95
972.89929	8985.65
976.64461	8984.75
980.38733	8986.55
984.12747	9006.65
987.86502	9050.15
991.59999	9116.95
995.33237	9259.65
999.06217	9476.85
1002.78939	9810.65
1006.51404	10157.85
1010.23611	10524.75
1013.95561	10741.65
1017.67255	10671.05
1021.38692	10420.25
1025.09872	10144.35
1028.80796	9962.75
1032.51465	9981.35
1036.21877	10201.95
1039.92035	10395.05
1043.61937	10502.45
1047.31584	10485.15
1051.00976	10418.65
1054.70114	10328.15
1058.38998	10296.85
1062.07627	10334.75
1065.76003	10396.05
1069.44126	10563.85
1073.11995	10796.45
1076.79611	10986.55
1080.46974	11249.15
1084.14085	11742.95
1087.80943	12295.45
1091.47549	12536.75
1095.13903	12214.85
1098.80005	11527.95
1102.45857	10910.95
1106.11456	10611.35
1109.76805	10643.85
1113.41903	10958.25
1117.06751	11510.85
1120.71348	12262.55
1124.35696	13139.65
1127.99793	14013.55
1131.63641	13992.85
1135.2724	12997.15
1138.90589	11985.05
1142.5369	11437.85
1146.16542	11064.35
1149.79145	10887.05
1153.415	10841.85
1157.03607	11031.45
1160.65467	11374.75
1164.27079	11987.95
1167.88443	12955.95
1171.49561	14581.95
1175.10432	17329.65
1178.71056	20900.65
1182.31434	23345.45
1185.91565	23628.95
1189.51451	22625.15
1193.11091	20750.75
1196.70485	18485.35
1200.29634	16813.85
1203.88538	15655.45
1207.47197	14283.95
1211.05612	13095.25
1214.63782	12471.35
1218.21708	12265.45
1221.79391	12303.65
1225.36829	12455.45
1228.94024	12666.25
1232.50976	12799.65
1236.07685	12862.35
1239.6415	12860.25
1243.20374	12788.75
1246.76355	12796.05
1250.32093	12949.25
1253.8759	13274.15
1257.42845	13791.05
1260.97859	14437.45
1264.52631	15107.95
1268.07163	15807.75
1271.61453	16453.15
1275.15503	16913.05
1278.69312	17048.35
1282.22882	17113.25
1285.76211	17564.35
1289.29301	18344.15
1292.82151	19158.35
1296.34761	19824.15
1299.87133	20952.75
1303.39266	23009.65
1306.9116	26369.75
1310.42815	30632.25
1313.94233	33524.75
1317.45412	33206.85
1320.96354	30523.95
1324.47058	27336.85
1327.97525	24483.35
1331.47754	22681.55
1334.97747	21816.35
1338.47502	21632.25
1341.97022	21867.05
1345.46305	22768.85
1348.95352	24564.25
1352.44163	27043.55
1355.92738	30709.85
1359.41078	36380.55
1362.89183	42415.35
1366.37053	41873.95
1369.84688	34660.95
1373.32088	27050.05
1376.79254	22225.05
1380.26186	19813.95
1383.72883	18575.85
1387.19347	17662.25
1390.65578	16580.75
1394.11575	15756.25
1397.57339	15303.35
1401.0287	15304.95
1404.48168	15493.25
1407.93234	15690.85
1411.38068	15826.75
1414.82669	15736.85
1418.27039	15439.75
1421.71177	15108.15
1425.15083	14771.75
1428.58758	14466.05
1432.02203	14444.25
1435.45416	14659.95
1438.88399	14749.95
1442.31151	14751.85
1445.73673	14807.75
1449.15965	14945.85
1452.58027	14849.35
1455.9986	14683.35
1459.41463	14622.35
1462.82837	14782.95
1466.23982	15168.85
1469.64898	15562.45
1473.05586	15899.25
1476.46045	16147.95
1479.86276	16505.75
1483.26279	16979.25
1486.66054	17584.85
1490.05602	18396.65
1493.44922	19574.15
1496.84016	21436.15
1500.22882	24373.45
1503.61521	28363.15
1506.99934	32871.25
1510.38121	37351.25
1513.76081	40097.65
1517.13816	38590.55
1520.51324	33256.25
1523.88607	27334.75
1527.25665	23113.05
1530.62498	20648.25
1533.99105	19198.85
1537.35488	18202.55
1540.71647	17575.75
1544.07581	17181.45
1547.4329	16972.05
1550.78776	16780.55
1554.14038	16736.75
1557.49077	16957.15
1560.83892	17481.25
1564.18484	18275.05
1567.52853	19154.05
1570.86999	19900.35
1574.20922	20415.95
1577.54624	20255.45
1580.88103	18937.45
1584.2136	17131.95
1587.54395	16063.75
1590.87208	16177.05
1594.19801	17255.65
1597.52172	18795.55
1600.84321	19429.35
1604.16251	18530.15
1607.47959	16941.45
1610.79447	15365.45
1614.10715	13872.75
1617.41763	12652.65
1620.7259	11928.85
1624.03199	11598.05
1627.33587	11623.95
1630.63757	12025.15
1633.93707	12779.55
1637.23439	14031.05
1640.52951	15901.85
1643.82246	18526.25
1647.11321	21810.05
1650.40179	24592.65
1653.68819	24504.05
1656.97241	20924.35
1660.25446	16445.15
1663.53433	13115.55
1666.81203	11174.75
1670.08756	10104.85
1673.36092	9444.45
1676.63211	9038.35
1679.90115	8777.65
1683.16801	8578.75
1686.43272	8448.85
1689.69527	8351.25
1692.95567	8298.55
1696.2139	8236.15
1699.46999	8207.25
1702.72392	8174.95
1705.97571	8140.75
1709.22535	8127.75
1712.47284	8124.65
1715.71819	8150.05
1718.96139	8150.45
1722.20246	8136.25
1725.44139	8111.35
1728.67818	8032.85
1731.91284	7907.05
1735.14537	7815.65
1738.37576	7756.15
1741.60403	7692.35
1744.83017	7641.05
1748.05418	7610.25
1751.27607	7600.05
1754.49584	7561.75
1757.71349	7539.05
1760.92903	7543.85
1764.14244	7517.15
1767.35375	7476.05
1770.56294	7462.95
1773.77002	7418.05
1776.97499	7377.45
1780.17785	7318.75
1783.37861	7304.35
1786.57727	7274.25
1789.77382	7251.45
1792.96828	7233.05
1796.16064	7209.15
1799.3509	7209.45
1802.53907	7166.95
1805.72514	7147.65
1808.90913	7139.55
1812.09102	7095.75
1815.27083	7094.45
1818.44856	7049.55
1821.6242	7061.75
1824.79776	7036.45
1827.96924	7020.65
1831.13864	7012.55
1834.30597	7019.85
1837.47122	7009.45
1840.6344	6972.25
1843.7955	6981.55
1846.95454	6966.65
1850.11151	6985.55
1853.26642	6969.75
1856.41926	6946.45
1859.57004	6975.25
1862.71876	6976.65
1865.86542	6965.35
1869.01003	6988.35
1872.15258	6983.45
1875.29308	7020.55
1878.43152	7010.05
1881.56792	7035.05
1884.70227	7062.45
1887.83457	7067.15
1890.96482	7080.75
1894.09304	7079.95
1897.21921	7074.15
1900.34335	7101.75
1903.46544	7084.45
1906.58551	7112.65
1909.70353	7104.65
1912.81953	7094.35
1915.93349	7089.65
1919.04543	7062.15
1922.15534	7064.85
1925.26322	7037.95
1928.36908	7006.45
1931.47292	6949.25
1934.57473	6872.65
1937.67453	6844.95
1940.77232	6778.75
1943.86808	6720.85
1946.96184	6696.25
1950.05358	6634.05
1953.14331	6603.25
1956.23103	6584.65
1959.31675	6548.15
1962.40046	6522.45
1965.48217	6512.05
1968.56188	6476.45
1971.63959	6473.95
1974.7153	6445.05
1977.78901	6424.85
1980.86073	6395.45
1983.93046	6349.95
1986.99819	6326.55
1990.06394	6299.25
1993.1277	6284.75
1996.18947	6239.45
1999.24925	6232.05
2002.30706	6187.45
2005.36288	6165.65
2008.41672	6156.65
2011.46859	6142.75
2014.51848	6133.45
2017.56639	6116.95
2020.61233	6086.35
2023.6563	6064.95
2026.6983	6055.75
2029.73833	6029.35
2032.7764	6019.95
2035.8125	6003.85
2038.84664	5987.45
2041.87881	5987.65
2044.90903	5965.85
2047.93729	5947.55
2050.96359	5949.65
2053.98794	5930.45
2057.01034	5913.15
2060.03078	5909.75
2063.04927	5905.75
2066.06582	5888.15
2069.08042	5884.35
2072.09307	5867.85
2075.10378	5863.45
2078.11255	5855.95
2081.11938	5876.75
2084.12426	5852.05
2087.12722	5858.65
2090.12824	5836.85
2093.12732	5827.45
2096.12447	5835.55
2099.11969	5846.95
2102.11299	5832.85
2105.10435	5848.85
2108.09379	5834.45
2111.08131	5843.15
2114.0669	5842.15
2117.05057	5844.95
2120.03233	5844.25
2123.01216	5848.45
2125.99008	5849.75
2128.96609	5853.35
2131.94018	5854.95
2134.91236	5864.95
2137.88263	5856.65
2140.851	5856.25
2143.81746	5847.95
2146.78201	5835.55
2149.74466	5824.85
2152.7054	5814.65
2155.66425	5812.95
2158.6212	5800.85
2161.57625	5814.15
2164.52941	5796.55
2167.48067	5803.15
2170.43004	5793.75
2173.37752	5796.55
2176.32311	5775.25
2179.26681	5809.15
2182.20863	5796.85
2185.14856	5799.45
2188.08661	5793.25
2191.02278	5791.05
2193.95707	5782.95
2196.88948	5745.15
2199.82001	5751.65
2202.74867	5755.05
2205.67545	5754.35
2208.60037	5727.15
2211.52341	5717.25
2214.44458	5715.85
2217.36388	5685.75
2220.28132	5679.85
2223.1969	5656.05
2226.11061	5656.25
2229.02246	5628.95
2231.93245	5630.25
2234.84058	5615.55
2237.74686	5612.55
2240.65128	5595.05
2243.55385	5579.15
2246.45456	5574.45
2249.35343	5583.85
2252.25044	5576.55
2255.14561	5574.05
2258.03893	5572.15
2260.93041	5545.25
2263.82004	5563.25
2266.70783	5555.75
2269.59378	5546.35
2272.4779	5527.25
2275.36017	5497.35
2278.24061	5483.75
2281.11922	5471.25
2283.996	5474.05
2286.87094	5449.35
2289.74405	5430.05
2292.61534	5415.85
2295.4848	5402.55
2298.35243	5388.35
2301.21824	5370.65
2304.08223	5381.15
2306.94439	5376.55
2309.80474	5371.55
2312.66327	5366.55
2315.51999	5380.15
2318.37489	5374.75
2321.22797	5341.65
2324.07925	5356.85
2326.92871	5341.45
2329.77637	5341.95
2332.62222	5340.05
2335.46626	5317.55
2338.3085	5306.95
2341.14893	5299.95
2343.98756	5323.85
2346.8244	5327.05
2349.65943	5340.65
2352.49267	5346.15
2355.32411	5360.15
2358.15376	5378.25
2360.98161	5400.85
2363.80768	5407.65
2366.63195	5425.45
2369.45444	5427.75
2372.27514	5418.45
2375.09405	5415.45
2377.91118	5370.95
2380.72652	5356.45
2383.54009	5319.75
2386.35187	5309.65
2389.16188	5238.65
2391.97011	5247.65
2394.77657	5217.75
2397.58125	5172.95
2400.38416	5170.25
2403.18529	5155.85
2405.98466	5146.95
2408.78226	5126.75
2411.57809	5132.75
2414.37216	5131.45
2417.16446	5127.15
2419.955	5107.15
2422.74378	5113.55
2425.5308	5080.05
2428.31606	5095.45
2431.09956	5095.65
2433.88131	5094.35
2436.6613	5099.25
2439.43954	5109.05
2442.21603	5109.35
2444.99077	5113.35
2447.76377	5125.85
2450.53501	5124.55
2453.30451	5112.75
2456.07226	5121.35
2458.83827	5121.15
2461.60254	5117.55
2464.36507	5119.05
2467.12586	5094.15
2469.88492	5090.45
2472.64224	5108.75
2475.39782	5121.65
2478.15167	5142.05
2480.90379	5141.45
2483.65417	5143.85
2486.40283	5181.55
2489.14976	5187.35
2491.89497	5203.95
2494.63845	5208.65
2497.3802	5202.35
2500.12024	5204.25
2502.85855	5175.05
2505.59514	5157.55
2508.33002	5133.15
2511.06318	5094.75
2513.79462	5074.85
2516.52435	5045.45
2519.25237	5028.35
2521.97867	4990.15
2524.70327	4967.35
2527.42616	4954.35
2530.14734	4963.35
2532.86681	4936.15
2535.58458	4961.35
2538.30065	4929.85
2541.01501	4936.65
2543.72768	4942.35
2546.43864	4954.15
2549.14791	4956.05
2551.85548	4956.25
2554.56136	4937.55
2557.26554	4949.95
2559.96803	4939.25
2562.66883	4920.55
2565.36794	4931.55
2568.06536	4916.85
2570.7611	4909.25
2573.45514	4894.85
2576.14751	4902.35
2578.83819	4871.35
2581.52719	4883.05
2584.21451	4853.95
2586.90015	4864.15
2589.58411	4850.75
2592.2664	4852.35
2594.94701	4828.15
2597.62594	4836.95
2600.30321	4829.75
2602.9788	4833.25
2605.65273	4819.75
2608.32498	4818.65
2610.99557	4827.05
2613.66449	4825.15
2616.33175	4839.75
2618.99734	4832.35
2621.66128	4808.55
2624.32355	4806.25
2626.98416	4810.45
2629.64311	4807.45
2632.30041	4800.85
2634.95605	4779.55
2637.61004	4760.85
2640.26238	4760.25
2642.91306	4754.15
2645.56209	4755.65
2648.20948	4751.15
2650.85521	4753.85
2653.4993	4735.75
2656.14175	4735.35
2658.78255	4730.85
2661.42171	4747.15
2664.05923	4765.85
2666.6951	4766.85
2669.32934	4785.55
2671.96194	4783.75
2674.59291	4797.75
2677.22224	4791.55
2679.84993	4800.35
2682.476	4792.35
2685.10043	4799.25
2687.72324	4782.05
2690.34441	4792.55
2692.96396	4787.35
2695.58188	4802.15
2698.19818	4796.25
2700.81285	4796.75
2703.4259	4795.75
2706.03733	4800.15
2708.64714	4802.65
2711.25533	4801.35
2713.86191	4824.35
2716.46687	4840.65
2719.07021	4842.65
2721.67194	4846.45
2724.27206	4833.15
2726.87057	4834.95
2729.46747	4839.25
2732.06276	4827.85
2734.65644	4816.35
2737.24852	4809.75
2739.83899	4792.25
2742.42786	4798.05
2745.01513	4783.05
2747.60079	4779.15
2750.18486	4760.75
2752.76733	4749.35
2755.3482	4744.35
2757.92747	4737.65
2760.50515	4739.45
2763.08123	4728.95
2765.65573	4717.65
2768.22863	4716.85
2770.79994	4705.35
2773.36967	4721.35
2775.9378	4724.75
2778.50435	4720.85
2781.06932	4715.85
2783.6327	4722.65
2786.1945	4724.95
2788.75471	4719.35
2791.31335	4722.35
2793.87041	4724.45
2796.42589	4707.95
2798.97979	4733.85
2801.53212	4745.05
2804.08288	4741.35
2806.63206	4744.35
2809.17967	4735.15
2811.72571	4748.65
2814.27018	4767.55
2816.81308	4776.55
2819.35442	4780.85
2821.89419	4807.05
2824.43239	4821.85
2826.96904	4829.45
2829.50412	4849.05
2832.03763	4850.55
2834.56959	4864.85
2837.1	4880.75
2839.62884	4911.15
2842.15613	4974.65
2844.68186	5046.15
2847.20604	5119.25
2849.72867	5216.85
2852.24974	5227.95
2854.76927	5236.65
2857.28724	5236.45
2859.80367	5210.75
2862.31855	5183.65
2864.83189	5159.55
2867.34368	5171.15
2869.85393	5159.75
2872.36264	5152.05
2874.8698	5154.15
2877.37543	5160.95
2879.87952	5161.15
2882.38207	5138.25
2884.88308	5125.25
2887.38256	5100.85
2889.88051	5096.35
2892.37692	5115.15
2894.8718	5130.15
2897.36515	5142.75
2899.85698	5116.05
2902.34727	5128.55
2904.83604	5134.75
2907.32328	5134.15
2909.809	5109.95
2912.29319	5132.75
2914.77587	5110.85
2917.25702	5112.55
2919.73665	5096.65
2922.21476	5090.25
2924.69136	5089.05
2927.16644	5075.25
2929.64	5050.05
2932.11205	5014.85
2934.58258	5002.25
2937.05161	4971.85
2939.51912	4933.95
2941.98513	4892.65
2944.44962	4843.85
2946.91261	4756.65
2949.37409	4727.05
2951.83407	4710.45
2954.29254	4685.75
2956.74951	4648.25
2959.20498	4626.95
2961.65895	4624.35
2964.11142	4605.55
2966.56239	4586.85
2969.01186	4562.05
2971.45984	4517.95
2973.90632	4500.85
2976.35131	4482.85
2978.7948	4473.95
2981.23681	4456.75
2983.67732	4432.65
2986.11635	4403.05
2988.55388	4390.15
2990.98993	4369.35
2993.4245	4348.85
2995.85758	4342.55
2998.28917	4331.25
3000.71928	4318.15
3003.14791	4313.65
3005.57506	4297.05
3008.00073	4300.15
3010.42493	4287.15
3012.84764	4273.95
3015.26888	4273.25
3017.68865	4271.35
3020.10694	4245.15
3022.52376	4245.25
3024.9391	4246.65
3027.35298	4237.15
3029.76539	4215.75
3032.17632	4210.95
3034.5858	4195.75
3036.9938	4197.35
3039.40034	4190.65
3041.80542	4175.05
3044.20903	4167.75
3046.61118	4158.85
3049.01187	4134.95
3051.4111	4140.85
3053.80888	4142.95
3056.20519	4127.65
3058.60005	4120.65
3060.99345	4125.35
3063.3854	4110.05
3065.7759	4088.55
3068.16494	4094.65
3070.55254	4068.45
3072.93868	4082.85
3075.32338	4052.55
3077.70662	4033.15
3080.08842	4029.25
3082.46878	4005.85
3084.84769	4004.95
3087.22515	3998.05
3089.60118	3980.55
3091.97576	3966.55
3094.3489	3954.85
3096.72061	3957.75
3099.09087	3949.75
3101.4597	3929.25
3103.82709	3937.45
3106.19305	3920.45
3108.55757	3936.75
3110.92066	3907.05
3113.28232	3903.45
3115.64255	3905.45
3118.00134	3882.95
3120.35871	3878.45
3122.71466	3876.45
3125.06917	3863.55
3127.42226	3866.35
3129.77393	3882.15
3132.12417	3871.95
3134.47299	3883.15
3136.82039	3866.55
3139.16636	3886.35
3141.51092	3891.05
3143.85406	3886.95
3146.19579	3902.15
3148.53609	3885.15
3150.87499	3909.45
3153.21246	3917.55
3155.54853	3908.85
3157.88318	3911.05
3160.21642	3909.95
3162.54826	3906.35
3164.87868	3914.45
3167.2077	3899.15
3169.5353	3909.95
3171.86151	3908.05
3174.18631	3900.65
3176.5097	3896.55
3178.83169	3900.75
3181.15228	3908.45
3183.47147	3897.35
3185.78926	3901.85
3188.10565	3911.05
3190.42065	3906.05
3192.73424	3925.15
3195.04645	3899.45
3197.35725	3908.15
3199.66667	3918.45
3201.97469	3926.75
3204.28132	3923.95
3206.58656	3924.75
3208.8904	3918.35
3211.19287	3940.25
3213.49394	3957.05
3215.79363	3952.45
3218.09193	3950.15
3220.38884	3949.55
3222.68438	3956.85
3224.97853	3950.65
3227.2713	3944.35
3229.56269	3929.45
3231.8527	3933.05
3234.14133	3923.75
3236.42858	3920.95
3238.71446	3923.25
3240.99896	3917.25
3243.28209	3918.45
3245.56384	3917.95
3247.84423	3910.25
3250.12324	3909.45
3252.40088	3896.35
3254.67715	3898.75
3256.95205	3873.05
3259.22558	3881.75
3261.49775	3872.75
3263.76855	3863.35
3266.03799	3860.85
3268.30606	3851.55
3270.57277	3843.05
3272.83812	3833.75
3275.10211	3840.05
3277.36474	3827.75
3279.62601	3829.85
3281.88593	3832.75
3284.14448	3842.05
3286.40168	3817.25
3288.65753	3830.35
3290.91202	3818.35
3293.16516	3808.65
3295.41695	3803.85
3297.66738	3778.75
3299.91647	3764.25
3302.16421	3755.65
3304.4106	3721.85
3306.65564	3706.05
3308.89933	3673.05
3311.14169	3661.35
3313.38269	3611.45
3315.62236	3606.85
3317.86068	3566.45
3320.09766	3531.65
3322.3333	3492.05
3324.5676	3503.75
3326.80056	3439.95
3329.03219	3406.45
3331.26248	1.45
3333.49143	-1.05
3335.71905	-1.55
