Data from AgNPs_FTO_APTES_UA_2uM_CRN_0uM_R6G_10uM_NaF_0.1M_Addition_RamanShift__39__10-49-54-964.txt Node

Date: Wed Feb 02 10:49:54 GMT 2022
User: TCL
Spectrometer: QEP01345
Trigger mode: 4
Integration Time (sec): 7.000000E0
Scans to average: 10
Electric dark correction enabled: true
Nonlinearity correction enabled: false
Boxcar width: 0
XAxis mode: Raman Shifts
Number of Pixels in Spectrum: 1044
>>>>>Begin Spectral Data<<<<<
46.04893	0.65
50.45542	-0.25
54.85868	-0.35
59.25871	-0.15
63.6555	60.75
68.04907	67.85
72.43941	67.85
76.82654	74.75
81.21044	77.45
85.59113	78.95
89.96862	77.35
94.34289	84.35
98.71396	87.45
103.08183	93.95
107.4465	92.15
111.80798	96.15
116.16626	103.45
120.52136	105.95
124.87327	109.95
129.222	114.45
133.56755	126.55
137.90993	133.65
142.24913	155.65
146.58517	177.75
150.91804	203.45
155.24774	251.55
159.57429	314.55
163.89768	410.65
168.21792	544.35
172.53501	753.15
176.84895	1050.75
181.15975	1473.65
185.46741	2061.45
189.77193	2847.45
194.07331	3788.45
198.37157	4884.15
202.6667	6031.35
206.9587	7158.75
211.24758	8292.05
215.53334	9416.05
219.81599	10602.95
224.09553	11954.55
228.37195	13457.25
232.64527	15015.85
236.91549	16699.85
241.18261	18305.25
245.44663	19846.25
249.70755	21142.25
253.96539	22323.85
258.22014	23297.15
262.4718	24055.95
266.72039	24543.25
270.96589	24737.25
275.20832	24695.35
279.44768	24445.05
283.68397	24176.55
287.91719	23976.65
292.14735	23883.75
296.37445	23900.55
300.59849	23968.25
304.81948	24150.95
309.03742	24262.45
313.25231	24168.05
317.46415	23856.75
321.67296	23297.95
325.87872	22770.95
330.08145	22448.95
334.28114	22252.65
338.47781	22295.65
342.67145	22468.55
346.86207	22800.55
351.04966	23139.55
355.23424	23511.65
359.4158	23907.85
363.59435	24224.25
367.76989	24358.25
371.94243	24369.55
376.11196	24277.85
380.27849	24150.45
384.44203	24162.65
388.60257	24359.45
392.76012	24696.05
396.91468	25137.65
401.06626	25602.45
405.21485	25815.15
409.36047	25700.85
413.50311	25410.65
417.64277	25375.65
421.77947	25602.85
425.9132	25820.75
430.04396	25941.55
434.17176	25962.15
438.2966	25978.15
442.41849	26309.95
446.53742	26991.85
450.6534	27743.95
454.76644	28166.55
458.87653	28244.65
462.98368	28079.45
467.08789	27782.15
471.18916	27342.65
475.2875	26947.55
479.38291	26794.55
483.4754	26868.45
487.56496	26717.55
491.6516	26305.35
495.73531	25672.15
499.81612	25291.15
503.89401	25285.45
507.96899	25371.35
512.04106	25246.05
516.11023	24942.05
520.1765	24482.95
524.23987	24113.45
528.30034	23727.65
532.35792	23468.25
536.41261	23107.25
540.46441	22802.85
544.51333	22793.25
548.55936	23055.55
552.60252	23693.65
556.64279	24515.45
560.6802	25171.85
564.71473	25675.65
568.7464	26449.05
572.7752	27754.45
576.80114	29312.65
580.82422	30875.55
584.84444	32764.85
588.86181	35471.65
592.87633	37813.05
596.888	37287.15
600.89682	33949.85
604.9028	31509.25
608.90594	32014.05
612.90624	33299.05
616.90371	30916.85
620.89834	26005.45
624.89015	23761.95
628.87913	23650.45
632.86528	23969.05
636.84862	23881.15
640.82913	23224.55
644.80683	22545.15
648.78172	22227.15
652.75379	22261.45
656.72306	22521.55
660.68952	22680.85
664.65319	22438.65
668.61405	21898.55
672.57211	21808.15
676.52738	21963.65
680.47986	21993.35
684.42955	21755.75
688.37646	21637.05
692.32058	21779.85
696.26192	22266.25
700.20048	22787.25
704.13626	23160.15
708.06928	23360.25
711.99952	23401.25
715.927	23430.65
719.85171	23506.35
723.77365	23265.65
727.69284	22627.95
731.60928	22124.55
735.52295	21909.35
739.43388	21898.85
743.34206	21983.35
747.24749	22211.15
751.15017	22596.15
755.05012	23204.35
758.94733	24022.75
762.8418	25355.05
766.73354	27284.65
770.62254	28814.85
774.50882	28611.15
778.39237	26961.35
782.27321	25018.35
786.15132	23519.35
790.02671	22587.25
793.89938	22084.35
797.76935	21867.85
801.6366	21792.45
805.50115	21703.85
809.36299	21709.15
813.22213	21560.85
817.07857	21496.15
820.93231	21355.65
824.78336	21110.05
828.63172	20891.35
832.47738	20769.55
836.32036	20700.15
840.16066	20722.75
843.99827	20736.55
847.8332	20712.55
851.66546	20735.25
855.49504	20799.85
859.32195	20780.75
863.1462	20709.95
866.96777	20636.95
870.78668	20596.15
874.60293	20587.35
878.41652	20609.45
882.22745	20724.65
886.03573	20811.75
889.84136	20850.55
893.64433	20762.45
897.44466	20756.45
901.24235	20802.25
905.0374	20740.45
908.8298	20714.45
912.61957	20803.05
916.40671	21112.95
920.19121	21555.95
923.97308	21988.15
927.75233	22075.05
931.52895	21687.15
935.30295	20940.35
939.07433	20299.55
942.84309	19838.05
946.60924	19542.45
950.37278	19474.15
954.13371	19445.75
957.89203	19479.45
961.64774	19481.95
965.40086	19474.45
969.15137	19404.55
972.89929	19212.15
976.64461	18996.95
980.38733	18897.35
984.12747	18861.95
987.86502	18884.15
991.59999	18978.05
995.33237	19086.35
999.06217	19401.65
1002.78939	19859.65
1006.51404	20352.65
1010.23611	20930.15
1013.95561	21323.55
1017.67255	21398.95
1021.38692	21147.65
1025.09872	20585.25
1028.80796	20131.95
1032.51465	19973.55
1036.21877	20044.35
1039.92035	20164.95
1043.61937	20291.85
1047.31584	20394.15
1051.00976	20475.55
1054.70114	20595.75
1058.38998	20740.25
1062.07627	20928.85
1065.76003	21259.45
1069.44126	21763.65
1073.11995	22389.85
1076.79611	22860.45
1080.46974	23000.75
1084.14085	23128.45
1087.80943	23530.25
1091.47549	23891.25
1095.13903	24065.75
1098.80005	23571.25
1102.45857	22618.25
1106.11456	21857.45
1109.76805	21457.95
1113.41903	21383.35
1117.06751	21508.05
1120.71348	21762.55
1124.35696	22024.75
1127.99793	22358.45
1131.63641	22620.15
1135.2724	22694.25
1138.90589	22735.55
1142.5369	22951.85
1146.16542	23324.65
1149.79145	23741.65
1153.415	24211.45
1157.03607	24803.55
1160.65467	25950.45
1164.27079	27737.65
1167.88443	29666.15
1171.49561	31439.25
1175.10432	33662.25
1178.71056	36403.95
1182.31434	38932.65
1185.91565	39935.25
1189.51451	39206.55
1193.11091	37919.25
1196.70485	36393.15
1200.29634	34851.75
1203.88538	33981.05
1207.47197	33879.95
1211.05612	33974.95
1214.63782	33483.15
1218.21708	32299.85
1221.79391	30751.05
1225.36829	29622.85
1228.94024	28990.15
1232.50976	28525.95
1236.07685	27973.95
1239.6415	27485.05
1243.20374	27296.75
1246.76355	27472.65
1250.32093	27880.85
1253.8759	28577.95
1257.42845	29659.25
1260.97859	30828.85
1264.52631	32061.25
1268.07163	33189.45
1271.61453	34363.15
1275.15503	35716.45
1278.69312	37334.85
1282.22882	39439.95
1285.76211	41941.55
1289.29301	44670.55
1292.82151	47597.75
1296.34761	50968.35
1299.87133	54688.75
1303.39266	58132.35
1306.9116	60446.45
1310.42815	61631.75
1313.94233	61660.95
1317.45412	60752.75
1320.96354	59536.15
1324.47058	58916.15
1327.97525	58717.85
1331.47754	58254.15
1334.97747	57127.35
1338.47502	55461.45
1341.97022	53628.75
1345.46305	51850.15
1348.95352	50698.65
1352.44163	50506.15
1355.92738	51925.05
1359.41078	54884.35
1362.89183	57766.25
1366.37053	58446.55
1369.84688	54674.95
1373.32088	47868.15
1376.79254	42725.45
1380.26186	40951.25
1383.72883	41206.55
1387.19347	41456.65
1390.65578	41069.15
1394.11575	40892.45
1397.57339	41623.25
1401.0287	42772.15
1404.48168	43600.85
1407.93234	43139.55
1411.38068	41470.25
1414.82669	39097.65
1418.27039	36738.75
1421.71177	34691.55
1425.15083	33037.75
1428.58758	32408.85
1432.02203	32942.75
1435.45416	34341.45
1438.88399	35759.75
1442.31151	36716.95
1445.73673	37185.65
1449.15965	37473.95
1452.58027	37484.95
1455.9986	37286.55
1459.41463	37325.05
1462.82837	37855.85
1466.23982	38595.95
1469.64898	39202.35
1473.05586	39546.95
1476.46045	39498.55
1479.86276	39196.55
1483.26279	38835.75
1486.66054	38861.55
1490.05602	39339.35
1493.44922	40030.25
1496.84016	40814.85
1500.22882	41497.85
1503.61521	42193.55
1506.99934	42951.85
1510.38121	43591.65
1513.76081	43782.55
1517.13816	43589.85
1520.51324	43273.85
1523.88607	43275.95
1527.25665	43714.55
1530.62498	44063.65
1533.99105	43591.85
1537.35488	42290.65
1540.71647	40503.65
1544.07581	38382.85
1547.4329	36464.65
1550.78776	34954.55
1554.14038	33945.65
1557.49077	33487.75
1560.83892	33313.95
1564.18484	33227.25
1567.52853	33269.35
1570.86999	33794.95
1574.20922	34849.65
1577.54624	35960.65
1580.88103	36852.85
1584.2136	38100.45
1587.54395	40303.35
1590.87208	43407.15
1594.19801	46533.45
1597.52172	48691.75
1600.84321	48063.65
1604.16251	44151.65
1607.47959	38850.75
1610.79447	34054.85
1614.10715	30254.55
1617.41763	27565.75
1620.7259	25913.85
1624.03199	25248.55
1627.33587	25515.75
1630.63757	26775.75
1633.93707	29382.25
1637.23439	33822.25
1640.52951	40654.05
1643.82246	49071.25
1647.11321	55951.05
1650.40179	56978.75
1653.68819	51335.55
1656.97241	42182.25
1660.25446	33740.15
1663.53433	27756.55
1666.81203	24091.15
1670.08756	21903.65
1673.36092	20517.85
1676.63211	19679.75
1679.90115	19060.45
1683.16801	18635.55
1686.43272	18341.65
1689.69527	18100.15
1692.95567	17869.75
1696.2139	17787.45
1699.46999	17687.85
1702.72392	17588.35
1705.97571	17525.75
1709.22535	17411.05
1712.47284	17335.95
1715.71819	17351.35
1718.96139	17265.75
1722.20246	17160.35
1725.44139	17044.45
1728.67818	16946.05
1731.91284	16789.95
1735.14537	16628.45
1738.37576	16557.45
1741.60403	16497.25
1744.83017	16397.05
1748.05418	16372.35
1751.27607	16280.35
1754.49584	16222.25
1757.71349	16222.35
1760.92903	16194.55
1764.14244	16159.65
1767.35375	16118.55
1770.56294	16074.75
1773.77002	16031.45
1776.97499	16008.55
1780.17785	15962.55
1783.37861	15925.15
1786.57727	15914.25
1789.77382	15830.05
1792.96828	15818.05
1796.16064	15770.85
1799.3509	15780.45
1802.53907	15720.05
1805.72514	15671.45
1808.90913	15616.55
1812.09102	15577.15
1815.27083	15549.15
1818.44856	15544.95
1821.6242	15499.15
1824.79776	15511.05
1827.96924	15497.35
1831.13864	15476.95
1834.30597	15493.85
1837.47122	15539.55
1840.6344	15524.45
1843.7955	15566.95
1846.95454	15552.05
1850.11151	15514.55
1853.26642	15481.35
1856.41926	15468.45
1859.57004	15459.95
1862.71876	15415.55
1865.86542	15375.55
1869.01003	15361.25
1872.15258	15323.15
1875.29308	15313.65
1878.43152	15280.55
1881.56792	15262.95
1884.70227	15265.55
1887.83457	15201.65
1890.96482	15155.15
1894.09304	15132.15
1897.21921	15109.95
1900.34335	15101.95
1903.46544	15045.25
1906.58551	15038.85
1909.70353	15000.85
1912.81953	14968.25
1915.93349	14928.65
1919.04543	14881.55
1922.15534	14828.95
1925.26322	14766.25
1928.36908	14743.35
1931.47292	14680.65
1934.57473	14622.95
1937.67453	14573.95
1940.77232	14580.75
1943.86808	14516.65
1946.96184	14482.35
1950.05358	14446.15
1953.14331	14377.55
1956.23103	14348.65
1959.31675	14304.95
1962.40046	14280.25
1965.48217	14214.85
1968.56188	14139.65
1971.63959	14106.55
1974.7153	14038.45
1977.78901	13987.95
1980.86073	13940.65
1983.93046	13928.85
1986.99819	13873.65
1990.06394	13833.75
1993.1277	13810.95
1996.18947	13728.55
1999.24925	13696.65
2002.30706	13633.45
2005.36288	13587.45
2008.41672	13544.85
2011.46859	13512.95
2014.51848	13449.75
2017.56639	13386.85
2020.61233	13352.45
2023.6563	13317.55
2026.6983	13315.45
2029.73833	13274.85
2032.7764	13218.25
2035.8125	13237.65
2038.84664	13212.65
2041.87881	13155.05
2044.90903	13125.85
2047.93729	13139.85
2050.96359	13103.95
2053.98794	13075.05
2057.01034	13030.65
2060.03078	13064.35
2063.04927	13047.35
2066.06582	13017.95
2069.08042	13039.05
2072.09307	13028.05
2075.10378	13043.25
2078.11255	13032.05
2081.11938	13011.55
2084.12426	13003.65
2087.12722	12998.45
2090.12824	12996.65
2093.12732	13004.25
2096.12447	13017.65
2099.11969	13010.95
2102.11299	13000.15
2105.10435	13026.95
2108.09379	13011.75
2111.08131	12999.85
2114.0669	12993.85
2117.05057	12997.75
2120.03233	12989.35
2123.01216	12977.95
2125.99008	12959.85
2128.96609	12972.35
2131.94018	12980.45
2134.91236	12978.95
2137.88263	12954.45
2140.851	12968.45
2143.81746	12953.55
2146.78201	12934.25
2149.74466	12918.85
2152.7054	12894.15
2155.66425	12886.15
2158.6212	12905.65
2161.57625	12884.35
2164.52941	12893.75
2167.48067	12879.75
2170.43004	12897.55
2173.37752	12875.15
2176.32311	12845.65
2179.26681	12847.55
2182.20863	12860.35
2185.14856	12840.05
2188.08661	12858.95
2191.02278	12863.35
2193.95707	12817.35
2196.88948	12805.25
2199.82001	12752.55
2202.74867	12743.75
2205.67545	12769.95
2208.60037	12736.35
2211.52341	12721.45
2214.44458	12698.95
2217.36388	12655.75
2220.28132	12605.55
2223.1969	12613.85
2226.11061	12593.15
2229.02246	12574.45
2231.93245	12580.55
2234.84058	12581.25
2237.74686	12566.85
2240.65128	12554.85
2243.55385	12506.25
2246.45456	12522.95
2249.35343	12446.95
2252.25044	12350.55
2255.14561	12367.15
2258.03893	12322.05
2260.93041	12274.85
2263.82004	12273.05
2266.70783	12229.15
2269.59378	12178.05
2272.4779	12157.35
2275.36017	12148.45
2278.24061	12094.65
2281.11922	12082.75
2283.996	12066.05
2286.87094	12044.25
2289.74405	12040.85
2292.61534	11984.85
2295.4848	11964.75
2298.35243	11965.75
2301.21824	11947.85
2304.08223	11933.95
2306.94439	11927.95
2309.80474	11910.95
2312.66327	11928.15
2315.51999	11890.15
2318.37489	11879.65
2321.22797	11875.15
2324.07925	11851.75
2326.92871	11828.55
2329.77637	11854.85
2332.62222	11815.95
2335.46626	11799.25
2338.3085	11793.45
2341.14893	11771.65
2343.98756	11772.35
2346.8244	11788.85
2349.65943	11768.95
2352.49267	11731.65
2355.32411	11768.85
2358.15376	11770.15
2360.98161	11772.15
2363.80768	11754.05
2366.63195	11753.05
2369.45444	11728.85
2372.27514	11744.15
2375.09405	11696.85
2377.91118	11688.85
2380.72652	11644.45
2383.54009	11631.25
2386.35187	11605.35
2389.16188	11544.95
2391.97011	11521.95
2394.77657	11519.85
2397.58125	11502.85
2400.38416	11479.05
2403.18529	11457.95
2405.98466	11439.65
2408.78226	11438.45
2411.57809	11396.65
2414.37216	11382.65
2417.16446	11396.15
2419.955	11359.75
2422.74378	11345.85
2425.5308	11376.05
2428.31606	11355.75
2431.09956	11364.55
2433.88131	11331.25
2436.6613	11320.65
2439.43954	11308.35
2442.21603	11306.65
2444.99077	11310.95
2447.76377	11342.65
2450.53501	11280.75
2453.30451	11303.95
2456.07226	11302.65
2458.83827	11310.95
2461.60254	11324.35
2464.36507	11279.05
2467.12586	11282.65
2469.88492	11262.45
2472.64224	11288.45
2475.39782	11265.55
2478.15167	11273.35
2480.90379	11264.85
2483.65417	11257.65
2486.40283	11252.75
2489.14976	11263.85
2491.89497	11249.35
2494.63845	11256.85
2497.3802	11243.65
2500.12024	11243.15
2502.85855	11245.85
2505.59514	11249.05
2508.33002	11192.35
2511.06318	11182.75
2513.79462	11177.85
2516.52435	11175.45
2519.25237	11169.35
2521.97867	11130.75
2524.70327	11156.25
2527.42616	11128.05
2530.14734	11120.65
2532.86681	11103.05
2535.58458	11094.05
2538.30065	11075.55
2541.01501	11068.45
2543.72768	11021.25
2546.43864	11024.75
2549.14791	10994.45
2551.85548	11016.85
2554.56136	10970.95
2557.26554	10994.35
2559.96803	10953.25
2562.66883	10958.25
2565.36794	10989.55
2568.06536	10972.85
2570.7611	10966.85
2573.45514	10971.75
2576.14751	10951.25
2578.83819	10962.15
2581.52719	10955.25
2584.21451	10930.35
2586.90015	10890.35
2589.58411	10885.05
2592.2664	10884.95
2594.94701	10870.65
2597.62594	10836.05
2600.30321	10825.05
2602.9788	10847.55
2605.65273	10839.75
2608.32498	10850.35
2610.99557	10865.45
2613.66449	10844.65
2616.33175	10810.65
2618.99734	10824.35
2621.66128	10834.05
2624.32355	10798.25
2626.98416	10809.85
2629.64311	10820.45
2632.30041	10788.75
2634.95605	10777.55
2637.61004	10769.55
2640.26238	10774.35
2642.91306	10738.45
2645.56209	10727.15
2648.20948	10743.15
2650.85521	10748.55
2653.4993	10773.35
2656.14175	10769.45
2658.78255	10772.35
2661.42171	10768.75
2664.05923	10774.15
2666.6951	10786.15
2669.32934	10798.75
2671.96194	10800.15
2674.59291	10826.25
2677.22224	10794.15
2679.84993	10783.15
2682.476	10794.55
2685.10043	10812.25
2687.72324	10774.75
2690.34441	10773.65
2692.96396	10796.35
2695.58188	10780.45
2698.19818	10777.55
2700.81285	10789.25
2703.4259	10782.15
2706.03733	10783.55
2708.64714	10794.05
2711.25533	10783.15
2713.86191	10792.65
2716.46687	10811.65
2719.07021	10818.25
2721.67194	10793.55
2724.27206	10801.05
2726.87057	10799.55
2729.46747	10787.05
2732.06276	10827.05
2734.65644	10821.05
2737.24852	10824.85
2739.83899	10814.85
2742.42786	10813.85
2745.01513	10778.45
2747.60079	10799.15
2750.18486	10804.15
2752.76733	10813.55
2755.3482	10825.25
2757.92747	10820.15
2760.50515	10796.75
2763.08123	10791.45
2765.65573	10769.35
2768.22863	10745.55
2770.79994	10776.95
2773.36967	10770.95
2775.9378	10763.55
2778.50435	10797.55
2781.06932	10763.95
2783.6327	10773.15
2786.1945	10768.85
2788.75471	10760.95
2791.31335	10735.55
2793.87041	10720.45
2796.42589	10676.35
2798.97979	10688.45
2801.53212	10662.55
2804.08288	10660.35
2806.63206	10655.15
2809.17967	10656.45
2811.72571	10630.95
2814.27018	10617.25
2816.81308	10609.85
2819.35442	10600.45
2821.89419	10576.65
2824.43239	10568.65
2826.96904	10556.25
2829.50412	10541.95
2832.03763	10539.65
2834.56959	10533.75
2837.1	10505.25
2839.62884	10533.05
2842.15613	10556.35
2844.68186	10593.35
2847.20604	10623.15
2849.72867	10654.45
2852.24974	10658.95
2854.76927	10635.25
2857.28724	10606.55
2859.80367	10580.45
2862.31855	10582.35
2864.83189	10571.95
2867.34368	10537.85
2869.85393	10546.05
2872.36264	10541.55
2874.8698	10527.35
2877.37543	10547.55
2879.87952	10562.05
2882.38207	10570.55
2884.88308	10562.75
2887.38256	10600.15
2889.88051	10579.85
2892.37692	10586.65
2894.8718	10598.45
2897.36515	10623.35
2899.85698	10597.05
2902.34727	10624.05
2904.83604	10632.75
2907.32328	10661.35
2909.809	10648.25
2912.29319	10604.25
2914.77587	10613.85
2917.25702	10621.45
2919.73665	10617.05
2922.21476	10630.85
2924.69136	10622.95
2927.16644	10588.75
2929.64	10610.45
2932.11205	10579.55
2934.58258	10576.25
2937.05161	10573.45
2939.51912	10565.05
2941.98513	10534.45
2944.44962	10509.65
2946.91261	10441.95
2949.37409	10419.05
2951.83407	10402.05
2954.29254	10411.05
2956.74951	10343.25
2959.20498	10313.15
2961.65895	10296.55
2964.11142	10266.75
2966.56239	10238.15
2969.01186	10249.55
2971.45984	10171.15
2973.90632	10157.65
2976.35131	10131.65
2978.7948	10084.45
2981.23681	10029.05
2983.67732	9987.25
2986.11635	10001.25
2988.55388	9975.45
2990.98993	9898.35
2993.4245	9876.25
2995.85758	9861.35
2998.28917	9839.85
3000.71928	9805.65
3003.14791	9811.85
3005.57506	9810.55
3008.00073	9745.25
3010.42493	9759.85
3012.84764	9739.45
3015.26888	9705.75
3017.68865	9681.85
3020.10694	9648.95
3022.52376	9619.05
3024.9391	9644.55
3027.35298	9617.95
3029.76539	9601.35
3032.17632	9586.45
3034.5858	9555.35
3036.9938	9542.15
3039.40034	9537.55
3041.80542	9535.35
3044.20903	9516.55
3046.61118	9499.95
3049.01187	9486.45
3051.4111	9491.05
3053.80888	9436.35
3056.20519	9419.45
3058.60005	9414.95
3060.99345	9362.25
3063.3854	9336.35
3065.7759	9303.25
3068.16494	9304.05
3070.55254	9251.85
3072.93868	9235.45
3075.32338	9208.65
3077.70662	9163.85
3080.08842	9137.05
3082.46878	9136.45
3084.84769	9121.65
3087.22515	9091.15
3089.60118	9111.15
3091.97576	9107.45
3094.3489	9093.15
3096.72061	9090.75
3099.09087	9100.25
3101.4597	9043.25
3103.82709	9057.35
3106.19305	9022.55
3108.55757	9019.35
3110.92066	8987.05
3113.28232	8965.55
3115.64255	8908.05
3118.00134	8918.05
3120.35871	8894.65
3122.71466	8874.75
3125.06917	8868.15
3127.42226	8861.25
3129.77393	8864.35
3132.12417	8866.55
3134.47299	8832.45
3136.82039	8824.85
3139.16636	8848.15
3141.51092	8835.05
3143.85406	8811.45
3146.19579	8837.15
3148.53609	8827.65
3150.87499	8832.35
3153.21246	8812.25
3155.54853	8820.55
3157.88318	8815.55
3160.21642	8817.85
3162.54826	8798.75
3164.87868	8806.35
3167.2077	8774.25
3169.5353	8775.95
3171.86151	8786.25
3174.18631	8740.25
3176.5097	8776.35
3178.83169	8764.95
3181.15228	8770.15
3183.47147	8718.55
3185.78926	8702.15
3188.10565	8723.35
3190.42065	8694.85
3192.73424	8724.05
3195.04645	8706.65
3197.35725	8709.35
3199.66667	8678.85
3201.97469	8679.75
3204.28132	8648.05
3206.58656	8652.15
3208.8904	8649.55
3211.19287	8647.35
3213.49394	8619.65
3215.79363	8634.75
3218.09193	8632.15
3220.38884	8618.75
3222.68438	8640.05
3224.97853	8617.65
3227.2713	8620.95
3229.56269	8602.35
3231.8527	8622.45
3234.14133	8617.05
3236.42858	8575.55
3238.71446	8597.15
3240.99896	8578.75
3243.28209	8595.85
3245.56384	8578.05
3247.84423	8570.65
3250.12324	8551.35
3252.40088	8536.35
3254.67715	8502.25
3256.95205	8476.75
3259.22558	8462.45
3261.49775	8428.15
3263.76855	8433.65
3266.03799	8400.55
3268.30606	8394.05
3270.57277	8373.35
3272.83812	8358.15
3275.10211	8332.05
3277.36474	8341.35
3279.62601	8347.85
3281.88593	8334.95
3284.14448	8354.45
3286.40168	8376.65
3288.65753	8337.75
3290.91202	8334.55
3293.16516	8299.25
3295.41695	8291.65
3297.66738	8246.65
3299.91647	8182.85
3302.16421	8129.95
3304.4106	8110.05
3306.65564	8057.15
3308.89933	7988.95
3311.14169	7935.55
3313.38269	7869.65
3315.62236	7801.65
3317.86068	7742.45
3320.09766	7661.25
3322.3333	7600.55
3324.5676	7602.75
3326.80056	7454.95
3329.03219	7411.55
3331.26248	0.45
3333.49143	1.15
3335.71905	-1.75
