Data from AgNPs_FTO_APTES_UA_2uM_CRN_5uM_R6G_10uM_NaF_0.1M_Addition_RamanShift__28__13-11-05-128.txt Node

Date: Wed Feb 02 13:11:05 GMT 2022
User: TCL
Spectrometer: QEP01345
Trigger mode: 4
Integration Time (sec): 7.000000E0
Scans to average: 10
Electric dark correction enabled: true
Nonlinearity correction enabled: false
Boxcar width: 0
XAxis mode: Raman Shifts
Number of Pixels in Spectrum: 1044
>>>>>Begin Spectral Data<<<<<
46.04893	1.35
50.45542	0.65
54.85868	-1.35
59.25871	-1.05
63.6555	54.45
68.04907	59.15
72.43941	58.15
76.82654	63.95
81.21044	68.15
85.59113	70.05
89.96862	70.35
94.34289	73.85
98.71396	76.45
103.08183	83.15
107.4465	81.85
111.80798	86.05
116.16626	83.85
120.52136	92.75
124.87327	93.85
129.222	101.95
133.56755	105.85
137.90993	112.55
142.24913	128.35
146.58517	147.35
150.91804	167.25
155.24774	205.75
159.57429	256.45
163.89768	328.65
168.21792	442.55
172.53501	603.95
176.84895	841.35
181.15975	1179.85
185.46741	1649.35
189.77193	2277.15
194.07331	3032.25
198.37157	3894.15
202.6667	4804.55
206.9587	5726.75
211.24758	6629.85
215.53334	7563.65
219.81599	8598.15
224.09553	9782.35
228.37195	11052.65
232.64527	12494.05
236.91549	13903.05
241.18261	15224.25
245.44663	16306.95
249.70755	17285.55
253.96539	18106.85
258.22014	18845.45
262.4718	19494.85
266.72039	19999.95
270.96589	20344.85
275.20832	20479.65
279.44768	20434.45
283.68397	20378.55
287.91719	20343.85
292.14735	20479.65
296.37445	20728.05
300.59849	21166.55
304.81948	21657.45
309.03742	22033.65
313.25231	21857.25
317.46415	20892.75
321.67296	19555.85
325.87872	18335.55
330.08145	17780.85
334.28114	17670.75
338.47781	17890.45
342.67145	18310.55
346.86207	18991.35
351.04966	19929.15
355.23424	20980.75
359.4158	21748.85
363.59435	22111.25
367.76989	22180.35
371.94243	22107.25
376.11196	21932.05
380.27849	21778.55
384.44203	21595.95
388.60257	21442.95
392.76012	21481.35
396.91468	21735.85
401.06626	22292.55
405.21485	22776.95
409.36047	22500.85
413.50311	21563.35
417.64277	20746.75
421.77947	20338.25
425.9132	20179.65
430.04396	20199.95
434.17176	20314.45
438.2966	20506.45
442.41849	20905.25
446.53742	21471.65
450.6534	22064.65
454.76644	22495.55
458.87653	22614.85
462.98368	22518.05
467.08789	22214.95
471.18916	21806.05
475.2875	21325.55
479.38291	20991.95
483.4754	20681.95
487.56496	20415.05
491.6516	20208.85
495.73531	20104.55
499.81612	20143.45
503.89401	20314.25
507.96899	20441.75
512.04106	20557.15
516.11023	20633.05
520.1765	20631.05
524.23987	20495.95
528.30034	20114.45
532.35792	19747.35
536.41261	19399.85
540.46441	19000.25
544.51333	18973.25
548.55936	19232.75
552.60252	19784.25
556.64279	20334.05
560.6802	20631.65
564.71473	20893.85
568.7464	21630.55
572.7752	22255.65
576.80114	22088.15
580.82422	21764.75
584.84444	21624.15
588.86181	21504.95
592.87633	21379.95
596.888	21563.75
600.89682	22219.25
604.9028	24378.65
608.90594	29756.15
612.90624	36308.95
616.90371	34459.05
620.89834	25174.75
624.89015	20812.95
628.87913	20050.75
632.86528	20147.15
636.84862	20331.75
640.82913	19956.15
644.80683	19130.75
648.78172	18554.55
652.75379	18637.65
656.72306	19276.55
660.68952	20181.15
664.65319	20055.95
668.61405	19255.75
672.57211	18867.45
676.52738	18812.85
680.47986	18763.15
684.42955	18656.05
688.37646	18562.65
692.32058	18694.15
696.26192	18872.85
700.20048	19182.75
704.13626	19422.55
708.06928	19408.35
711.99952	19252.45
715.927	19105.95
719.85171	19048.45
723.77365	18992.25
727.69284	18743.95
731.60928	18503.65
735.52295	18453.55
739.43388	18499.25
743.34206	18648.65
747.24749	18809.65
751.15017	19032.45
755.05012	19535.25
758.94733	20456.75
762.8418	22442.85
766.73354	25785.25
770.62254	29109.55
774.50882	30221.65
778.39237	28433.55
782.27321	24972.95
786.15132	21816.25
790.02671	19957.45
793.89938	19079.95
797.76935	18678.25
801.6366	18523.25
805.50115	18419.75
809.36299	18281.05
813.22213	18149.65
817.07857	18101.45
820.93231	18135.85
824.78336	18131.55
828.63172	18193.65
832.47738	18233.95
836.32036	18240.15
840.16066	18180.45
843.99827	18112.85
847.8332	18037.75
851.66546	17993.75
855.49504	17983.55
859.32195	17961.45
863.1462	17796.25
866.96777	17763.35
870.78668	17717.25
874.60293	17724.95
878.41652	17777.85
882.22745	17849.05
886.03573	17971.25
889.84136	17902.05
893.64433	17804.95
897.44466	17772.55
901.24235	17727.85
905.0374	17729.45
908.8298	17675.05
912.61957	17714.95
916.40671	17899.95
920.19121	18162.55
923.97308	18366.65
927.75233	18503.05
931.52895	18505.55
935.30295	18241.55
939.07433	17756.95
942.84309	17301.55
946.60924	17093.85
950.37278	16941.65
954.13371	16863.45
957.89203	16799.15
961.64774	16748.25
965.40086	16709.85
969.15137	16649.65
972.89929	16583.65
976.64461	16577.35
980.38733	16553.25
984.12747	16625.95
987.86502	16710.95
991.59999	16887.15
995.33237	17131.35
999.06217	17615.05
1002.78939	18191.55
1006.51404	18771.95
1010.23611	19222.65
1013.95561	19496.75
1017.67255	19426.95
1021.38692	19109.05
1025.09872	18826.45
1028.80796	18710.65
1032.51465	18916.65
1036.21877	19267.45
1039.92035	19405.55
1043.61937	19333.35
1047.31584	19094.95
1051.00976	18806.75
1054.70114	18662.15
1058.38998	18668.65
1062.07627	18819.65
1065.76003	19034.65
1069.44126	19260.25
1073.11995	19483.85
1076.79611	19682.15
1080.46974	19857.75
1084.14085	20204.25
1087.80943	20656.75
1091.47549	20883.65
1095.13903	20659.65
1098.80005	20074.25
1102.45857	19448.25
1106.11456	19048.55
1109.76805	18917.35
1113.41903	19152.65
1117.06751	19531.25
1120.71348	20138.75
1124.35696	20811.35
1127.99793	21417.75
1131.63641	21501.05
1135.2724	20871.55
1138.90589	20186.85
1142.5369	19805.65
1146.16542	19538.85
1149.79145	19392.25
1153.415	19494.35
1157.03607	19779.85
1160.65467	20266.15
1164.27079	21084.55
1167.88443	22180.05
1171.49561	23923.35
1175.10432	26617.75
1178.71056	30099.65
1182.31434	32874.55
1185.91565	33941.45
1189.51451	33622.55
1193.11091	32053.95
1196.70485	29925.75
1200.29634	28027.25
1203.88538	26504.45
1207.47197	24956.45
1211.05612	23726.25
1214.63782	23069.95
1218.21708	22848.45
1221.79391	22917.55
1225.36829	23127.45
1228.94024	23366.55
1232.50976	23559.75
1236.07685	23676.85
1239.6415	23558.75
1243.20374	23334.55
1246.76355	23317.75
1250.32093	23494.75
1253.8759	24014.65
1257.42845	24828.85
1260.97859	25652.75
1264.52631	26399.75
1268.07163	27155.95
1271.61453	27922.65
1275.15503	28657.25
1278.69312	29177.85
1282.22882	29607.45
1285.76211	30342.35
1289.29301	31300.85
1292.82151	32263.55
1296.34761	33171.55
1299.87133	34546.65
1303.39266	36779.35
1306.9116	40151.75
1310.42815	44234.15
1313.94233	47150.95
1317.45412	47593.55
1320.96354	46074.95
1324.47058	43946.05
1327.97525	41865.55
1331.47754	40378.35
1334.97747	39725.75
1338.47502	39634.55
1341.97022	39820.15
1345.46305	40039.65
1348.95352	40419.15
1352.44163	41264.05
1355.92738	43352.75
1359.41078	47452.25
1362.89183	51893.55
1366.37053	51245.05
1369.84688	45139.25
1373.32088	38561.25
1376.79254	34340.45
1380.26186	32351.75
1383.72883	31351.25
1387.19347	30555.85
1390.65578	29600.25
1394.11575	29046.15
1397.57339	28943.15
1401.0287	29327.55
1404.48168	29976.65
1407.93234	30528.05
1411.38068	30784.45
1414.82669	30429.75
1418.27039	29539.65
1421.71177	28579.25
1425.15083	27600.05
1428.58758	27024.75
1432.02203	26840.85
1435.45416	26950.55
1438.88399	27141.45
1442.31151	27321.75
1445.73673	27567.45
1449.15965	27830.75
1452.58027	27904.15
1455.9986	27869.95
1459.41463	27898.15
1462.82837	28229.85
1466.23982	28753.65
1469.64898	29325.65
1473.05586	29741.85
1476.46045	30055.85
1479.86276	30358.35
1483.26279	30719.35
1486.66054	31181.55
1490.05602	31850.55
1493.44922	32833.65
1496.84016	34158.85
1500.22882	36201.85
1503.61521	38924.95
1506.99934	42179.15
1510.38121	45596.15
1513.76081	47622.55
1517.13816	46601.05
1520.51324	42840.95
1523.88607	38575.55
1527.25665	35434.25
1530.62498	33409.45
1533.99105	32184.25
1537.35488	31325.45
1540.71647	30761.85
1544.07581	30269.85
1547.4329	29890.85
1550.78776	29495.95
1554.14038	29323.05
1557.49077	29487.75
1560.83892	29900.65
1564.18484	30493.95
1567.52853	30908.05
1570.86999	31173.65
1574.20922	31354.85
1577.54624	31314.15
1580.88103	30431.55
1584.2136	29333.15
1587.54395	29172.25
1590.87208	30181.95
1594.19801	32034.45
1597.52172	33997.05
1600.84321	34685.05
1604.16251	33305.95
1607.47959	30887.75
1610.79447	28385.35
1614.10715	26071.15
1617.41763	24230.55
1620.7259	22984.95
1624.03199	22331.45
1627.33587	22426.35
1630.63757	23032.45
1633.93707	24341.35
1637.23439	26332.45
1640.52951	28945.45
1643.82246	31912.75
1647.11321	34753.75
1650.40179	36384.65
1653.68819	35326.65
1656.97241	31222.15
1660.25446	26420.65
1663.53433	22777.05
1666.81203	20449.25
1670.08756	19063.95
1673.36092	18219.65
1676.63211	17642.25
1679.90115	17243.55
1683.16801	16935.85
1686.43272	16754.05
1689.69527	16592.65
1692.95567	16502.95
1696.2139	16407.15
1699.46999	16348.45
1702.72392	16278.65
1705.97571	16208.45
1709.22535	16190.45
1712.47284	16179.55
1715.71819	16170.15
1718.96139	16181.25
1722.20246	16120.25
1725.44139	16086.95
1728.67818	15979.65
1731.91284	15879.55
1735.14537	15783.85
1738.37576	15696.55
1741.60403	15624.85
1744.83017	15557.05
1748.05418	15548.85
1751.27607	15505.05
1754.49584	15499.55
1757.71349	15478.95
1760.92903	15454.95
1764.14244	15423.05
1767.35375	15406.75
1770.56294	15392.25
1773.77002	15361.85
1776.97499	15288.45
1780.17785	15246.35
1783.37861	15235.55
1786.57727	15157.75
1789.77382	15163.45
1792.96828	15153.15
1796.16064	15128.75
1799.3509	15077.35
1802.53907	15073.65
1805.72514	15010.75
1808.90913	14987.35
1812.09102	14995.85
1815.27083	14936.65
1818.44856	14946.45
1821.6242	14893.65
1824.79776	14909.75
1827.96924	14889.35
1831.13864	14908.45
1834.30597	14875.55
1837.47122	14870.55
1840.6344	14845.85
1843.7955	14873.65
1846.95454	14862.05
1850.11151	14849.65
1853.26642	14899.85
1856.41926	14905.05
1859.57004	14901.75
1862.71876	14951.65
1865.86542	14963.65
1869.01003	14979.75
1872.15258	14978.65
1875.29308	15012.85
1878.43152	15030.15
1881.56792	15033.35
1884.70227	15083.25
1887.83457	15132.75
1890.96482	15171.75
1894.09304	15129.85
1897.21921	15171.75
1900.34335	15190.25
1903.46544	15198.05
1906.58551	15211.75
1909.70353	15213.55
1912.81953	15202.25
1915.93349	15223.85
1919.04543	15188.55
1922.15534	15193.65
1925.26322	15141.75
1928.36908	15053.05
1931.47292	14996.75
1934.57473	14877.55
1937.67453	14758.25
1940.77232	14645.95
1943.86808	14556.35
1946.96184	14465.45
1950.05358	14383.85
1953.14331	14323.55
1956.23103	14264.35
1959.31675	14164.35
1962.40046	14125.35
1965.48217	14050.75
1968.56188	14029.35
1971.63959	13985.25
1974.7153	13941.35
1977.78901	13916.45
1980.86073	13830.55
1983.93046	13785.25
1986.99819	13733.85
1990.06394	13678.95
1993.1277	13650.15
1996.18947	13585.25
1999.24925	13541.55
2002.30706	13525.05
2005.36288	13473.95
2008.41672	13423.35
2011.46859	13382.65
2014.51848	13371.45
2017.56639	13332.35
2020.61233	13300.05
2023.6563	13266.75
2026.6983	13272.95
2029.73833	13228.85
2032.7764	13171.15
2035.8125	13138.45
2038.84664	13115.35
2041.87881	13134.95
2044.90903	13091.75
2047.93729	13080.75
2050.96359	13048.85
2053.98794	13037.25
2057.01034	13003.95
2060.03078	12956.05
2063.04927	12950.35
2066.06582	12959.65
2069.08042	12934.85
2072.09307	12929.75
2075.10378	12923.05
2078.11255	12935.25
2081.11938	12913.05
2084.12426	12898.15
2087.12722	12910.05
2090.12824	12881.05
2093.12732	12871.35
2096.12447	12883.05
2099.11969	12898.05
2102.11299	12893.75
2105.10435	12893.35
2108.09379	12888.05
2111.08131	12919.65
2114.0669	12877.25
2117.05057	12872.25
2120.03233	12894.05
2123.01216	12918.55
2125.99008	12894.25
2128.96609	12901.55
2131.94018	12914.05
2134.91236	12931.95
2137.88263	12892.55
2140.851	12926.75
2143.81746	12922.15
2146.78201	12909.45
2149.74466	12934.25
2152.7054	12963.55
2155.66425	12927.35
2158.6212	12902.55
2161.57625	12949.65
2164.52941	12914.05
2167.48067	12919.15
2170.43004	12863.65
2173.37752	12881.05
2176.32311	12876.95
2179.26681	12902.25
2182.20863	12870.95
2185.14856	12908.35
2188.08661	12884.85
2191.02278	12877.65
2193.95707	12866.55
2196.88948	12849.55
2199.82001	12848.55
2202.74867	12857.65
2205.67545	12857.05
2208.60037	12835.35
2211.52341	12825.55
2214.44458	12820.25
2217.36388	12784.75
2220.28132	12739.35
2223.1969	12736.55
2226.11061	12721.35
2229.02246	12683.85
2231.93245	12664.85
2234.84058	12623.15
2237.74686	12604.35
2240.65128	12604.65
2243.55385	12561.05
2246.45456	12560.35
2249.35343	12555.25
2252.25044	12537.25
2255.14561	12523.15
2258.03893	12536.45
2260.93041	12480.75
2263.82004	12474.75
2266.70783	12428.95
2269.59378	12420.25
2272.4779	12373.55
2275.36017	12334.75
2278.24061	12355.95
2281.11922	12326.45
2283.996	12271.05
2286.87094	12241.75
2289.74405	12235.55
2292.61534	12207.95
2295.4848	12150.55
2298.35243	12174.15
2301.21824	12172.55
2304.08223	12161.75
2306.94439	12143.25
2309.80474	12165.35
2312.66327	12160.55
2315.51999	12166.15
2318.37489	12172.85
2321.22797	12137.45
2324.07925	12132.05
2326.92871	12123.35
2329.77637	12121.95
2332.62222	12128.85
2335.46626	12093.65
2338.3085	12080.85
2341.14893	12082.55
2343.98756	12060.85
2346.8244	12090.65
2349.65943	12086.15
2352.49267	12110.25
2355.32411	12092.75
2358.15376	12126.65
2360.98161	12129.85
2363.80768	12159.85
2366.63195	12125.45
2369.45444	12088.45
2372.27514	12090.45
2375.09405	12052.05
2377.91118	12017.15
2380.72652	11971.05
2383.54009	11932.35
2386.35187	11938.15
2389.16188	11886.45
2391.97011	11852.15
2394.77657	11813.75
2397.58125	11815.05
2400.38416	11788.75
2403.18529	11754.55
2405.98466	11736.95
2408.78226	11714.45
2411.57809	11690.05
2414.37216	11689.35
2417.16446	11685.15
2419.955	11663.35
2422.74378	11620.95
2425.5308	11625.05
2428.31606	11634.15
2431.09956	11630.25
2433.88131	11620.15
2436.6613	11610.05
2439.43954	11632.05
2442.21603	11622.15
2444.99077	11602.25
2447.76377	11605.25
2450.53501	11589.75
2453.30451	11596.55
2456.07226	11578.25
2458.83827	11586.45
2461.60254	11546.45
2464.36507	11565.15
2467.12586	11567.65
2469.88492	11560.95
2472.64224	11570.25
2475.39782	11570.35
2478.15167	11587.05
2480.90379	11586.55
2483.65417	11601.75
2486.40283	11585.15
2489.14976	11639.65
2491.89497	11630.25
2494.63845	11645.55
2497.3802	11607.85
2500.12024	11632.35
2502.85855	11642.15
2505.59514	11639.75
2508.33002	11602.45
2511.06318	11569.55
2513.79462	11558.75
2516.52435	11510.95
2519.25237	11518.65
2521.97867	11465.15
2524.70327	11457.75
2527.42616	11436.05
2530.14734	11422.15
2532.86681	11398.65
2535.58458	11393.45
2538.30065	11383.35
2541.01501	11405.15
2543.72768	11365.35
2546.43864	11386.45
2549.14791	11356.55
2551.85548	11356.35
2554.56136	11374.25
2557.26554	11343.95
2559.96803	11355.95
2562.66883	11307.35
2565.36794	11292.45
2568.06536	11281.15
2570.7611	11265.55
2573.45514	11234.65
2576.14751	11244.75
2578.83819	11203.15
2581.52719	11222.55
2584.21451	11208.25
2586.90015	11198.35
2589.58411	11192.05
2592.2664	11193.95
2594.94701	11163.35
2597.62594	11175.95
2600.30321	11175.75
2602.9788	11156.05
2605.65273	11138.65
2608.32498	11153.75
2610.99557	11143.75
2613.66449	11138.65
2616.33175	11152.95
2618.99734	11138.75
2621.66128	11179.15
2624.32355	11136.05
2626.98416	11154.55
2629.64311	11109.95
2632.30041	11130.05
2634.95605	11106.15
2637.61004	11111.35
2640.26238	11098.85
2642.91306	11076.85
2645.56209	11048.45
2648.20948	11060.95
2650.85521	11054.25
2653.4993	11040.25
2656.14175	11017.35
2658.78255	11026.05
2661.42171	11030.65
2664.05923	11055.55
2666.6951	11020.45
2669.32934	11058.35
2671.96194	11071.55
2674.59291	11056.55
2677.22224	11086.95
2679.84993	11101.95
2682.476	11053.65
2685.10043	11069.35
2687.72324	11048.15
2690.34441	11076.85
2692.96396	11109.65
2695.58188	11090.15
2698.19818	11068.65
2700.81285	11072.55
2703.4259	11062.45
2706.03733	11108.45
2708.64714	11078.35
2711.25533	11046.25
2713.86191	11061.25
2716.46687	11091.25
2719.07021	11097.15
2721.67194	11101.95
2724.27206	11087.15
2726.87057	11073.85
2729.46747	11082.05
2732.06276	11062.65
2734.65644	11044.55
2737.24852	11067.55
2739.83899	11038.45
2742.42786	11047.65
2745.01513	11033.55
2747.60079	11007.15
2750.18486	11030.15
2752.76733	11025.75
2755.3482	10989.25
2757.92747	11008.35
2760.50515	10994.95
2763.08123	10988.15
2765.65573	10953.85
2768.22863	10939.85
2770.79994	10922.85
2773.36967	10936.75
2775.9378	10933.85
2778.50435	10912.75
2781.06932	10927.25
2783.6327	10928.95
2786.1945	10897.75
2788.75471	10886.45
2791.31335	10864.05
2793.87041	10851.05
2796.42589	10833.65
2798.97979	10848.25
2801.53212	10843.65
2804.08288	10834.65
2806.63206	10806.75
2809.17967	10773.15
2811.72571	10774.65
2814.27018	10784.45
2816.81308	10761.85
2819.35442	10748.45
2821.89419	10739.25
2824.43239	10755.15
2826.96904	10744.75
2829.50412	10765.05
2832.03763	10727.75
2834.56959	10763.35
2837.1	10762.85
2839.62884	10745.25
2842.15613	10750.75
2844.68186	10837.25
2847.20604	10862.85
2849.72867	10910.25
2852.24974	10905.95
2854.76927	10918.65
2857.28724	10907.05
2859.80367	10886.65
2862.31855	10852.75
2864.83189	10839.45
2867.34368	10842.95
2869.85393	10791.25
2872.36264	10802.55
2874.8698	10808.85
2877.37543	10823.35
2879.87952	10807.15
2882.38207	10782.45
2884.88308	10766.05
2887.38256	10766.75
2889.88051	10767.25
2892.37692	10805.75
2894.8718	10803.75
2897.36515	10807.65
2899.85698	10784.95
2902.34727	10801.95
2904.83604	10825.75
2907.32328	10843.15
2909.809	10813.35
2912.29319	10794.75
2914.77587	10774.95
2917.25702	10802.25
2919.73665	10790.05
2922.21476	10771.45
2924.69136	10763.95
2927.16644	10765.95
2929.64	10764.85
2932.11205	10734.95
2934.58258	10686.25
2937.05161	10669.15
2939.51912	10665.75
2941.98513	10633.65
2944.44962	10581.05
2946.91261	10503.65
2949.37409	10530.95
2951.83407	10488.85
2954.29254	10468.75
2956.74951	10439.45
2959.20498	10436.15
2961.65895	10413.75
2964.11142	10393.85
2966.56239	10379.15
2969.01186	10357.45
2971.45984	10322.95
2973.90632	10294.05
2976.35131	10248.45
2978.7948	10242.65
2981.23681	10183.55
2983.67732	10185.25
2986.11635	10126.35
2988.55388	10129.95
2990.98993	10074.85
2993.4245	10053.65
2995.85758	10046.35
2998.28917	10010.35
3000.71928	10002.15
3003.14791	9984.35
3005.57506	9969.05
3008.00073	9955.95
3010.42493	9916.65
3012.84764	9923.65
3015.26888	9898.35
3017.68865	9871.15
3020.10694	9873.15
3022.52376	9819.35
3024.9391	9822.85
3027.35298	9805.05
3029.76539	9805.75
3032.17632	9792.05
3034.5858	9777.95
3036.9938	9735.65
3039.40034	9724.05
3041.80542	9718.35
3044.20903	9671.05
3046.61118	9680.25
3049.01187	9652.05
3051.4111	9649.65
3053.80888	9620.85
3056.20519	9604.35
3058.60005	9563.95
3060.99345	9555.95
3063.3854	9532.05
3065.7759	9474.65
3068.16494	9476.65
3070.55254	9440.35
3072.93868	9427.05
3075.32338	9390.85
3077.70662	9386.55
3080.08842	9340.05
3082.46878	9328.45
3084.84769	9302.05
3087.22515	9295.95
3089.60118	9291.95
3091.97576	9277.45
3094.3489	9254.25
3096.72061	9255.45
3099.09087	9232.45
3101.4597	9209.65
3103.82709	9209.95
3106.19305	9197.65
3108.55757	9172.25
3110.92066	9143.35
3113.28232	9132.55
3115.64255	9118.15
3118.00134	9087.25
3120.35871	9058.65
3122.71466	9060.65
3125.06917	9027.95
3127.42226	9020.35
3129.77393	9024.15
3132.12417	9012.65
3134.47299	9013.95
3136.82039	8984.65
3139.16636	9005.15
3141.51092	9008.25
3143.85406	9006.35
3146.19579	8994.15
3148.53609	8992.85
3150.87499	8997.15
3153.21246	8998.35
3155.54853	9007.15
3157.88318	8989.85
3160.21642	8991.95
3162.54826	8986.55
3164.87868	8974.45
3167.2077	8968.35
3169.5353	8947.45
3171.86151	8960.55
3174.18631	8952.15
3176.5097	8950.85
3178.83169	8930.75
3181.15228	8918.25
3183.47147	8911.65
3185.78926	8893.55
3188.10565	8885.05
3190.42065	8899.55
3192.73424	8909.75
3195.04645	8901.95
3197.35725	8919.15
3199.66667	8875.25
3201.97469	8911.75
3204.28132	8907.85
3206.58656	8896.15
3208.8904	8912.95
3211.19287	8934.65
3213.49394	8940.15
3215.79363	8910.15
3218.09193	8926.05
3220.38884	8907.05
3222.68438	8923.55
3224.97853	8897.95
3227.2713	8873.75
3229.56269	8874.25
3231.8527	8851.85
3234.14133	8846.05
3236.42858	8832.25
3238.71446	8829.15
3240.99896	8806.35
3243.28209	8806.15
3245.56384	8769.65
3247.84423	8743.55
3250.12324	8744.35
3252.40088	8728.55
3254.67715	8710.55
3256.95205	8674.75
3259.22558	8683.25
3261.49775	8664.05
3263.76855	8688.35
3266.03799	8656.15
3268.30606	8629.05
3270.57277	8625.45
3272.83812	8616.15
3275.10211	8610.15
3277.36474	8598.75
3279.62601	8578.45
3281.88593	8592.55
3284.14448	8577.65
3286.40168	8582.75
3288.65753	8559.15
3290.91202	8525.95
3293.16516	8510.45
3295.41695	8493.55
3297.66738	8437.85
3299.91647	8417.35
3302.16421	8352.95
3304.4106	8313.15
3306.65564	8254.65
3308.89933	8201.05
3311.14169	8148.35
3313.38269	8093.35
3315.62236	8022.75
3317.86068	7946.35
3320.09766	7881.85
3322.3333	7804.25
3324.5676	7807.45
3326.80056	7686.55
3329.03219	7641.15
3331.26248	0.95
3333.49143	-0.85
3335.71905	-0.65
