Data from AgNPs_FTO_APTES_UA_2uM_CRN_0uM_R6G_10uM_NaF_0.1M_Addition_RamanShift__31__10-40-34-953.txt Node

Date: Wed Feb 02 10:40:34 GMT 2022
User: TCL
Spectrometer: QEP01345
Trigger mode: 4
Integration Time (sec): 7.000000E0
Scans to average: 10
Electric dark correction enabled: true
Nonlinearity correction enabled: false
Boxcar width: 0
XAxis mode: Raman Shifts
Number of Pixels in Spectrum: 1044
>>>>>Begin Spectral Data<<<<<
46.04893	0.35
50.45542	-0.25
54.85868	0.25
59.25871	0.25
63.6555	46.55
68.04907	44.55
72.43941	48.55
76.82654	56.35
81.21044	54.85
85.59113	56.65
89.96862	57.55
94.34289	59.65
98.71396	63.85
103.08183	69.15
107.4465	64.85
111.80798	70.25
116.16626	70.65
120.52136	71.55
124.87327	75.95
129.222	73.65
133.56755	81.65
137.90993	84.55
142.24913	93.75
146.58517	106.45
150.91804	121.25
155.24774	148.15
159.57429	172.85
163.89768	218.95
168.21792	291.95
172.53501	395.25
176.84895	542.55
181.15975	764.25
185.46741	1074.65
189.77193	1485.05
194.07331	1988.65
198.37157	2561.15
202.6667	3180.35
206.9587	3774.85
211.24758	4370.35
215.53334	4956.45
219.81599	5584.25
224.09553	6287.65
228.37195	7051.55
232.64527	7905.35
236.91549	8786.65
241.18261	9650.45
245.44663	10431.65
249.70755	11124.75
253.96539	11759.75
258.22014	12260.85
262.4718	12676.25
266.72039	12950.65
270.96589	13024.95
275.20832	12999.05
279.44768	12817.05
283.68397	12594.35
287.91719	12399.75
292.14735	12232.55
296.37445	12184.95
300.59849	12247.55
304.81948	12407.75
309.03742	12532.45
313.25231	12580.75
317.46415	12549.65
321.67296	12417.95
325.87872	12304.95
330.08145	12241.25
334.28114	12296.25
338.47781	12399.95
342.67145	12471.75
346.86207	12618.25
351.04966	12782.75
355.23424	13001.85
359.4158	13178.05
363.59435	13325.15
367.76989	13420.85
371.94243	13526.05
376.11196	13567.35
380.27849	13643.25
384.44203	13655.15
388.60257	13701.15
392.76012	13745.15
396.91468	13814.45
401.06626	13955.35
405.21485	14135.45
409.36047	14137.75
413.50311	14075.85
417.64277	14097.05
421.77947	14171.85
425.9132	14021.65
430.04396	14024.75
434.17176	14177.85
438.2966	14402.85
442.41849	14845.45
446.53742	15455.05
450.6534	16086.35
454.76644	16480.85
458.87653	16463.25
462.98368	16111.45
467.08789	15633.95
471.18916	15175.95
475.2875	14709.85
479.38291	14377.65
483.4754	14204.75
487.56496	14087.55
491.6516	14060.95
495.73531	14089.85
499.81612	14153.25
503.89401	14278.35
507.96899	14335.35
512.04106	14225.45
516.11023	14210.05
520.1765	14274.15
524.23987	14362.95
528.30034	14447.15
532.35792	14412.05
536.41261	14248.05
540.46441	13970.55
544.51333	13844.65
548.55936	13861.75
552.60252	14103.45
556.64279	14426.95
560.6802	14627.05
564.71473	14546.85
568.7464	14414.45
572.7752	14444.15
576.80114	14499.35
580.82422	14655.65
584.84444	15172.95
588.86181	16068.65
592.87633	17348.95
596.888	18193.25
600.89682	17759.85
604.9028	17343.15
608.90594	18261.15
612.90624	19710.25
616.90371	19119.45
620.89834	16613.35
624.89015	15354.75
628.87913	15153.75
632.86528	15018.35
636.84862	14698.55
640.82913	14364.45
644.80683	14037.65
648.78172	13841.95
652.75379	13892.95
656.72306	14095.45
660.68952	14441.25
664.65319	14407.65
668.61405	14202.25
672.57211	14212.65
676.52738	14286.35
680.47986	14191.35
684.42955	14079.15
688.37646	14003.75
692.32058	14194.45
696.26192	14389.85
700.20048	14710.95
704.13626	14741.75
708.06928	14567.65
711.99952	14441.75
715.927	14425.45
719.85171	14545.15
723.77365	14538.65
727.69284	14367.15
731.60928	14233.55
735.52295	14228.45
739.43388	14311.85
743.34206	14375.55
747.24749	14437.85
751.15017	14475.85
755.05012	14600.65
758.94733	14869.35
762.8418	15387.25
766.73354	16216.15
770.62254	17243.65
774.50882	17794.65
778.39237	17418.65
782.27321	16436.55
786.15132	15515.65
790.02671	14941.85
793.89938	14698.45
797.76935	14606.45
801.6366	14550.05
805.50115	14548.65
809.36299	14491.25
813.22213	14418.95
817.07857	14356.15
820.93231	14336.95
824.78336	14317.55
828.63172	14391.95
832.47738	14485.55
836.32036	14581.05
840.16066	14735.55
843.99827	14811.25
847.8332	14766.85
851.66546	14597.95
855.49504	14592.65
859.32195	14562.25
863.1462	14494.05
866.96777	14426.35
870.78668	14385.75
874.60293	14374.95
878.41652	14414.15
882.22745	14524.75
886.03573	14585.35
889.84136	14621.95
893.64433	14529.75
897.44466	14453.35
901.24235	14374.75
905.0374	14341.45
908.8298	14358.15
912.61957	14445.25
916.40671	14576.95
920.19121	14771.15
923.97308	15041.05
927.75233	15219.75
931.52895	15307.45
935.30295	15123.45
939.07433	14829.05
942.84309	14647.95
946.60924	14554.75
950.37278	14464.95
954.13371	14366.05
957.89203	14183.15
961.64774	14158.25
965.40086	14065.15
969.15137	14051.15
972.89929	14045.55
976.64461	14091.75
980.38733	14159.25
984.12747	14300.25
987.86502	14441.65
991.59999	14696.85
995.33237	15028.75
999.06217	15616.35
1002.78939	16312.85
1006.51404	16587.95
1010.23611	16625.65
1013.95561	16691.75
1017.67255	16722.25
1021.38692	16544.65
1025.09872	16463.15
1028.80796	16856.65
1032.51465	17805.15
1036.21877	18678.85
1039.92035	18801.05
1043.61937	18368.05
1047.31584	17609.25
1051.00976	16801.45
1054.70114	16297.25
1058.38998	16060.15
1062.07627	15882.65
1065.76003	15739.65
1069.44126	15664.45
1073.11995	15772.55
1076.79611	15942.35
1080.46974	16122.75
1084.14085	16346.95
1087.80943	16447.65
1091.47549	16454.85
1095.13903	16242.45
1098.80005	15951.95
1102.45857	15766.55
1106.11456	15700.75
1109.76805	15722.25
1113.41903	15854.15
1117.06751	15914.75
1120.71348	16008.35
1124.35696	16139.15
1127.99793	16237.05
1131.63641	16282.85
1135.2724	16127.15
1138.90589	15958.25
1142.5369	15857.45
1146.16542	15805.25
1149.79145	15843.25
1153.415	15864.15
1157.03607	15877.25
1160.65467	16043.35
1164.27079	16436.95
1167.88443	17057.85
1171.49561	17958.75
1175.10432	19254.05
1178.71056	20977.85
1182.31434	22739.95
1185.91565	23645.95
1189.51451	23394.05
1193.11091	22369.65
1196.70485	21197.85
1200.29634	20193.65
1203.88538	19532.85
1207.47197	18956.35
1211.05612	18503.95
1214.63782	18235.35
1218.21708	18315.45
1221.79391	18620.95
1225.36829	18874.55
1228.94024	18715.15
1232.50976	18159.75
1236.07685	17607.65
1239.6415	17286.65
1243.20374	17248.95
1246.76355	17366.95
1250.32093	17688.35
1253.8759	18088.55
1257.42845	18586.85
1260.97859	19094.85
1264.52631	19526.85
1268.07163	20089.55
1271.61453	20663.85
1275.15503	21306.75
1278.69312	21955.85
1282.22882	22430.45
1285.76211	22792.65
1289.29301	23227.05
1292.82151	23795.75
1296.34761	24716.95
1299.87133	26074.75
1303.39266	27898.75
1306.9116	29915.55
1310.42815	31872.25
1313.94233	32879.65
1317.45412	32324.15
1320.96354	30556.25
1324.47058	28484.35
1327.97525	26590.05
1331.47754	25326.85
1334.97747	24669.05
1338.47502	24387.95
1341.97022	24150.35
1345.46305	23970.45
1348.95352	24251.45
1352.44163	25327.55
1355.92738	27298.75
1359.41078	29843.15
1362.89183	31759.15
1366.37053	31548.55
1369.84688	28832.05
1373.32088	25291.85
1376.79254	22884.15
1380.26186	21912.85
1383.72883	21650.15
1387.19347	21364.95
1390.65578	20865.95
1394.11575	20522.25
1397.57339	20430.25
1401.0287	20543.55
1404.48168	20613.95
1407.93234	20615.35
1411.38068	20532.85
1414.82669	20355.85
1418.27039	20106.25
1421.71177	19749.75
1425.15083	19387.35
1428.58758	19287.55
1432.02203	19459.25
1435.45416	19917.55
1438.88399	20229.75
1442.31151	20397.45
1445.73673	20409.25
1449.15965	20311.05
1452.58027	20102.85
1455.9986	19745.45
1459.41463	19581.55
1462.82837	19724.95
1466.23982	20143.65
1469.64898	20649.15
1473.05586	21021.45
1476.46045	21347.15
1479.86276	21564.15
1483.26279	21599.55
1486.66054	21625.55
1490.05602	21736.15
1493.44922	21893.85
1496.84016	21927.95
1500.22882	22014.95
1503.61521	22388.95
1506.99934	22930.45
1510.38121	23558.15
1513.76081	23879.55
1517.13816	23544.45
1520.51324	22661.35
1523.88607	21828.45
1527.25665	21420.35
1530.62498	21239.15
1533.99105	21139.45
1537.35488	21003.95
1540.71647	20790.75
1544.07581	20560.25
1547.4329	20318.35
1550.78776	20012.05
1554.14038	19732.05
1557.49077	19534.35
1560.83892	19336.55
1564.18484	19241.45
1567.52853	19311.75
1570.86999	19465.25
1574.20922	19649.85
1577.54624	19722.55
1580.88103	19673.05
1584.2136	19673.95
1587.54395	20178.15
1590.87208	21234.55
1594.19801	22867.75
1597.52172	24615.15
1600.84321	25593.85
1604.16251	24912.05
1607.47959	23011.45
1610.79447	20823.05
1614.10715	19010.85
1617.41763	17825.25
1620.7259	17137.85
1624.03199	16898.75
1627.33587	17007.05
1630.63757	17420.15
1633.93707	18139.05
1637.23439	19246.75
1640.52951	20865.05
1643.82246	22880.45
1647.11321	24481.65
1650.40179	24603.85
1653.68819	22960.45
1656.97241	20357.05
1660.25446	18008.75
1663.53433	16501.65
1666.81203	15645.15
1670.08756	15162.35
1673.36092	14804.45
1676.63211	14562.85
1679.90115	14428.65
1683.16801	14296.55
1686.43272	14190.65
1689.69527	14145.65
1692.95567	14095.75
1696.2139	14057.55
1699.46999	14045.05
1702.72392	14025.05
1705.97571	14017.75
1709.22535	13992.05
1712.47284	13984.75
1715.71819	14013.45
1718.96139	13988.35
1722.20246	13958.25
1725.44139	13937.75
1728.67818	13901.25
1731.91284	13802.15
1735.14537	13806.35
1738.37576	13779.65
1741.60403	13735.95
1744.83017	13689.05
1748.05418	13675.05
1751.27607	13627.55
1754.49584	13606.85
1757.71349	13625.25
1760.92903	13634.95
1764.14244	13615.35
1767.35375	13608.95
1770.56294	13559.25
1773.77002	13589.35
1776.97499	13560.95
1780.17785	13554.35
1783.37861	13559.05
1786.57727	13540.85
1789.77382	13536.75
1792.96828	13508.25
1796.16064	13537.75
1799.3509	13513.55
1802.53907	13499.75
1805.72514	13522.25
1808.90913	13467.55
1812.09102	13436.15
1815.27083	13429.05
1818.44856	13407.65
1821.6242	13404.75
1824.79776	13402.25
1827.96924	13370.45
1831.13864	13339.35
1834.30597	13363.05
1837.47122	13359.25
1840.6344	13338.35
1843.7955	13366.75
1846.95454	13367.95
1850.11151	13344.25
1853.26642	13334.95
1856.41926	13334.55
1859.57004	13332.25
1862.71876	13315.45
1865.86542	13299.45
1869.01003	13314.95
1872.15258	13315.85
1875.29308	13308.45
1878.43152	13318.95
1881.56792	13341.95
1884.70227	13293.75
1887.83457	13315.55
1890.96482	13255.45
1894.09304	13289.15
1897.21921	13304.55
1900.34335	13257.05
1903.46544	13276.75
1906.58551	13312.25
1909.70353	13266.15
1912.81953	13299.45
1915.93349	13255.35
1919.04543	13248.95
1922.15534	13237.25
1925.26322	13236.35
1928.36908	13220.15
1931.47292	13216.45
1934.57473	13161.25
1937.67453	13136.85
1940.77232	13143.15
1943.86808	13119.65
1946.96184	13105.05
1950.05358	13067.05
1953.14331	13032.25
1956.23103	12995.55
1959.31675	12953.45
1962.40046	12937.35
1965.48217	12960.65
1968.56188	12890.15
1971.63959	12854.45
1974.7153	12855.95
1977.78901	12793.75
1980.86073	12777.85
1983.93046	12763.05
1986.99819	12723.55
1990.06394	12713.75
1993.1277	12705.15
1996.18947	12614.95
1999.24925	12589.55
2002.30706	12542.55
2005.36288	12514.65
2008.41672	12500.95
2011.46859	12479.15
2014.51848	12467.75
2017.56639	12420.65
2020.61233	12392.45
2023.6563	12358.05
2026.6983	12365.65
2029.73833	12356.75
2032.7764	12361.55
2035.8125	12385.15
2038.84664	12340.95
2041.87881	12348.15
2044.90903	12324.15
2047.93729	12323.85
2050.96359	12339.35
2053.98794	12305.65
2057.01034	12298.55
2060.03078	12286.95
2063.04927	12301.65
2066.06582	12287.35
2069.08042	12305.65
2072.09307	12266.15
2075.10378	12292.05
2078.11255	12288.45
2081.11938	12299.55
2084.12426	12285.45
2087.12722	12265.65
2090.12824	12317.55
2093.12732	12310.25
2096.12447	12327.05
2099.11969	12361.65
2102.11299	12387.15
2105.10435	12340.65
2108.09379	12394.65
2111.08131	12378.85
2114.0669	12390.65
2117.05057	12385.55
2120.03233	12393.55
2123.01216	12411.35
2125.99008	12400.05
2128.96609	12429.85
2131.94018	12444.45
2134.91236	12425.05
2137.88263	12444.95
2140.851	12465.65
2143.81746	12512.05
2146.78201	12487.75
2149.74466	12490.95
2152.7054	12485.95
2155.66425	12507.45
2158.6212	12500.85
2161.57625	12531.95
2164.52941	12560.05
2167.48067	12518.85
2170.43004	12541.25
2173.37752	12542.25
2176.32311	12552.75
2179.26681	12552.65
2182.20863	12570.45
2185.14856	12590.85
2188.08661	12560.55
2191.02278	12597.95
2193.95707	12605.35
2196.88948	12624.95
2199.82001	12605.35
2202.74867	12581.65
2205.67545	12654.05
2208.60037	12615.65
2211.52341	12639.95
2214.44458	12622.75
2217.36388	12604.45
2220.28132	12602.95
2223.1969	12587.65
2226.11061	12578.95
2229.02246	12553.85
2231.93245	12535.85
2234.84058	12557.75
2237.74686	12535.35
2240.65128	12517.45
2243.55385	12498.45
2246.45456	12497.05
2249.35343	12430.85
2252.25044	12435.05
2255.14561	12440.85
2258.03893	12427.05
2260.93041	12412.95
2263.82004	12411.75
2266.70783	12408.95
2269.59378	12364.65
2272.4779	12343.55
2275.36017	12335.75
2278.24061	12329.55
2281.11922	12274.75
2283.996	12282.45
2286.87094	12300.35
2289.74405	12294.55
2292.61534	12242.45
2295.4848	12257.15
2298.35243	12289.75
2301.21824	12311.05
2304.08223	12280.55
2306.94439	12331.75
2309.80474	12336.35
2312.66327	12370.25
2315.51999	12350.15
2318.37489	12350.15
2321.22797	12346.55
2324.07925	12342.95
2326.92871	12320.65
2329.77637	12334.25
2332.62222	12350.95
2335.46626	12356.55
2338.3085	12333.95
2341.14893	12360.15
2343.98756	12379.95
2346.8244	12373.55
2349.65943	12370.95
2352.49267	12350.75
2355.32411	12353.15
2358.15376	12344.95
2360.98161	12306.65
2363.80768	12274.15
2366.63195	12285.25
2369.45444	12273.25
2372.27514	12238.85
2375.09405	12226.35
2377.91118	12219.65
2380.72652	12174.85
2383.54009	12192.65
2386.35187	12187.85
2389.16188	12135.65
2391.97011	12131.15
2394.77657	12106.25
2397.58125	12142.25
2400.38416	12137.55
2403.18529	12107.35
2405.98466	12089.45
2408.78226	12045.15
2411.57809	12027.45
2414.37216	12027.15
2417.16446	12016.35
2419.955	11978.05
2422.74378	12013.45
2425.5308	11974.75
2428.31606	12015.65
2431.09956	12011.75
2433.88131	11963.55
2436.6613	11997.25
2439.43954	11980.35
2442.21603	11977.95
2444.99077	11991.85
2447.76377	11981.75
2450.53501	11979.25
2453.30451	11988.15
2456.07226	11972.25
2458.83827	11991.65
2461.60254	11983.35
2464.36507	11993.35
2467.12586	11994.65
2469.88492	12009.65
2472.64224	12005.05
2475.39782	12007.85
2478.15167	12001.05
2480.90379	12010.75
2483.65417	12004.25
2486.40283	12045.15
2489.14976	12044.25
2491.89497	12037.25
2494.63845	12067.75
2497.3802	12088.95
2500.12024	12049.55
2502.85855	12041.95
2505.59514	12043.25
2508.33002	12056.25
2511.06318	12008.45
2513.79462	12002.35
2516.52435	12005.25
2519.25237	11996.25
2521.97867	11973.55
2524.70327	11993.95
2527.42616	12003.95
2530.14734	11981.95
2532.86681	11950.45
2535.58458	11948.45
2538.30065	11944.45
2541.01501	11956.05
2543.72768	11941.55
2546.43864	11939.75
2549.14791	11902.45
2551.85548	11931.05
2554.56136	11895.25
2557.26554	11893.15
2559.96803	11888.45
2562.66883	11883.35
2565.36794	11899.55
2568.06536	11918.15
2570.7611	11902.05
2573.45514	11907.05
2576.14751	11886.85
2578.83819	11884.45
2581.52719	11919.75
2584.21451	11897.55
2586.90015	11897.25
2589.58411	11850.35
2592.2664	11867.35
2594.94701	11840.25
2597.62594	11813.35
2600.30321	11796.15
2602.9788	11797.25
2605.65273	11789.75
2608.32498	11821.35
2610.99557	11808.45
2613.66449	11803.85
2616.33175	11816.75
2618.99734	11820.35
2621.66128	11858.45
2624.32355	11848.15
2626.98416	11851.95
2629.64311	11841.55
2632.30041	11842.65
2634.95605	11820.75
2637.61004	11810.25
2640.26238	11787.25
2642.91306	11798.25
2645.56209	11750.85
2648.20948	11723.75
2650.85521	11749.55
2653.4993	11741.05
2656.14175	11757.25
2658.78255	11758.05
2661.42171	11754.85
2664.05923	11769.35
2666.6951	11752.75
2669.32934	11789.15
2671.96194	11806.25
2674.59291	11815.95
2677.22224	11807.25
2679.84993	11823.95
2682.476	11825.05
2685.10043	11801.05
2687.72324	11786.75
2690.34441	11774.95
2692.96396	11772.05
2695.58188	11825.85
2698.19818	11804.05
2700.81285	11785.45
2703.4259	11798.55
2706.03733	11826.75
2708.64714	11849.95
2711.25533	11861.35
2713.86191	11831.45
2716.46687	11881.75
2719.07021	11873.85
2721.67194	11892.25
2724.27206	11862.05
2726.87057	11887.45
2729.46747	11889.75
2732.06276	11889.65
2734.65644	11896.35
2737.24852	11895.55
2739.83899	11902.95
2742.42786	11916.95
2745.01513	11860.05
2747.60079	11888.05
2750.18486	11895.55
2752.76733	11912.25
2755.3482	11928.65
2757.92747	11927.85
2760.50515	11930.15
2763.08123	11922.85
2765.65573	11882.55
2768.22863	11910.25
2770.79994	11900.45
2773.36967	11888.15
2775.9378	11913.75
2778.50435	11920.25
2781.06932	11939.25
2783.6327	11906.15
2786.1945	11909.15
2788.75471	11897.05
2791.31335	11872.15
2793.87041	11853.45
2796.42589	11835.95
2798.97979	11851.15
2801.53212	11828.35
2804.08288	11814.75
2806.63206	11790.45
2809.17967	11808.25
2811.72571	11773.35
2814.27018	11795.55
2816.81308	11791.85
2819.35442	11785.85
2821.89419	11773.55
2824.43239	11782.25
2826.96904	11778.55
2829.50412	11787.95
2832.03763	11763.75
2834.56959	11773.85
2837.1	11785.55
2839.62884	11808.55
2842.15613	11862.85
2844.68186	11946.25
2847.20604	12001.65
2849.72867	12042.15
2852.24974	12066.65
2854.76927	12074.45
2857.28724	12059.45
2859.80367	12041.25
2862.31855	12030.75
2864.83189	12036.15
2867.34368	12022.85
2869.85393	12041.45
2872.36264	12056.25
2874.8698	12085.55
2877.37543	12081.55
2879.87952	12121.65
2882.38207	12121.05
2884.88308	12152.35
2887.38256	12179.05
2889.88051	12184.45
2892.37692	12184.05
2894.8718	12182.85
2897.36515	12187.85
2899.85698	12207.75
2902.34727	12270.45
2904.83604	12228.85
2907.32328	12275.45
2909.809	12276.25
2912.29319	12262.65
2914.77587	12252.05
2917.25702	12261.65
2919.73665	12237.85
2922.21476	12244.15
2924.69136	12223.15
2927.16644	12220.85
2929.64	12173.15
2932.11205	12207.15
2934.58258	12177.05
2937.05161	12185.45
2939.51912	12165.05
2941.98513	12137.55
2944.44962	12059.35
2946.91261	11987.55
2949.37409	11991.55
2951.83407	11967.05
2954.29254	11945.45
2956.74951	11887.75
2959.20498	11862.65
2961.65895	11813.95
2964.11142	11813.15
2966.56239	11762.15
2969.01186	11790.65
2971.45984	11754.95
2973.90632	11724.85
2976.35131	11701.15
2978.7948	11662.05
2981.23681	11616.15
2983.67732	11613.15
2986.11635	11588.65
2988.55388	11546.25
2990.98993	11517.95
2993.4245	11499.35
2995.85758	11499.85
2998.28917	11483.45
3000.71928	11481.05
3003.14791	11492.15
3005.57506	11488.25
3008.00073	11449.25
3010.42493	11441.85
3012.84764	11438.15
3015.26888	11443.65
3017.68865	11420.25
3020.10694	11412.05
3022.52376	11375.15
3024.9391	11379.15
3027.35298	11385.05
3029.76539	11370.45
3032.17632	11356.45
3034.5858	11306.35
3036.9938	11309.05
3039.40034	11323.45
3041.80542	11327.55
3044.20903	11325.95
3046.61118	11338.55
3049.01187	11309.45
3051.4111	11296.65
3053.80888	11271.95
3056.20519	11279.75
3058.60005	11249.05
3060.99345	11231.85
3063.3854	11242.35
3065.7759	11242.95
3068.16494	11239.15
3070.55254	11209.15
3072.93868	11215.85
3075.32338	11176.75
3077.70662	11165.35
3080.08842	11136.35
3082.46878	11135.05
3084.84769	11133.55
3087.22515	11129.65
3089.60118	11145.35
3091.97576	11136.35
3094.3489	11137.15
3096.72061	11151.75
3099.09087	11157.95
3101.4597	11124.85
3103.82709	11137.25
3106.19305	11133.05
3108.55757	11135.65
3110.92066	11093.25
3113.28232	11100.25
3115.64255	11023.65
3118.00134	11032.15
3120.35871	11049.95
3122.71466	11067.65
3125.06917	11062.55
3127.42226	11022.25
3129.77393	11035.15
3132.12417	11044.15
3134.47299	11056.15
3136.82039	11031.65
3139.16636	11071.15
3141.51092	11065.45
3143.85406	11062.85
3146.19579	11085.35
3148.53609	11106.55
3150.87499	11112.65
3153.21246	11126.85
3155.54853	11155.65
3157.88318	11142.35
3160.21642	11158.65
3162.54826	11118.35
3164.87868	11143.65
3167.2077	11104.55
3169.5353	11127.25
3171.86151	11131.55
3174.18631	11123.85
3176.5097	11137.85
3178.83169	11112.45
3181.15228	11145.65
3183.47147	11120.35
3185.78926	11113.75
3188.10565	11105.25
3190.42065	11114.05
3192.73424	11157.05
3195.04645	11174.75
3197.35725	11195.35
3199.66667	11158.75
3201.97469	11144.45
3204.28132	11140.25
3206.58656	11165.45
3208.8904	11185.55
3211.19287	11199.35
3213.49394	11215.65
3215.79363	11182.15
3218.09193	11225.15
3220.38884	11217.05
3222.68438	11232.85
3224.97853	11215.45
3227.2713	11209.25
3229.56269	11215.35
3231.8527	11189.25
3234.14133	11155.85
3236.42858	11163.15
3238.71446	11169.95
3240.99896	11180.45
3243.28209	11195.55
3245.56384	11175.45
3247.84423	11207.05
3250.12324	11202.85
3252.40088	11196.95
3254.67715	11167.85
3256.95205	11150.25
3259.22558	11182.65
3261.49775	11155.15
3263.76855	11158.85
3266.03799	11143.35
3268.30606	11147.55
3270.57277	11112.35
3272.83812	11120.25
3275.10211	11110.35
3277.36474	11099.15
3279.62601	11108.25
3281.88593	11075.25
3284.14448	11113.45
3286.40168	11105.55
3288.65753	11059.65
3290.91202	11090.15
3293.16516	11044.25
3295.41695	11016.85
3297.66738	10958.55
3299.91647	10930.85
3302.16421	10885.15
3304.4106	10864.75
3306.65564	10824.65
3308.89933	10745.75
3311.14169	10706.35
3313.38269	10639.85
3315.62236	10609.15
3317.86068	10516.65
3320.09766	10429.35
3322.3333	10347.85
3324.5676	10366.55
3326.80056	10218.85
3329.03219	10162.85
3331.26248	2.75
3333.49143	-1.15
3335.71905	-1.45
