Data from AgNPs_FTO_APTES_UA_2uM_CRN_50uM_R6G_10uM_NaF_0.1M_Addition_RamanShift__45__15-28-45-289.txt Node

Date: Wed Feb 02 15:28:45 GMT 2022
User: TCL
Spectrometer: QEP01345
Trigger mode: 4
Integration Time (sec): 7.000000E0
Scans to average: 10
Electric dark correction enabled: true
Nonlinearity correction enabled: false
Boxcar width: 0
XAxis mode: Raman Shifts
Number of Pixels in Spectrum: 1044
>>>>>Begin Spectral Data<<<<<
46.04893	0.25
50.45542	0.25
54.85868	-0.65
59.25871	-0.55
63.6555	78.65
68.04907	85.15
72.43941	87.95
76.82654	98.45
81.21044	99.75
85.59113	102.25
89.96862	104.85
94.34289	107.75
98.71396	116.05
103.08183	121.45
107.4465	120.05
111.80798	121.45
116.16626	123.55
120.52136	126.25
124.87327	135.65
129.222	142.75
133.56755	150.35
137.90993	156.05
142.24913	174.55
146.58517	193.95
150.91804	228.65
155.24774	268.55
159.57429	335.45
163.89768	427.55
168.21792	556.95
172.53501	752.45
176.84895	1045.75
181.15975	1469.35
185.46741	2055.45
189.77193	2804.75
194.07331	3768.95
198.37157	4850.75
202.6667	6008.35
206.9587	7115.75
211.24758	8217.45
215.53334	9355.65
219.81599	10530.25
224.09553	11794.15
228.37195	13167.85
232.64527	14733.15
236.91549	16291.45
241.18261	17873.85
245.44663	19352.75
249.70755	20746.95
253.96539	21946.35
258.22014	22926.85
262.4718	23786.65
266.72039	24407.85
270.96589	24787.35
275.20832	24876.85
279.44768	24871.25
283.68397	24839.05
287.91719	24816.65
292.14735	24811.85
296.37445	24928.75
300.59849	25091.35
304.81948	25227.35
309.03742	25101.55
313.25231	24750.25
317.46415	24144.45
321.67296	23393.65
325.87872	22708.55
330.08145	22359.85
334.28114	22242.15
338.47781	22301.45
342.67145	22517.35
346.86207	22756.45
351.04966	22996.15
355.23424	23226.35
359.4158	23485.15
363.59435	23698.15
367.76989	23850.45
371.94243	23942.85
376.11196	23975.65
380.27849	23922.15
384.44203	23995.05
388.60257	24187.65
392.76012	24560.05
396.91468	24947.35
401.06626	25431.35
405.21485	25612.05
409.36047	25535.35
413.50311	25160.95
417.64277	25020.25
421.77947	25094.35
425.9132	25199.75
430.04396	25365.95
434.17176	25505.85
438.2966	25618.85
442.41849	25904.85
446.53742	26534.25
450.6534	27245.15
454.76644	27749.65
458.87653	28088.65
462.98368	28097.45
467.08789	27957.65
471.18916	27838.95
475.2875	27776.65
479.38291	27855.45
483.4754	27863.45
487.56496	27490.65
491.6516	26821.05
495.73531	26046.45
499.81612	25528.65
503.89401	25434.45
507.96899	25534.55
512.04106	25528.25
516.11023	25328.95
520.1765	24925.75
524.23987	24490.95
528.30034	24091.05
532.35792	23753.75
536.41261	23527.55
540.46441	23312.95
544.51333	23475.65
548.55936	23916.45
552.60252	24545.85
556.64279	25282.35
560.6802	25873.35
564.71473	26345.35
568.7464	27163.95
572.7752	28435.55
576.80114	29850.95
580.82422	30880.05
584.84444	31631.55
588.86181	32379.35
592.87633	32843.15
596.888	32224.65
600.89682	30757.65
604.9028	30146.95
608.90594	30984.95
612.90624	31802.55
616.90371	29449.45
620.89834	25432.65
624.89015	23620.95
628.87913	23609.15
632.86528	23881.85
636.84862	23897.55
640.82913	23516.65
644.80683	22935.85
648.78172	22484.85
652.75379	22345.95
656.72306	22511.25
660.68952	22715.05
664.65319	22609.65
668.61405	22352.85
672.57211	22263.65
676.52738	22313.25
680.47986	22348.55
684.42955	22267.15
688.37646	22155.95
692.32058	22252.85
696.26192	22511.35
700.20048	22782.95
704.13626	23074.85
708.06928	23243.15
711.99952	23264.55
715.927	23227.35
719.85171	23147.55
723.77365	22892.45
727.69284	22463.35
731.60928	22132.05
735.52295	21978.45
739.43388	21878.35
743.34206	21912.05
747.24749	22073.75
751.15017	22434.85
755.05012	22912.35
758.94733	23765.95
762.8418	25079.85
766.73354	26864.55
770.62254	28268.75
774.50882	28090.35
778.39237	26499.95
782.27321	24642.35
786.15132	23269.55
790.02671	22392.45
793.89938	21877.45
797.76935	21696.85
801.6366	21651.75
805.50115	21603.65
809.36299	21486.15
813.22213	21356.65
817.07857	21351.55
820.93231	21300.85
824.78336	21154.85
828.63172	20928.45
832.47738	20759.45
836.32036	20708.35
840.16066	20673.15
843.99827	20676.05
847.8332	20619.55
851.66546	20635.95
855.49504	20706.25
859.32195	20628.35
863.1462	20572.75
866.96777	20498.35
870.78668	20447.05
874.60293	20421.05
878.41652	20400.05
882.22745	20447.05
886.03573	20455.35
889.84136	20468.95
893.64433	20426.15
897.44466	20367.15
901.24235	20296.85
905.0374	20303.85
908.8298	20271.75
912.61957	20426.75
916.40671	20776.55
920.19121	21203.45
923.97308	21462.15
927.75233	21289.55
931.52895	20876.35
935.30295	20366.35
939.07433	19935.65
942.84309	19558.15
946.60924	19377.95
950.37278	19271.25
954.13371	19286.85
957.89203	19338.75
961.64774	19385.25
965.40086	19411.65
969.15137	19340.55
972.89929	19130.15
976.64461	18985.35
980.38733	18875.65
984.12747	18853.85
987.86502	18969.45
991.59999	19019.05
995.33237	19134.65
999.06217	19390.05
1002.78939	19676.95
1006.51404	19996.75
1010.23611	20311.45
1013.95561	20541.45
1017.67255	20611.65
1021.38692	20494.65
1025.09872	20255.95
1028.80796	19973.05
1032.51465	19957.15
1036.21877	20023.85
1039.92035	20158.75
1043.61937	20269.25
1047.31584	20355.75
1051.00976	20436.35
1054.70114	20577.15
1058.38998	20811.45
1062.07627	21203.35
1065.76003	21638.75
1069.44126	22054.85
1073.11995	22387.65
1076.79611	22590.45
1080.46974	22667.05
1084.14085	22750.55
1087.80943	22957.15
1091.47549	23258.65
1095.13903	23403.65
1098.80005	23169.15
1102.45857	22467.05
1106.11456	21758.55
1109.76805	21387.55
1113.41903	21293.15
1117.06751	21383.75
1120.71348	21651.75
1124.35696	21932.55
1127.99793	22269.25
1131.63641	22536.75
1135.2724	22529.75
1138.90589	22541.05
1142.5369	22740.25
1146.16542	23137.85
1149.79145	23622.55
1153.415	24121.85
1157.03607	24712.45
1160.65467	25674.45
1164.27079	27124.15
1167.88443	28839.05
1171.49561	30549.85
1175.10432	32475.85
1178.71056	34719.85
1182.31434	36883.75
1185.91565	37996.15
1189.51451	38174.85
1193.11091	37658.15
1196.70485	36653.45
1200.29634	35304.55
1203.88538	34442.25
1207.47197	34280.25
1211.05612	34346.15
1214.63782	33739.05
1218.21708	32379.15
1221.79391	30733.25
1225.36829	29388.35
1228.94024	28599.25
1232.50976	28107.55
1236.07685	27870.95
1239.6415	27738.15
1243.20374	27874.25
1246.76355	28156.25
1250.32093	28613.55
1253.8759	29259.35
1257.42845	30147.95
1260.97859	31114.75
1264.52631	32051.45
1268.07163	32991.55
1271.61453	33915.25
1275.15503	35003.25
1278.69312	36304.65
1282.22882	37709.95
1285.76211	39508.75
1289.29301	41655.85
1292.82151	44191.95
1296.34761	47332.85
1299.87133	50493.45
1303.39266	53318.75
1306.9116	55191.65
1310.42815	56198.65
1313.94233	56467.25
1317.45412	56144.55
1320.96354	56069.05
1324.47058	56292.65
1327.97525	56754.95
1331.47754	57122.05
1334.97747	57177.25
1338.47502	56799.55
1341.97022	56090.25
1345.46305	55072.05
1348.95352	53868.55
1352.44163	52545.65
1355.92738	51837.95
1359.41078	51994.45
1362.89183	52190.05
1366.37053	51132.45
1369.84688	47940.55
1373.32088	43733.75
1376.79254	40779.45
1380.26186	39987.05
1383.72883	40666.35
1387.19347	41387.45
1390.65578	41568.55
1394.11575	41658.75
1397.57339	42034.05
1401.0287	42648.25
1404.48168	42924.95
1407.93234	42247.75
1411.38068	40679.05
1414.82669	38458.65
1418.27039	36148.35
1421.71177	34020.75
1425.15083	32414.65
1428.58758	31743.95
1432.02203	32040.95
1435.45416	33071.15
1438.88399	34447.55
1442.31151	35570.75
1445.73673	36305.95
1449.15965	37039.05
1452.58027	37625.75
1455.9986	37985.45
1459.41463	38287.95
1462.82837	38687.45
1466.23982	39112.75
1469.64898	39443.95
1473.05586	39594.85
1476.46045	39330.15
1479.86276	38762.35
1483.26279	38166.25
1486.66054	37807.25
1490.05602	37913.25
1493.44922	38306.05
1496.84016	38877.55
1500.22882	39684.95
1503.61521	40764.85
1506.99934	41887.85
1510.38121	42842.35
1513.76081	43188.45
1517.13816	42973.65
1520.51324	42574.35
1523.88607	42648.65
1527.25665	43077.75
1530.62498	43367.55
1533.99105	43252.85
1537.35488	42417.85
1540.71647	41110.45
1544.07581	39351.75
1547.4329	37614.75
1550.78776	36276.75
1554.14038	35449.75
1557.49077	34971.95
1560.83892	34669.75
1564.18484	34611.75
1567.52853	34702.35
1570.86999	35242.85
1574.20922	36267.55
1577.54624	37468.85
1580.88103	38314.95
1584.2136	39302.55
1587.54395	40629.95
1590.87208	42371.75
1594.19801	44255.05
1597.52172	45684.15
1600.84321	45366.25
1604.16251	42660.25
1607.47959	38882.15
1610.79447	35248.45
1614.10715	32005.05
1617.41763	29377.65
1620.7259	27560.35
1624.03199	26554.65
1627.33587	26607.25
1630.63757	27582.85
1633.93707	29782.15
1637.23439	33331.65
1640.52951	38433.85
1643.82246	44288.15
1647.11321	48861.05
1650.40179	49744.95
1653.68819	46137.35
1656.97241	39665.05
1660.25446	33123.45
1663.53433	27934.95
1666.81203	24455.35
1670.08756	22135.45
1673.36092	20731.35
1676.63211	19763.05
1679.90115	19146.65
1683.16801	18682.35
1686.43272	18343.85
1689.69527	18121.65
1692.95567	17873.85
1696.2139	17768.25
1699.46999	17641.65
1702.72392	17520.65
1705.97571	17440.65
1709.22535	17328.35
1712.47284	17234.45
1715.71819	17176.65
1718.96139	17058.75
1722.20246	17009.85
1725.44139	16909.25
1728.67818	16774.15
1731.91284	16677.65
1735.14537	16559.05
1738.37576	16485.75
1741.60403	16401.35
1744.83017	16293.45
1748.05418	16264.05
1751.27607	16228.05
1754.49584	16201.95
1757.71349	16159.05
1760.92903	16142.75
1764.14244	16117.25
1767.35375	16096.85
1770.56294	15993.35
1773.77002	15978.95
1776.97499	15913.45
1780.17785	15854.25
1783.37861	15788.05
1786.57727	15795.75
1789.77382	15739.55
1792.96828	15694.25
1796.16064	15644.55
1799.3509	15600.45
1802.53907	15551.35
1805.72514	15475.35
1808.90913	15438.55
1812.09102	15399.75
1815.27083	15388.65
1818.44856	15345.85
1821.6242	15306.15
1824.79776	15322.95
1827.96924	15276.95
1831.13864	15256.65
1834.30597	15267.15
1837.47122	15294.35
1840.6344	15289.75
1843.7955	15296.05
1846.95454	15286.35
1850.11151	15242.75
1853.26642	15232.85
1856.41926	15211.75
1859.57004	15192.65
1862.71876	15152.15
1865.86542	15114.25
1869.01003	15100.35
1872.15258	15042.55
1875.29308	15022.35
1878.43152	15014.45
1881.56792	14963.25
1884.70227	14939.15
1887.83457	14913.45
1890.96482	14885.25
1894.09304	14890.85
1897.21921	14842.15
1900.34335	14823.15
1903.46544	14805.35
1906.58551	14780.65
1909.70353	14752.55
1912.81953	14690.65
1915.93349	14661.65
1919.04543	14607.25
1922.15534	14578.75
1925.26322	14516.05
1928.36908	14532.75
1931.47292	14475.25
1934.57473	14437.95
1937.67453	14368.55
1940.77232	14321.75
1943.86808	14310.95
1946.96184	14250.25
1950.05358	14243.75
1953.14331	14196.75
1956.23103	14142.85
1959.31675	14096.05
1962.40046	14043.65
1965.48217	14000.45
1968.56188	13926.35
1971.63959	13884.05
1974.7153	13843.55
1977.78901	13815.65
1980.86073	13768.15
1983.93046	13697.65
1986.99819	13629.15
1990.06394	13616.95
1993.1277	13606.75
1996.18947	13484.35
1999.24925	13456.35
2002.30706	13435.75
2005.36288	13389.85
2008.41672	13339.95
2011.46859	13316.35
2014.51848	13230.85
2017.56639	13187.85
2020.61233	13166.25
2023.6563	13138.35
2026.6983	13104.45
2029.73833	13066.05
2032.7764	13046.65
2035.8125	13010.75
2038.84664	12973.35
2041.87881	12958.05
2044.90903	12934.65
2047.93729	12931.85
2050.96359	12866.25
2053.98794	12868.75
2057.01034	12867.35
2060.03078	12834.25
2063.04927	12842.65
2066.06582	12818.95
2069.08042	12816.15
2072.09307	12830.25
2075.10378	12766.05
2078.11255	12755.85
2081.11938	12747.65
2084.12426	12718.85
2087.12722	12710.65
2090.12824	12721.75
2093.12732	12712.35
2096.12447	12727.45
2099.11969	12723.95
2102.11299	12720.45
2105.10435	12750.05
2108.09379	12736.65
2111.08131	12750.85
2114.0669	12727.15
2117.05057	12719.45
2120.03233	12741.95
2123.01216	12737.75
2125.99008	12738.65
2128.96609	12745.55
2131.94018	12730.75
2134.91236	12725.45
2137.88263	12724.35
2140.851	12694.95
2143.81746	12722.25
2146.78201	12714.95
2149.74466	12693.15
2152.7054	12702.45
2155.66425	12704.25
2158.6212	12688.15
2161.57625	12669.85
2164.52941	12666.45
2167.48067	12642.65
2170.43004	12630.35
2173.37752	12601.95
2176.32311	12606.55
2179.26681	12632.95
2182.20863	12602.75
2185.14856	12609.15
2188.08661	12582.25
2191.02278	12574.65
2193.95707	12562.95
2196.88948	12562.25
2199.82001	12533.05
2202.74867	12517.75
2205.67545	12511.65
2208.60037	12466.35
2211.52341	12428.25
2214.44458	12417.45
2217.36388	12414.45
2220.28132	12398.25
2223.1969	12357.05
2226.11061	12352.15
2229.02246	12302.35
2231.93245	12285.65
2234.84058	12252.25
2237.74686	12237.95
2240.65128	12208.45
2243.55385	12205.45
2246.45456	12186.55
2249.35343	12143.15
2252.25044	12141.55
2255.14561	12059.85
2258.03893	12077.85
2260.93041	12020.55
2263.82004	11981.55
2266.70783	11957.45
2269.59378	11912.55
2272.4779	11848.55
2275.36017	11824.25
2278.24061	11826.55
2281.11922	11796.75
2283.996	11767.45
2286.87094	11753.45
2289.74405	11734.05
2292.61534	11677.75
2295.4848	11692.55
2298.35243	11692.75
2301.21824	11658.95
2304.08223	11673.85
2306.94439	11662.05
2309.80474	11661.95
2312.66327	11635.05
2315.51999	11589.15
2318.37489	11587.35
2321.22797	11548.85
2324.07925	11576.75
2326.92871	11555.45
2329.77637	11541.45
2332.62222	11531.45
2335.46626	11508.15
2338.3085	11499.55
2341.14893	11506.95
2343.98756	11487.85
2346.8244	11471.95
2349.65943	11480.85
2352.49267	11467.45
2355.32411	11474.25
2358.15376	11455.35
2360.98161	11477.85
2363.80768	11466.75
2366.63195	11440.65
2369.45444	11435.95
2372.27514	11414.85
2375.09405	11406.25
2377.91118	11355.05
2380.72652	11355.85
2383.54009	11331.05
2386.35187	11327.65
2389.16188	11245.75
2391.97011	11260.45
2394.77657	11217.15
2397.58125	11205.45
2400.38416	11199.25
2403.18529	11155.95
2405.98466	11155.15
2408.78226	11141.55
2411.57809	11132.45
2414.37216	11109.95
2417.16446	11134.85
2419.955	11106.25
2422.74378	11101.65
2425.5308	11084.45
2428.31606	11098.55
2431.09956	11075.85
2433.88131	11043.45
2436.6613	11023.55
2439.43954	11036.35
2442.21603	11043.55
2444.99077	11012.95
2447.76377	10999.15
2450.53501	11009.15
2453.30451	10998.95
2456.07226	11005.25
2458.83827	11001.85
2461.60254	11008.55
2464.36507	10967.85
2467.12586	10983.75
2469.88492	10967.75
2472.64224	10964.55
2475.39782	10983.05
2478.15167	10972.05
2480.90379	10958.95
2483.65417	10959.45
2486.40283	10957.95
2489.14976	10968.55
2491.89497	10960.85
2494.63845	10955.15
2497.3802	10958.85
2500.12024	10935.45
2502.85855	10938.95
2505.59514	10952.25
2508.33002	10959.05
2511.06318	10952.15
2513.79462	10943.05
2516.52435	10925.05
2519.25237	10913.55
2521.97867	10899.45
2524.70327	10889.35
2527.42616	10886.65
2530.14734	10890.75
2532.86681	10869.05
2535.58458	10868.65
2538.30065	10850.35
2541.01501	10816.05
2543.72768	10801.85
2546.43864	10804.75
2549.14791	10790.35
2551.85548	10787.85
2554.56136	10782.55
2557.26554	10752.05
2559.96803	10764.25
2562.66883	10736.35
2565.36794	10759.35
2568.06536	10744.85
2570.7611	10731.45
2573.45514	10720.25
2576.14751	10708.75
2578.83819	10672.85
2581.52719	10673.65
2584.21451	10666.05
2586.90015	10668.95
2589.58411	10673.35
2592.2664	10643.55
2594.94701	10617.45
2597.62594	10626.05
2600.30321	10641.75
2602.9788	10620.85
2605.65273	10592.55
2608.32498	10606.65
2610.99557	10634.15
2613.66449	10629.65
2616.33175	10632.35
2618.99734	10616.65
2621.66128	10604.65
2624.32355	10590.45
2626.98416	10611.45
2629.64311	10589.85
2632.30041	10578.15
2634.95605	10565.85
2637.61004	10584.85
2640.26238	10560.95
2642.91306	10569.15
2645.56209	10556.95
2648.20948	10568.75
2650.85521	10549.35
2653.4993	10580.75
2656.14175	10557.25
2658.78255	10592.75
2661.42171	10573.85
2664.05923	10604.85
2666.6951	10590.55
2669.32934	10593.85
2671.96194	10599.75
2674.59291	10595.05
2677.22224	10603.25
2679.84993	10603.05
2682.476	10602.35
2685.10043	10574.75
2687.72324	10566.85
2690.34441	10599.95
2692.96396	10573.25
2695.58188	10589.25
2698.19818	10559.55
2700.81285	10583.35
2703.4259	10579.65
2706.03733	10607.45
2708.64714	10608.95
2711.25533	10606.25
2713.86191	10605.55
2716.46687	10620.75
2719.07021	10607.75
2721.67194	10624.15
2724.27206	10617.35
2726.87057	10678.15
2729.46747	10653.45
2732.06276	10647.15
2734.65644	10648.15
2737.24852	10632.35
2739.83899	10605.35
2742.42786	10630.05
2745.01513	10591.95
2747.60079	10614.85
2750.18486	10571.55
2752.76733	10577.25
2755.3482	10610.15
2757.92747	10598.05
2760.50515	10616.35
2763.08123	10623.05
2765.65573	10606.45
2768.22863	10588.95
2770.79994	10578.45
2773.36967	10597.25
2775.9378	10585.65
2778.50435	10580.15
2781.06932	10566.05
2783.6327	10564.45
2786.1945	10544.45
2788.75471	10549.95
2791.31335	10543.55
2793.87041	10528.55
2796.42589	10511.05
2798.97979	10510.55
2801.53212	10477.45
2804.08288	10487.25
2806.63206	10457.65
2809.17967	10442.65
2811.72571	10398.65
2814.27018	10390.35
2816.81308	10379.55
2819.35442	10370.45
2821.89419	10326.95
2824.43239	10326.85
2826.96904	10310.25
2829.50412	10325.15
2832.03763	10285.95
2834.56959	10300.45
2837.1	10273.65
2839.62884	10276.75
2842.15613	10289.65
2844.68186	10333.45
2847.20604	10374.35
2849.72867	10373.65
2852.24974	10367.75
2854.76927	10378.55
2857.28724	10345.45
2859.80367	10329.85
2862.31855	10309.55
2864.83189	10295.25
2867.34368	10269.75
2869.85393	10283.25
2872.36264	10270.05
2874.8698	10249.45
2877.37543	10249.95
2879.87952	10259.25
2882.38207	10230.15
2884.88308	10225.05
2887.38256	10197.05
2889.88051	10218.65
2892.37692	10231.15
2894.8718	10246.65
2897.36515	10232.25
2899.85698	10227.65
2902.34727	10271.45
2904.83604	10255.05
2907.32328	10285.25
2909.809	10260.15
2912.29319	10262.75
2914.77587	10243.55
2917.25702	10291.75
2919.73665	10253.35
2922.21476	10232.55
2924.69136	10241.05
2927.16644	10267.25
2929.64	10252.05
2932.11205	10274.95
2934.58258	10219.55
2937.05161	10243.55
2939.51912	10218.55
2941.98513	10220.85
2944.44962	10160.05
2946.91261	10103.85
2949.37409	10114.25
2951.83407	10073.15
2954.29254	10085.15
2956.74951	10026.05
2959.20498	10026.05
2961.65895	10012.05
2964.11142	10023.45
2966.56239	9968.25
2969.01186	9989.95
2971.45984	9978.05
2973.90632	9944.05
2976.35131	9906.95
2978.7948	9875.85
2981.23681	9819.55
2983.67732	9827.85
2986.11635	9800.25
2988.55388	9745.05
2990.98993	9749.15
2993.4245	9720.05
2995.85758	9678.45
2998.28917	9664.35
3000.71928	9656.25
3003.14791	9598.05
3005.57506	9608.45
3008.00073	9563.15
3010.42493	9535.05
3012.84764	9502.95
3015.26888	9483.75
3017.68865	9457.65
3020.10694	9462.45
3022.52376	9448.65
3024.9391	9436.65
3027.35298	9406.15
3029.76539	9380.75
3032.17632	9390.05
3034.5858	9401.65
3036.9938	9392.35
3039.40034	9370.45
3041.80542	9347.85
3044.20903	9332.15
3046.61118	9330.65
3049.01187	9299.75
3051.4111	9271.95
3053.80888	9250.55
3056.20519	9225.75
3058.60005	9207.75
3060.99345	9177.45
3063.3854	9157.55
3065.7759	9133.85
3068.16494	9104.25
3070.55254	9058.45
3072.93868	9042.45
3075.32338	9000.35
3077.70662	8981.85
3080.08842	8955.05
3082.46878	8951.65
3084.84769	8940.05
3087.22515	8917.85
3089.60118	8919.85
3091.97576	8900.15
3094.3489	8890.05
3096.72061	8892.65
3099.09087	8881.25
3101.4597	8854.45
3103.82709	8846.35
3106.19305	8835.45
3108.55757	8828.95
3110.92066	8809.25
3113.28232	8777.15
3115.64255	8711.65
3118.00134	8732.95
3120.35871	8709.55
3122.71466	8695.45
3125.06917	8669.65
3127.42226	8640.75
3129.77393	8641.65
3132.12417	8648.35
3134.47299	8637.25
3136.82039	8617.25
3139.16636	8603.35
3141.51092	8606.15
3143.85406	8603.25
3146.19579	8604.55
3148.53609	8605.55
3150.87499	8620.65
3153.21246	8588.75
3155.54853	8644.05
3157.88318	8585.05
3160.21642	8594.45
3162.54826	8602.15
3164.87868	8572.25
3167.2077	8577.95
3169.5353	8566.65
3171.86151	8574.25
3174.18631	8564.05
3176.5097	8571.05
3178.83169	8533.45
3181.15228	8549.65
3183.47147	8513.55
3185.78926	8517.75
3188.10565	8522.95
3190.42065	8495.15
3192.73424	8476.55
3195.04645	8483.45
3197.35725	8440.05
3199.66667	8444.95
3201.97469	8465.75
3204.28132	8435.45
3206.58656	8429.25
3208.8904	8433.45
3211.19287	8435.45
3213.49394	8440.35
3215.79363	8419.35
3218.09193	8408.45
3220.38884	8424.75
3222.68438	8434.35
3224.97853	8420.75
3227.2713	8384.85
3229.56269	8394.95
3231.8527	8388.55
3234.14133	8385.05
3236.42858	8359.95
3238.71446	8341.75
3240.99896	8343.55
3243.28209	8307.15
3245.56384	8315.15
3247.84423	8315.55
3250.12324	8295.45
3252.40088	8300.55
3254.67715	8262.75
3256.95205	8257.65
3259.22558	8247.55
3261.49775	8205.05
3263.76855	8200.55
3266.03799	8164.45
3268.30606	8158.15
3270.57277	8148.55
3272.83812	8123.55
3275.10211	8090.15
3277.36474	8102.25
3279.62601	8094.65
3281.88593	8085.45
3284.14448	8095.25
3286.40168	8111.55
3288.65753	8071.45
3290.91202	8055.05
3293.16516	8034.95
3295.41695	8020.45
3297.66738	7952.55
3299.91647	7935.05
3302.16421	7866.85
3304.4106	7844.45
3306.65564	7773.65
3308.89933	7725.25
3311.14169	7685.15
3313.38269	7642.15
3315.62236	7604.35
3317.86068	7506.25
3320.09766	7424.65
3322.3333	7358.75
3324.5676	7338.75
3326.80056	7237.05
3329.03219	7192.95
3331.26248	2.35
3333.49143	-0.65
3335.71905	-1.75
