Data from AgNPs_FTO_APTES_UA_2uM_CRN_500uM_R6G_10uM_NaF_0.1M_Addition_RamanShift__17__17-18-25-416.txt Node

Date: Wed Feb 02 17:18:25 GMT 2022
User: TCL
Spectrometer: QEP01345
Trigger mode: 4
Integration Time (sec): 7.000000E0
Scans to average: 10
Electric dark correction enabled: true
Nonlinearity correction enabled: false
Boxcar width: 0
XAxis mode: Raman Shifts
Number of Pixels in Spectrum: 1044
>>>>>Begin Spectral Data<<<<<
46.04893	0.55
50.45542	0.75
54.85868	-0.95
59.25871	-0.75
63.6555	62.15
68.04907	68.35
72.43941	72.35
76.82654	76.05
81.21044	77.55
85.59113	81.55
89.96862	84.65
94.34289	88.15
98.71396	88.05
103.08183	94.45
107.4465	97.25
111.80798	98.45
116.16626	97.85
120.52136	103.45
124.87327	105.45
129.222	110.05
133.56755	124.65
137.90993	125.65
142.24913	140.65
146.58517	152.65
150.91804	183.95
155.24774	219.45
159.57429	272.35
163.89768	345.95
168.21792	457.45
172.53501	621.05
176.84895	865.45
181.15975	1216.25
185.46741	1698.75
189.77193	2344.15
194.07331	3125.95
198.37157	4018.45
202.6667	4973.35
206.9587	5879.35
211.24758	6814.55
215.53334	7741.55
219.81599	8713.45
224.09553	9787.45
228.37195	10939.15
232.64527	12155.75
236.91549	13537.75
241.18261	14845.95
245.44663	16121.35
249.70755	17280.15
253.96539	18320.85
258.22014	19247.85
262.4718	19949.25
266.72039	20482.15
270.96589	20809.35
275.20832	20932.85
279.44768	20965.95
283.68397	20954.65
287.91719	20943.85
292.14735	20993.85
296.37445	21089.15
300.59849	21201.05
304.81948	21211.75
309.03742	20980.65
313.25231	20552.25
317.46415	19951.15
321.67296	19242.65
325.87872	18669.35
330.08145	18381.65
334.28114	18243.75
338.47781	18266.35
342.67145	18401.15
346.86207	18630.65
351.04966	18922.35
355.23424	19187.05
359.4158	19438.15
363.59435	19606.55
367.76989	19669.15
371.94243	19777.75
376.11196	19837.25
380.27849	19928.75
384.44203	20089.65
388.60257	20283.25
392.76012	20553.05
396.91468	20813.15
401.06626	21124.55
405.21485	21315.35
409.36047	21252.95
413.50311	21039.95
417.64277	20877.95
421.77947	20882.05
425.9132	20981.35
430.04396	21177.35
434.17176	21326.45
438.2966	21457.55
442.41849	21848.75
446.53742	22407.45
450.6534	23093.45
454.76644	23602.25
458.87653	23858.85
462.98368	23892.25
467.08789	23744.15
471.18916	23682.05
475.2875	23686.15
479.38291	23843.05
483.4754	23921.25
487.56496	23571.15
491.6516	22897.05
495.73531	22200.65
499.81612	21718.85
503.89401	21634.75
507.96899	21599.05
512.04106	21491.45
516.11023	21233.55
520.1765	20893.65
524.23987	20562.85
528.30034	20317.75
532.35792	20077.65
536.41261	19898.65
540.46441	19785.75
544.51333	19927.75
548.55936	20333.45
552.60252	20931.45
556.64279	21638.25
560.6802	22197.05
564.71473	22624.35
568.7464	23258.85
572.7752	24078.05
576.80114	24717.65
580.82422	25115.25
584.84444	25354.95
588.86181	25565.95
592.87633	25639.35
596.888	25388.15
600.89682	24933.25
604.9028	25055.35
608.90594	26057.55
612.90624	26860.25
616.90371	25014.05
620.89834	21509.35
624.89015	19964.85
628.87913	19830.95
632.86528	20067.75
636.84862	20215.05
640.82913	19972.25
644.80683	19518.05
648.78172	19082.35
652.75379	18898.25
656.72306	18941.85
660.68952	19080.95
664.65319	18997.55
668.61405	18803.65
672.57211	18722.75
676.52738	18805.75
680.47986	18836.35
684.42955	18788.75
688.37646	18699.25
692.32058	18747.45
696.26192	18879.35
700.20048	19080.05
704.13626	19265.65
708.06928	19355.05
711.99952	19316.65
715.927	19246.85
719.85171	19250.65
723.77365	19184.85
727.69284	18988.25
731.60928	18772.25
735.52295	18704.25
739.43388	18615.55
743.34206	18633.85
747.24749	18689.55
751.15017	18966.45
755.05012	19334.15
758.94733	19968.05
762.8418	21077.55
766.73354	22549.45
770.62254	23783.35
774.50882	23780.05
778.39237	22476.25
782.27321	20839.05
786.15132	19641.15
790.02671	18880.05
793.89938	18499.85
797.76935	18361.15
801.6366	18361.25
805.50115	18266.75
809.36299	18230.35
813.22213	18090.95
817.07857	18127.35
820.93231	18078.65
824.78336	17949.85
828.63172	17734.85
832.47738	17641.05
836.32036	17607.25
840.16066	17596.65
843.99827	17589.45
847.8332	17533.75
851.66546	17476.65
855.49504	17456.45
859.32195	17440.05
863.1462	17411.45
866.96777	17351.65
870.78668	17308.25
874.60293	17343.45
878.41652	17305.85
882.22745	17331.15
886.03573	17363.15
889.84136	17385.75
893.64433	17349.75
897.44466	17287.95
901.24235	17225.95
905.0374	17123.35
908.8298	17106.85
912.61957	17153.55
916.40671	17365.35
920.19121	17635.65
923.97308	17773.35
927.75233	17686.75
931.52895	17411.05
935.30295	17106.05
939.07433	16770.25
942.84309	16483.65
946.60924	16342.65
950.37278	16289.75
954.13371	16286.85
957.89203	16325.95
961.64774	16311.75
965.40086	16330.35
969.15137	16232.15
972.89929	16076.15
976.64461	15936.45
980.38733	15866.25
984.12747	15818.85
987.86502	15888.15
991.59999	16026.35
995.33237	16164.15
999.06217	16455.25
1002.78939	16798.25
1006.51404	17084.45
1010.23611	17292.15
1013.95561	17478.45
1017.67255	17524.75
1021.38692	17396.55
1025.09872	17142.95
1028.80796	16914.35
1032.51465	16977.65
1036.21877	17091.95
1039.92035	17150.05
1043.61937	17133.55
1047.31584	17119.25
1051.00976	17129.55
1054.70114	17223.25
1058.38998	17332.65
1062.07627	17614.05
1065.76003	17897.75
1069.44126	18117.35
1073.11995	18270.95
1076.79611	18440.75
1080.46974	18485.75
1084.14085	18534.95
1087.80943	18673.95
1091.47549	18969.75
1095.13903	19151.55
1098.80005	19070.05
1102.45857	18605.15
1106.11456	18138.05
1109.76805	17890.25
1113.41903	17834.45
1117.06751	17949.85
1120.71348	18205.95
1124.35696	18405.05
1127.99793	18714.95
1131.63641	18959.85
1135.2724	18862.45
1138.90589	18809.35
1142.5369	18936.15
1146.16542	19150.85
1149.79145	19516.35
1153.415	19933.05
1157.03607	20477.75
1160.65467	21246.95
1164.27079	22364.95
1167.88443	23673.55
1171.49561	25136.25
1175.10432	26996.95
1178.71056	29171.85
1182.31434	31281.65
1185.91565	32467.25
1189.51451	32648.45
1193.11091	32220.15
1196.70485	31408.45
1200.29634	30247.45
1203.88538	29320.55
1207.47197	28727.45
1211.05612	28406.85
1214.63782	27811.95
1218.21708	26985.75
1221.79391	26063.25
1225.36829	25334.75
1228.94024	24710.85
1232.50976	24140.75
1236.07685	23730.25
1239.6415	23501.95
1243.20374	23481.45
1246.76355	23650.05
1250.32093	24010.85
1253.8759	24535.75
1257.42845	25266.05
1260.97859	26001.35
1264.52631	26672.85
1268.07163	27425.55
1271.61453	28210.25
1275.15503	29109.65
1278.69312	30086.85
1282.22882	31102.55
1285.76211	32327.75
1289.29301	33935.55
1292.82151	36032.95
1296.34761	38477.05
1299.87133	41178.15
1303.39266	43590.45
1306.9116	45630.25
1310.42815	47146.15
1313.94233	48090.95
1317.45412	48416.75
1320.96354	48392.85
1324.47058	48471.35
1327.97525	48647.65
1331.47754	48681.75
1334.97747	48732.95
1338.47502	48615.35
1341.97022	48057.55
1345.46305	47105.95
1348.95352	45667.05
1352.44163	44205.95
1355.92738	43248.35
1359.41078	43122.55
1362.89183	43181.35
1366.37053	42213.95
1369.84688	39484.05
1373.32088	36179.05
1376.79254	33973.95
1380.26186	33381.35
1383.72883	33970.65
1387.19347	34606.75
1390.65578	35042.45
1394.11575	35602.45
1397.57339	36359.35
1401.0287	37246.05
1404.48168	37834.25
1407.93234	37631.15
1411.38068	36549.15
1414.82669	34608.15
1418.27039	32452.95
1421.71177	30302.55
1425.15083	28557.15
1428.58758	27614.95
1432.02203	27555.65
1435.45416	28354.95
1438.88399	29487.95
1442.31151	30602.35
1445.73673	31527.45
1449.15965	32364.65
1452.58027	33127.85
1455.9986	33614.05
1459.41463	34066.85
1462.82837	34438.85
1466.23982	34834.95
1469.64898	35037.65
1473.05586	35030.75
1476.46045	34701.35
1479.86276	34109.25
1483.26279	33360.05
1486.66054	32748.85
1490.05602	32472.25
1493.44922	32431.25
1496.84016	32482.65
1500.22882	32825.45
1503.61521	33478.95
1506.99934	34291.95
1510.38121	35091.45
1513.76081	35427.65
1517.13816	35279.25
1520.51324	34614.75
1523.88607	34149.15
1527.25665	34103.95
1530.62498	34339.95
1533.99105	34495.85
1537.35488	34371.55
1540.71647	33689.25
1544.07581	32740.45
1547.4329	31646.25
1550.78776	30731.75
1554.14038	30000.75
1557.49077	29730.05
1560.83892	29542.95
1564.18484	29535.85
1567.52853	29557.75
1570.86999	29870.65
1574.20922	30567.55
1577.54624	31409.65
1580.88103	32148.45
1584.2136	33010.15
1587.54395	34243.65
1590.87208	35837.65
1594.19801	37568.75
1597.52172	39219.35
1600.84321	39367.65
1604.16251	37480.75
1607.47959	34382.05
1610.79447	30994.45
1614.10715	27926.35
1617.41763	25419.25
1620.7259	23575.25
1624.03199	22602.85
1627.33587	22455.95
1630.63757	23170.95
1633.93707	24861.85
1637.23439	27726.95
1640.52951	31802.55
1643.82246	36398.65
1647.11321	39976.85
1650.40179	40684.65
1653.68819	37825.45
1656.97241	32793.75
1660.25446	27581.45
1663.53433	23412.95
1666.81203	20576.15
1670.08756	18699.65
1673.36092	17480.05
1676.63211	16745.75
1679.90115	16211.45
1683.16801	15794.55
1686.43272	15496.35
1689.69527	15302.25
1692.95567	15094.15
1696.2139	14997.15
1699.46999	14890.85
1702.72392	14831.35
1705.97571	14749.95
1709.22535	14637.95
1712.47284	14562.35
1715.71819	14478.95
1718.96139	14452.75
1722.20246	14343.65
1725.44139	14239.45
1728.67818	14169.85
1731.91284	14072.65
1735.14537	13988.45
1738.37576	13942.15
1741.60403	13884.85
1744.83017	13854.05
1748.05418	13795.75
1751.27607	13775.05
1754.49584	13784.55
1757.71349	13789.05
1760.92903	13767.45
1764.14244	13725.65
1767.35375	13676.05
1770.56294	13654.95
1773.77002	13569.25
1776.97499	13564.25
1780.17785	13468.65
1783.37861	13460.65
1786.57727	13419.05
1789.77382	13378.25
1792.96828	13316.45
1796.16064	13302.45
1799.3509	13231.55
1802.53907	13208.25
1805.72514	13180.65
1808.90913	13135.85
1812.09102	13110.75
1815.27083	13055.55
1818.44856	13064.65
1821.6242	13013.75
1824.79776	12975.55
1827.96924	12960.75
1831.13864	12952.15
1834.30597	12949.25
1837.47122	12961.45
1840.6344	12936.15
1843.7955	12940.65
1846.95454	12943.15
1850.11151	12909.65
1853.26642	12917.75
1856.41926	12886.15
1859.57004	12886.35
1862.71876	12867.95
1865.86542	12836.65
1869.01003	12834.15
1872.15258	12815.95
1875.29308	12810.95
1878.43152	12779.75
1881.56792	12773.05
1884.70227	12740.75
1887.83457	12750.35
1890.96482	12744.55
1894.09304	12727.35
1897.21921	12719.25
1900.34335	12655.45
1903.46544	12679.75
1906.58551	12651.75
1909.70353	12646.45
1912.81953	12640.25
1915.93349	12584.15
1919.04543	12539.25
1922.15534	12506.65
1925.26322	12482.25
1928.36908	12436.75
1931.47292	12424.05
1934.57473	12362.85
1937.67453	12307.55
1940.77232	12265.55
1943.86808	12236.95
1946.96184	12222.75
1950.05358	12136.05
1953.14331	12141.95
1956.23103	12082.85
1959.31675	12070.65
1962.40046	12045.05
1965.48217	11982.55
1968.56188	11927.05
1971.63959	11882.85
1974.7153	11842.25
1977.78901	11838.55
1980.86073	11794.75
1983.93046	11780.75
1986.99819	11704.05
1990.06394	11713.35
1993.1277	11639.25
1996.18947	11585.65
1999.24925	11568.55
2002.30706	11532.85
2005.36288	11477.75
2008.41672	11450.45
2011.46859	11423.55
2014.51848	11357.45
2017.56639	11340.35
2020.61233	11318.85
2023.6563	11313.65
2026.6983	11282.05
2029.73833	11256.15
2032.7764	11237.05
2035.8125	11229.55
2038.84664	11183.95
2041.87881	11156.45
2044.90903	11135.35
2047.93729	11096.15
2050.96359	11127.45
2053.98794	11075.05
2057.01034	11064.35
2060.03078	11063.05
2063.04927	11061.65
2066.06582	11055.55
2069.08042	11019.85
2072.09307	11019.35
2075.10378	10992.85
2078.11255	11013.95
2081.11938	11012.35
2084.12426	10988.55
2087.12722	10975.85
2090.12824	10947.05
2093.12732	10944.75
2096.12447	10996.55
2099.11969	10964.65
2102.11299	10979.25
2105.10435	10949.55
2108.09379	10962.95
2111.08131	10991.85
2114.0669	10955.95
2117.05057	10965.85
2120.03233	10959.25
2123.01216	10983.65
2125.99008	10978.85
2128.96609	10949.85
2131.94018	10956.15
2134.91236	10987.75
2137.88263	10981.55
2140.851	10994.45
2143.81746	10993.95
2146.78201	10968.65
2149.74466	10977.25
2152.7054	10975.35
2155.66425	10960.65
2158.6212	10978.05
2161.57625	10944.35
2164.52941	10946.75
2167.48067	10915.35
2170.43004	10898.45
2173.37752	10910.55
2176.32311	10887.15
2179.26681	10904.85
2182.20863	10917.55
2185.14856	10923.15
2188.08661	10897.95
2191.02278	10895.85
2193.95707	10864.55
2196.88948	10868.35
2199.82001	10836.05
2202.74867	10820.85
2205.67545	10851.65
2208.60037	10819.05
2211.52341	10808.45
2214.44458	10781.75
2217.36388	10763.95
2220.28132	10744.55
2223.1969	10714.95
2226.11061	10708.55
2229.02246	10670.55
2231.93245	10667.55
2234.84058	10640.35
2237.74686	10615.85
2240.65128	10611.25
2243.55385	10589.45
2246.45456	10556.45
2249.35343	10557.45
2252.25044	10497.55
2255.14561	10481.15
2258.03893	10452.05
2260.93041	10455.45
2263.82004	10425.15
2266.70783	10402.85
2269.59378	10365.75
2272.4779	10347.25
2275.36017	10289.85
2278.24061	10287.95
2281.11922	10273.85
2283.996	10285.05
2286.87094	10236.85
2289.74405	10202.25
2292.61534	10197.95
2295.4848	10150.65
2298.35243	10172.55
2301.21824	10175.55
2304.08223	10139.95
2306.94439	10150.45
2309.80474	10148.65
2312.66327	10165.35
2315.51999	10151.95
2318.37489	10119.25
2321.22797	10098.65
2324.07925	10097.55
2326.92871	10092.85
2329.77637	10063.25
2332.62222	10069.75
2335.46626	10043.85
2338.3085	10045.85
2341.14893	10049.35
2343.98756	10042.25
2346.8244	10019.45
2349.65943	10015.85
2352.49267	10016.95
2355.32411	10038.65
2358.15376	10015.15
2360.98161	10007.65
2363.80768	9997.95
2366.63195	10000.75
2369.45444	9975.75
2372.27514	9975.55
2375.09405	9957.95
2377.91118	9946.85
2380.72652	9934.75
2383.54009	9897.15
2386.35187	9869.65
2389.16188	9850.05
2391.97011	9842.45
2394.77657	9804.05
2397.58125	9810.65
2400.38416	9800.05
2403.18529	9777.15
2405.98466	9767.15
2408.78226	9755.25
2411.57809	9737.45
2414.37216	9726.25
2417.16446	9724.65
2419.955	9691.05
2422.74378	9684.25
2425.5308	9672.95
2428.31606	9679.15
2431.09956	9684.15
2433.88131	9647.55
2436.6613	9635.35
2439.43954	9637.15
2442.21603	9634.55
2444.99077	9625.95
2447.76377	9626.95
2450.53501	9634.55
2453.30451	9633.95
2456.07226	9638.05
2458.83827	9620.05
2461.60254	9611.65
2464.36507	9618.95
2467.12586	9611.25
2469.88492	9601.45
2472.64224	9586.05
2475.39782	9626.15
2478.15167	9628.35
2480.90379	9616.55
2483.65417	9606.25
2486.40283	9607.05
2489.14976	9640.25
2491.89497	9608.15
2494.63845	9619.45
2497.3802	9606.25
2500.12024	9616.95
2502.85855	9623.95
2505.59514	9636.55
2508.33002	9589.95
2511.06318	9608.35
2513.79462	9595.55
2516.52435	9572.65
2519.25237	9578.85
2521.97867	9561.35
2524.70327	9566.45
2527.42616	9534.45
2530.14734	9539.35
2532.86681	9525.65
2535.58458	9521.15
2538.30065	9513.45
2541.01501	9486.65
2543.72768	9473.25
2546.43864	9451.75
2549.14791	9465.85
2551.85548	9447.35
2554.56136	9444.55
2557.26554	9444.45
2559.96803	9415.95
2562.66883	9415.15
2565.36794	9423.95
2568.06536	9405.45
2570.7611	9402.25
2573.45514	9385.25
2576.14751	9395.35
2578.83819	9373.35
2581.52719	9364.95
2584.21451	9356.05
2586.90015	9364.25
2589.58411	9342.35
2592.2664	9368.15
2594.94701	9341.15
2597.62594	9357.45
2600.30321	9343.15
2602.9788	9349.55
2605.65273	9331.95
2608.32498	9334.05
2610.99557	9336.35
2613.66449	9350.75
2616.33175	9319.15
2618.99734	9296.75
2621.66128	9352.15
2624.32355	9332.55
2626.98416	9324.05
2629.64311	9347.15
2632.30041	9321.55
2634.95605	9314.15
2637.61004	9308.25
2640.26238	9306.05
2642.91306	9305.45
2645.56209	9329.45
2648.20948	9302.25
2650.85521	9295.65
2653.4993	9298.85
2656.14175	9311.55
2658.78255	9322.65
2661.42171	9296.85
2664.05923	9345.05
2666.6951	9328.95
2669.32934	9323.45
2671.96194	9329.45
2674.59291	9335.35
2677.22224	9326.35
2679.84993	9327.35
2682.476	9306.15
2685.10043	9332.85
2687.72324	9315.45
2690.34441	9315.65
2692.96396	9308.05
2695.58188	9324.25
2698.19818	9320.75
2700.81285	9347.05
2703.4259	9341.05
2706.03733	9366.15
2708.64714	9365.05
2711.25533	9351.95
2713.86191	9336.15
2716.46687	9370.85
2719.07021	9347.15
2721.67194	9349.15
2724.27206	9367.65
2726.87057	9373.75
2729.46747	9376.05
2732.06276	9366.55
2734.65644	9371.45
2737.24852	9376.15
2739.83899	9365.35
2742.42786	9368.45
2745.01513	9354.45
2747.60079	9347.65
2750.18486	9373.25
2752.76733	9376.75
2755.3482	9358.25
2757.92747	9372.75
2760.50515	9359.25
2763.08123	9383.55
2765.65573	9370.95
2768.22863	9362.15
2770.79994	9365.65
2773.36967	9348.25
2775.9378	9372.75
2778.50435	9370.85
2781.06932	9351.95
2783.6327	9347.25
2786.1945	9361.15
2788.75471	9357.35
2791.31335	9297.15
2793.87041	9341.35
2796.42589	9304.25
2798.97979	9298.95
2801.53212	9284.85
2804.08288	9265.25
2806.63206	9276.75
2809.17967	9245.35
2811.72571	9213.15
2814.27018	9224.75
2816.81308	9207.25
2819.35442	9184.65
2821.89419	9175.55
2824.43239	9159.05
2826.96904	9125.35
2829.50412	9146.95
2832.03763	9133.15
2834.56959	9132.35
2837.1	9149.75
2839.62884	9157.85
2842.15613	9154.35
2844.68186	9194.45
2847.20604	9197.15
2849.72867	9231.05
2852.24974	9213.85
2854.76927	9227.85
2857.28724	9171.95
2859.80367	9186.15
2862.31855	9169.65
2864.83189	9142.25
2867.34368	9137.05
2869.85393	9138.15
2872.36264	9142.25
2874.8698	9147.85
2877.37543	9147.15
2879.87952	9153.45
2882.38207	9127.05
2884.88308	9124.15
2887.38256	9111.15
2889.88051	9117.45
2892.37692	9133.75
2894.8718	9137.55
2897.36515	9163.65
2899.85698	9179.35
2902.34727	9176.95
2904.83604	9164.55
2907.32328	9197.45
2909.809	9178.65
2912.29319	9200.15
2914.77587	9189.55
2917.25702	9195.45
2919.73665	9175.65
2922.21476	9203.15
2924.69136	9189.15
2927.16644	9210.55
2929.64	9189.25
2932.11205	9184.25
2934.58258	9144.05
2937.05161	9142.95
2939.51912	9157.55
2941.98513	9132.75
2944.44962	9108.75
2946.91261	9061.95
2949.37409	9082.65
2951.83407	9053.65
2954.29254	9022.35
2956.74951	8977.95
2959.20498	8979.85
2961.65895	8940.95
2964.11142	8964.95
2966.56239	8927.65
2969.01186	8895.15
2971.45984	8859.95
2973.90632	8854.85
2976.35131	8829.25
2978.7948	8820.15
2981.23681	8795.45
2983.67732	8791.25
2986.11635	8768.65
2988.55388	8698.55
2990.98993	8718.05
2993.4245	8661.15
2995.85758	8649.05
2998.28917	8625.95
3000.71928	8601.45
3003.14791	8581.35
3005.57506	8575.75
3008.00073	8544.15
3010.42493	8538.15
3012.84764	8520.65
3015.26888	8504.15
3017.68865	8474.95
3020.10694	8494.85
3022.52376	8446.65
3024.9391	8451.35
3027.35298	8436.85
3029.76539	8411.95
3032.17632	8390.95
3034.5858	8399.55
3036.9938	8415.95
3039.40034	8404.95
3041.80542	8392.75
3044.20903	8371.75
3046.61118	8326.35
3049.01187	8324.15
3051.4111	8330.35
3053.80888	8320.35
3056.20519	8296.25
3058.60005	8262.15
3060.99345	8250.95
3063.3854	8246.05
3065.7759	8213.25
3068.16494	8187.75
3070.55254	8157.75
3072.93868	8137.75
3075.32338	8112.65
3077.70662	8093.95
3080.08842	8067.65
3082.46878	8061.65
3084.84769	8055.25
3087.22515	8035.55
3089.60118	8050.25
3091.97576	8028.55
3094.3489	8015.85
3096.72061	8007.75
3099.09087	7994.55
3101.4597	7990.35
3103.82709	7992.65
3106.19305	7972.75
3108.55757	7962.75
3110.92066	7931.75
3113.28232	7921.55
3115.64255	7898.05
3118.00134	7904.15
3120.35871	7866.85
3122.71466	7871.05
3125.06917	7832.45
3127.42226	7815.75
3129.77393	7808.75
3132.12417	7810.95
3134.47299	7807.95
3136.82039	7802.85
3139.16636	7792.85
3141.51092	7799.85
3143.85406	7812.45
3146.19579	7793.85
3148.53609	7813.75
3150.87499	7795.65
3153.21246	7805.65
3155.54853	7811.15
3157.88318	7785.85
3160.21642	7797.15
3162.54826	7788.45
3164.87868	7792.25
3167.2077	7771.55
3169.5353	7776.05
3171.86151	7772.45
3174.18631	7780.35
3176.5097	7771.75
3178.83169	7759.05
3181.15228	7742.15
3183.47147	7737.25
3185.78926	7745.05
3188.10565	7756.85
3190.42065	7731.95
3192.73424	7746.55
3195.04645	7719.55
3197.35725	7737.55
3199.66667	7732.75
3201.97469	7739.35
3204.28132	7716.15
3206.58656	7736.85
3208.8904	7748.05
3211.19287	7747.95
3213.49394	7740.45
3215.79363	7731.05
3218.09193	7711.95
3220.38884	7717.25
3222.68438	7750.95
3224.97853	7699.35
3227.2713	7717.65
3229.56269	7693.75
3231.8527	7704.65
3234.14133	7694.55
3236.42858	7674.25
3238.71446	7657.15
3240.99896	7653.15
3243.28209	7619.15
3245.56384	7629.55
3247.84423	7635.85
3250.12324	7627.65
3252.40088	7607.15
3254.67715	7595.95
3256.95205	7560.75
3259.22558	7579.65
3261.49775	7556.45
3263.76855	7535.35
3266.03799	7505.85
3268.30606	7487.85
3270.57277	7488.65
3272.83812	7462.75
3275.10211	7450.75
3277.36474	7429.95
3279.62601	7440.75
3281.88593	7423.05
3284.14448	7428.35
3286.40168	7434.55
3288.65753	7409.05
3290.91202	7417.05
3293.16516	7388.35
3295.41695	7381.75
3297.66738	7345.55
3299.91647	7313.95
3302.16421	7263.85
3304.4106	7229.95
3306.65564	7163.45
3308.89933	7123.95
3311.14169	7095.95
3313.38269	7022.35
3315.62236	6966.05
3317.86068	6920.55
3320.09766	6847.65
3322.3333	6797.85
3324.5676	6792.15
3326.80056	6677.15
3329.03219	6632.35
3331.26248	1.45
3333.49143	-0.35
3335.71905	-1.15
