Data from AgNPs_FTO_APTES_UA_2uM_CRN_5uM_R6G_10uM_NaF_0.1M_Addition_RamanShift__11__12-51-15-105.txt Node

Date: Wed Feb 02 12:51:15 GMT 2022
User: TCL
Spectrometer: QEP01345
Trigger mode: 4
Integration Time (sec): 7.000000E0
Scans to average: 10
Electric dark correction enabled: true
Nonlinearity correction enabled: false
Boxcar width: 0
XAxis mode: Raman Shifts
Number of Pixels in Spectrum: 1044
>>>>>Begin Spectral Data<<<<<
46.04893	0.15
50.45542	0.65
54.85868	-1.35
59.25871	-0.55
63.6555	91.85
68.04907	98.75
72.43941	100.55
76.82654	107.25
81.21044	111.65
85.59113	111.85
89.96862	114.75
94.34289	116.85
98.71396	125.55
103.08183	130.55
107.4465	132.45
111.80798	138.15
116.16626	141.35
120.52136	149.65
124.87327	160.25
129.222	164.55
133.56755	183.55
137.90993	198.25
142.24913	223.85
146.58517	260.75
150.91804	302.35
155.24774	374.15
159.57429	474.65
163.89768	606.55
168.21792	819.05
172.53501	1118.25
176.84895	1581.05
181.15975	2235.55
185.46741	3133.55
189.77193	4337.85
194.07331	5803.85
198.37157	7474.65
202.6667	9237.25
206.9587	11001.65
211.24758	12717.45
215.53334	14409.45
219.81599	16204.65
224.09553	18196.85
228.37195	20386.85
232.64527	22706.25
236.91549	25288.95
241.18261	27853.25
245.44663	30253.15
249.70755	32514.95
253.96539	34461.15
258.22014	36027.05
262.4718	37324.75
266.72039	38187.45
270.96589	38675.45
275.20832	38707.75
279.44768	38513.25
283.68397	38182.65
287.91719	37905.75
292.14735	37751.75
296.37445	37694.95
300.59849	37681.45
304.81948	37696.35
309.03742	37651.75
313.25231	37454.35
317.46415	36930.65
321.67296	36199.35
325.87872	35588.05
330.08145	35197.75
334.28114	35109.85
338.47781	35223.85
342.67145	35610.95
346.86207	36001.65
351.04966	36481.65
355.23424	36946.45
359.4158	37387.45
363.59435	37792.35
367.76989	38067.95
371.94243	38270.75
376.11196	38301.05
380.27849	38300.35
384.44203	38384.85
388.60257	38658.95
392.76012	39143.75
396.91468	39753.55
401.06626	40485.55
405.21485	40912.35
409.36047	40743.05
413.50311	40319.85
417.64277	40158.85
421.77947	40339.45
425.9132	40678.15
430.04396	40943.15
434.17176	40988.65
438.2966	41214.85
442.41849	41502.65
446.53742	42189.35
450.6534	43074.25
454.76644	43673.75
458.87653	43939.15
462.98368	43939.95
467.08789	43707.15
471.18916	43284.85
475.2875	42879.65
479.38291	42706.15
483.4754	42603.95
487.56496	42258.25
491.6516	41734.65
495.73531	41195.75
499.81612	40833.45
503.89401	40902.45
507.96899	41092.75
512.04106	41250.65
516.11023	41025.15
520.1765	40521.65
524.23987	39988.65
528.30034	39487.65
532.35792	39098.55
536.41261	38731.25
540.46441	38475.25
544.51333	38551.85
548.55936	38947.15
552.60252	39715.15
556.64279	40556.25
560.6802	41206.05
564.71473	41689.15
568.7464	42568.75
572.7752	44083.95
576.80114	45938.75
580.82422	47819.15
584.84444	49494.05
588.86181	51347.05
592.87633	52999.85
596.888	52623.85
600.89682	50065.15
604.9028	48671.75
608.90594	49934.55
612.90624	51322.55
616.90371	48117.25
620.89834	42370.75
624.89015	39983.15
628.87913	40048.15
632.86528	40494.25
636.84862	40452.85
640.82913	39670.85
644.80683	38656.25
648.78172	37996.15
652.75379	37947.65
656.72306	38271.15
660.68952	38667.85
664.65319	38512.55
668.61405	38095.75
672.57211	37952.95
676.52738	38053.35
680.47986	38009.25
684.42955	37823.95
688.37646	37698.65
692.32058	37855.15
696.26192	38341.75
700.20048	38805.65
704.13626	39155.45
708.06928	39353.25
711.99952	39326.35
715.927	39173.55
719.85171	39064.15
723.77365	38760.55
727.69284	38127.05
731.60928	37586.15
735.52295	37283.45
739.43388	37253.25
743.34206	37317.25
747.24749	37598.85
751.15017	38079.85
755.05012	38796.05
758.94733	39904.55
762.8418	41521.25
766.73354	43919.55
770.62254	45928.85
774.50882	45840.05
778.39237	43864.65
782.27321	41519.35
786.15132	39571.15
790.02671	38310.45
793.89938	37639.15
797.76935	37305.15
801.6366	37137.05
805.50115	36990.65
809.36299	36852.95
813.22213	36612.25
817.07857	36506.35
820.93231	36499.45
824.78336	36281.25
828.63172	36002.35
832.47738	35899.65
836.32036	35887.55
840.16066	35816.65
843.99827	35821.45
847.8332	35823.15
851.66546	35859.65
855.49504	35957.65
859.32195	35948.55
863.1462	35837.25
866.96777	35765.25
870.78668	35785.65
874.60293	35762.15
878.41652	35779.85
882.22745	35891.15
886.03573	35976.75
889.84136	35998.55
893.64433	35935.45
897.44466	35871.55
901.24235	35800.35
905.0374	35742.35
908.8298	35765.55
912.61957	35875.75
916.40671	36268.45
920.19121	36837.85
923.97308	37273.05
927.75233	37112.85
931.52895	36647.75
935.30295	35993.95
939.07433	35258.15
942.84309	34757.95
946.60924	34530.75
950.37278	34333.55
954.13371	34315.65
957.89203	34309.85
961.64774	34350.55
965.40086	34344.75
969.15137	34251.55
972.89929	34069.55
976.64461	33901.65
980.38733	33798.65
984.12747	33776.95
987.86502	33848.05
991.59999	33987.05
995.33237	34140.85
999.06217	34504.25
1002.78939	35079.95
1006.51404	35704.55
1010.23611	36379.35
1013.95561	36775.85
1017.67255	36831.65
1021.38692	36511.35
1025.09872	35912.75
1028.80796	35417.85
1032.51465	35203.55
1036.21877	35298.95
1039.92035	35449.75
1043.61937	35646.75
1047.31584	35798.25
1051.00976	35877.45
1054.70114	36137.85
1058.38998	36447.95
1062.07627	36866.05
1065.76003	37468.25
1069.44126	38033.15
1073.11995	38672.75
1076.79611	39206.75
1080.46974	39452.75
1084.14085	39557.85
1087.80943	39928.35
1091.47549	40356.95
1095.13903	40607.65
1098.80005	40192.35
1102.45857	39240.75
1106.11456	38307.05
1109.76805	37707.85
1113.41903	37436.55
1117.06751	37454.45
1120.71348	37727.65
1124.35696	38063.75
1127.99793	38468.05
1131.63641	38768.45
1135.2724	38844.25
1138.90589	38821.05
1142.5369	39029.35
1146.16542	39381.25
1149.79145	39915.65
1153.415	40400.25
1157.03607	41009.45
1160.65467	42112.35
1164.27079	43892.65
1167.88443	46010.25
1171.49561	48193.15
1175.10432	50701.25
1178.71056	53747.15
1182.31434	56577.55
1185.91565	58325.55
1189.51451	58707.25
1193.11091	58125.25
1196.70485	56769.35
1200.29634	54796.25
1203.88538	53372.35
1207.47197	52810.35
1211.05612	52753.25
1214.63782	52187.35
1218.21708	50754.65
1221.79391	48901.95
1225.36829	47283.75
1228.94024	46412.75
1232.50976	45840.35
1236.07685	45500.75
1239.6415	45314.75
1243.20374	45288.75
1246.76355	45533.95
1250.32093	46087.45
1253.8759	46970.65
1257.42845	48275.55
1260.97859	49731.95
1264.52631	51192.55
1268.07163	52699.65
1271.61453	54052.35
1275.15503	55541.35
1278.69312	57196.75
1282.22882	59124.65
1285.76211	61336.15
1289.29301	63750.45
1292.82151	66494.35
1296.34761	69663.65
1299.87133	73126.65
1303.39266	76424.45
1306.9116	78992.85
1310.42815	80556.15
1313.94233	81026.15
1317.45412	80553.75
1320.96354	80159.35
1324.47058	80239.75
1327.97525	80507.95
1331.47754	80870.35
1334.97747	80786.85
1338.47502	80586.05
1341.97022	80149.75
1345.46305	79557.95
1348.95352	78593.45
1352.44163	77311.75
1355.92738	76682.85
1359.41078	77249.35
1362.89183	78015.75
1366.37053	76748.15
1369.84688	72633.15
1373.32088	66643.05
1376.79254	61963.55
1380.26186	60246.05
1383.72883	60427.75
1387.19347	60711.05
1390.65578	60257.85
1394.11575	59873.95
1397.57339	60266.95
1401.0287	60989.95
1404.48168	61601.45
1407.93234	61216.15
1411.38068	59605.45
1414.82669	57341.35
1418.27039	54862.75
1421.71177	52623.15
1425.15083	50960.05
1428.58758	50314.15
1432.02203	50814.55
1435.45416	52093.95
1438.88399	53618.35
1442.31151	54815.45
1445.73673	55525.75
1449.15965	56152.65
1452.58027	56403.55
1455.9986	56587.45
1459.41463	57069.65
1462.82837	57898.55
1466.23982	58805.05
1469.64898	59491.05
1473.05586	59820.05
1476.46045	59744.45
1479.86276	59326.35
1483.26279	58871.85
1486.66054	58577.25
1490.05602	58935.25
1493.44922	59738.15
1496.84016	60790.75
1500.22882	61958.35
1503.61521	63264.85
1506.99934	64553.15
1510.38121	65444.65
1513.76081	65707.65
1517.13816	65262.85
1520.51324	64858.35
1523.88607	64743.35
1527.25665	65092.55
1530.62498	65141.35
1533.99105	64427.35
1537.35488	63187.55
1540.71647	61283.85
1544.07581	59155.45
1547.4329	57147.65
1550.78776	55616.35
1554.14038	54577.35
1557.49077	54100.55
1560.83892	53670.35
1564.18484	53564.65
1567.52853	53561.25
1570.86999	53944.25
1574.20922	54967.55
1577.54624	56195.75
1580.88103	56992.95
1584.2136	57903.75
1587.54395	59634.75
1590.87208	62218.95
1594.19801	65004.15
1597.52172	67269.35
1600.84321	67049.45
1604.16251	63634.15
1607.47959	58922.45
1610.79447	54251.95
1614.10715	50055.55
1617.41763	46467.65
1620.7259	44013.85
1624.03199	42706.05
1627.33587	42737.55
1630.63757	44031.35
1633.93707	46888.55
1637.23439	51837.75
1640.52951	58972.75
1643.82246	67346.15
1647.11321	73656.85
1650.40179	74489.65
1653.68819	69018.25
1656.97241	59891.15
1660.25446	51101.45
1663.53433	44364.65
1666.81203	39979.25
1670.08756	37152.75
1673.36092	35373.65
1676.63211	34272.35
1679.90115	33433.85
1683.16801	32801.75
1686.43272	32355.45
1689.69527	32027.35
1692.95567	31744.75
1696.2139	31606.65
1699.46999	31457.85
1702.72392	31267.15
1705.97571	31106.75
1709.22535	30991.15
1712.47284	30992.25
1715.71819	30929.15
1718.96139	30766.55
1722.20246	30636.45
1725.44139	30529.05
1728.67818	30313.05
1731.91284	30156.65
1735.14537	29989.05
1738.37576	29864.55
1741.60403	29733.15
1744.83017	29577.25
1748.05418	29555.25
1751.27607	29469.05
1754.49584	29415.65
1757.71349	29399.15
1760.92903	29338.45
1764.14244	29306.55
1767.35375	29266.55
1770.56294	29211.05
1773.77002	29083.25
1776.97499	29018.85
1780.17785	28938.55
1783.37861	28962.95
1786.57727	28869.75
1789.77382	28822.95
1792.96828	28719.25
1796.16064	28620.55
1799.3509	28532.05
1802.53907	28502.05
1805.72514	28370.85
1808.90913	28330.05
1812.09102	28355.45
1815.27083	28275.05
1818.44856	28224.75
1821.6242	28196.25
1824.79776	28198.25
1827.96924	28203.35
1831.13864	28160.45
1834.30597	28189.95
1837.47122	28127.15
1840.6344	28134.35
1843.7955	28153.85
1846.95454	28151.65
1850.11151	28117.45
1853.26642	28140.65
1856.41926	28111.55
1859.57004	28036.05
1862.71876	28021.85
1865.86542	27957.15
1869.01003	27893.55
1872.15258	27834.25
1875.29308	27820.65
1878.43152	27755.35
1881.56792	27689.65
1884.70227	27626.55
1887.83457	27604.05
1890.96482	27536.75
1894.09304	27494.15
1897.21921	27428.55
1900.34335	27422.55
1903.46544	27348.15
1906.58551	27323.65
1909.70353	27254.65
1912.81953	27183.65
1915.93349	27089.85
1919.04543	27022.95
1922.15534	26892.55
1925.26322	26899.35
1928.36908	26828.85
1931.47292	26788.05
1934.57473	26739.25
1937.67453	26537.35
1940.77232	26476.25
1943.86808	26413.55
1946.96184	26361.85
1950.05358	26240.35
1953.14331	26240.65
1956.23103	26154.15
1959.31675	26040.45
1962.40046	25978.45
1965.48217	25886.75
1968.56188	25782.35
1971.63959	25694.55
1974.7153	25608.25
1977.78901	25518.95
1980.86073	25472.25
1983.93046	25349.35
1986.99819	25240.05
1990.06394	25101.75
1993.1277	25082.85
1996.18947	25027.75
1999.24925	24929.25
2002.30706	24915.45
2005.36288	24754.75
2008.41672	24712.65
2011.46859	24616.95
2014.51848	24590.15
2017.56639	24530.55
2020.61233	24430.75
2023.6563	24364.25
2026.6983	24351.45
2029.73833	24274.35
2032.7764	24206.25
2035.8125	24148.05
2038.84664	24075.75
2041.87881	24031.35
2044.90903	23987.65
2047.93729	23937.45
2050.96359	23863.75
2053.98794	23814.15
2057.01034	23789.65
2060.03078	23820.35
2063.04927	23765.75
2066.06582	23763.55
2069.08042	23691.25
2072.09307	23726.75
2075.10378	23673.55
2078.11255	23725.75
2081.11938	23714.75
2084.12426	23686.25
2087.12722	23632.15
2090.12824	23604.75
2093.12732	23640.25
2096.12447	23606.55
2099.11969	23638.25
2102.11299	23623.95
2105.10435	23680.25
2108.09379	23661.05
2111.08131	23633.35
2114.0669	23585.15
2117.05057	23634.35
2120.03233	23632.35
2123.01216	23640.25
2125.99008	23645.65
2128.96609	23630.95
2131.94018	23628.85
2134.91236	23612.85
2137.88263	23614.05
2140.851	23563.25
2143.81746	23579.35
2146.78201	23585.75
2149.74466	23603.85
2152.7054	23570.65
2155.66425	23590.65
2158.6212	23591.15
2161.57625	23563.85
2164.52941	23564.45
2167.48067	23518.45
2170.43004	23484.25
2173.37752	23482.35
2176.32311	23511.75
2179.26681	23473.25
2182.20863	23472.25
2185.14856	23515.75
2188.08661	23479.25
2191.02278	23483.45
2193.95707	23424.05
2196.88948	23351.05
2199.82001	23371.15
2202.74867	23335.15
2205.67545	23314.65
2208.60037	23282.95
2211.52341	23188.85
2214.44458	23182.85
2217.36388	23141.75
2220.28132	23148.85
2223.1969	23046.55
2226.11061	23048.75
2229.02246	22996.65
2231.93245	22993.25
2234.84058	22973.25
2237.74686	22947.55
2240.65128	22873.55
2243.55385	22812.35
2246.45456	22772.35
2249.35343	22706.95
2252.25044	22674.15
2255.14561	22569.55
2258.03893	22553.45
2260.93041	22490.35
2263.82004	22379.65
2266.70783	22341.85
2269.59378	22271.35
2272.4779	22208.35
2275.36017	22135.65
2278.24061	22091.75
2281.11922	22063.25
2283.996	22039.85
2286.87094	21998.75
2289.74405	21968.75
2292.61534	21913.25
2295.4848	21867.95
2298.35243	21827.05
2301.21824	21849.75
2304.08223	21821.65
2306.94439	21816.65
2309.80474	21803.45
2312.66327	21752.45
2315.51999	21701.15
2318.37489	21731.75
2321.22797	21716.65
2324.07925	21650.55
2326.92871	21618.45
2329.77637	21615.35
2332.62222	21552.95
2335.46626	21515.75
2338.3085	21456.45
2341.14893	21473.25
2343.98756	21441.75
2346.8244	21402.75
2349.65943	21414.45
2352.49267	21391.85
2355.32411	21443.65
2358.15376	21426.35
2360.98161	21449.85
2363.80768	21427.05
2366.63195	21375.95
2369.45444	21349.75
2372.27514	21314.15
2375.09405	21239.05
2377.91118	21203.25
2380.72652	21166.35
2383.54009	21140.85
2386.35187	21120.15
2389.16188	21034.05
2391.97011	21040.25
2394.77657	21027.65
2397.58125	20959.15
2400.38416	20871.85
2403.18529	20825.15
2405.98466	20816.65
2408.78226	20782.65
2411.57809	20771.75
2414.37216	20800.25
2417.16446	20773.65
2419.955	20747.85
2422.74378	20697.15
2425.5308	20688.35
2428.31606	20660.75
2431.09956	20701.85
2433.88131	20630.75
2436.6613	20662.25
2439.43954	20605.45
2442.21603	20587.65
2444.99077	20554.35
2447.76377	20567.55
2450.53501	20557.25
2453.30451	20525.75
2456.07226	20498.05
2458.83827	20472.45
2461.60254	20452.65
2464.36507	20458.35
2467.12586	20427.45
2469.88492	20394.15
2472.64224	20403.05
2475.39782	20407.85
2478.15167	20432.95
2480.90379	20384.85
2483.65417	20380.15
2486.40283	20319.15
2489.14976	20306.55
2491.89497	20306.15
2494.63845	20351.45
2497.3802	20298.05
2500.12024	20252.45
2502.85855	20293.85
2505.59514	20286.95
2508.33002	20272.85
2511.06318	20245.25
2513.79462	20253.75
2516.52435	20215.85
2519.25237	20197.85
2521.97867	20144.45
2524.70327	20132.05
2527.42616	20131.05
2530.14734	20121.05
2532.86681	20082.75
2535.58458	20039.65
2538.30065	20056.85
2541.01501	20058.05
2543.72768	20019.45
2546.43864	19986.25
2549.14791	19912.15
2551.85548	19909.15
2554.56136	19878.35
2557.26554	19884.15
2559.96803	19859.35
2562.66883	19803.25
2565.36794	19768.85
2568.06536	19730.45
2570.7611	19723.85
2573.45514	19716.95
2576.14751	19688.15
2578.83819	19652.75
2581.52719	19616.85
2584.21451	19561.95
2586.90015	19554.25
2589.58411	19549.15
2592.2664	19544.55
2594.94701	19476.05
2597.62594	19481.35
2600.30321	19389.75
2602.9788	19421.65
2605.65273	19391.15
2608.32498	19375.05
2610.99557	19380.05
2613.66449	19383.55
2616.33175	19347.85
2618.99734	19367.85
2621.66128	19315.55
2624.32355	19343.65
2626.98416	19320.45
2629.64311	19259.25
2632.30041	19289.15
2634.95605	19259.45
2637.61004	19219.85
2640.26238	19191.15
2642.91306	19186.55
2645.56209	19199.45
2648.20948	19205.65
2650.85521	19184.55
2653.4993	19211.15
2656.14175	19195.15
2658.78255	19224.05
2661.42171	19190.35
2664.05923	19181.45
2666.6951	19164.15
2669.32934	19134.05
2671.96194	19182.25
2674.59291	19179.05
2677.22224	19174.45
2679.84993	19190.15
2682.476	19156.65
2685.10043	19132.55
2687.72324	19123.65
2690.34441	19183.15
2692.96396	19183.35
2695.58188	19182.35
2698.19818	19134.05
2700.81285	19146.25
2703.4259	19112.35
2706.03733	19186.85
2708.64714	19135.45
2711.25533	19148.25
2713.86191	19160.65
2716.46687	19191.75
2719.07021	19160.05
2721.67194	19189.05
2724.27206	19158.25
2726.87057	19190.85
2729.46747	19185.25
2732.06276	19198.45
2734.65644	19174.75
2737.24852	19176.95
2739.83899	19170.15
2742.42786	19154.35
2745.01513	19104.55
2747.60079	19073.95
2750.18486	19078.65
2752.76733	19091.55
2755.3482	19055.05
2757.92747	19034.25
2760.50515	19014.55
2763.08123	18983.15
2765.65573	18971.45
2768.22863	18972.85
2770.79994	18947.55
2773.36967	18942.05
2775.9378	18940.95
2778.50435	18919.45
2781.06932	18889.65
2783.6327	18833.15
2786.1945	18797.25
2788.75471	18801.75
2791.31335	18740.05
2793.87041	18699.55
2796.42589	18714.55
2798.97979	18741.05
2801.53212	18690.75
2804.08288	18696.45
2806.63206	18604.55
2809.17967	18559.15
2811.72571	18516.95
2814.27018	18494.55
2816.81308	18451.45
2819.35442	18400.65
2821.89419	18383.65
2824.43239	18352.35
2826.96904	18347.25
2829.50412	18315.05
2832.03763	18256.55
2834.56959	18276.45
2837.1	18262.95
2839.62884	18219.35
2842.15613	18207.35
2844.68186	18253.05
2847.20604	18265.85
2849.72867	18265.05
2852.24974	18228.95
2854.76927	18223.55
2857.28724	18197.85
2859.80367	18185.15
2862.31855	18124.75
2864.83189	18117.95
2867.34368	18077.75
2869.85393	18056.75
2872.36264	18044.65
2874.8698	18024.35
2877.37543	18027.55
2879.87952	18005.65
2882.38207	18012.85
2884.88308	17938.95
2887.38256	17984.55
2889.88051	17946.05
2892.37692	18005.45
2894.8718	18014.85
2897.36515	18019.15
2899.85698	17999.85
2902.34727	17985.65
2904.83604	17994.75
2907.32328	17997.55
2909.809	17954.35
2912.29319	17957.05
2914.77587	17963.05
2917.25702	17956.15
2919.73665	17981.05
2922.21476	17987.75
2924.69136	17975.45
2927.16644	17971.85
2929.64	17951.05
2932.11205	17920.55
2934.58258	17850.85
2937.05161	17878.55
2939.51912	17849.95
2941.98513	17826.45
2944.44962	17795.85
2946.91261	17712.65
2949.37409	17754.55
2951.83407	17728.75
2954.29254	17707.85
2956.74951	17673.15
2959.20498	17636.35
2961.65895	17614.35
2964.11142	17609.55
2966.56239	17568.75
2969.01186	17573.55
2971.45984	17536.75
2973.90632	17474.25
2976.35131	17436.35
2978.7948	17398.85
2981.23681	17349.55
2983.67732	17289.95
2986.11635	17234.15
2988.55388	17183.05
2990.98993	17145.25
2993.4245	17074.55
2995.85758	17057.65
2998.28917	17021.05
3000.71928	16947.05
3003.14791	16896.15
3005.57506	16895.55
3008.00073	16855.15
3010.42493	16793.85
3012.84764	16758.05
3015.26888	16763.35
3017.68865	16707.05
3020.10694	16709.35
3022.52376	16640.05
3024.9391	16592.65
3027.35298	16591.55
3029.76539	16598.25
3032.17632	16603.35
3034.5858	16545.55
3036.9938	16504.15
3039.40034	16481.75
3041.80542	16489.45
3044.20903	16427.95
3046.61118	16409.65
3049.01187	16377.85
3051.4111	16356.45
3053.80888	16286.25
3056.20519	16258.55
3058.60005	16199.45
3060.99345	16135.55
3063.3854	16128.95
3065.7759	16044.45
3068.16494	15990.45
3070.55254	15936.65
3072.93868	15951.45
3075.32338	15858.65
3077.70662	15855.65
3080.08842	15786.95
3082.46878	15743.15
3084.84769	15772.25
3087.22515	15707.85
3089.60118	15706.35
3091.97576	15668.35
3094.3489	15654.15
3096.72061	15644.65
3099.09087	15622.95
3101.4597	15580.15
3103.82709	15535.55
3106.19305	15537.55
3108.55757	15491.45
3110.92066	15431.75
3113.28232	15401.15
3115.64255	15375.95
3118.00134	15364.25
3120.35871	15310.25
3122.71466	15258.15
3125.06917	15241.25
3127.42226	15195.65
3129.77393	15204.05
3132.12417	15181.35
3134.47299	15181.45
3136.82039	15093.25
3139.16636	15127.25
3141.51092	15119.05
3143.85406	15130.05
3146.19579	15094.55
3148.53609	15083.05
3150.87499	15115.85
3153.21246	15090.55
3155.54853	15091.35
3157.88318	15047.75
3160.21642	15062.15
3162.54826	15003.45
3164.87868	14981.25
3167.2077	14993.95
3169.5353	14947.85
3171.86151	14970.35
3174.18631	14922.25
3176.5097	14917.85
3178.83169	14896.55
3181.15228	14916.65
3183.47147	14851.05
3185.78926	14825.25
3188.10565	14778.25
3190.42065	14734.65
3192.73424	14794.55
3195.04645	14757.85
3197.35725	14766.65
3199.66667	14744.95
3201.97469	14738.45
3204.28132	14691.95
3206.58656	14690.75
3208.8904	14660.55
3211.19287	14696.45
3213.49394	14695.55
3215.79363	14662.75
3218.09193	14654.55
3220.38884	14608.05
3222.68438	14664.35
3224.97853	14589.05
3227.2713	14602.85
3229.56269	14551.65
3231.8527	14543.15
3234.14133	14537.45
3236.42858	14491.35
3238.71446	14475.95
3240.99896	14444.05
3243.28209	14429.45
3245.56384	14388.05
3247.84423	14358.75
3250.12324	14310.25
3252.40088	14313.05
3254.67715	14273.35
3256.95205	14203.85
3259.22558	14191.35
3261.49775	14171.05
3263.76855	14172.25
3266.03799	14129.55
3268.30606	14067.45
3270.57277	14060.95
3272.83812	14065.35
3275.10211	14010.25
3277.36474	14017.45
3279.62601	14007.15
3281.88593	13983.45
3284.14448	14012.25
3286.40168	13989.85
3288.65753	13978.55
3290.91202	13956.05
3293.16516	13884.45
3295.41695	13856.45
3297.66738	13776.75
3299.91647	13734.45
3302.16421	13625.75
3304.4106	13515.55
3306.65564	13440.65
3308.89933	13348.75
3311.14169	13248.25
3313.38269	13156.65
3315.62236	13056.65
3317.86068	12924.45
3320.09766	12812.85
3322.3333	12642.15
3324.5676	12668.75
3326.80056	12463.05
3329.03219	12386.35
3331.26248	2.65
3333.49143	-0.75
3335.71905	-1.05
