Data from AgNPs_FTO_APTES_UA_2uM_CRN_200uM_R6G_10uM_NaF_0.1M_Addition_RamanShift__23__16-45-45-379.txt Node

Date: Wed Feb 02 16:45:45 GMT 2022
User: TCL
Spectrometer: QEP01345
Trigger mode: 4
Integration Time (sec): 7.000000E0
Scans to average: 10
Electric dark correction enabled: true
Nonlinearity correction enabled: false
Boxcar width: 0
XAxis mode: Raman Shifts
Number of Pixels in Spectrum: 1044
>>>>>Begin Spectral Data<<<<<
46.04893	-0.95
50.45542	-0.45
54.85868	-0.95
59.25871	0.25
63.6555	73.25
68.04907	81.75
72.43941	81.85
76.82654	86.55
81.21044	88.55
85.59113	96.05
89.96862	98.35
94.34289	99.05
98.71396	105.95
103.08183	107.95
107.4465	110.35
111.80798	114.95
116.16626	113.65
120.52136	119.25
124.87327	122.55
129.222	121.15
133.56755	135.55
137.90993	142.35
142.24913	156.55
146.58517	177.75
150.91804	201.15
155.24774	245.65
159.57429	302.35
163.89768	383.95
168.21792	502.95
172.53501	686.55
176.84895	947.35
181.15975	1332.35
185.46741	1861.45
189.77193	2566.05
194.07331	3429.25
198.37157	4406.75
202.6667	5449.35
206.9587	6469.35
211.24758	7488.85
215.53334	8509.05
219.81599	9567.65
224.09553	10760.85
228.37195	12070.45
232.64527	13485.45
236.91549	14918.95
241.18261	16409.35
245.44663	17789.25
249.70755	19092.55
253.96539	20254.55
258.22014	21225.35
262.4718	22042.75
266.72039	22659.75
270.96589	23055.85
275.20832	23165.15
279.44768	23243.75
283.68397	23153.55
287.91719	23143.65
292.14735	23209.75
296.37445	23324.65
300.59849	23447.55
304.81948	23386.45
309.03742	23157.65
313.25231	22649.95
317.46415	21971.45
321.67296	21150.15
325.87872	20554.15
330.08145	20240.45
334.28114	20150.15
338.47781	20246.35
342.67145	20456.75
346.86207	20729.45
351.04966	21064.65
355.23424	21439.35
359.4158	21719.95
363.59435	21901.75
367.76989	22080.15
371.94243	22204.75
376.11196	22311.05
380.27849	22472.55
384.44203	22641.95
388.60257	22862.35
392.76012	23103.85
396.91468	23420.05
401.06626	23769.95
405.21485	23988.05
409.36047	23945.65
413.50311	23625.75
417.64277	23400.55
421.77947	23390.45
425.9132	23563.15
430.04396	23776.35
434.17176	24048.55
438.2966	24342.85
442.41849	24855.15
446.53742	25636.15
450.6534	26606.85
454.76644	27349.75
458.87653	27622.85
462.98368	27510.35
467.08789	27228.45
471.18916	26999.85
475.2875	26988.15
479.38291	27197.95
483.4754	27203.75
487.56496	26763.35
491.6516	25933.35
495.73531	25123.25
499.81612	24587.15
503.89401	24441.15
507.96899	24372.65
512.04106	24213.65
516.11023	23912.75
520.1765	23533.15
524.23987	23217.75
528.30034	22989.55
532.35792	22798.45
536.41261	22601.95
540.46441	22424.55
544.51333	22540.35
548.55936	22929.55
552.60252	23590.85
556.64279	24360.95
560.6802	25021.65
564.71473	25471.05
568.7464	26141.35
572.7752	26927.65
576.80114	27418.05
580.82422	27590.65
584.84444	27791.85
588.86181	28118.15
592.87633	28735.15
596.888	29125.65
600.89682	29005.35
604.9028	29184.35
608.90594	30339.55
612.90624	31493.45
616.90371	29334.95
620.89834	24902.35
624.89015	22986.55
628.87913	22887.15
632.86528	23200.05
636.84862	23318.45
640.82913	22985.45
644.80683	22298.25
648.78172	21704.65
652.75379	21435.25
656.72306	21478.55
660.68952	21734.95
664.65319	21638.65
668.61405	21361.05
672.57211	21244.85
676.52738	21287.65
680.47986	21318.65
684.42955	21294.15
688.37646	21230.95
692.32058	21269.85
696.26192	21441.35
700.20048	21697.45
704.13626	21881.05
708.06928	21925.25
711.99952	21777.95
715.927	21674.15
719.85171	21706.55
723.77365	21638.85
727.69284	21513.65
731.60928	21351.45
735.52295	21273.15
739.43388	21268.75
743.34206	21311.15
747.24749	21393.05
751.15017	21627.15
755.05012	22088.35
758.94733	22856.95
762.8418	24099.35
766.73354	25855.35
770.62254	27353.15
774.50882	27433.75
778.39237	25958.25
782.27321	23929.35
786.15132	22390.35
790.02671	21427.55
793.89938	20978.65
797.76935	20832.45
801.6366	20807.25
805.50115	20862.75
809.36299	20772.25
813.22213	20669.35
817.07857	20684.85
820.93231	20638.95
824.78336	20516.85
828.63172	20372.65
832.47738	20265.65
836.32036	20237.85
840.16066	20193.15
843.99827	20196.45
847.8332	20125.95
851.66546	20041.75
855.49504	20004.95
859.32195	19986.25
863.1462	19938.25
866.96777	19878.55
870.78668	19804.15
874.60293	19801.55
878.41652	19850.65
882.22745	19855.05
886.03573	19892.25
889.84136	19931.05
893.64433	19841.35
897.44466	19746.15
901.24235	19662.65
905.0374	19590.15
908.8298	19552.85
912.61957	19648.75
916.40671	19878.25
920.19121	20185.65
923.97308	20348.05
927.75233	20281.65
931.52895	20093.85
935.30295	19770.45
939.07433	19380.55
942.84309	19055.25
946.60924	18892.55
950.37278	18817.95
954.13371	18820.55
957.89203	18818.75
961.64774	18872.85
965.40086	18859.65
969.15137	18723.35
972.89929	18573.75
976.64461	18378.85
980.38733	18320.05
984.12747	18351.85
987.86502	18468.75
991.59999	18663.85
995.33237	18895.95
999.06217	19352.25
1002.78939	19918.35
1006.51404	20304.15
1010.23611	20585.35
1013.95561	20773.75
1017.67255	20750.75
1021.38692	20519.95
1025.09872	20191.55
1028.80796	20008.45
1032.51465	20155.25
1036.21877	20364.95
1039.92035	20460.55
1043.61937	20402.15
1047.31584	20219.55
1051.00976	20064.35
1054.70114	20039.05
1058.38998	20193.45
1062.07627	20420.55
1065.76003	20696.05
1069.44126	20955.05
1073.11995	21153.25
1076.79611	21229.85
1080.46974	21338.45
1084.14085	21391.25
1087.80943	21613.25
1091.47549	21866.85
1095.13903	22029.95
1098.80005	21826.65
1102.45857	21352.45
1106.11456	20963.25
1109.76805	20815.35
1113.41903	20873.75
1117.06751	21051.25
1120.71348	21319.15
1124.35696	21569.95
1127.99793	21901.85
1131.63641	22132.75
1135.2724	21949.55
1138.90589	21826.25
1142.5369	21920.35
1146.16542	22136.85
1149.79145	22516.25
1153.415	22963.95
1157.03607	23512.35
1160.65467	24349.35
1164.27079	25525.35
1167.88443	27007.85
1171.49561	28856.35
1175.10432	31133.75
1178.71056	33927.75
1182.31434	36461.85
1185.91565	37754.35
1189.51451	37803.75
1193.11091	37180.75
1196.70485	36269.55
1200.29634	35000.55
1203.88538	33941.65
1207.47197	33242.95
1211.05612	32662.55
1214.63782	31980.25
1218.21708	31137.85
1221.79391	30308.75
1225.36829	29579.75
1228.94024	28868.05
1232.50976	28184.25
1236.07685	27695.45
1239.6415	27487.35
1243.20374	27511.45
1246.76355	27665.25
1250.32093	28066.35
1253.8759	28629.95
1257.42845	29498.45
1260.97859	30268.05
1264.52631	31053.95
1268.07163	31864.55
1271.61453	32772.85
1275.15503	33874.45
1278.69312	34983.95
1282.22882	36067.55
1285.76211	37378.45
1289.29301	39024.95
1292.82151	41342.15
1296.34761	44159.35
1299.87133	47286.35
1303.39266	50347.25
1306.9116	53165.85
1310.42815	55604.75
1313.94233	57354.85
1317.45412	57911.85
1320.96354	57896.35
1324.47058	57685.35
1327.97525	57459.55
1331.47754	57218.45
1334.97747	57217.35
1338.47502	57236.55
1341.97022	56820.35
1345.46305	55368.45
1348.95352	53352.95
1352.44163	51389.95
1355.92738	50331.55
1359.41078	50542.45
1362.89183	51144.85
1366.37053	50215.05
1369.84688	46922.55
1373.32088	42620.75
1376.79254	39690.25
1380.26186	38932.15
1383.72883	39500.65
1387.19347	40361.85
1390.65578	41054.75
1394.11575	41814.05
1397.57339	43200.05
1401.0287	44905.65
1404.48168	46324.85
1407.93234	46713.25
1411.38068	45852.65
1414.82669	43733.15
1418.27039	40932.65
1421.71177	38028.85
1425.15083	35584.75
1428.58758	34060.35
1432.02203	33762.35
1435.45416	34494.95
1438.88399	35743.95
1442.31151	37154.15
1445.73673	38328.05
1449.15965	39520.15
1452.58027	40597.05
1455.9986	41303.25
1459.41463	41859.05
1462.82837	42481.55
1466.23982	43207.55
1469.64898	43739.35
1473.05586	43831.75
1476.46045	43460.05
1479.86276	42705.05
1483.26279	41639.25
1486.66054	40632.75
1490.05602	39963.15
1493.44922	39519.85
1496.84016	39076.05
1500.22882	38886.55
1503.61521	39129.45
1506.99934	39773.05
1510.38121	40635.45
1513.76081	41081.35
1517.13816	40782.35
1520.51324	39870.75
1523.88607	39171.45
1527.25665	38918.25
1530.62498	39097.45
1533.99105	39464.45
1537.35488	39475.75
1540.71647	39195.75
1544.07581	38452.55
1547.4329	37428.05
1550.78776	36512.55
1554.14038	35772.65
1557.49077	35404.35
1560.83892	35224.45
1564.18484	35141.25
1567.52853	35069.85
1570.86999	35253.45
1574.20922	35931.05
1577.54624	36803.15
1580.88103	37608.45
1584.2136	38621.85
1587.54395	40401.75
1590.87208	42770.55
1594.19801	45391.35
1597.52172	47795.65
1600.84321	48446.05
1604.16251	46230.85
1607.47959	42255.95
1610.79447	37775.75
1614.10715	33726.35
1617.41763	30517.65
1620.7259	28304.25
1624.03199	27173.75
1627.33587	26972.15
1630.63757	27874.05
1633.93707	29930.05
1637.23439	33350.05
1640.52951	38114.85
1643.82246	43510.15
1647.11321	47825.95
1650.40179	48614.75
1653.68819	45304.35
1656.97241	39199.55
1660.25446	32907.95
1663.53433	27913.25
1666.81203	24511.95
1670.08756	22274.65
1673.36092	20891.85
1676.63211	19989.85
1679.90115	19424.45
1683.16801	18925.55
1686.43272	18620.85
1689.69527	18388.45
1692.95567	18160.35
1696.2139	18060.75
1699.46999	17968.75
1702.72392	17843.35
1705.97571	17736.45
1709.22535	17646.25
1712.47284	17580.25
1715.71819	17541.45
1718.96139	17473.25
1722.20246	17356.05
1725.44139	17276.45
1728.67818	17230.55
1731.91284	17089.05
1735.14537	17004.95
1738.37576	16921.45
1741.60403	16847.85
1744.83017	16827.95
1748.05418	16809.65
1751.27607	16752.95
1754.49584	16721.75
1757.71349	16721.85
1760.92903	16686.55
1764.14244	16641.95
1767.35375	16631.05
1770.56294	16573.65
1773.77002	16506.25
1776.97499	16494.65
1780.17785	16426.65
1783.37861	16420.45
1786.57727	16406.65
1789.77382	16317.35
1792.96828	16310.45
1796.16064	16244.75
1799.3509	16191.95
1802.53907	16180.75
1805.72514	16141.25
1808.90913	16094.25
1812.09102	16057.15
1815.27083	16027.65
1818.44856	15987.85
1821.6242	15971.95
1824.79776	15960.05
1827.96924	15957.55
1831.13864	15908.95
1834.30597	15943.85
1837.47122	15912.25
1840.6344	15905.75
1843.7955	15919.05
1846.95454	15909.65
1850.11151	15937.25
1853.26642	15899.15
1856.41926	15888.85
1859.57004	15893.85
1862.71876	15880.55
1865.86542	15869.25
1869.01003	15858.45
1872.15258	15867.85
1875.29308	15834.15
1878.43152	15855.55
1881.56792	15842.85
1884.70227	15817.45
1887.83457	15834.05
1890.96482	15819.25
1894.09304	15805.95
1897.21921	15828.45
1900.34335	15819.05
1903.46544	15804.05
1906.58551	15781.35
1909.70353	15780.05
1912.81953	15719.95
1915.93349	15717.05
1919.04543	15680.15
1922.15534	15649.65
1925.26322	15577.45
1928.36908	15556.75
1931.47292	15525.05
1934.57473	15486.35
1937.67453	15447.35
1940.77232	15344.25
1943.86808	15306.15
1946.96184	15245.05
1950.05358	15207.65
1953.14331	15157.45
1956.23103	15101.35
1959.31675	15075.75
1962.40046	14962.85
1965.48217	14926.55
1968.56188	14926.45
1971.63959	14856.85
1974.7153	14807.75
1977.78901	14769.25
1980.86073	14695.15
1983.93046	14657.45
1986.99819	14600.55
1990.06394	14549.85
1993.1277	14517.65
1996.18947	14486.35
1999.24925	14417.65
2002.30706	14387.85
2005.36288	14356.85
2008.41672	14332.65
2011.46859	14291.75
2014.51848	14240.55
2017.56639	14159.05
2020.61233	14127.05
2023.6563	14144.95
2026.6983	14092.75
2029.73833	14078.65
2032.7764	14046.75
2035.8125	14034.45
2038.84664	14001.85
2041.87881	13991.15
2044.90903	13952.95
2047.93729	13954.45
2050.96359	13924.25
2053.98794	13923.15
2057.01034	13901.45
2060.03078	13880.85
2063.04927	13859.95
2066.06582	13861.45
2069.08042	13831.95
2072.09307	13826.85
2075.10378	13821.75
2078.11255	13794.15
2081.11938	13798.65
2084.12426	13788.85
2087.12722	13766.15
2090.12824	13770.45
2093.12732	13763.45
2096.12447	13772.25
2099.11969	13759.75
2102.11299	13772.45
2105.10435	13788.55
2108.09379	13772.85
2111.08131	13769.65
2114.0669	13766.75
2117.05057	13760.25
2120.03233	13805.15
2123.01216	13805.65
2125.99008	13795.25
2128.96609	13820.45
2131.94018	13794.15
2134.91236	13793.75
2137.88263	13800.35
2140.851	13803.25
2143.81746	13847.05
2146.78201	13860.75
2149.74466	13830.85
2152.7054	13820.55
2155.66425	13806.55
2158.6212	13791.75
2161.57625	13803.85
2164.52941	13798.05
2167.48067	13796.05
2170.43004	13792.45
2173.37752	13767.65
2176.32311	13740.05
2179.26681	13768.85
2182.20863	13739.25
2185.14856	13788.65
2188.08661	13795.35
2191.02278	13769.95
2193.95707	13746.35
2196.88948	13744.45
2199.82001	13752.55
2202.74867	13725.85
2205.67545	13718.75
2208.60037	13674.75
2211.52341	13626.55
2214.44458	13647.95
2217.36388	13639.35
2220.28132	13608.65
2223.1969	13555.65
2226.11061	13559.55
2229.02246	13501.15
2231.93245	13518.75
2234.84058	13480.55
2237.74686	13450.05
2240.65128	13433.55
2243.55385	13423.25
2246.45456	13434.85
2249.35343	13369.55
2252.25044	13355.95
2255.14561	13336.65
2258.03893	13289.75
2260.93041	13272.05
2263.82004	13250.55
2266.70783	13186.85
2269.59378	13153.75
2272.4779	13138.75
2275.36017	13070.55
2278.24061	13053.65
2281.11922	13040.15
2283.996	13016.45
2286.87094	12993.05
2289.74405	12974.95
2292.61534	12980.95
2295.4848	12937.85
2298.35243	12940.75
2301.21824	12918.25
2304.08223	12908.05
2306.94439	12947.65
2309.80474	12917.15
2312.66327	12925.05
2315.51999	12929.45
2318.37489	12904.35
2321.22797	12896.15
2324.07925	12912.55
2326.92871	12862.65
2329.77637	12857.45
2332.62222	12839.15
2335.46626	12862.15
2338.3085	12823.55
2341.14893	12823.65
2343.98756	12835.45
2346.8244	12825.35
2349.65943	12828.35
2352.49267	12810.75
2355.32411	12812.05
2358.15376	12791.15
2360.98161	12821.45
2363.80768	12794.05
2366.63195	12755.55
2369.45444	12755.05
2372.27514	12757.75
2375.09405	12728.25
2377.91118	12701.25
2380.72652	12680.75
2383.54009	12667.25
2386.35187	12628.85
2389.16188	12589.55
2391.97011	12595.75
2394.77657	12575.05
2397.58125	12561.55
2400.38416	12528.75
2403.18529	12485.95
2405.98466	12466.25
2408.78226	12453.25
2411.57809	12448.75
2414.37216	12468.25
2417.16446	12448.45
2419.955	12414.85
2422.74378	12411.55
2425.5308	12409.45
2428.31606	12388.05
2431.09956	12370.15
2433.88131	12344.85
2436.6613	12331.45
2439.43954	12342.15
2442.21603	12366.05
2444.99077	12334.45
2447.76377	12342.55
2450.53501	12348.95
2453.30451	12337.95
2456.07226	12337.25
2458.83827	12321.95
2461.60254	12321.95
2464.36507	12351.85
2467.12586	12348.25
2469.88492	12314.05
2472.64224	12322.75
2475.39782	12342.35
2478.15167	12350.25
2480.90379	12322.15
2483.65417	12346.65
2486.40283	12338.75
2489.14976	12344.55
2491.89497	12349.65
2494.63845	12367.35
2497.3802	12365.95
2500.12024	12368.85
2502.85855	12328.95
2505.59514	12376.25
2508.33002	12370.85
2511.06318	12364.25
2513.79462	12354.15
2516.52435	12370.65
2519.25237	12364.85
2521.97867	12310.45
2524.70327	12335.35
2527.42616	12300.05
2530.14734	12306.65
2532.86681	12284.75
2535.58458	12286.55
2538.30065	12265.55
2541.01501	12272.85
2543.72768	12236.05
2546.43864	12223.95
2549.14791	12206.05
2551.85548	12210.85
2554.56136	12216.35
2557.26554	12217.85
2559.96803	12193.85
2562.66883	12180.05
2565.36794	12197.95
2568.06536	12177.55
2570.7611	12181.95
2573.45514	12162.55
2576.14751	12184.35
2578.83819	12104.75
2581.52719	12129.35
2584.21451	12149.25
2586.90015	12149.15
2589.58411	12147.15
2592.2664	12152.55
2594.94701	12152.95
2597.62594	12144.45
2600.30321	12104.15
2602.9788	12128.85
2605.65273	12106.25
2608.32498	12136.45
2610.99557	12145.25
2613.66449	12162.35
2616.33175	12130.95
2618.99734	12151.65
2621.66128	12181.15
2624.32355	12145.85
2626.98416	12175.95
2629.64311	12168.75
2632.30041	12167.45
2634.95605	12147.75
2637.61004	12140.95
2640.26238	12120.95
2642.91306	12129.25
2645.56209	12156.05
2648.20948	12161.15
2650.85521	12142.95
2653.4993	12123.55
2656.14175	12142.45
2658.78255	12170.45
2661.42171	12156.15
2664.05923	12210.55
2666.6951	12183.25
2669.32934	12197.55
2671.96194	12181.45
2674.59291	12194.45
2677.22224	12179.65
2679.84993	12203.15
2682.476	12147.35
2685.10043	12175.65
2687.72324	12165.65
2690.34441	12152.15
2692.96396	12167.55
2695.58188	12158.55
2698.19818	12152.05
2700.81285	12163.65
2703.4259	12196.25
2706.03733	12235.45
2708.64714	12217.25
2711.25533	12223.65
2713.86191	12197.05
2716.46687	12242.25
2719.07021	12238.85
2721.67194	12251.65
2724.27206	12233.05
2726.87057	12254.15
2729.46747	12275.45
2732.06276	12268.85
2734.65644	12279.55
2737.24852	12279.15
2739.83899	12264.05
2742.42786	12275.65
2745.01513	12234.75
2747.60079	12267.35
2750.18486	12254.85
2752.76733	12282.85
2755.3482	12285.15
2757.92747	12255.05
2760.50515	12312.65
2763.08123	12318.95
2765.65573	12306.45
2768.22863	12289.55
2770.79994	12280.65
2773.36967	12299.15
2775.9378	12299.75
2778.50435	12281.95
2781.06932	12285.25
2783.6327	12290.55
2786.1945	12297.65
2788.75471	12311.75
2791.31335	12260.05
2793.87041	12277.35
2796.42589	12247.55
2798.97979	12252.65
2801.53212	12236.95
2804.08288	12223.15
2806.63206	12192.65
2809.17967	12183.85
2811.72571	12134.85
2814.27018	12147.65
2816.81308	12105.45
2819.35442	12084.95
2821.89419	12061.85
2824.43239	12051.05
2826.96904	12035.65
2829.50412	12047.75
2832.03763	12004.85
2834.56959	12027.25
2837.1	11984.15
2839.62884	12002.85
2842.15613	11998.85
2844.68186	12041.55
2847.20604	12062.55
2849.72867	12059.35
2852.24974	12082.65
2854.76927	12041.85
2857.28724	12070.25
2859.80367	12018.55
2862.31855	12024.85
2864.83189	11981.85
2867.34368	11972.95
2869.85393	11995.75
2872.36264	11997.55
2874.8698	11978.45
2877.37543	11989.75
2879.87952	11988.15
2882.38207	12001.75
2884.88308	11996.05
2887.38256	12010.25
2889.88051	12023.85
2892.37692	12020.45
2894.8718	12036.85
2897.36515	12051.15
2899.85698	12058.95
2902.34727	12073.45
2904.83604	12087.55
2907.32328	12086.75
2909.809	12102.45
2912.29319	12111.05
2914.77587	12105.55
2917.25702	12110.45
2919.73665	12084.05
2922.21476	12112.15
2924.69136	12101.65
2927.16644	12090.25
2929.64	12096.25
2932.11205	12127.15
2934.58258	12062.15
2937.05161	12050.05
2939.51912	12092.85
2941.98513	12061.75
2944.44962	12008.75
2946.91261	11925.15
2949.37409	11932.55
2951.83407	11943.15
2954.29254	11933.15
2956.74951	11887.35
2959.20498	11880.15
2961.65895	11850.95
2964.11142	11838.15
2966.56239	11802.65
2969.01186	11777.05
2971.45984	11759.05
2973.90632	11732.35
2976.35131	11678.15
2978.7948	11654.25
2981.23681	11644.75
2983.67732	11606.35
2986.11635	11572.75
2988.55388	11523.85
2990.98993	11517.25
2993.4245	11494.05
2995.85758	11484.55
2998.28917	11435.75
3000.71928	11433.15
3003.14791	11395.55
3005.57506	11396.95
3008.00073	11353.25
3010.42493	11321.05
3012.84764	11290.65
3015.26888	11285.65
3017.68865	11258.35
3020.10694	11254.75
3022.52376	11221.65
3024.9391	11197.75
3027.35298	11195.45
3029.76539	11167.45
3032.17632	11174.75
3034.5858	11144.25
3036.9938	11133.95
3039.40034	11144.85
3041.80542	11160.95
3044.20903	11153.35
3046.61118	11118.95
3049.01187	11076.35
3051.4111	11086.55
3053.80888	11016.35
3056.20519	11006.55
3058.60005	10986.65
3060.99345	10954.75
3063.3854	10932.05
3065.7759	10876.85
3068.16494	10855.85
3070.55254	10817.25
3072.93868	10762.55
3075.32338	10777.25
3077.70662	10764.85
3080.08842	10705.65
3082.46878	10677.55
3084.84769	10679.55
3087.22515	10665.15
3089.60118	10654.95
3091.97576	10658.75
3094.3489	10653.55
3096.72061	10647.65
3099.09087	10632.45
3101.4597	10622.05
3103.82709	10630.65
3106.19305	10588.85
3108.55757	10575.95
3110.92066	10540.05
3113.28232	10520.95
3115.64255	10459.35
3118.00134	10452.85
3120.35871	10424.05
3122.71466	10376.15
3125.06917	10386.25
3127.42226	10373.95
3129.77393	10364.45
3132.12417	10354.95
3134.47299	10335.85
3136.82039	10325.15
3139.16636	10319.45
3141.51092	10305.75
3143.85406	10302.75
3146.19579	10287.65
3148.53609	10310.05
3150.87499	10308.35
3153.21246	10319.45
3155.54853	10333.75
3157.88318	10306.75
3160.21642	10284.35
3162.54826	10301.55
3164.87868	10281.25
3167.2077	10288.45
3169.5353	10279.55
3171.86151	10276.65
3174.18631	10254.75
3176.5097	10258.15
3178.83169	10262.75
3181.15228	10229.85
3183.47147	10240.05
3185.78926	10226.45
3188.10565	10225.05
3190.42065	10206.85
3192.73424	10200.05
3195.04645	10205.75
3197.35725	10214.85
3199.66667	10191.85
3201.97469	10214.85
3204.28132	10184.25
3206.58656	10219.65
3208.8904	10186.35
3211.19287	10194.55
3213.49394	10159.25
3215.79363	10180.75
3218.09193	10182.55
3220.38884	10170.25
3222.68438	10209.75
3224.97853	10168.45
3227.2713	10163.85
3229.56269	10133.45
3231.8527	10136.75
3234.14133	10126.85
3236.42858	10117.95
3238.71446	10097.55
3240.99896	10081.35
3243.28209	10080.65
3245.56384	10066.75
3247.84423	10101.65
3250.12324	10051.05
3252.40088	10029.25
3254.67715	9999.25
3256.95205	9997.35
3259.22558	10014.65
3261.49775	9959.85
3263.76855	9962.75
3266.03799	9897.65
3268.30606	9877.05
3270.57277	9871.95
3272.83812	9865.95
3275.10211	9829.35
3277.36474	9830.55
3279.62601	9817.55
3281.88593	9827.25
3284.14448	9831.75
3286.40168	9822.45
3288.65753	9804.85
3290.91202	9820.55
3293.16516	9769.05
3295.41695	9736.35
3297.66738	9673.65
3299.91647	9618.15
3302.16421	9569.35
3304.4106	9521.15
3306.65564	9499.15
3308.89933	9423.15
3311.14169	9386.15
3313.38269	9295.35
3315.62236	9241.25
3317.86068	9149.75
3320.09766	9058.95
3322.3333	8971.25
3324.5676	8967.15
3326.80056	8835.15
3329.03219	8816.35
3331.26248	2.45
3333.49143	0.15
3335.71905	-1.05
