Data from AgNPs_FTO_APTES_UA_2uM_CRN_200uM_R6G_10uM_NaF_0.1M_Addition_RamanShift__10__16-30-35-361.txt Node

Date: Wed Feb 02 16:30:35 GMT 2022
User: TCL
Spectrometer: QEP01345
Trigger mode: 4
Integration Time (sec): 7.000000E0
Scans to average: 10
Electric dark correction enabled: true
Nonlinearity correction enabled: false
Boxcar width: 0
XAxis mode: Raman Shifts
Number of Pixels in Spectrum: 1044
>>>>>Begin Spectral Data<<<<<
46.04893	-0.05
50.45542	0.45
54.85868	-1.55
59.25871	0.05
63.6555	62.85
68.04907	67.15
72.43941	70.55
76.82654	81.05
81.21044	76.55
85.59113	83.85
89.96862	85.85
94.34289	85.65
98.71396	96.05
103.08183	96.95
107.4465	100.75
111.80798	99.75
116.16626	101.15
120.52136	104.15
124.87327	107.85
129.222	115.45
133.56755	119.55
137.90993	126.95
142.24913	140.75
146.58517	157.05
150.91804	175.85
155.24774	210.95
159.57429	260.35
163.89768	335.85
168.21792	437.95
172.53501	592.25
176.84895	820.65
181.15975	1146.05
185.46741	1602.15
189.77193	2202.15
194.07331	2949.75
198.37157	3791.25
202.6667	4677.75
206.9587	5574.85
211.24758	6435.65
215.53334	7306.25
219.81599	8214.05
224.09553	9235.75
228.37195	10314.25
232.64527	11510.25
236.91549	12739.55
241.18261	14004.55
245.44663	15199.35
249.70755	16260.45
253.96539	17271.55
258.22014	18036.65
262.4718	18699.65
266.72039	19128.25
270.96589	19395.25
275.20832	19509.75
279.44768	19477.85
283.68397	19391.95
287.91719	19326.35
292.14735	19334.85
296.37445	19396.65
300.59849	19524.15
304.81948	19615.95
309.03742	19558.55
313.25231	19321.35
317.46415	18885.95
321.67296	18323.75
325.87872	17855.35
330.08145	17583.15
334.28114	17421.65
338.47781	17450.65
342.67145	17574.95
346.86207	17739.45
351.04966	17943.45
355.23424	18138.85
359.4158	18236.05
363.59435	18394.85
367.76989	18438.15
371.94243	18516.55
376.11196	18542.45
380.27849	18554.65
384.44203	18633.05
388.60257	18780.75
392.76012	19024.05
396.91468	19368.35
401.06626	19709.65
405.21485	19950.75
409.36047	19900.65
413.50311	19686.35
417.64277	19582.65
421.77947	19678.85
425.9132	19806.05
430.04396	19943.55
434.17176	20111.35
438.2966	20171.15
442.41849	20424.85
446.53742	20845.05
450.6534	21425.15
454.76644	21865.45
458.87653	22044.75
462.98368	22076.15
467.08789	21919.05
471.18916	21835.85
475.2875	21773.45
479.38291	21830.55
483.4754	21851.15
487.56496	21580.85
491.6516	20948.55
495.73531	20338.95
499.81612	19934.05
503.89401	19865.85
507.96899	19922.85
512.04106	19958.55
516.11023	19784.55
520.1765	19516.15
524.23987	19159.05
528.30034	18876.15
532.35792	18676.55
536.41261	18430.55
540.46441	18326.05
544.51333	18423.45
548.55936	18742.95
552.60252	19227.25
556.64279	19850.65
560.6802	20348.15
564.71473	20733.15
568.7464	21311.95
572.7752	22352.25
576.80114	23505.25
580.82422	24424.95
584.84444	25282.75
588.86181	26154.95
592.87633	26854.35
596.888	26310.75
600.89682	24874.25
604.9028	23875.25
608.90594	24080.45
612.90624	24407.55
616.90371	22698.65
620.89834	19795.05
624.89015	18546.45
628.87913	18544.65
632.86528	18794.05
636.84862	18789.55
640.82913	18409.15
644.80683	17995.65
648.78172	17700.45
652.75379	17592.05
656.72306	17709.45
660.68952	17868.75
664.65319	17740.25
668.61405	17563.55
672.57211	17537.65
676.52738	17573.25
680.47986	17598.85
684.42955	17532.65
688.37646	17470.05
692.32058	17518.85
696.26192	17742.25
700.20048	18002.35
704.13626	18191.85
708.06928	18339.15
711.99952	18376.75
715.927	18323.45
719.85171	18251.05
723.77365	18072.75
727.69284	17760.35
731.60928	17500.85
735.52295	17352.05
739.43388	17256.05
743.34206	17323.35
747.24749	17467.75
751.15017	17721.95
755.05012	18132.45
758.94733	18784.35
762.8418	19750.25
766.73354	21010.85
770.62254	22048.95
774.50882	21924.15
778.39237	20738.75
782.27321	19350.35
786.15132	18264.05
790.02671	17593.55
793.89938	17239.15
797.76935	17075.45
801.6366	17029.25
805.50115	16965.95
809.36299	16916.35
813.22213	16853.15
817.07857	16817.85
820.93231	16799.75
824.78336	16659.25
828.63172	16504.75
832.47738	16417.25
836.32036	16336.25
840.16066	16329.05
843.99827	16293.95
847.8332	16252.75
851.66546	16279.95
855.49504	16285.95
859.32195	16271.55
863.1462	16224.85
866.96777	16147.55
870.78668	16114.75
874.60293	16086.45
878.41652	16102.75
882.22745	16149.85
886.03573	16145.05
889.84136	16173.65
893.64433	16148.65
897.44466	16121.75
901.24235	16060.95
905.0374	16003.65
908.8298	16029.55
912.61957	16140.15
916.40671	16418.95
920.19121	16796.15
923.97308	16990.05
927.75233	16837.25
931.52895	16489.75
935.30295	16074.95
939.07433	15693.85
942.84309	15414.75
946.60924	15226.35
950.37278	15163.75
954.13371	15176.05
957.89203	15236.25
961.64774	15256.15
965.40086	15274.85
969.15137	15178.95
972.89929	15029.85
976.64461	14875.35
980.38733	14803.15
984.12747	14745.65
987.86502	14773.25
991.59999	14827.15
995.33237	14897.15
999.06217	15078.35
1002.78939	15326.35
1006.51404	15574.75
1010.23611	15833.05
1013.95561	16009.05
1017.67255	16115.25
1021.38692	16040.85
1025.09872	15784.05
1028.80796	15564.05
1032.51465	15474.05
1036.21877	15485.55
1039.92035	15566.55
1043.61937	15697.65
1047.31584	15782.05
1051.00976	15897.05
1054.70114	16059.95
1058.38998	16265.85
1062.07627	16549.65
1065.76003	16870.55
1069.44126	17186.75
1073.11995	17467.85
1076.79611	17637.55
1080.46974	17653.85
1084.14085	17677.45
1087.80943	17803.15
1091.47549	18011.55
1095.13903	18164.05
1098.80005	18020.55
1102.45857	17468.35
1106.11456	16922.45
1109.76805	16610.85
1113.41903	16574.05
1117.06751	16646.75
1120.71348	16828.95
1124.35696	17051.75
1127.99793	17375.35
1131.63641	17583.25
1135.2724	17569.25
1138.90589	17572.45
1142.5369	17740.65
1146.16542	18083.15
1149.79145	18520.35
1153.415	18875.25
1157.03607	19362.95
1160.65467	20067.55
1164.27079	21183.55
1167.88443	22475.75
1171.49561	23783.05
1175.10432	25227.95
1178.71056	26920.05
1182.31434	28566.35
1185.91565	29356.05
1189.51451	29384.75
1193.11091	28906.45
1196.70485	28163.65
1200.29634	27260.85
1203.88538	26648.35
1207.47197	26628.95
1211.05612	26745.15
1214.63782	26342.95
1218.21708	25323.35
1221.79391	24026.75
1225.36829	22932.95
1228.94024	22292.35
1232.50976	21897.85
1236.07685	21632.15
1239.6415	21486.15
1243.20374	21542.45
1246.76355	21737.45
1250.32093	22058.15
1253.8759	22546.45
1257.42845	23205.95
1260.97859	23956.35
1264.52631	24684.35
1268.07163	25351.15
1271.61453	26104.25
1275.15503	27029.55
1278.69312	28085.65
1282.22882	29324.05
1285.76211	30807.75
1289.29301	32488.15
1292.82151	34574.45
1296.34761	36994.95
1299.87133	39537.15
1303.39266	41686.45
1306.9116	43190.05
1310.42815	43937.75
1313.94233	44185.05
1317.45412	43974.95
1320.96354	43679.05
1324.47058	43706.65
1327.97525	43908.25
1331.47754	44127.85
1334.97747	44003.35
1338.47502	43564.25
1341.97022	42927.35
1345.46305	42021.65
1348.95352	41137.25
1352.44163	40365.25
1355.92738	40100.95
1359.41078	40459.55
1362.89183	40683.85
1366.37053	39919.85
1369.84688	37452.35
1373.32088	34155.85
1376.79254	31734.55
1380.26186	31138.05
1383.72883	31688.65
1387.19347	32228.65
1390.65578	32328.95
1394.11575	32414.45
1397.57339	32802.45
1401.0287	33281.05
1404.48168	33558.45
1407.93234	33107.45
1411.38068	31836.55
1414.82669	30025.45
1418.27039	28156.15
1421.71177	26465.25
1425.15083	25173.95
1428.58758	24523.75
1432.02203	24690.55
1435.45416	25489.35
1438.88399	26496.25
1442.31151	27321.85
1445.73673	27918.45
1449.15965	28454.25
1452.58027	28889.95
1455.9986	29144.35
1459.41463	29408.35
1462.82837	29801.25
1466.23982	30155.05
1469.64898	30522.95
1473.05586	30678.15
1476.46045	30584.45
1479.86276	30221.65
1483.26279	29699.85
1486.66054	29442.65
1490.05602	29440.25
1493.44922	29662.15
1496.84016	30059.45
1500.22882	30563.45
1503.61521	31296.75
1506.99934	32084.15
1510.38121	32667.15
1513.76081	32974.15
1517.13816	32894.05
1520.51324	32783.85
1523.88607	32936.65
1527.25665	33365.05
1530.62498	33660.25
1533.99105	33461.15
1537.35488	32812.65
1540.71647	31695.05
1544.07581	30375.75
1547.4329	29081.45
1550.78776	27941.35
1554.14038	27139.75
1557.49077	26768.45
1560.83892	26517.65
1564.18484	26449.05
1567.52853	26543.85
1570.86999	26914.65
1574.20922	27691.95
1577.54624	28606.05
1580.88103	29283.65
1584.2136	29992.05
1587.54395	31065.95
1590.87208	32444.15
1594.19801	34052.15
1597.52172	35342.45
1600.84321	35364.25
1604.16251	33369.35
1607.47959	30437.05
1610.79447	27378.65
1614.10715	24734.05
1617.41763	22610.25
1620.7259	21209.35
1624.03199	20472.65
1627.33587	20461.75
1630.63757	21228.85
1633.93707	22887.15
1637.23439	25657.45
1640.52951	29658.85
1643.82246	34408.25
1647.11321	38330.15
1650.40179	39436.65
1653.68819	36737.95
1656.97241	31689.15
1660.25446	26426.45
1663.53433	22251.15
1666.81203	19315.45
1670.08756	17406.35
1673.36092	16192.25
1676.63211	15456.15
1679.90115	14938.45
1683.16801	14563.95
1686.43272	14257.55
1689.69527	14089.45
1692.95567	13882.05
1696.2139	13808.55
1699.46999	13707.35
1702.72392	13611.25
1705.97571	13524.75
1709.22535	13439.25
1712.47284	13337.15
1715.71819	13289.65
1718.96139	13242.75
1722.20246	13200.55
1725.44139	13076.05
1728.67818	13024.95
1731.91284	12921.65
1735.14537	12846.65
1738.37576	12785.85
1741.60403	12707.65
1744.83017	12651.65
1748.05418	12609.85
1751.27607	12578.75
1754.49584	12559.85
1757.71349	12566.55
1760.92903	12527.05
1764.14244	12524.35
1767.35375	12496.25
1770.56294	12442.05
1773.77002	12382.45
1776.97499	12334.55
1780.17785	12308.55
1783.37861	12252.45
1786.57727	12201.45
1789.77382	12176.95
1792.96828	12133.85
1796.16064	12090.75
1799.3509	12015.55
1802.53907	12001.25
1805.72514	11941.45
1808.90913	11921.05
1812.09102	11901.45
1815.27083	11864.95
1818.44856	11849.35
1821.6242	11814.55
1824.79776	11798.25
1827.96924	11788.95
1831.13864	11780.45
1834.30597	11787.75
1837.47122	11785.45
1840.6344	11771.65
1843.7955	11779.65
1846.95454	11752.55
1850.11151	11753.05
1853.26642	11733.75
1856.41926	11725.65
1859.57004	11676.55
1862.71876	11659.65
1865.86542	11630.65
1869.01003	11624.15
1872.15258	11563.55
1875.29308	11560.75
1878.43152	11547.85
1881.56792	11527.35
1884.70227	11476.65
1887.83457	11475.15
1890.96482	11458.25
1894.09304	11470.05
1897.21921	11433.15
1900.34335	11414.95
1903.46544	11367.55
1906.58551	11362.55
1909.70353	11351.35
1912.81953	11285.85
1915.93349	11273.75
1919.04543	11256.35
1922.15534	11212.75
1925.26322	11195.95
1928.36908	11120.65
1931.47292	11131.45
1934.57473	11075.55
1937.67453	11040.85
1940.77232	11008.95
1943.86808	10998.05
1946.96184	10969.55
1950.05358	10920.05
1953.14331	10898.95
1956.23103	10844.95
1959.31675	10821.95
1962.40046	10772.05
1965.48217	10720.65
1968.56188	10682.35
1971.63959	10644.65
1974.7153	10631.05
1977.78901	10599.35
1980.86073	10551.25
1983.93046	10491.15
1986.99819	10457.15
1990.06394	10413.75
1993.1277	10372.05
1996.18947	10362.55
1999.24925	10318.55
2002.30706	10287.35
2005.36288	10212.05
2008.41672	10200.85
2011.46859	10167.35
2014.51848	10134.75
2017.56639	10080.35
2020.61233	10048.95
2023.6563	10044.45
2026.6983	10026.35
2029.73833	9991.35
2032.7764	9973.35
2035.8125	9949.65
2038.84664	9933.65
2041.87881	9887.65
2044.90903	9873.85
2047.93729	9870.85
2050.96359	9859.85
2053.98794	9832.75
2057.01034	9813.45
2060.03078	9828.85
2063.04927	9813.95
2066.06582	9772.75
2069.08042	9762.55
2072.09307	9772.35
2075.10378	9735.65
2078.11255	9739.35
2081.11938	9727.55
2084.12426	9714.35
2087.12722	9699.85
2090.12824	9701.15
2093.12732	9709.05
2096.12447	9702.15
2099.11969	9698.55
2102.11299	9696.05
2105.10435	9690.35
2108.09379	9720.65
2111.08131	9690.25
2114.0669	9685.15
2117.05057	9686.15
2120.03233	9710.55
2123.01216	9703.05
2125.99008	9688.65
2128.96609	9692.15
2131.94018	9663.15
2134.91236	9663.75
2137.88263	9660.85
2140.851	9662.85
2143.81746	9676.35
2146.78201	9679.55
2149.74466	9646.45
2152.7054	9656.95
2155.66425	9617.65
2158.6212	9631.35
2161.57625	9614.45
2164.52941	9614.45
2167.48067	9597.65
2170.43004	9583.85
2173.37752	9578.35
2176.32311	9578.15
2179.26681	9576.95
2182.20863	9540.95
2185.14856	9578.05
2188.08661	9543.65
2191.02278	9555.85
2193.95707	9529.35
2196.88948	9496.55
2199.82001	9493.65
2202.74867	9482.05
2205.67545	9466.05
2208.60037	9443.75
2211.52341	9404.55
2214.44458	9405.85
2217.36388	9366.45
2220.28132	9359.95
2223.1969	9357.75
2226.11061	9337.15
2229.02246	9296.05
2231.93245	9307.65
2234.84058	9277.25
2237.74686	9247.15
2240.65128	9241.65
2243.55385	9232.65
2246.45456	9217.55
2249.35343	9194.15
2252.25044	9148.15
2255.14561	9115.25
2258.03893	9113.45
2260.93041	9092.35
2263.82004	9052.95
2266.70783	9025.15
2269.59378	8984.15
2272.4779	8970.25
2275.36017	8918.55
2278.24061	8896.25
2281.11922	8885.35
2283.996	8868.65
2286.87094	8850.75
2289.74405	8836.25
2292.61534	8802.95
2295.4848	8787.15
2298.35243	8793.65
2301.21824	8776.45
2304.08223	8775.45
2306.94439	8761.95
2309.80474	8741.95
2312.66327	8748.45
2315.51999	8709.95
2318.37489	8731.45
2321.22797	8692.95
2324.07925	8684.85
2326.92871	8647.55
2329.77637	8660.85
2332.62222	8659.25
2335.46626	8648.25
2338.3085	8603.75
2341.14893	8614.55
2343.98756	8619.35
2346.8244	8596.95
2349.65943	8627.15
2352.49267	8608.65
2355.32411	8613.35
2358.15376	8593.05
2360.98161	8590.95
2363.80768	8583.55
2366.63195	8556.75
2369.45444	8571.35
2372.27514	8557.45
2375.09405	8538.95
2377.91118	8516.25
2380.72652	8512.35
2383.54009	8490.35
2386.35187	8465.15
2389.16188	8451.75
2391.97011	8403.25
2394.77657	8378.25
2397.58125	8392.15
2400.38416	8389.65
2403.18529	8341.85
2405.98466	8341.15
2408.78226	8314.85
2411.57809	8314.05
2414.37216	8287.35
2417.16446	8295.95
2419.955	8309.25
2422.74378	8292.25
2425.5308	8285.45
2428.31606	8279.55
2431.09956	8253.25
2433.88131	8244.05
2436.6613	8250.95
2439.43954	8244.65
2442.21603	8232.15
2444.99077	8218.75
2447.76377	8197.05
2450.53501	8225.75
2453.30451	8219.55
2456.07226	8190.85
2458.83827	8206.15
2461.60254	8175.65
2464.36507	8189.55
2467.12586	8184.25
2469.88492	8182.35
2472.64224	8174.15
2475.39782	8151.65
2478.15167	8169.55
2480.90379	8170.55
2483.65417	8154.85
2486.40283	8143.95
2489.14976	8153.75
2491.89497	8145.25
2494.63845	8155.95
2497.3802	8142.45
2500.12024	8126.85
2502.85855	8133.25
2505.59514	8136.35
2508.33002	8127.65
2511.06318	8131.75
2513.79462	8112.85
2516.52435	8108.25
2519.25237	8107.15
2521.97867	8083.05
2524.70327	8068.85
2527.42616	8045.95
2530.14734	8052.55
2532.86681	8040.45
2535.58458	8038.55
2538.30065	8035.55
2541.01501	8023.55
2543.72768	7999.85
2546.43864	7995.05
2549.14791	7959.15
2551.85548	7968.25
2554.56136	7968.65
2557.26554	7967.05
2559.96803	7938.55
2562.66883	7939.65
2565.36794	7951.55
2568.06536	7921.55
2570.7611	7927.05
2573.45514	7908.15
2576.14751	7912.45
2578.83819	7885.85
2581.52719	7896.15
2584.21451	7889.75
2586.90015	7875.65
2589.58411	7872.05
2592.2664	7874.35
2594.94701	7859.35
2597.62594	7854.15
2600.30321	7826.95
2602.9788	7799.65
2605.65273	7829.65
2608.32498	7839.55
2610.99557	7834.15
2613.66449	7830.65
2616.33175	7822.55
2618.99734	7850.85
2621.66128	7819.25
2624.32355	7824.25
2626.98416	7823.05
2629.64311	7797.85
2632.30041	7812.45
2634.95605	7785.75
2637.61004	7771.15
2640.26238	7751.45
2642.91306	7761.75
2645.56209	7775.25
2648.20948	7773.05
2650.85521	7781.35
2653.4993	7767.05
2656.14175	7776.45
2658.78255	7798.95
2661.42171	7766.15
2664.05923	7819.05
2666.6951	7819.75
2669.32934	7809.65
2671.96194	7804.75
2674.59291	7804.35
2677.22224	7773.65
2679.84993	7818.45
2682.476	7785.55
2685.10043	7783.65
2687.72324	7757.65
2690.34441	7776.35
2692.96396	7781.85
2695.58188	7762.55
2698.19818	7764.65
2700.81285	7746.05
2703.4259	7775.45
2706.03733	7824.85
2708.64714	7813.65
2711.25533	7797.45
2713.86191	7765.25
2716.46687	7799.35
2719.07021	7831.65
2721.67194	7802.45
2724.27206	7799.55
2726.87057	7816.55
2729.46747	7816.95
2732.06276	7823.75
2734.65644	7812.85
2737.24852	7809.15
2739.83899	7790.95
2742.42786	7789.55
2745.01513	7776.25
2747.60079	7767.95
2750.18486	7773.15
2752.76733	7756.25
2755.3482	7793.45
2757.92747	7771.95
2760.50515	7765.95
2763.08123	7788.05
2765.65573	7770.15
2768.22863	7779.95
2770.79994	7754.15
2773.36967	7736.35
2775.9378	7743.45
2778.50435	7745.25
2781.06932	7729.05
2783.6327	7726.65
2786.1945	7734.85
2788.75471	7704.75
2791.31335	7707.25
2793.87041	7736.35
2796.42589	7687.75
2798.97979	7681.15
2801.53212	7690.75
2804.08288	7652.55
2806.63206	7660.05
2809.17967	7627.05
2811.72571	7619.95
2814.27018	7632.65
2816.81308	7605.85
2819.35442	7579.35
2821.89419	7555.95
2824.43239	7560.75
2826.96904	7557.05
2829.50412	7547.35
2832.03763	7546.75
2834.56959	7538.55
2837.1	7549.45
2839.62884	7540.75
2842.15613	7547.65
2844.68186	7596.95
2847.20604	7625.15
2849.72867	7630.95
2852.24974	7642.55
2854.76927	7625.25
2857.28724	7641.95
2859.80367	7624.05
2862.31855	7596.55
2864.83189	7591.85
2867.34368	7567.85
2869.85393	7560.95
2872.36264	7550.75
2874.8698	7543.15
2877.37543	7530.65
2879.87952	7519.55
2882.38207	7537.35
2884.88308	7515.15
2887.38256	7520.15
2889.88051	7504.55
2892.37692	7507.15
2894.8718	7510.95
2897.36515	7537.85
2899.85698	7528.75
2902.34727	7533.35
2904.83604	7528.05
2907.32328	7545.15
2909.809	7554.55
2912.29319	7543.75
2914.77587	7534.25
2917.25702	7547.35
2919.73665	7529.35
2922.21476	7533.15
2924.69136	7508.45
2927.16644	7535.05
2929.64	7535.35
2932.11205	7522.75
2934.58258	7528.85
2937.05161	7518.45
2939.51912	7521.95
2941.98513	7482.25
2944.44962	7449.85
2946.91261	7408.45
2949.37409	7406.95
2951.83407	7402.25
2954.29254	7383.55
2956.74951	7360.75
2959.20498	7360.65
2961.65895	7330.05
2964.11142	7325.85
2966.56239	7298.75
2969.01186	7286.15
2971.45984	7275.05
2973.90632	7222.95
2976.35131	7212.35
2978.7948	7182.05
2981.23681	7158.05
2983.67732	7142.05
2986.11635	7133.05
2988.55388	7097.45
2990.98993	7099.15
2993.4245	7057.85
2995.85758	7035.05
2998.28917	7038.55
3000.71928	7007.25
3003.14791	6973.05
3005.57506	6985.55
3008.00073	6956.15
3010.42493	6946.15
3012.84764	6918.95
3015.26888	6915.45
3017.68865	6896.85
3020.10694	6878.45
3022.52376	6847.15
3024.9391	6844.15
3027.35298	6819.45
3029.76539	6822.55
3032.17632	6818.85
3034.5858	6808.05
3036.9938	6814.85
3039.40034	6784.95
3041.80542	6800.75
3044.20903	6790.75
3046.61118	6777.75
3049.01187	6753.05
3051.4111	6721.35
3053.80888	6710.25
3056.20519	6722.75
3058.60005	6677.45
3060.99345	6670.05
3063.3854	6634.55
3065.7759	6625.85
3068.16494	6604.05
3070.55254	6578.35
3072.93868	6559.25
3075.32338	6530.15
3077.70662	6517.75
3080.08842	6480.95
3082.46878	6485.75
3084.84769	6466.15
3087.22515	6465.35
3089.60118	6451.65
3091.97576	6438.35
3094.3489	6458.05
3096.72061	6441.05
3099.09087	6456.35
3101.4597	6411.35
3103.82709	6428.45
3106.19305	6395.75
3108.55757	6395.45
3110.92066	6367.25
3113.28232	6366.25
3115.64255	6332.45
3118.00134	6311.05
3120.35871	6307.75
3122.71466	6296.25
3125.06917	6294.95
3127.42226	6263.25
3129.77393	6302.85
3132.12417	6260.45
3134.47299	6264.05
3136.82039	6243.45
3139.16636	6241.75
3141.51092	6243.95
3143.85406	6260.45
3146.19579	6248.55
3148.53609	6246.85
3150.87499	6255.75
3153.21246	6252.35
3155.54853	6255.55
3157.88318	6239.85
3160.21642	6244.25
3162.54826	6230.15
3164.87868	6223.65
3167.2077	6228.15
3169.5353	6236.15
3171.86151	6230.45
3174.18631	6245.45
3176.5097	6211.95
3178.83169	6218.25
3181.15228	6207.15
3183.47147	6194.55
3185.78926	6197.05
3188.10565	6183.65
3190.42065	6172.95
3192.73424	6182.75
3195.04645	6161.25
3197.35725	6175.55
3199.66667	6144.15
3201.97469	6159.45
3204.28132	6140.35
3206.58656	6124.35
3208.8904	6129.65
3211.19287	6121.45
3213.49394	6123.95
3215.79363	6139.35
3218.09193	6126.95
3220.38884	6129.65
3222.68438	6136.15
3224.97853	6106.55
3227.2713	6107.45
3229.56269	6089.75
3231.8527	6093.45
3234.14133	6098.35
3236.42858	6070.65
3238.71446	6083.95
3240.99896	6057.65
3243.28209	6067.05
3245.56384	6060.55
3247.84423	6044.45
3250.12324	6021.25
3252.40088	6014.95
3254.67715	5995.45
3256.95205	6005.85
3259.22558	5979.25
3261.49775	5964.75
3263.76855	5962.05
3266.03799	5921.15
3268.30606	5915.55
3270.57277	5894.35
3272.83812	5891.45
3275.10211	5875.35
3277.36474	5871.95
3279.62601	5865.35
3281.88593	5861.75
3284.14448	5875.95
3286.40168	5863.85
3288.65753	5869.25
3290.91202	5853.45
3293.16516	5821.25
3295.41695	5818.95
3297.66738	5768.65
3299.91647	5733.05
3302.16421	5701.15
3304.4106	5679.65
3306.65564	5660.25
3308.89933	5599.65
3311.14169	5576.45
3313.38269	5547.05
3315.62236	5483.55
3317.86068	5433.65
3320.09766	5362.85
3322.3333	5327.15
3324.5676	5325.05
3326.80056	5237.15
3329.03219	5220.95
3331.26248	1.75
3333.49143	-0.55
3335.71905	-0.65
