Data from AgNPs_FTO_APTES_UA_2uM_CRN_2uM_R6G_10uM_NaF_0.1M_Addition_RamanShift__22__12-24-25-074.txt Node

Date: Wed Feb 02 12:24:25 GMT 2022
User: TCL
Spectrometer: QEP01345
Trigger mode: 4
Integration Time (sec): 7.000000E0
Scans to average: 10
Electric dark correction enabled: true
Nonlinearity correction enabled: false
Boxcar width: 0
XAxis mode: Raman Shifts
Number of Pixels in Spectrum: 1044
>>>>>Begin Spectral Data<<<<<
46.04893	0.45
50.45542	0.15
54.85868	-1.95
59.25871	-1.15
63.6555	101.25
68.04907	105.45
72.43941	106.65
76.82654	114.35
81.21044	121.15
85.59113	123.15
89.96862	127.95
94.34289	131.05
98.71396	137.35
103.08183	140.85
107.4465	144.55
111.80798	147.75
116.16626	156.55
120.52136	164.75
124.87327	169.65
129.222	178.75
133.56755	197.15
137.90993	214.05
142.24913	235.95
146.58517	277.55
150.91804	326.35
155.24774	398.05
159.57429	502.85
163.89768	648.45
168.21792	885.65
172.53501	1212.95
176.84895	1682.35
181.15975	2390.05
185.46741	3347.15
189.77193	4611.85
194.07331	6180.85
198.37157	7949.75
202.6667	9836.05
206.9587	11649.45
211.24758	13471.15
215.53334	15348.25
219.81599	17389.95
224.09553	19671.15
228.37195	22183.05
232.64527	24953.45
236.91549	27804.05
241.18261	30519.85
245.44663	32912.75
249.70755	34978.25
253.96539	36741.95
258.22014	38371.75
262.4718	39801.75
266.72039	40844.85
270.96589	41384.15
275.20832	41524.35
279.44768	41413.85
283.68397	41077.75
287.91719	40924.55
292.14735	40947.05
296.37445	41233.95
300.59849	41686.35
304.81948	42271.25
309.03742	42513.25
313.25231	42084.15
317.46415	40683.95
321.67296	38700.65
325.87872	37091.65
330.08145	36226.85
334.28114	36019.75
338.47781	36355.65
342.67145	36923.55
346.86207	37769.95
351.04966	39042.35
355.23424	40418.55
359.4158	41523.45
363.59435	42083.35
367.76989	42413.95
371.94243	42534.85
376.11196	42448.85
380.27849	42568.95
384.44203	42505.05
388.60257	42678.45
392.76012	42879.85
396.91468	43420.45
401.06626	44366.85
405.21485	44988.35
409.36047	44622.25
413.50311	43413.85
417.64277	42392.85
421.77947	41986.25
425.9132	42029.55
430.04396	42205.65
434.17176	42512.75
438.2966	42960.65
442.41849	43799.45
446.53742	45188.65
450.6534	46752.85
454.76644	47919.05
458.87653	48313.55
462.98368	48031.75
467.08789	47268.35
471.18916	46225.65
475.2875	45315.25
479.38291	44822.25
483.4754	44483.15
487.56496	43900.45
491.6516	43115.85
495.73531	42456.35
499.81612	42052.85
503.89401	42196.45
507.96899	42298.25
512.04106	42296.95
516.11023	42107.35
520.1765	41903.65
524.23987	41552.55
528.30034	41041.15
532.35792	40408.55
536.41261	39648.05
540.46441	38988.65
544.51333	38866.05
548.55936	39359.05
552.60252	40530.35
556.64279	41754.55
560.6802	42551.55
564.71473	43063.25
568.7464	44185.95
572.7752	45489.45
576.80114	45939.45
580.82422	46175.15
584.84444	46642.25
588.86181	47238.55
592.87633	48123.75
596.888	48860.55
600.89682	49251.45
604.9028	51566.25
608.90594	58569.35
612.90624	66937.95
616.90371	63060.85
620.89834	49055.65
624.89015	42561.15
628.87913	41617.65
632.86528	41729.95
636.84862	41502.85
640.82913	40549.05
644.80683	38978.55
648.78172	37777.75
652.75379	37564.75
656.72306	38392.25
660.68952	39588.15
664.65319	39413.05
668.61405	38362.55
672.57211	37809.65
676.52738	37808.95
680.47986	37732.85
684.42955	37518.85
688.37646	37380.95
692.32058	37573.85
696.26192	37941.45
700.20048	38554.35
704.13626	38920.55
708.06928	38824.55
711.99952	38401.55
715.927	38185.65
719.85171	38254.65
723.77365	38086.55
727.69284	37569.35
731.60928	37084.05
735.52295	37023.45
739.43388	37092.05
743.34206	37289.25
747.24749	37577.95
751.15017	38063.55
755.05012	38889.95
758.94733	40519.55
762.8418	43609.15
766.73354	48649.75
770.62254	53715.95
774.50882	55270.55
778.39237	52055.85
782.27321	46586.85
786.15132	41923.35
790.02671	39162.35
793.89938	37882.05
797.76935	37357.05
801.6366	37162.65
805.50115	37027.05
809.36299	36776.75
813.22213	36459.25
817.07857	36373.05
820.93231	36291.65
824.78336	36263.55
828.63172	36198.15
832.47738	36225.25
836.32036	36332.65
840.16066	36460.25
843.99827	36502.25
847.8332	36411.45
851.66546	36169.15
855.49504	36018.15
859.32195	35916.45
863.1462	35647.35
866.96777	35402.05
870.78668	35293.85
874.60293	35276.55
878.41652	35287.65
882.22745	35475.35
886.03573	35644.25
889.84136	35653.45
893.64433	35424.25
897.44466	35208.65
901.24235	35016.95
905.0374	34982.95
908.8298	34907.25
912.61957	35033.85
916.40671	35371.25
920.19121	36039.45
923.97308	36673.75
927.75233	37014.65
931.52895	37004.95
935.30295	36426.15
939.07433	35380.35
942.84309	34578.95
946.60924	34186.35
950.37278	34030.15
954.13371	33766.95
957.89203	33585.85
961.64774	33430.55
965.40086	33343.05
969.15137	33216.85
972.89929	33061.25
976.64461	32945.85
980.38733	33007.75
984.12747	33167.55
987.86502	33528.75
991.59999	34124.45
995.33237	35046.45
999.06217	36533.35
1002.78939	38392.45
1006.51404	39593.55
1010.23611	40153.35
1013.95561	40584.55
1017.67255	40456.65
1021.38692	39798.25
1025.09872	39275.85
1028.80796	39768.95
1032.51465	41256.75
1036.21877	42780.85
1039.92035	43046.15
1043.61937	42226.25
1047.31584	40693.65
1051.00976	39042.75
1054.70114	38027.25
1058.38998	37774.45
1062.07627	37824.65
1065.76003	38065.95
1069.44126	38376.65
1073.11995	38905.15
1076.79611	39421.25
1080.46974	39764.35
1084.14085	40252.75
1087.80943	40915.35
1091.47549	41372.45
1095.13903	41188.65
1098.80005	40234.05
1102.45857	39082.85
1106.11456	38293.65
1109.76805	38083.35
1113.41903	38354.25
1117.06751	38866.35
1120.71348	39587.45
1124.35696	40420.65
1127.99793	41311.45
1131.63641	41603.85
1135.2724	40967.95
1138.90589	40152.55
1142.5369	39672.95
1146.16542	39544.25
1149.79145	39596.45
1153.415	39852.75
1157.03607	40484.05
1160.65467	41572.95
1164.27079	43358.15
1167.88443	46115.75
1171.49561	49979.25
1175.10432	55407.35
1178.71056	62266.35
1182.31434	68387.95
1185.91565	71442.15
1189.51451	71312.05
1193.11091	68402.15
1196.70485	64140.25
1200.29634	60133.65
1203.88538	57012.95
1207.47197	54500.75
1211.05612	52611.55
1214.63782	51469.15
1218.21708	51020.75
1221.79391	50998.85
1225.36829	51062.55
1228.94024	50607.65
1232.50976	49833.25
1236.07685	49109.55
1239.6415	48621.35
1243.20374	48230.85
1246.76355	48301.65
1250.32093	49028.85
1253.8759	50454.15
1257.42845	52280.45
1260.97859	54169.95
1264.52631	55921.95
1268.07163	57701.55
1271.61453	59786.85
1275.15503	61942.65
1278.69312	64064.25
1282.22882	65887.85
1285.76211	67747.95
1289.29301	69863.05
1292.82151	72464.95
1296.34761	75677.35
1299.87133	79891.45
1303.39266	85553.85
1306.9116	92524.45
1310.42815	100019.55
1313.94233	105082.85
1317.45412	105737.85
1320.96354	102959.95
1324.47058	99130.95
1327.97525	95390.25
1331.47754	92706.35
1334.97747	91385.95
1338.47502	90986.25
1341.97022	90616.45
1345.46305	89644.75
1348.95352	88227.25
1352.44163	87725.55
1355.92738	90017.25
1359.41078	95919.15
1362.89183	102435.75
1366.37053	101515.45
1369.84688	91633.95
1373.32088	79759.25
1376.79254	71436.65
1380.26186	67791.35
1383.72883	66687.55
1387.19347	66053.35
1390.65578	65333.75
1394.11575	65223.85
1397.57339	66179.35
1401.0287	67913.35
1404.48168	69658.35
1407.93234	70536.95
1411.38068	70305.55
1414.82669	68658.45
1418.27039	65802.25
1421.71177	62546.35
1425.15083	59860.25
1428.58758	58284.25
1432.02203	58054.25
1435.45416	58947.45
1438.88399	60296.35
1442.31151	61406.35
1445.73673	62399.15
1449.15965	63473.15
1452.58027	64158.25
1455.9986	64336.85
1459.41463	64639.35
1462.82837	65625.65
1466.23982	67006.75
1469.64898	68299.15
1473.05586	69071.65
1476.46045	69166.55
1479.86276	69019.05
1483.26279	68772.95
1486.66054	68753.35
1490.05602	69404.55
1493.44922	70348.95
1496.84016	71453.35
1500.22882	73143.15
1503.61521	75953.55
1506.99934	79791.75
1510.38121	83965.55
1513.76081	86213.25
1517.13816	84472.75
1520.51324	79485.85
1523.88607	74255.15
1527.25665	70542.15
1530.62498	68473.15
1533.99105	67276.45
1537.35488	66467.45
1540.71647	65626.25
1544.07581	64583.75
1547.4329	63339.85
1550.78776	62161.55
1554.14038	61458.45
1557.49077	61212.65
1560.83892	61315.25
1564.18484	61571.65
1567.52853	61726.95
1570.86999	61944.15
1574.20922	62512.65
1577.54624	63060.15
1580.88103	62714.85
1584.2136	62528.25
1587.54395	64134.65
1590.87208	67714.85
1594.19801	72769.95
1597.52172	78057.85
1600.84321	80001.35
1604.16251	76492.85
1607.47959	69579.55
1610.79447	62233.25
1614.10715	55802.75
1617.41763	50797.45
1620.7259	47547.05
1624.03199	45970.25
1627.33587	46133.55
1630.63757	47881.55
1633.93707	51331.35
1637.23439	56656.75
1640.52951	63665.75
1643.82246	71547.85
1647.11321	77628.05
1650.40179	79367.95
1653.68819	74467.05
1656.97241	64426.35
1660.25446	53975.05
1663.53433	45994.65
1666.81203	40925.35
1670.08756	37816.35
1673.36092	35888.55
1676.63211	34654.05
1679.90115	33780.25
1683.16801	33162.15
1686.43272	32719.75
1689.69527	32368.85
1692.95567	32134.35
1696.2139	31928.05
1699.46999	31823.95
1702.72392	31714.65
1705.97571	31644.45
1709.22535	31533.25
1712.47284	31515.95
1715.71819	31426.45
1718.96139	31372.55
1722.20246	31278.85
1725.44139	31125.35
1728.67818	30938.55
1731.91284	30720.55
1735.14537	30568.85
1738.37576	30411.95
1741.60403	30286.05
1744.83017	30155.85
1748.05418	30124.35
1751.27607	30067.45
1754.49584	30029.95
1757.71349	29954.35
1760.92903	29932.55
1764.14244	29941.45
1767.35375	29891.35
1770.56294	29815.75
1773.77002	29759.45
1776.97499	29715.05
1780.17785	29620.05
1783.37861	29591.75
1786.57727	29536.05
1789.77382	29527.95
1792.96828	29460.25
1796.16064	29418.65
1799.3509	29371.75
1802.53907	29271.55
1805.72514	29181.95
1808.90913	29157.25
1812.09102	29086.75
1815.27083	29049.55
1818.44856	29013.45
1821.6242	28997.25
1824.79776	28974.55
1827.96924	28980.65
1831.13864	28985.65
1834.30597	28974.65
1837.47122	28976.35
1840.6344	28954.95
1843.7955	28938.85
1846.95454	28952.15
1850.11151	28965.35
1853.26642	28947.15
1856.41926	28957.55
1859.57004	29046.15
1862.71876	29028.45
1865.86542	29049.05
1869.01003	29024.95
1872.15258	29063.05
1875.29308	29083.15
1878.43152	29109.45
1881.56792	29115.25
1884.70227	29165.35
1887.83457	29254.65
1890.96482	29241.05
1894.09304	29209.25
1897.21921	29238.45
1900.34335	29267.55
1903.46544	29269.45
1906.58551	29310.45
1909.70353	29262.85
1912.81953	29204.55
1915.93349	29215.45
1919.04543	29145.55
1922.15534	29101.15
1925.26322	28991.15
1928.36908	28890.05
1931.47292	28698.05
1934.57473	28587.45
1937.67453	28409.05
1940.77232	28279.85
1943.86808	28126.65
1946.96184	27997.55
1950.05358	27893.95
1953.14331	27804.05
1956.23103	27692.05
1959.31675	27532.25
1962.40046	27482.15
1965.48217	27369.75
1968.56188	27311.85
1971.63959	27215.25
1974.7153	27131.75
1977.78901	27027.25
1980.86073	26933.65
1983.93046	26842.05
1986.99819	26720.65
1990.06394	26651.35
1993.1277	26577.45
1996.18947	26480.75
1999.24925	26391.75
2002.30706	26332.75
2005.36288	26288.35
2008.41672	26172.35
2011.46859	26134.15
2014.51848	26065.55
2017.56639	26004.65
2020.61233	25905.15
2023.6563	25910.65
2026.6983	25883.75
2029.73833	25811.45
2032.7764	25803.15
2035.8125	25758.55
2038.84664	25707.95
2041.87881	25724.25
2044.90903	25708.15
2047.93729	25666.15
2050.96359	25602.15
2053.98794	25567.25
2057.01034	25524.45
2060.03078	25533.45
2063.04927	25481.75
2066.06582	25450.45
2069.08042	25396.25
2072.09307	25360.25
2075.10378	25350.65
2078.11255	25326.95
2081.11938	25330.35
2084.12426	25276.15
2087.12722	25244.15
2090.12824	25226.25
2093.12732	25203.45
2096.12447	25226.85
2099.11969	25239.15
2102.11299	25197.95
2105.10435	25254.95
2108.09379	25271.05
2111.08131	25228.35
2114.0669	25236.35
2117.05057	25273.15
2120.03233	25326.35
2123.01216	25316.25
2125.99008	25310.75
2128.96609	25285.75
2131.94018	25321.15
2134.91236	25365.05
2137.88263	25334.15
2140.851	25341.75
2143.81746	25348.75
2146.78201	25375.85
2149.74466	25403.85
2152.7054	25455.35
2155.66425	25402.45
2158.6212	25396.95
2161.57625	25383.85
2164.52941	25388.45
2167.48067	25385.45
2170.43004	25344.75
2173.37752	25342.65
2176.32311	25365.25
2179.26681	25383.95
2182.20863	25388.85
2185.14856	25428.65
2188.08661	25422.35
2191.02278	25435.15
2193.95707	25407.85
2196.88948	25365.95
2199.82001	25449.55
2202.74867	25409.25
2205.67545	25433.15
2208.60037	25367.95
2211.52341	25346.95
2214.44458	25361.05
2217.36388	25343.45
2220.28132	25296.45
2223.1969	25234.25
2226.11061	25239.85
2229.02246	25148.85
2231.93245	25123.35
2234.84058	25112.25
2237.74686	25059.45
2240.65128	25024.85
2243.55385	24929.45
2246.45456	24930.55
2249.35343	24905.25
2252.25044	24844.45
2255.14561	24773.25
2258.03893	24774.35
2260.93041	24723.45
2263.82004	24608.85
2266.70783	24593.35
2269.59378	24518.55
2272.4779	24476.75
2275.36017	24408.75
2278.24061	24360.35
2281.11922	24302.15
2283.996	24275.45
2286.87094	24291.05
2289.74405	24218.55
2292.61534	24202.95
2295.4848	24217.85
2298.35243	24231.05
2301.21824	24202.85
2304.08223	24234.35
2306.94439	24231.85
2309.80474	24353.45
2312.66327	24316.25
2315.51999	24339.15
2318.37489	24360.75
2321.22797	24302.85
2324.07925	24287.85
2326.92871	24281.15
2329.77637	24324.35
2332.62222	24267.15
2335.46626	24290.65
2338.3085	24275.75
2341.14893	24280.45
2343.98756	24312.15
2346.8244	24309.55
2349.65943	24353.65
2352.49267	24381.95
2355.32411	24390.75
2358.15376	24366.55
2360.98161	24383.45
2363.80768	24330.45
2366.63195	24297.65
2369.45444	24237.35
2372.27514	24141.15
2375.09405	24054.25
2377.91118	23994.85
2380.72652	23915.25
2383.54009	23867.95
2386.35187	23855.15
2389.16188	23783.55
2391.97011	23796.95
2394.77657	23724.55
2397.58125	23719.65
2400.38416	23669.85
2403.18529	23619.95
2405.98466	23564.35
2408.78226	23521.45
2411.57809	23455.25
2414.37216	23469.55
2417.16446	23456.05
2419.955	23380.45
2422.74378	23336.55
2425.5308	23322.45
2428.31606	23313.45
2431.09956	23314.15
2433.88131	23294.45
2436.6613	23285.85
2439.43954	23309.65
2442.21603	23282.05
2444.99077	23297.35
2447.76377	23307.45
2450.53501	23251.35
2453.30451	23293.35
2456.07226	23268.25
2458.83827	23243.65
2461.60254	23303.75
2464.36507	23303.65
2467.12586	23244.85
2469.88492	23255.05
2472.64224	23297.35
2475.39782	23345.95
2478.15167	23356.95
2480.90379	23338.85
2483.65417	23414.05
2486.40283	23397.05
2489.14976	23425.55
2491.89497	23454.95
2494.63845	23504.35
2497.3802	23423.45
2500.12024	23474.65
2502.85855	23475.15
2505.59514	23478.45
2508.33002	23439.65
2511.06318	23414.75
2513.79462	23399.75
2516.52435	23360.15
2519.25237	23275.85
2521.97867	23233.55
2524.70327	23217.75
2527.42616	23211.05
2530.14734	23240.95
2532.86681	23160.25
2535.58458	23176.15
2538.30065	23153.95
2541.01501	23117.85
2543.72768	23129.95
2546.43864	23155.25
2549.14791	23094.15
2551.85548	23081.15
2554.56136	23122.35
2557.26554	23116.65
2559.96803	23103.35
2562.66883	23066.45
2565.36794	23049.35
2568.06536	23057.85
2570.7611	23028.95
2573.45514	23008.85
2576.14751	23021.05
2578.83819	22965.15
2581.52719	22972.95
2584.21451	22973.45
2586.90015	23040.85
2589.58411	22992.95
2592.2664	23017.35
2594.94701	22987.65
2597.62594	22994.95
2600.30321	22963.65
2602.9788	22988.65
2605.65273	22942.25
2608.32498	22951.75
2610.99557	22910.25
2613.66449	22984.85
2616.33175	22982.55
2618.99734	23010.75
2621.66128	23023.55
2624.32355	23012.85
2626.98416	23040.35
2629.64311	23034.65
2632.30041	23045.75
2634.95605	23020.25
2637.61004	23000.15
2640.26238	22957.15
2642.91306	22971.95
2645.56209	22935.25
2648.20948	22905.45
2650.85521	22882.75
2653.4993	22876.35
2656.14175	22837.85
2658.78255	22870.25
2661.42171	22825.05
2664.05923	22912.25
2666.6951	22893.85
2669.32934	22977.95
2671.96194	22941.95
2674.59291	22969.85
2677.22224	22932.95
2679.84993	22974.15
2682.476	22931.15
2685.10043	22938.05
2687.72324	22863.45
2690.34441	22885.85
2692.96396	22842.75
2695.58188	22859.05
2698.19818	22826.45
2700.81285	22836.95
2703.4259	22773.95
2706.03733	22868.25
2708.64714	22824.25
2711.25533	22834.85
2713.86191	22858.45
2716.46687	22916.95
2719.07021	22944.15
2721.67194	22929.05
2724.27206	22915.15
2726.87057	22916.35
2729.46747	22924.55
2732.06276	22926.45
2734.65644	22960.55
2737.24852	22946.65
2739.83899	22904.55
2742.42786	22932.95
2745.01513	22885.05
2747.60079	22874.35
2750.18486	22877.95
2752.76733	22918.25
2755.3482	22891.15
2757.92747	22880.25
2760.50515	22846.25
2763.08123	22851.15
2765.65573	22830.05
2768.22863	22855.05
2770.79994	22832.35
2773.36967	22825.55
2775.9378	22814.95
2778.50435	22810.05
2781.06932	22799.55
2783.6327	22827.55
2786.1945	22798.45
2788.75471	22809.25
2791.31335	22745.05
2793.87041	22730.95
2796.42589	22676.95
2798.97979	22676.35
2801.53212	22675.15
2804.08288	22633.55
2806.63206	22585.65
2809.17967	22505.65
2811.72571	22454.75
2814.27018	22447.55
2816.81308	22422.15
2819.35442	22440.55
2821.89419	22412.35
2824.43239	22449.55
2826.96904	22404.45
2829.50412	22443.35
2832.03763	22385.25
2834.56959	22427.95
2837.1	22410.95
2839.62884	22350.65
2842.15613	22384.25
2844.68186	22425.55
2847.20604	22495.85
2849.72867	22494.15
2852.24974	22486.95
2854.76927	22428.35
2857.28724	22433.15
2859.80367	22408.65
2862.31855	22370.55
2864.83189	22353.85
2867.34368	22351.15
2869.85393	22339.15
2872.36264	22340.65
2874.8698	22384.05
2877.37543	22396.75
2879.87952	22432.95
2882.38207	22409.35
2884.88308	22359.65
2887.38256	22404.75
2889.88051	22396.15
2892.37692	22452.65
2894.8718	22487.55
2897.36515	22445.95
2899.85698	22430.75
2902.34727	22515.65
2904.83604	22520.35
2907.32328	22526.55
2909.809	22529.45
2912.29319	22582.15
2914.77587	22512.55
2917.25702	22546.45
2919.73665	22541.75
2922.21476	22517.45
2924.69136	22491.15
2927.16644	22467.45
2929.64	22407.55
2932.11205	22360.35
2934.58258	22309.85
2937.05161	22292.85
2939.51912	22255.95
2941.98513	22226.45
2944.44962	22175.35
2946.91261	22095.15
2949.37409	22125.85
2951.83407	22126.05
2954.29254	22092.75
2956.74951	22017.55
2959.20498	21991.45
2961.65895	21948.45
2964.11142	21974.85
2966.56239	21857.65
2969.01186	21835.45
2971.45984	21790.15
2973.90632	21756.65
2976.35131	21687.15
2978.7948	21643.65
2981.23681	21545.15
2983.67732	21499.15
2986.11635	21395.85
2988.55388	21344.55
2990.98993	21329.85
2993.4245	21268.95
2995.85758	21248.35
2998.28917	21156.45
3000.71928	21166.25
3003.14791	21124.25
3005.57506	21065.45
3008.00073	20999.35
3010.42493	21018.65
3012.84764	20990.95
3015.26888	20939.75
3017.68865	20905.15
3020.10694	20861.95
3022.52376	20793.65
3024.9391	20783.65
3027.35298	20748.85
3029.76539	20719.35
3032.17632	20702.25
3034.5858	20684.15
3036.9938	20653.75
3039.40034	20616.35
3041.80542	20628.05
3044.20903	20579.65
3046.61118	20557.25
3049.01187	20522.65
3051.4111	20518.25
3053.80888	20421.05
3056.20519	20395.75
3058.60005	20311.45
3060.99345	20282.15
3063.3854	20222.75
3065.7759	20170.85
3068.16494	20104.35
3070.55254	20026.65
3072.93868	20019.25
3075.32338	19953.05
3077.70662	19873.95
3080.08842	19858.15
3082.46878	19820.05
3084.84769	19795.45
3087.22515	19764.75
3089.60118	19769.15
3091.97576	19749.35
3094.3489	19724.35
3096.72061	19720.65
3099.09087	19695.35
3101.4597	19640.95
3103.82709	19608.05
3106.19305	19569.45
3108.55757	19527.25
3110.92066	19503.55
3113.28232	19509.35
3115.64255	19415.95
3118.00134	19373.05
3120.35871	19345.05
3122.71466	19287.95
3125.06917	19278.75
3127.42226	19186.05
3129.77393	19247.55
3132.12417	19231.85
3134.47299	19195.25
3136.82039	19183.25
3139.16636	19173.25
3141.51092	19177.45
3143.85406	19194.15
3146.19579	19176.15
3148.53609	19145.25
3150.87499	19167.45
3153.21246	19144.35
3155.54853	19181.55
3157.88318	19155.75
3160.21642	19112.95
3162.54826	19113.85
3164.87868	19136.45
3167.2077	19072.65
3169.5353	19067.95
3171.86151	19047.25
3174.18631	19048.75
3176.5097	19009.65
3178.83169	18984.65
3181.15228	19016.35
3183.47147	18949.45
3185.78926	18936.85
3188.10565	18941.25
3190.42065	18923.85
3192.73424	18969.55
3195.04645	18947.05
3197.35725	18908.55
3199.66667	18911.35
3201.97469	18969.75
3204.28132	18899.15
3206.58656	18935.15
3208.8904	18931.15
3211.19287	18967.65
3213.49394	18962.95
3215.79363	18938.45
3218.09193	18946.85
3220.38884	18908.45
3222.68438	18922.05
3224.97853	18885.05
3227.2713	18873.45
3229.56269	18847.05
3231.8527	18828.85
3234.14133	18799.25
3236.42858	18784.25
3238.71446	18797.65
3240.99896	18717.85
3243.28209	18725.35
3245.56384	18688.65
3247.84423	18704.55
3250.12324	18648.15
3252.40088	18643.85
3254.67715	18598.65
3256.95205	18536.45
3259.22558	18551.05
3261.49775	18513.35
3263.76855	18488.65
3266.03799	18472.75
3268.30606	18428.05
3270.57277	18410.75
3272.83812	18375.55
3275.10211	18380.25
3277.36474	18313.95
3279.62601	18370.75
3281.88593	18356.95
3284.14448	18363.55
3286.40168	18354.95
3288.65753	18317.45
3290.91202	18296.45
3293.16516	18247.55
3295.41695	18144.35
3297.66738	18087.15
3299.91647	18019.35
3302.16421	17941.55
3304.4106	17856.25
3306.65564	17726.55
3308.89933	17642.15
3311.14169	17492.65
3313.38269	17359.65
3315.62236	17306.15
3317.86068	17162.45
3320.09766	17007.15
3322.3333	16818.65
3324.5676	16826.75
3326.80056	16582.65
3329.03219	16476.55
3331.26248	3.15
3333.49143	2.05
3335.71905	-1.65
