Data from AgNPs_FTO_APTES_UA_5uM_CRN_50uM_R6G_10uM_NaF_0.1M_Addition_RamanShift__5__13-48-26-801.txt Node

Date: Mon Feb 07 13:48:26 GMT 2022
User: TCL
Spectrometer: QEP01345
Trigger mode: 4
Integration Time (sec): 7.000000E0
Scans to average: 10
Electric dark correction enabled: true
Nonlinearity correction enabled: false
Boxcar width: 0
XAxis mode: Raman Shifts
Number of Pixels in Spectrum: 1044
>>>>>Begin Spectral Data<<<<<
46.04893	-0.65
50.45542	-1.45
54.85868	-1.55
59.25871	-0.35
63.6555	79.25
68.04907	87.75
72.43941	88.15
76.82654	90.75
81.21044	95.65
85.59113	98.25
89.96862	102.85
94.34289	104.75
98.71396	103.65
103.08183	112.05
107.4465	116.05
111.80798	121.25
116.16626	121.45
120.52136	132.15
124.87327	132.65
129.222	146.35
133.56755	154.35
137.90993	170.35
142.24913	189.55
146.58517	215.15
150.91804	262.05
155.24774	312.35
159.57429	393.55
163.89768	508.85
168.21792	678.65
172.53501	936.05
176.84895	1302.35
181.15975	1846.25
185.46741	2586.85
189.77193	3572.25
194.07331	4754.65
198.37157	6117.35
202.6667	7553.85
206.9587	8966.15
211.24758	10364.25
215.53334	11785.15
219.81599	13264.35
224.09553	14894.25
228.37195	16713.85
232.64527	18669.05
236.91549	20664.25
241.18261	22677.45
245.44663	24556.35
249.70755	26250.85
253.96539	27777.25
258.22014	29039.85
262.4718	30100.95
266.72039	30845.95
270.96589	31309.05
275.20832	31364.85
279.44768	31234.85
283.68397	31092.45
287.91719	30900.15
292.14735	30847.55
296.37445	30882.95
300.59849	30949.75
304.81948	31132.85
309.03742	31081.05
313.25231	30782.45
317.46415	30160.25
321.67296	29433.15
325.87872	28844.45
330.08145	28502.05
334.28114	28393.35
338.47781	28464.45
342.67145	28751.35
346.86207	29104.05
351.04966	29545.35
355.23424	30095.15
359.4158	30538.05
363.59435	30880.35
367.76989	31108.05
371.94243	31266.75
376.11196	31361.85
380.27849	31418.05
384.44203	31534.75
388.60257	31778.45
392.76012	32229.15
396.91468	32732.75
401.06626	33273.05
405.21485	33530.45
409.36047	33453.85
413.50311	33149.05
417.64277	33106.45
421.77947	33278.35
425.9132	33476.15
430.04396	33733.15
434.17176	33859.05
438.2966	34136.55
442.41849	34782.05
446.53742	35847.85
450.6534	37036.35
454.76644	37973.15
458.87653	38214.45
462.98368	37937.35
467.08789	37384.35
471.18916	36790.55
475.2875	36375.05
479.38291	36249.35
483.4754	36202.35
487.56496	35757.35
491.6516	34953.45
495.73531	34056.45
499.81612	33421.95
503.89401	33380.55
507.96899	33433.55
512.04106	33342.95
516.11023	32902.75
520.1765	32372.75
524.23987	31840.85
528.30034	31482.25
532.35792	31219.45
536.41261	30837.75
540.46441	30470.15
544.51333	30484.35
548.55936	30966.15
552.60252	31716.55
556.64279	32806.75
560.6802	33636.15
564.71473	34348.25
568.7464	35321.05
572.7752	36903.35
576.80114	38414.95
580.82422	39756.95
584.84444	41474.75
588.86181	43580.35
592.87633	45272.75
596.888	44635.85
600.89682	42012.45
604.9028	40513.15
608.90594	41559.55
612.90624	42853.65
616.90371	39790.35
620.89834	34045.15
624.89015	31551.75
628.87913	31343.55
632.86528	31513.05
636.84862	31306.25
640.82913	30606.15
644.80683	29833.95
648.78172	29359.35
652.75379	29317.35
656.72306	29617.25
660.68952	29894.65
664.65319	29692.85
668.61405	29142.65
672.57211	29027.85
676.52738	29133.35
680.47986	29178.25
684.42955	28978.05
688.37646	28821.25
692.32058	29010.45
696.26192	29513.75
700.20048	30000.25
704.13626	30328.35
708.06928	30427.45
711.99952	30427.35
715.927	30462.55
719.85171	30589.05
723.77365	30392.85
727.69284	29833.05
731.60928	29351.65
735.52295	29142.65
739.43388	29128.05
743.34206	29238.35
747.24749	29456.15
751.15017	29894.95
755.05012	30584.55
758.94733	31629.45
762.8418	33226.85
766.73354	35407.85
770.62254	37117.15
774.50882	36899.55
778.39237	34951.85
782.27321	32544.55
786.15132	30701.55
790.02671	29607.15
793.89938	29052.05
797.76935	28799.55
801.6366	28806.95
805.50115	28797.05
809.36299	28642.15
813.22213	28420.85
817.07857	28302.65
820.93231	28206.65
824.78336	27957.45
828.63172	27726.35
832.47738	27566.95
836.32036	27594.65
840.16066	27675.65
843.99827	27727.55
847.8332	27707.55
851.66546	27612.55
855.49504	27604.65
859.32195	27562.95
863.1462	27434.25
866.96777	27326.75
870.78668	27221.65
874.60293	27234.95
878.41652	27130.85
882.22745	27218.45
886.03573	27334.95
889.84136	27305.05
893.64433	27198.15
897.44466	27023.55
901.24235	26971.25
905.0374	26932.75
908.8298	26912.75
912.61957	27036.45
916.40671	27454.45
920.19121	28086.35
923.97308	28519.65
927.75233	28453.75
931.52895	27951.35
935.30295	27329.95
939.07433	26731.95
942.84309	26312.05
946.60924	26109.85
950.37278	26063.85
954.13371	26070.95
957.89203	26052.75
961.64774	26097.85
965.40086	26100.25
969.15137	25990.55
972.89929	25803.65
976.64461	25639.35
980.38733	25575.75
984.12747	25600.85
987.86502	25725.65
991.59999	26009.15
995.33237	26318.05
999.06217	26972.85
1002.78939	27738.65
1006.51404	28320.85
1010.23611	28831.25
1013.95561	29184.65
1017.67255	29184.85
1021.38692	28805.25
1025.09872	28315.75
1028.80796	28067.75
1032.51465	28430.15
1036.21877	28945.35
1039.92035	29162.35
1043.61937	29068.55
1047.31584	28727.85
1051.00976	28337.95
1054.70114	28228.05
1058.38998	28351.65
1062.07627	28573.85
1065.76003	28957.55
1069.44126	29342.55
1073.11995	29841.55
1076.79611	30170.75
1080.46974	30356.75
1084.14085	30537.35
1087.80943	30920.95
1091.47549	31281.05
1095.13903	31425.35
1098.80005	31064.55
1102.45857	30231.65
1106.11456	29529.05
1109.76805	29141.75
1113.41903	29133.15
1117.06751	29320.05
1120.71348	29584.45
1124.35696	29917.25
1127.99793	30290.45
1131.63641	30631.95
1135.2724	30637.45
1138.90589	30737.55
1142.5369	31017.15
1146.16542	31530.65
1149.79145	32090.05
1153.415	32670.75
1157.03607	33603.45
1160.65467	35151.45
1164.27079	37446.55
1167.88443	39940.75
1171.49561	42300.95
1175.10432	45021.75
1178.71056	48444.55
1182.31434	51619.35
1185.91565	52832.35
1189.51451	52207.65
1193.11091	50779.75
1196.70485	49158.55
1200.29634	47637.35
1203.88538	46876.95
1207.47197	46896.55
1211.05612	46711.45
1214.63782	45815.15
1218.21708	44078.15
1221.79391	42291.55
1225.36829	40918.05
1228.94024	39958.35
1232.50976	38997.85
1236.07685	38262.65
1239.6415	37830.75
1243.20374	37892.75
1246.76355	38297.75
1250.32093	39019.35
1253.8759	39985.05
1257.42845	41165.65
1260.97859	42427.65
1264.52631	43695.75
1268.07163	45084.75
1271.61453	46646.35
1275.15503	48348.55
1278.69312	50313.65
1282.22882	52518.65
1285.76211	55233.65
1289.29301	58291.05
1292.82151	62107.45
1296.34761	66688.55
1299.87133	71818.35
1303.39266	76621.85
1306.9116	80232.75
1310.42815	82453.75
1313.94233	83053.35
1317.45412	82323.95
1320.96354	81103.85
1324.47058	80338.35
1327.97525	79955.35
1331.47754	79440.65
1334.97747	78783.15
1338.47502	77449.45
1341.97022	75427.35
1345.46305	73005.25
1348.95352	70859.75
1352.44163	69979.75
1355.92738	70945.65
1359.41078	73411.95
1362.89183	75359.15
1366.37053	74330.15
1369.84688	69113.25
1373.32088	61602.55
1376.79254	56426.95
1380.26186	55193.35
1383.72883	56288.05
1387.19347	57295.35
1390.65578	57200.85
1394.11575	57371.05
1397.57339	58551.35
1401.0287	60281.35
1404.48168	61567.25
1407.93234	61391.25
1411.38068	59585.25
1414.82669	56558.55
1418.27039	53001.65
1421.71177	49563.85
1425.15083	46850.75
1428.58758	45580.75
1432.02203	46007.45
1435.45416	47803.05
1438.88399	50040.25
1442.31151	51905.25
1445.73673	53064.25
1449.15965	53928.95
1452.58027	54252.15
1455.9986	54128.05
1459.41463	54195.55
1462.82837	54763.65
1466.23982	55694.55
1469.64898	56692.95
1473.05586	57282.75
1476.46045	57350.55
1479.86276	56732.35
1483.26279	55776.05
1486.66054	55109.05
1490.05602	54970.45
1493.44922	55083.75
1496.84016	55073.65
1500.22882	55149.65
1503.61521	55521.15
1506.99934	56168.75
1510.38121	56919.45
1513.76081	57145.65
1517.13816	56805.15
1520.51324	56329.15
1523.88607	56489.05
1527.25665	57250.85
1530.62498	57976.95
1533.99105	58151.75
1537.35488	57352.95
1540.71647	55774.65
1544.07581	53648.85
1547.4329	51407.45
1550.78776	49552.15
1554.14038	48213.35
1557.49077	47359.55
1560.83892	46810.95
1564.18484	46515.85
1567.52853	46547.45
1570.86999	47133.95
1574.20922	48538.55
1577.54624	50149.25
1580.88103	51430.95
1584.2136	53110.45
1587.54395	56003.05
1590.87208	60025.35
1594.19801	64246.45
1597.52172	67380.95
1600.84321	67345.05
1604.16251	62887.95
1607.47959	56186.05
1610.79447	49548.55
1614.10715	44140.65
1617.41763	40128.95
1620.7259	37692.25
1624.03199	36661.85
1627.33587	36948.05
1630.63757	38724.25
1633.93707	42312.05
1637.23439	48024.95
1640.52951	56260.35
1643.82246	65796.05
1647.11321	73060.95
1650.40179	73567.25
1653.68819	66531.45
1656.97241	55680.65
1660.25446	45534.75
1663.53433	38086.85
1666.81203	33376.15
1670.08756	30447.65
1673.36092	28641.15
1676.63211	27469.15
1679.90115	26690.65
1683.16801	26082.85
1686.43272	25644.45
1689.69527	25368.65
1692.95567	25042.95
1696.2139	24868.75
1699.46999	24744.45
1702.72392	24558.75
1705.97571	24490.85
1709.22535	24384.45
1712.47284	24321.55
1715.71819	24224.75
1718.96139	24106.65
1722.20246	24007.85
1725.44139	23900.65
1728.67818	23698.55
1731.91284	23559.25
1735.14537	23337.05
1738.37576	23222.35
1741.60403	23100.15
1744.83017	23008.85
1748.05418	22967.75
1751.27607	22901.55
1754.49584	22859.65
1757.71349	22831.55
1760.92903	22826.65
1764.14244	22795.95
1767.35375	22739.55
1770.56294	22744.05
1773.77002	22630.55
1776.97499	22589.35
1780.17785	22554.85
1783.37861	22488.45
1786.57727	22437.65
1789.77382	22365.55
1792.96828	22371.35
1796.16064	22287.15
1799.3509	22237.55
1802.53907	22188.35
1805.72514	22129.35
1808.90913	22041.95
1812.09102	21987.95
1815.27083	21928.35
1818.44856	21875.85
1821.6242	21856.45
1824.79776	21816.65
1827.96924	21821.45
1831.13864	21800.55
1834.30597	21781.55
1837.47122	21779.95
1840.6344	21740.35
1843.7955	21752.95
1846.95454	21745.85
1850.11151	21723.65
1853.26642	21665.15
1856.41926	21696.75
1859.57004	21656.65
1862.71876	21651.55
1865.86542	21629.95
1869.01003	21576.45
1872.15258	21570.65
1875.29308	21537.85
1878.43152	21511.75
1881.56792	21511.45
1884.70227	21472.55
1887.83457	21460.05
1890.96482	21426.75
1894.09304	21402.75
1897.21921	21365.65
1900.34335	21391.45
1903.46544	21336.35
1906.58551	21313.55
1909.70353	21276.55
1912.81953	21240.35
1915.93349	21193.65
1919.04543	21165.75
1922.15534	21097.45
1925.26322	21039.95
1928.36908	20939.95
1931.47292	20925.85
1934.57473	20886.25
1937.67453	20824.95
1940.77232	20738.55
1943.86808	20731.25
1946.96184	20665.65
1950.05358	20643.45
1953.14331	20539.55
1956.23103	20501.45
1959.31675	20408.15
1962.40046	20386.25
1965.48217	20272.45
1968.56188	20245.75
1971.63959	20153.75
1974.7153	20102.65
1977.78901	20064.35
1980.86073	19938.65
1983.93046	19881.45
1986.99819	19829.05
1990.06394	19759.35
1993.1277	19716.35
1996.18947	19695.75
1999.24925	19646.85
2002.30706	19563.45
2005.36288	19511.35
2008.41672	19465.65
2011.46859	19405.55
2014.51848	19356.95
2017.56639	19286.95
2020.61233	19216.05
2023.6563	19227.05
2026.6983	19160.25
2029.73833	19119.65
2032.7764	19054.05
2035.8125	19035.85
2038.84664	19029.25
2041.87881	18984.65
2044.90903	18966.55
2047.93729	18944.25
2050.96359	18911.35
2053.98794	18891.25
2057.01034	18865.25
2060.03078	18848.85
2063.04927	18810.05
2066.06582	18831.05
2069.08042	18809.25
2072.09307	18774.65
2075.10378	18740.45
2078.11255	18742.65
2081.11938	18703.75
2084.12426	18696.65
2087.12722	18723.75
2090.12824	18700.25
2093.12732	18652.15
2096.12447	18655.85
2099.11969	18669.25
2102.11299	18690.75
2105.10435	18700.05
2108.09379	18648.95
2111.08131	18685.45
2114.0669	18703.45
2117.05057	18729.35
2120.03233	18698.65
2123.01216	18738.75
2125.99008	18723.65
2128.96609	18737.15
2131.94018	18760.45
2134.91236	18733.95
2137.88263	18752.85
2140.851	18765.45
2143.81746	18826.55
2146.78201	18734.95
2149.74466	18756.15
2152.7054	18756.15
2155.66425	18719.65
2158.6212	18713.25
2161.57625	18648.85
2164.52941	18687.25
2167.48067	18677.25
2170.43004	18694.45
2173.37752	18673.45
2176.32311	18665.55
2179.26681	18677.85
2182.20863	18673.85
2185.14856	18671.25
2188.08661	18651.65
2191.02278	18693.75
2193.95707	18670.55
2196.88948	18633.85
2199.82001	18633.65
2202.74867	18592.85
2205.67545	18580.25
2208.60037	18518.25
2211.52341	18534.35
2214.44458	18526.45
2217.36388	18514.55
2220.28132	18466.95
2223.1969	18416.05
2226.11061	18393.45
2229.02246	18377.95
2231.93245	18357.95
2234.84058	18330.05
2237.74686	18268.65
2240.65128	18261.55
2243.55385	18245.95
2246.45456	18225.55
2249.35343	18178.95
2252.25044	18098.05
2255.14561	18063.65
2258.03893	18034.95
2260.93041	17974.65
2263.82004	17933.65
2266.70783	17908.45
2269.59378	17785.45
2272.4779	17778.75
2275.36017	17753.95
2278.24061	17730.85
2281.11922	17699.25
2283.996	17674.35
2286.87094	17629.35
2289.74405	17608.85
2292.61534	17603.15
2295.4848	17620.15
2298.35243	17571.75
2301.21824	17615.25
2304.08223	17607.85
2306.94439	17620.85
2309.80474	17631.15
2312.66327	17640.35
2315.51999	17617.45
2318.37489	17622.95
2321.22797	17560.75
2324.07925	17553.65
2326.92871	17515.15
2329.77637	17477.65
2332.62222	17477.15
2335.46626	17488.45
2338.3085	17472.05
2341.14893	17461.45
2343.98756	17450.25
2346.8244	17473.85
2349.65943	17466.55
2352.49267	17456.65
2355.32411	17488.15
2358.15376	17470.25
2360.98161	17439.05
2363.80768	17421.95
2366.63195	17419.65
2369.45444	17384.35
2372.27514	17340.15
2375.09405	17317.45
2377.91118	17299.55
2380.72652	17237.25
2383.54009	17216.65
2386.35187	17218.15
2389.16188	17150.65
2391.97011	17117.95
2394.77657	17093.75
2397.58125	17097.15
2400.38416	17085.85
2403.18529	17059.85
2405.98466	17029.05
2408.78226	17009.05
2411.57809	16985.75
2414.37216	16986.05
2417.16446	16971.35
2419.955	16967.45
2422.74378	16950.85
2425.5308	16895.85
2428.31606	16924.15
2431.09956	16897.75
2433.88131	16897.55
2436.6613	16904.05
2439.43954	16910.75
2442.21603	16904.85
2444.99077	16842.85
2447.76377	16899.35
2450.53501	16897.25
2453.30451	16889.95
2456.07226	16870.75
2458.83827	16872.65
2461.60254	16881.95
2464.36507	16843.15
2467.12586	16850.25
2469.88492	16875.75
2472.64224	16920.65
2475.39782	16927.75
2478.15167	16951.95
2480.90379	16915.25
2483.65417	16914.05
2486.40283	16926.75
2489.14976	16937.65
2491.89497	16944.55
2494.63845	16975.35
2497.3802	16964.85
2500.12024	16974.55
2502.85855	16953.25
2505.59514	16934.05
2508.33002	16909.95
2511.06318	16915.05
2513.79462	16880.05
2516.52435	16860.05
2519.25237	16911.25
2521.97867	16903.65
2524.70327	16895.75
2527.42616	16876.75
2530.14734	16877.55
2532.86681	16906.35
2535.58458	16885.15
2538.30065	16884.55
2541.01501	16893.65
2543.72768	16851.95
2546.43864	16849.25
2549.14791	16842.75
2551.85548	16850.55
2554.56136	16846.85
2557.26554	16796.05
2559.96803	16843.55
2562.66883	16795.85
2565.36794	16782.45
2568.06536	16758.25
2570.7611	16799.85
2573.45514	16768.45
2576.14751	16761.75
2578.83819	16737.15
2581.52719	16797.25
2584.21451	16770.25
2586.90015	16777.75
2589.58411	16796.25
2592.2664	16779.85
2594.94701	16769.75
2597.62594	16729.05
2600.30321	16751.15
2602.9788	16782.05
2605.65273	16748.05
2608.32498	16788.55
2610.99557	16778.95
2613.66449	16808.35
2616.33175	16787.95
2618.99734	16799.35
2621.66128	16771.25
2624.32355	16750.45
2626.98416	16776.65
2629.64311	16799.05
2632.30041	16800.25
2634.95605	16760.45
2637.61004	16745.75
2640.26238	16741.95
2642.91306	16745.55
2645.56209	16728.75
2648.20948	16756.15
2650.85521	16774.75
2653.4993	16772.15
2656.14175	16755.45
2658.78255	16818.25
2661.42171	16822.35
2664.05923	16870.05
2666.6951	16879.15
2669.32934	16881.15
2671.96194	16891.95
2674.59291	16880.75
2677.22224	16908.65
2679.84993	16908.05
2682.476	16870.75
2685.10043	16903.95
2687.72324	16866.55
2690.34441	16838.95
2692.96396	16837.25
2695.58188	16863.95
2698.19818	16813.45
2700.81285	16863.95
2703.4259	16881.45
2706.03733	16959.35
2708.64714	16904.15
2711.25533	16909.35
2713.86191	16893.15
2716.46687	16946.15
2719.07021	16952.65
2721.67194	17020.55
2724.27206	16997.75
2726.87057	17063.95
2729.46747	17056.55
2732.06276	17081.55
2734.65644	17095.55
2737.24852	17050.15
2739.83899	17046.65
2742.42786	17101.45
2745.01513	17053.75
2747.60079	17026.25
2750.18486	17042.65
2752.76733	17032.25
2755.3482	17011.25
2757.92747	17035.45
2760.50515	17050.35
2763.08123	17046.25
2765.65573	17051.15
2768.22863	17067.65
2770.79994	17056.15
2773.36967	17091.95
2775.9378	17101.65
2778.50435	17085.55
2781.06932	17071.45
2783.6327	17076.05
2786.1945	17085.75
2788.75471	17091.55
2791.31335	17077.35
2793.87041	17070.15
2796.42589	17018.75
2798.97979	17023.45
2801.53212	17002.55
2804.08288	16980.35
2806.63206	16889.95
2809.17967	16875.95
2811.72571	16859.75
2814.27018	16848.75
2816.81308	16824.15
2819.35442	16789.35
2821.89419	16757.45
2824.43239	16784.65
2826.96904	16756.45
2829.50412	16779.35
2832.03763	16716.45
2834.56959	16713.75
2837.1	16700.35
2839.62884	16713.25
2842.15613	16683.25
2844.68186	16749.35
2847.20604	16763.45
2849.72867	16772.55
2852.24974	16779.95
2854.76927	16780.25
2857.28724	16755.75
2859.80367	16741.95
2862.31855	16750.65
2864.83189	16677.55
2867.34368	16692.65
2869.85393	16681.95
2872.36264	16620.45
2874.8698	16601.35
2877.37543	16622.55
2879.87952	16611.15
2882.38207	16642.35
2884.88308	16637.35
2887.38256	16630.45
2889.88051	16620.85
2892.37692	16629.45
2894.8718	16650.15
2897.36515	16699.55
2899.85698	16685.45
2902.34727	16702.75
2904.83604	16717.75
2907.32328	16750.05
2909.809	16775.05
2912.29319	16762.05
2914.77587	16767.45
2917.25702	16792.35
2919.73665	16769.45
2922.21476	16744.75
2924.69136	16756.95
2927.16644	16764.55
2929.64	16757.15
2932.11205	16712.15
2934.58258	16667.75
2937.05161	16694.55
2939.51912	16698.25
2941.98513	16662.15
2944.44962	16634.45
2946.91261	16561.95
2949.37409	16600.35
2951.83407	16564.45
2954.29254	16588.05
2956.74951	16517.65
2959.20498	16541.95
2961.65895	16499.25
2964.11142	16502.45
2966.56239	16476.15
2969.01186	16476.55
2971.45984	16451.35
2973.90632	16456.95
2976.35131	16426.15
2978.7948	16378.25
2981.23681	16298.15
2983.67732	16294.65
2986.11635	16239.75
2988.55388	16178.65
2990.98993	16181.35
2993.4245	16110.55
2995.85758	16065.55
2998.28917	16008.65
3000.71928	15985.35
3003.14791	15965.55
3005.57506	15974.95
3008.00073	15904.45
3010.42493	15785.15
3012.84764	15834.35
3015.26888	15817.85
3017.68865	15764.45
3020.10694	15759.05
3022.52376	15714.45
3024.9391	15701.35
3027.35298	15688.55
3029.76539	15690.05
3032.17632	15655.65
3034.5858	15612.95
3036.9938	15625.35
3039.40034	15630.95
3041.80542	15629.25
3044.20903	15616.25
3046.61118	15606.25
3049.01187	15552.35
3051.4111	15581.25
3053.80888	15539.15
3056.20519	15489.15
3058.60005	15464.95
3060.99345	15425.75
3063.3854	15377.45
3065.7759	15330.65
3068.16494	15273.15
3070.55254	15210.55
3072.93868	15180.25
3075.32338	15108.85
3077.70662	15081.55
3080.08842	15052.45
3082.46878	15053.45
3084.84769	15018.95
3087.22515	14978.55
3089.60118	14980.75
3091.97576	14986.65
3094.3489	14960.35
3096.72061	14950.15
3099.09087	14931.35
3101.4597	14975.35
3103.82709	14952.25
3106.19305	14925.65
3108.55757	14880.75
3110.92066	14829.75
3113.28232	14847.65
3115.64255	14802.45
3118.00134	14812.15
3120.35871	14784.05
3122.71466	14733.55
3125.06917	14708.15
3127.42226	14635.35
3129.77393	14620.75
3132.12417	14596.35
3134.47299	14609.45
3136.82039	14577.95
3139.16636	14599.85
3141.51092	14532.15
3143.85406	14519.55
3146.19579	14561.35
3148.53609	14549.15
3150.87499	14557.25
3153.21246	14542.15
3155.54853	14557.55
3157.88318	14531.65
3160.21642	14539.75
3162.54826	14558.25
3164.87868	14548.15
3167.2077	14531.45
3169.5353	14542.65
3171.86151	14534.85
3174.18631	14507.85
3176.5097	14497.85
3178.83169	14457.85
3181.15228	14456.65
3183.47147	14446.95
3185.78926	14425.35
3188.10565	14404.25
3190.42065	14402.55
3192.73424	14357.65
3195.04645	14343.75
3197.35725	14329.85
3199.66667	14289.55
3201.97469	14338.05
3204.28132	14318.55
3206.58656	14334.55
3208.8904	14295.05
3211.19287	14315.05
3213.49394	14320.25
3215.79363	14306.45
3218.09193	14294.95
3220.38884	14286.65
3222.68438	14318.85
3224.97853	14244.85
3227.2713	14267.25
3229.56269	14248.55
3231.8527	14283.65
3234.14133	14203.45
3236.42858	14203.65
3238.71446	14223.05
3240.99896	14183.75
3243.28209	14170.55
3245.56384	14122.15
3247.84423	14147.45
3250.12324	14116.15
3252.40088	14044.95
3254.67715	14046.05
3256.95205	14014.05
3259.22558	14004.95
3261.49775	13992.95
3263.76855	13999.25
3266.03799	13946.65
3268.30606	13917.15
3270.57277	13890.85
3272.83812	13856.55
3275.10211	13815.95
3277.36474	13809.65
3279.62601	13843.65
3281.88593	13807.75
3284.14448	13827.65
3286.40168	13840.75
3288.65753	13842.05
3290.91202	13807.85
3293.16516	13770.55
3295.41695	13757.85
3297.66738	13700.35
3299.91647	13616.75
3302.16421	13523.25
3304.4106	13464.05
3306.65564	13342.85
3308.89933	13256.95
3311.14169	13189.05
3313.38269	13067.35
3315.62236	12961.25
3317.86068	12851.15
3320.09766	12763.05
3322.3333	12676.35
3324.5676	12609.85
3326.80056	12386.35
3329.03219	12333.25
3331.26248	4.45
3333.49143	0.05
3335.71905	-1.25
