Data from AgNPs_FTO_APTES_UA_5uM_CRN_1uM_R6G_10uM_NaF_0.1M_Addition_RamanShift__24__10-45-16-596.txt Node

Date: Mon Feb 07 10:45:16 GMT 2022
User: TCL
Spectrometer: QEP01345
Trigger mode: 4
Integration Time (sec): 7.000000E0
Scans to average: 10
Electric dark correction enabled: true
Nonlinearity correction enabled: false
Boxcar width: 0
XAxis mode: Raman Shifts
Number of Pixels in Spectrum: 1044
>>>>>Begin Spectral Data<<<<<
46.04893	-1.05
50.45542	-1.35
54.85868	-0.85
59.25871	0.75
63.6555	94.35
68.04907	99.75
72.43941	105.15
76.82654	111.25
81.21044	114.55
85.59113	117.35
89.96862	126.05
94.34289	123.15
98.71396	130.05
103.08183	133.45
107.4465	139.35
111.80798	146.25
116.16626	144.55
120.52136	155.55
124.87327	158.15
129.222	166.15
133.56755	185.65
137.90993	201.65
142.24913	222.05
146.58517	246.45
150.91804	290.75
155.24774	344.25
159.57429	438.75
163.89768	564.25
168.21792	759.25
172.53501	1036.95
176.84895	1437.85
181.15975	2025.15
185.46741	2835.85
189.77193	3909.95
194.07331	5232.35
198.37157	6739.45
202.6667	8298.15
206.9587	9873.05
211.24758	11436.05
215.53334	13038.75
219.81599	14803.75
224.09553	16763.05
228.37195	18951.65
232.64527	21303.85
236.91549	23725.65
241.18261	26065.65
245.44663	28140.55
249.70755	29920.35
253.96539	31420.35
258.22014	32740.65
262.4718	33933.55
266.72039	34850.75
270.96589	35370.85
275.20832	35554.75
279.44768	35449.35
283.68397	35261.05
287.91719	35147.85
292.14735	35187.95
296.37445	35356.55
300.59849	35756.25
304.81948	36360.65
309.03742	36609.95
313.25231	36212.45
317.46415	34902.35
321.67296	33003.85
325.87872	31436.55
330.08145	30630.95
334.28114	30446.55
338.47781	30751.65
342.67145	31286.55
346.86207	32105.75
351.04966	33189.75
355.23424	34464.95
359.4158	35523.05
363.59435	36068.95
367.76989	36301.45
371.94243	36265.75
376.11196	36250.05
380.27849	36210.15
384.44203	36150.45
388.60257	36115.15
392.76012	36290.95
396.91468	36806.15
401.06626	37712.85
405.21485	38380.95
409.36047	38086.35
413.50311	37007.65
417.64277	36004.85
421.77947	35746.65
425.9132	35734.35
430.04396	35957.35
434.17176	36111.55
438.2966	36343.35
442.41849	36925.15
446.53742	37961.45
450.6534	39263.65
454.76644	40255.75
458.87653	40606.85
462.98368	40420.95
467.08789	39815.15
471.18916	39053.95
475.2875	38305.35
479.38291	37943.45
483.4754	37723.75
487.56496	37446.85
491.6516	36884.95
495.73531	36337.25
499.81612	36049.35
503.89401	36142.75
507.96899	36232.85
512.04106	36187.95
516.11023	35947.45
520.1765	35603.05
524.23987	35173.55
528.30034	34613.95
532.35792	33964.45
536.41261	33341.55
540.46441	32717.15
544.51333	32595.95
548.55936	33135.85
552.60252	34238.05
556.64279	35397.25
560.6802	36009.55
564.71473	36489.85
568.7464	37670.55
572.7752	39045.75
576.80114	39555.55
580.82422	39839.65
584.84444	40179.65
588.86181	40482.75
592.87633	41037.65
596.888	41559.65
600.89682	42048.25
604.9028	44261.25
608.90594	50878.45
612.90624	58899.75
616.90371	55610.15
620.89834	42475.45
624.89015	36395.45
628.87913	35616.65
632.86528	35648.85
636.84862	35438.95
640.82913	34527.55
644.80683	32993.35
648.78172	31821.65
652.75379	31595.35
656.72306	32343.65
660.68952	33505.75
664.65319	33482.45
668.61405	32507.45
672.57211	31999.15
676.52738	31891.95
680.47986	31862.15
684.42955	31612.75
688.37646	31441.95
692.32058	31628.15
696.26192	32036.25
700.20048	32520.05
704.13626	32927.85
708.06928	32899.45
711.99952	32578.15
715.927	32351.05
719.85171	32374.65
723.77365	32199.85
727.69284	31667.55
731.60928	31229.85
735.52295	31142.05
739.43388	31269.65
743.34206	31434.75
747.24749	31759.35
751.15017	32182.15
755.05012	32980.75
758.94733	34481.05
762.8418	37365.95
766.73354	42167.15
770.62254	46976.75
774.50882	48371.85
778.39237	45360.65
782.27321	40359.75
786.15132	35948.05
790.02671	33331.45
793.89938	32113.95
797.76935	31652.65
801.6366	31511.45
805.50115	31324.35
809.36299	31084.65
813.22213	30810.35
817.07857	30703.75
820.93231	30703.35
824.78336	30604.25
828.63172	30568.95
832.47738	30646.95
836.32036	30712.85
840.16066	30750.25
843.99827	30934.35
847.8332	30867.65
851.66546	30670.05
855.49504	30513.15
859.32195	30440.95
863.1462	30200.75
866.96777	29993.85
870.78668	29812.45
874.60293	29757.05
878.41652	29781.55
882.22745	29917.15
886.03573	30052.65
889.84136	29994.05
893.64433	29837.65
897.44466	29688.15
901.24235	29608.15
905.0374	29525.15
908.8298	29395.75
912.61957	29468.75
916.40671	29854.65
920.19121	30549.85
923.97308	31260.65
927.75233	31632.15
931.52895	31663.35
935.30295	31062.05
939.07433	30019.25
942.84309	29266.45
946.60924	28911.35
950.37278	28774.35
954.13371	28544.45
957.89203	28260.85
961.64774	28150.55
965.40086	28091.95
969.15137	27993.75
972.89929	27839.65
976.64461	27772.85
980.38733	27872.45
984.12747	27992.25
987.86502	28355.05
991.59999	28871.35
995.33237	29734.55
999.06217	31175.25
1002.78939	32916.55
1006.51404	34130.05
1010.23611	34705.55
1013.95561	35029.55
1017.67255	34983.95
1021.38692	34366.15
1025.09872	33986.95
1028.80796	34653.35
1032.51465	36431.85
1036.21877	38045.45
1039.92035	38154.35
1043.61937	37221.15
1047.31584	35532.35
1051.00976	33870.35
1054.70114	32850.75
1058.38998	32575.95
1062.07627	32675.05
1065.76003	32879.65
1069.44126	33179.05
1073.11995	33688.75
1076.79611	34314.55
1080.46974	34571.65
1084.14085	35008.65
1087.80943	35718.05
1091.47549	36150.45
1095.13903	35966.25
1098.80005	35071.45
1102.45857	33899.25
1106.11456	32991.65
1109.76805	32710.25
1113.41903	32933.95
1117.06751	33422.35
1120.71348	34152.95
1124.35696	34930.35
1127.99793	35736.45
1131.63641	36013.75
1135.2724	35487.25
1138.90589	34726.35
1142.5369	34270.45
1146.16542	34011.65
1149.79145	34030.45
1153.415	34340.85
1157.03607	34951.85
1160.65467	35998.75
1164.27079	37719.75
1167.88443	40289.95
1171.49561	43872.85
1175.10432	49067.35
1178.71056	55500.65
1182.31434	61293.05
1185.91565	64200.15
1189.51451	64095.05
1193.11091	61182.65
1196.70485	57031.65
1200.29634	53136.45
1203.88538	50206.95
1207.47197	47903.45
1211.05612	46062.95
1214.63782	44816.85
1218.21708	44339.45
1221.79391	44363.15
1225.36829	44543.05
1228.94024	44171.45
1232.50976	43253.75
1236.07685	42513.65
1239.6415	42043.75
1243.20374	41811.95
1246.76355	41931.35
1250.32093	42621.55
1253.8759	44006.65
1257.42845	45774.95
1260.97859	47574.65
1264.52631	49217.15
1268.07163	50891.35
1271.61453	52813.65
1275.15503	55047.25
1278.69312	57252.45
1282.22882	59035.05
1285.76211	60816.75
1289.29301	62706.05
1292.82151	65024.05
1296.34761	68185.35
1299.87133	72441.45
1303.39266	78053.85
1306.9116	85080.95
1310.42815	92292.85
1313.94233	96936.05
1317.45412	96896.05
1320.96354	93949.85
1324.47058	90228.65
1327.97525	86802.65
1331.47754	84567.25
1334.97747	83218.05
1338.47502	82762.55
1341.97022	82433.15
1345.46305	81519.75
1348.95352	80169.05
1352.44163	79641.65
1355.92738	81448.85
1359.41078	87109.25
1362.89183	93456.55
1366.37053	92573.65
1369.84688	83342.15
1373.32088	72288.95
1376.79254	64490.35
1380.26186	60864.65
1383.72883	59675.95
1387.19347	58978.65
1390.65578	58312.35
1394.11575	58189.05
1397.57339	59064.65
1401.0287	60689.75
1404.48168	62157.05
1407.93234	63080.45
1411.38068	62795.45
1414.82669	61096.85
1418.27039	58221.95
1421.71177	55087.05
1425.15083	52410.95
1428.58758	50934.05
1432.02203	50847.65
1435.45416	51681.95
1438.88399	52737.75
1442.31151	53867.25
1445.73673	54838.35
1449.15965	55892.25
1452.58027	56627.95
1455.9986	56848.25
1459.41463	57182.75
1462.82837	58022.25
1466.23982	59222.15
1469.64898	60451.15
1473.05586	61100.05
1476.46045	61242.35
1479.86276	61139.35
1483.26279	61148.35
1486.66054	61329.95
1490.05602	61938.85
1493.44922	62959.95
1496.84016	64202.65
1500.22882	66157.45
1503.61521	69212.25
1506.99934	73275.15
1510.38121	77574.85
1513.76081	79739.85
1517.13816	78042.15
1520.51324	73247.85
1523.88607	68224.85
1527.25665	64541.75
1530.62498	62397.95
1533.99105	61030.95
1537.35488	60009.05
1540.71647	59133.75
1544.07581	58097.55
1547.4329	56876.75
1550.78776	55713.95
1554.14038	55039.85
1557.49077	54865.65
1560.83892	55001.55
1564.18484	55272.35
1567.52853	55542.35
1570.86999	55716.55
1574.20922	56195.65
1577.54624	56621.95
1580.88103	56147.65
1584.2136	55729.55
1587.54395	57102.35
1590.87208	60545.75
1594.19801	65435.25
1597.52172	70576.75
1600.84321	72429.25
1604.16251	69017.95
1607.47959	62434.35
1610.79447	55493.95
1614.10715	49434.75
1617.41763	44712.45
1620.7259	41650.35
1624.03199	40159.75
1627.33587	40259.45
1630.63757	41904.85
1633.93707	45104.55
1637.23439	50047.95
1640.52951	56670.85
1643.82246	64135.65
1647.11321	70497.45
1650.40179	72776.65
1653.68819	68463.75
1656.97241	59005.35
1660.25446	48810.05
1663.53433	41111.85
1666.81203	36143.55
1670.08756	33125.25
1673.36092	31229.15
1676.63211	30050.35
1679.90115	29270.45
1683.16801	28615.55
1686.43272	28173.85
1689.69527	27896.05
1692.95567	27656.95
1696.2139	27512.95
1699.46999	27428.45
1702.72392	27306.95
1705.97571	27222.75
1709.22535	27155.85
1712.47284	27070.05
1715.71819	27019.45
1718.96139	26947.45
1722.20246	26821.85
1725.44139	26729.05
1728.67818	26530.45
1731.91284	26334.25
1735.14537	26145.65
1738.37576	26024.75
1741.60403	25912.65
1744.83017	25794.95
1748.05418	25713.95
1751.27607	25659.15
1754.49584	25597.65
1757.71349	25548.65
1760.92903	25503.95
1764.14244	25511.35
1767.35375	25539.65
1770.56294	25473.15
1773.77002	25383.55
1776.97499	25325.55
1780.17785	25296.55
1783.37861	25283.15
1786.57727	25230.75
1789.77382	25184.75
1792.96828	25129.45
1796.16064	25073.35
1799.3509	25063.85
1802.53907	25033.15
1805.72514	24911.35
1808.90913	24839.45
1812.09102	24824.65
1815.27083	24749.45
1818.44856	24763.25
1821.6242	24685.65
1824.79776	24637.75
1827.96924	24618.75
1831.13864	24599.65
1834.30597	24648.75
1837.47122	24631.55
1840.6344	24603.55
1843.7955	24665.65
1846.95454	24693.15
1850.11151	24689.25
1853.26642	24667.55
1856.41926	24732.15
1859.57004	24726.65
1862.71876	24741.25
1865.86542	24755.45
1869.01003	24730.95
1872.15258	24735.75
1875.29308	24809.95
1878.43152	24782.95
1881.56792	24808.85
1884.70227	24884.15
1887.83457	24885.95
1890.96482	24866.65
1894.09304	24883.55
1897.21921	24904.35
1900.34335	24907.35
1903.46544	24887.35
1906.58551	24930.05
1909.70353	24878.65
1912.81953	24847.75
1915.93349	24832.15
1919.04543	24790.55
1922.15534	24728.45
1925.26322	24681.55
1928.36908	24567.75
1931.47292	24442.75
1934.57473	24363.05
1937.67453	24202.85
1940.77232	24059.85
1943.86808	23956.85
1946.96184	23817.65
1950.05358	23749.25
1953.14331	23642.35
1956.23103	23547.25
1959.31675	23449.15
1962.40046	23394.75
1965.48217	23364.15
1968.56188	23285.35
1971.63959	23183.15
1974.7153	23125.55
1977.78901	23071.75
1980.86073	22979.05
1983.93046	22904.65
1986.99819	22849.15
1990.06394	22709.75
1993.1277	22708.75
1996.18947	22591.05
1999.24925	22513.65
2002.30706	22436.05
2005.36288	22364.25
2008.41672	22329.35
2011.46859	22237.65
2014.51848	22177.25
2017.56639	22145.25
2020.61233	22087.15
2023.6563	22010.65
2026.6983	21988.65
2029.73833	21988.25
2032.7764	21938.65
2035.8125	21892.25
2038.84664	21869.25
2041.87881	21889.65
2044.90903	21838.65
2047.93729	21797.65
2050.96359	21759.35
2053.98794	21730.55
2057.01034	21735.95
2060.03078	21715.85
2063.04927	21720.05
2066.06582	21670.95
2069.08042	21668.75
2072.09307	21604.15
2075.10378	21573.75
2078.11255	21560.15
2081.11938	21530.05
2084.12426	21504.15
2087.12722	21472.65
2090.12824	21452.85
2093.12732	21431.45
2096.12447	21442.05
2099.11969	21478.15
2102.11299	21458.55
2105.10435	21443.45
2108.09379	21459.55
2111.08131	21454.95
2114.0669	21457.45
2117.05057	21491.65
2120.03233	21486.15
2123.01216	21509.45
2125.99008	21536.65
2128.96609	21578.35
2131.94018	21530.05
2134.91236	21577.45
2137.88263	21594.05
2140.851	21591.85
2143.81746	21620.05
2146.78201	21623.25
2149.74466	21578.85
2152.7054	21596.25
2155.66425	21557.15
2158.6212	21553.95
2161.57625	21546.35
2164.52941	21511.95
2167.48067	21533.45
2170.43004	21552.65
2173.37752	21484.05
2176.32311	21503.95
2179.26681	21510.05
2182.20863	21521.35
2185.14856	21554.35
2188.08661	21568.95
2191.02278	21584.35
2193.95707	21581.75
2196.88948	21543.25
2199.82001	21505.35
2202.74867	21502.05
2205.67545	21518.35
2208.60037	21568.75
2211.52341	21528.55
2214.44458	21550.45
2217.36388	21509.35
2220.28132	21475.95
2223.1969	21442.85
2226.11061	21403.75
2229.02246	21372.85
2231.93245	21337.85
2234.84058	21235.45
2237.74686	21207.35
2240.65128	21210.75
2243.55385	21165.45
2246.45456	21135.25
2249.35343	21095.05
2252.25044	21098.35
2255.14561	21030.65
2258.03893	20987.55
2260.93041	20984.75
2263.82004	20935.65
2266.70783	20882.05
2269.59378	20783.05
2272.4779	20728.25
2275.36017	20685.35
2278.24061	20684.35
2281.11922	20627.65
2283.996	20633.05
2286.87094	20598.65
2289.74405	20621.25
2292.61534	20583.35
2295.4848	20552.75
2298.35243	20548.95
2301.21824	20553.55
2304.08223	20596.35
2306.94439	20651.85
2309.80474	20706.95
2312.66327	20753.35
2315.51999	20728.95
2318.37489	20708.85
2321.22797	20704.55
2324.07925	20724.75
2326.92871	20710.65
2329.77637	20673.75
2332.62222	20678.85
2335.46626	20684.55
2338.3085	20723.35
2341.14893	20741.25
2343.98756	20838.55
2346.8244	20858.05
2349.65943	20862.55
2352.49267	20853.35
2355.32411	20881.75
2358.15376	20835.65
2360.98161	20796.45
2363.80768	20744.55
2366.63195	20774.95
2369.45444	20716.25
2372.27514	20688.05
2375.09405	20595.75
2377.91118	20534.45
2380.72652	20467.95
2383.54009	20349.55
2386.35187	20359.55
2389.16188	20304.65
2391.97011	20286.75
2394.77657	20275.25
2397.58125	20213.05
2400.38416	20197.85
2403.18529	20183.85
2405.98466	20123.95
2408.78226	20026.35
2411.57809	20005.95
2414.37216	19974.95
2417.16446	19964.25
2419.955	19884.35
2422.74378	19877.85
2425.5308	19854.75
2428.31606	19840.25
2431.09956	19859.95
2433.88131	19841.55
2436.6613	19907.15
2439.43954	19909.15
2442.21603	19876.95
2444.99077	19854.55
2447.76377	19838.35
2450.53501	19842.05
2453.30451	19834.35
2456.07226	19833.85
2458.83827	19856.05
2461.60254	19844.65
2464.36507	19844.55
2467.12586	19820.75
2469.88492	19858.05
2472.64224	19857.45
2475.39782	19944.25
2478.15167	19928.75
2480.90379	19950.95
2483.65417	20028.45
2486.40283	20046.85
2489.14976	20078.55
2491.89497	20104.95
2494.63845	20130.95
2497.3802	20141.35
2500.12024	20139.15
2502.85855	20125.25
2505.59514	20076.15
2508.33002	20055.25
2511.06318	20022.35
2513.79462	19970.65
2516.52435	19951.75
2519.25237	19944.45
2521.97867	19909.85
2524.70327	19917.15
2527.42616	19884.05
2530.14734	19905.45
2532.86681	19898.45
2535.58458	19902.75
2538.30065	19881.85
2541.01501	19871.65
2543.72768	19887.05
2546.43864	19852.65
2549.14791	19829.25
2551.85548	19867.85
2554.56136	19834.05
2557.26554	19861.05
2559.96803	19800.45
2562.66883	19793.35
2565.36794	19768.95
2568.06536	19750.25
2570.7611	19749.05
2573.45514	19745.65
2576.14751	19754.75
2578.83819	19723.45
2581.52719	19766.95
2584.21451	19749.05
2586.90015	19805.85
2589.58411	19784.65
2592.2664	19791.65
2594.94701	19777.75
2597.62594	19780.25
2600.30321	19785.85
2602.9788	19777.45
2605.65273	19776.35
2608.32498	19825.95
2610.99557	19825.35
2613.66449	19871.05
2616.33175	19818.15
2618.99734	19908.05
2621.66128	19881.85
2624.32355	19874.75
2626.98416	19875.15
2629.64311	19879.75
2632.30041	19959.65
2634.95605	19925.45
2637.61004	19859.05
2640.26238	19839.05
2642.91306	19812.15
2645.56209	19784.75
2648.20948	19740.75
2650.85521	19700.25
2653.4993	19739.85
2656.14175	19732.35
2658.78255	19719.75
2661.42171	19750.05
2664.05923	19790.95
2666.6951	19791.05
2669.32934	19873.55
2671.96194	19869.25
2674.59291	19878.95
2677.22224	19894.55
2679.84993	19888.15
2682.476	19845.35
2685.10043	19812.65
2687.72324	19754.45
2690.34441	19710.65
2692.96396	19691.05
2695.58188	19682.25
2698.19818	19649.75
2700.81285	19685.15
2703.4259	19654.95
2706.03733	19724.75
2708.64714	19694.65
2711.25533	19669.75
2713.86191	19664.45
2716.46687	19687.05
2719.07021	19713.85
2721.67194	19764.95
2724.27206	19749.05
2726.87057	19752.95
2729.46747	19769.55
2732.06276	19783.45
2734.65644	19795.85
2737.24852	19764.45
2739.83899	19758.15
2742.42786	19779.85
2745.01513	19713.25
2747.60079	19689.05
2750.18486	19717.75
2752.76733	19713.45
2755.3482	19676.05
2757.92747	19684.15
2760.50515	19660.45
2763.08123	19664.05
2765.65573	19661.55
2768.22863	19686.85
2770.79994	19641.15
2773.36967	19656.45
2775.9378	19693.95
2778.50435	19684.15
2781.06932	19673.85
2783.6327	19729.05
2786.1945	19722.25
2788.75471	19743.05
2791.31335	19716.15
2793.87041	19657.75
2796.42589	19632.35
2798.97979	19615.35
2801.53212	19551.95
2804.08288	19533.45
2806.63206	19455.15
2809.17967	19491.15
2811.72571	19468.35
2814.27018	19426.05
2816.81308	19367.85
2819.35442	19363.25
2821.89419	19368.35
2824.43239	19400.35
2826.96904	19415.85
2829.50412	19451.75
2832.03763	19389.25
2834.56959	19381.45
2837.1	19356.25
2839.62884	19366.55
2842.15613	19344.75
2844.68186	19408.35
2847.20604	19415.85
2849.72867	19393.75
2852.24974	19428.15
2854.76927	19423.15
2857.28724	19417.95
2859.80367	19393.95
2862.31855	19362.05
2864.83189	19350.45
2867.34368	19325.35
2869.85393	19303.35
2872.36264	19287.45
2874.8698	19271.85
2877.37543	19324.95
2879.87952	19327.85
2882.38207	19314.25
2884.88308	19304.45
2887.38256	19307.45
2889.88051	19293.65
2892.37692	19323.35
2894.8718	19334.65
2897.36515	19363.55
2899.85698	19370.65
2902.34727	19401.25
2904.83604	19425.95
2907.32328	19532.05
2909.809	19494.15
2912.29319	19494.75
2914.77587	19516.25
2917.25702	19483.35
2919.73665	19458.25
2922.21476	19459.65
2924.69136	19399.65
2927.16644	19403.45
2929.64	19338.55
2932.11205	19277.95
2934.58258	19241.55
2937.05161	19208.75
2939.51912	19226.35
2941.98513	19169.45
2944.44962	19137.75
2946.91261	19087.75
2949.37409	19093.15
2951.83407	19041.45
2954.29254	19033.75
2956.74951	19016.25
2959.20498	18976.95
2961.65895	18962.75
2964.11142	18903.15
2966.56239	18883.25
2969.01186	18861.45
2971.45984	18837.95
2973.90632	18790.95
2976.35131	18753.25
2978.7948	18695.75
2981.23681	18649.65
2983.67732	18629.45
2986.11635	18587.75
2988.55388	18548.95
2990.98993	18490.85
2993.4245	18437.65
2995.85758	18362.25
2998.28917	18315.05
3000.71928	18304.15
3003.14791	18241.05
3005.57506	18207.95
3008.00073	18162.15
3010.42493	18145.35
3012.84764	18104.75
3015.26888	18124.95
3017.68865	18050.15
3020.10694	18025.35
3022.52376	17976.25
3024.9391	17961.05
3027.35298	17910.85
3029.76539	17953.75
3032.17632	17923.25
3034.5858	17863.75
3036.9938	17852.45
3039.40034	17809.05
3041.80542	17845.65
3044.20903	17797.95
3046.61118	17825.55
3049.01187	17750.65
3051.4111	17747.55
3053.80888	17688.55
3056.20519	17688.95
3058.60005	17602.45
3060.99345	17540.95
3063.3854	17477.15
3065.7759	17455.75
3068.16494	17378.75
3070.55254	17328.15
3072.93868	17288.75
3075.32338	17238.75
3077.70662	17200.25
3080.08842	17131.65
3082.46878	17110.05
3084.84769	17050.45
3087.22515	17055.25
3089.60118	17062.95
3091.97576	17045.25
3094.3489	17049.05
3096.72061	17071.85
3099.09087	17026.05
3101.4597	17000.25
3103.82709	17030.85
3106.19305	16964.05
3108.55757	16921.45
3110.92066	16900.95
3113.28232	16888.55
3115.64255	16823.65
3118.00134	16747.85
3120.35871	16775.85
3122.71466	16743.65
3125.06917	16685.95
3127.42226	16639.55
3129.77393	16628.65
3132.12417	16575.15
3134.47299	16571.75
3136.82039	16567.25
3139.16636	16558.85
3141.51092	16581.65
3143.85406	16570.45
3146.19579	16565.15
3148.53609	16524.15
3150.87499	16550.95
3153.21246	16485.75
3155.54853	16532.95
3157.88318	16534.05
3160.21642	16573.25
3162.54826	16544.65
3164.87868	16553.05
3167.2077	16507.05
3169.5353	16509.35
3171.86151	16513.15
3174.18631	16484.35
3176.5097	16482.55
3178.83169	16438.65
3181.15228	16449.55
3183.47147	16429.85
3185.78926	16425.75
3188.10565	16388.55
3190.42065	16417.05
3192.73424	16390.35
3195.04645	16376.15
3197.35725	16383.25
3199.66667	16358.05
3201.97469	16363.55
3204.28132	16366.95
3206.58656	16366.25
3208.8904	16343.85
3211.19287	16368.15
3213.49394	16389.25
3215.79363	16395.05
3218.09193	16356.75
3220.38884	16384.15
3222.68438	16390.55
3224.97853	16389.35
3227.2713	16361.15
3229.56269	16343.05
3231.8527	16373.85
3234.14133	16295.65
3236.42858	16271.35
3238.71446	16269.25
3240.99896	16240.35
3243.28209	16255.15
3245.56384	16231.35
3247.84423	16236.05
3250.12324	16156.85
3252.40088	16118.95
3254.67715	16143.25
3256.95205	16113.75
3259.22558	16125.55
3261.49775	16088.95
3263.76855	16065.35
3266.03799	16011.15
3268.30606	16010.55
3270.57277	15975.15
3272.83812	15954.65
3275.10211	15907.65
3277.36474	15920.75
3279.62601	15891.25
3281.88593	15871.15
3284.14448	15863.45
3286.40168	15896.55
3288.65753	15870.45
3290.91202	15815.25
3293.16516	15815.75
3295.41695	15782.95
3297.66738	15716.85
3299.91647	15626.15
3302.16421	15551.55
3304.4106	15462.55
3306.65564	15348.85
3308.89933	15259.35
3311.14169	15130.25
3313.38269	15018.65
3315.62236	14954.85
3317.86068	14799.55
3320.09766	14684.55
3322.3333	14553.35
3324.5676	14500.55
3326.80056	14281.55
3329.03219	14222.95
3331.26248	4.45
3333.49143	-1.55
3335.71905	-0.95
