Data from AgNPs_FTO_APTES_UA_5uM_CRN_20uM_R6G_10uM_NaF_0.1M_Addition_RamanShift__29__13-36-46-794.txt Node

Date: Mon Feb 07 13:36:46 GMT 2022
User: TCL
Spectrometer: QEP01345
Trigger mode: 4
Integration Time (sec): 7.000000E0
Scans to average: 10
Electric dark correction enabled: true
Nonlinearity correction enabled: false
Boxcar width: 0
XAxis mode: Raman Shifts
Number of Pixels in Spectrum: 1044
>>>>>Begin Spectral Data<<<<<
46.04893	-0.45
50.45542	-0.25
54.85868	0.05
59.25871	0.75
63.6555	53.15
68.04907	56.15
72.43941	57.95
76.82654	63.25
81.21044	64.75
85.59113	67.45
89.96862	71.55
94.34289	71.55
98.71396	72.65
103.08183	75.25
107.4465	79.25
111.80798	79.45
116.16626	83.85
120.52136	86.45
124.87327	91.65
129.222	98.15
133.56755	103.55
137.90993	113.05
142.24913	118.65
146.58517	139.25
150.91804	156.05
155.24774	192.75
159.57429	239.15
163.89768	311.55
168.21792	421.85
172.53501	568.35
176.84895	789.55
181.15975	1105.15
185.46741	1546.15
189.77193	2145.05
194.07331	2861.15
198.37157	3680.65
202.6667	4544.15
206.9587	5401.35
211.24758	6259.85
215.53334	7151.25
219.81599	8154.35
224.09553	9311.65
228.37195	10561.85
232.64527	11923.25
236.91549	13270.15
241.18261	14578.25
245.44663	15608.15
249.70755	16494.85
253.96539	17219.35
258.22014	17886.45
262.4718	18474.75
266.72039	18955.65
270.96589	19275.95
275.20832	19423.05
279.44768	19433.65
283.68397	19370.05
287.91719	19395.85
292.14735	19604.65
296.37445	20010.15
300.59849	20553.25
304.81948	21133.55
309.03742	21525.35
313.25231	21305.25
317.46415	20301.55
321.67296	18746.15
325.87872	17431.85
330.08145	16779.35
334.28114	16655.75
338.47781	16913.65
342.67145	17371.85
346.86207	18064.25
351.04966	19043.25
355.23424	20179.95
359.4158	20991.25
363.59435	21304.55
367.76989	21306.05
371.94243	21165.85
376.11196	20938.75
380.27849	20763.05
384.44203	20538.75
388.60257	20279.75
392.76012	20234.45
396.91468	20498.15
401.06626	21145.05
405.21485	21579.65
409.36047	21260.15
413.50311	20218.85
417.64277	19212.55
421.77947	18670.85
425.9132	18498.55
430.04396	18500.65
434.17176	18580.45
438.2966	18811.55
442.41849	19130.25
446.53742	19651.65
450.6534	20227.65
454.76644	20595.75
458.87653	20626.75
462.98368	20496.15
467.08789	20230.45
471.18916	19843.45
475.2875	19441.05
479.38291	19102.25
483.4754	18826.45
487.56496	18519.25
491.6516	18317.05
495.73531	18222.35
499.81612	18306.95
503.89401	18519.25
507.96899	18699.35
512.04106	18860.45
516.11023	18998.45
520.1765	19069.55
524.23987	18899.05
528.30034	18517.65
532.35792	18090.55
536.41261	17722.25
540.46441	17394.55
544.51333	17299.75
548.55936	17610.75
552.60252	18174.45
556.64279	18764.15
560.6802	19063.25
564.71473	19320.65
568.7464	20100.15
572.7752	20715.65
576.80114	20389.65
580.82422	19889.75
584.84444	19669.85
588.86181	19493.75
592.87633	19368.15
596.888	19477.15
600.89682	20126.75
604.9028	22241.15
608.90594	27948.85
612.90624	35553.75
616.90371	34179.45
620.89834	23946.45
624.89015	19109.45
628.87913	18219.65
632.86528	18337.95
636.84862	18570.05
640.82913	18256.65
644.80683	17415.75
648.78172	16824.35
652.75379	16838.55
656.72306	17550.65
660.68952	18469.85
664.65319	18369.45
668.61405	17529.85
672.57211	17040.35
676.52738	17008.15
680.47986	16985.65
684.42955	16828.75
688.37646	16777.35
692.32058	16827.95
696.26192	17048.15
700.20048	17298.95
704.13626	17576.25
708.06928	17597.05
711.99952	17467.65
715.927	17312.15
719.85171	17348.45
723.77365	17231.05
727.69284	16968.95
731.60928	16743.05
735.52295	16687.35
739.43388	16733.85
743.34206	16823.25
747.24749	16937.05
751.15017	17200.25
755.05012	17617.45
758.94733	18605.95
762.8418	20766.55
766.73354	24466.65
770.62254	28192.55
774.50882	29574.15
778.39237	27804.45
782.27321	23930.85
786.15132	20303.95
790.02671	18272.55
793.89938	17322.75
797.76935	16859.55
801.6366	16683.55
805.50115	16552.35
809.36299	16424.65
813.22213	16360.45
817.07857	16306.95
820.93231	16295.05
824.78336	16376.05
828.63172	16460.85
832.47738	16465.65
836.32036	16419.75
840.16066	16328.95
843.99827	16301.75
847.8332	16169.55
851.66546	16167.35
855.49504	16137.25
859.32195	16053.85
863.1462	15970.35
866.96777	15872.85
870.78668	15855.95
874.60293	15895.35
878.41652	15881.05
882.22745	16006.15
886.03573	16086.25
889.84136	16010.05
893.64433	15943.65
897.44466	15915.95
901.24235	15905.65
905.0374	15903.15
908.8298	15864.85
912.61957	15932.45
916.40671	16035.15
920.19121	16333.65
923.97308	16471.45
927.75233	16521.85
931.52895	16544.05
935.30295	16313.45
939.07433	15806.15
942.84309	15392.95
946.60924	15103.85
950.37278	14997.35
954.13371	14874.25
957.89203	14856.05
961.64774	14805.65
965.40086	14716.65
969.15137	14728.95
972.89929	14633.45
976.64461	14596.45
980.38733	14591.45
984.12747	14644.35
987.86502	14702.85
991.59999	14820.75
995.33237	15020.95
999.06217	15400.95
1002.78939	15868.65
1006.51404	16289.05
1010.23611	16687.55
1013.95561	16926.55
1017.67255	16868.05
1021.38692	16581.35
1025.09872	16282.65
1028.80796	16145.45
1032.51465	16265.05
1036.21877	16541.65
1039.92035	16708.35
1043.61937	16754.75
1047.31584	16646.35
1051.00976	16565.15
1054.70114	16568.85
1058.38998	16652.45
1062.07627	16883.45
1065.76003	17105.35
1069.44126	17266.75
1073.11995	17481.75
1076.79611	17614.95
1080.46974	17790.55
1084.14085	18161.65
1087.80943	18611.75
1091.47549	18889.05
1095.13903	18661.65
1098.80005	18010.65
1102.45857	17404.55
1106.11456	16979.85
1109.76805	16891.45
1113.41903	17124.65
1117.06751	17632.05
1120.71348	18335.75
1124.35696	19111.15
1127.99793	19821.35
1131.63641	19775.85
1135.2724	18959.35
1138.90589	18162.15
1142.5369	17665.25
1146.16542	17389.95
1149.79145	17265.35
1153.415	17325.55
1157.03607	17589.25
1160.65467	18046.55
1164.27079	18817.65
1167.88443	19881.05
1171.49561	21687.85
1175.10432	24474.05
1178.71056	28026.75
1182.31434	30596.05
1185.91565	31191.05
1189.51451	30502.65
1193.11091	28831.75
1196.70485	26678.45
1200.29634	24929.85
1203.88538	23579.15
1207.47197	22142.85
1211.05612	20880.25
1214.63782	20150.85
1218.21708	19874.55
1221.79391	19887.55
1225.36829	20056.75
1228.94024	20234.75
1232.50976	20357.25
1236.07685	20412.55
1239.6415	20371.25
1243.20374	20279.35
1246.76355	20324.85
1250.32093	20581.85
1253.8759	21109.25
1257.42845	21815.55
1260.97859	22549.55
1264.52631	23260.35
1268.07163	23940.05
1271.61453	24613.45
1275.15503	25188.15
1278.69312	25558.45
1282.22882	25843.65
1285.76211	26471.55
1289.29301	27343.95
1292.82151	28198.45
1296.34761	29207.45
1299.87133	30676.05
1303.39266	32996.95
1306.9116	36568.55
1310.42815	40665.45
1313.94233	43482.85
1317.45412	43385.65
1320.96354	41247.65
1324.47058	38613.65
1327.97525	36303.45
1331.47754	34782.65
1334.97747	34045.55
1338.47502	34039.85
1341.97022	34545.85
1345.46305	35222.05
1348.95352	36239.75
1352.44163	37680.65
1355.92738	40427.35
1359.41078	45297.45
1362.89183	50352.05
1366.37053	49328.95
1369.84688	42429.85
1373.32088	35443.95
1376.79254	30988.35
1380.26186	28817.05
1383.72883	27808.85
1387.19347	27047.85
1390.65578	26275.65
1394.11575	25593.15
1397.57339	25364.85
1401.0287	25558.55
1404.48168	25879.35
1407.93234	26202.15
1411.38068	26238.85
1414.82669	25900.25
1418.27039	25092.95
1421.71177	24209.45
1425.15083	23445.35
1428.58758	22938.25
1432.02203	22857.15
1435.45416	23047.75
1438.88399	23216.65
1442.31151	23320.95
1445.73673	23544.65
1449.15965	23809.45
1452.58027	23933.25
1455.9986	23819.55
1459.41463	23921.25
1462.82837	24240.55
1466.23982	24677.05
1469.64898	25290.55
1473.05586	25606.55
1476.46045	25834.45
1479.86276	26197.55
1483.26279	26690.15
1486.66054	27289.85
1490.05602	28151.85
1493.44922	29322.15
1496.84016	30994.45
1500.22882	33688.25
1503.61521	37292.65
1506.99934	41410.75
1510.38121	45464.85
1513.76081	47722.15
1517.13816	46274.95
1520.51324	41629.05
1523.88607	36628.05
1527.25665	33033.85
1530.62498	30822.25
1533.99105	29419.35
1537.35488	28538.15
1540.71647	27868.75
1544.07581	27381.05
1547.4329	26893.85
1550.78776	26526.15
1554.14038	26325.35
1557.49077	26511.85
1560.83892	27045.65
1564.18484	27841.45
1567.52853	28563.35
1570.86999	29014.45
1574.20922	29254.65
1577.54624	29048.85
1580.88103	27821.15
1584.2136	26247.15
1587.54395	25593.85
1590.87208	26136.75
1594.19801	27716.85
1597.52172	29441.55
1600.84321	30159.55
1604.16251	28883.85
1607.47959	26744.05
1610.79447	24609.55
1614.10715	22579.75
1617.41763	20934.85
1620.7259	19880.85
1624.03199	19355.05
1627.33587	19288.45
1630.63757	19811.65
1633.93707	20899.45
1637.23439	22666.95
1640.52951	25061.15
1643.82246	28089.95
1647.11321	31449.25
1650.40179	33821.05
1653.68819	33076.65
1656.97241	28946.05
1660.25446	24069.25
1663.53433	20356.45
1666.81203	18075.05
1670.08756	16689.65
1673.36092	15876.45
1676.63211	15367.25
1679.90115	15000.05
1683.16801	14698.25
1686.43272	14529.35
1689.69527	14357.25
1692.95567	14244.75
1696.2139	14157.25
1699.46999	14109.25
1702.72392	14049.35
1705.97571	14017.15
1709.22535	13993.15
1712.47284	13996.25
1715.71819	13941.05
1718.96139	13948.75
1722.20246	13957.25
1725.44139	13894.35
1728.67818	13783.25
1731.91284	13673.05
1735.14537	13541.35
1738.37576	13450.45
1741.60403	13396.45
1744.83017	13356.75
1748.05418	13291.05
1751.27607	13289.55
1754.49584	13237.55
1757.71349	13242.15
1760.92903	13201.25
1764.14244	13199.55
1767.35375	13165.15
1770.56294	13125.95
1773.77002	13072.85
1776.97499	13038.55
1780.17785	12987.55
1783.37861	12972.85
1786.57727	12950.95
1789.77382	12889.65
1792.96828	12892.75
1796.16064	12890.95
1799.3509	12854.85
1802.53907	12822.75
1805.72514	12767.55
1808.90913	12749.25
1812.09102	12700.25
1815.27083	12678.55
1818.44856	12654.75
1821.6242	12619.95
1824.79776	12610.45
1827.96924	12569.15
1831.13864	12574.15
1834.30597	12556.25
1837.47122	12565.45
1840.6344	12542.75
1843.7955	12553.15
1846.95454	12540.05
1850.11151	12541.25
1853.26642	12522.75
1856.41926	12552.35
1859.57004	12572.95
1862.71876	12574.55
1865.86542	12561.95
1869.01003	12550.65
1872.15258	12548.95
1875.29308	12553.35
1878.43152	12576.05
1881.56792	12577.95
1884.70227	12594.15
1887.83457	12588.75
1890.96482	12608.95
1894.09304	12627.35
1897.21921	12636.75
1900.34335	12677.55
1903.46544	12650.55
1906.58551	12690.45
1909.70353	12695.75
1912.81953	12705.65
1915.93349	12713.25
1919.04543	12712.75
1922.15534	12679.85
1925.26322	12631.45
1928.36908	12555.55
1931.47292	12538.25
1934.57473	12431.05
1937.67453	12360.15
1940.77232	12248.35
1943.86808	12178.85
1946.96184	12124.55
1950.05358	12076.25
1953.14331	11992.25
1956.23103	11942.45
1959.31675	11867.35
1962.40046	11831.35
1965.48217	11804.65
1968.56188	11756.85
1971.63959	11744.05
1974.7153	11704.85
1977.78901	11664.85
1980.86073	11629.65
1983.93046	11555.45
1986.99819	11521.25
1990.06394	11470.15
1993.1277	11475.45
1996.18947	11376.45
1999.24925	11373.85
2002.30706	11349.45
2005.36288	11311.65
2008.41672	11278.75
2011.46859	11253.35
2014.51848	11216.15
2017.56639	11173.55
2020.61233	11143.15
2023.6563	11098.75
2026.6983	11085.85
2029.73833	11031.75
2032.7764	10990.95
2035.8125	10972.25
2038.84664	10940.65
2041.87881	10934.05
2044.90903	10921.05
2047.93729	10906.25
2050.96359	10885.85
2053.98794	10837.45
2057.01034	10844.25
2060.03078	10838.75
2063.04927	10803.25
2066.06582	10830.15
2069.08042	10797.55
2072.09307	10791.45
2075.10378	10778.35
2078.11255	10733.35
2081.11938	10747.05
2084.12426	10730.85
2087.12722	10738.05
2090.12824	10715.35
2093.12732	10727.25
2096.12447	10726.75
2099.11969	10736.35
2102.11299	10706.85
2105.10435	10699.05
2108.09379	10674.45
2111.08131	10734.55
2114.0669	10732.35
2117.05057	10740.35
2120.03233	10762.65
2123.01216	10756.75
2125.99008	10766.05
2128.96609	10756.85
2131.94018	10762.05
2134.91236	10782.05
2137.88263	10786.55
2140.851	10802.05
2143.81746	10789.25
2146.78201	10762.25
2149.74466	10733.95
2152.7054	10772.15
2155.66425	10730.15
2158.6212	10728.65
2161.57625	10709.25
2164.52941	10688.95
2167.48067	10688.75
2170.43004	10723.85
2173.37752	10691.45
2176.32311	10669.65
2179.26681	10698.35
2182.20863	10708.65
2185.14856	10690.25
2188.08661	10689.65
2191.02278	10703.55
2193.95707	10703.15
2196.88948	10678.05
2199.82001	10648.15
2202.74867	10628.65
2205.67545	10636.85
2208.60037	10617.95
2211.52341	10576.35
2214.44458	10564.75
2217.36388	10562.55
2220.28132	10565.15
2223.1969	10516.65
2226.11061	10474.75
2229.02246	10465.95
2231.93245	10433.15
2234.84058	10383.15
2237.74686	10374.05
2240.65128	10389.65
2243.55385	10361.75
2246.45456	10352.05
2249.35343	10336.35
2252.25044	10340.25
2255.14561	10320.95
2258.03893	10318.75
2260.93041	10316.95
2263.82004	10307.55
2266.70783	10303.05
2269.59378	10235.25
2272.4779	10200.25
2275.36017	10188.35
2278.24061	10142.25
2281.11922	10142.25
2283.996	10118.45
2286.87094	10104.95
2289.74405	10063.45
2292.61534	10059.85
2295.4848	10036.25
2298.35243	10033.65
2301.21824	10034.65
2304.08223	10036.05
2306.94439	10018.65
2309.80474	10021.95
2312.66327	10057.15
2315.51999	10021.55
2318.37489	10012.95
2321.22797	9975.85
2324.07925	9970.05
2326.92871	9948.45
2329.77637	9953.65
2332.62222	9926.35
2335.46626	9898.75
2338.3085	9934.35
2341.14893	9923.45
2343.98756	9920.15
2346.8244	9914.05
2349.65943	9933.05
2352.49267	9943.25
2355.32411	9973.45
2358.15376	9971.25
2360.98161	9974.35
2363.80768	9992.35
2366.63195	10010.65
2369.45444	9962.35
2372.27514	9952.05
2375.09405	9966.75
2377.91118	9926.05
2380.72652	9881.85
2383.54009	9847.45
2386.35187	9816.45
2389.16188	9746.55
2391.97011	9712.65
2394.77657	9714.55
2397.58125	9697.45
2400.38416	9669.75
2403.18529	9638.95
2405.98466	9620.05
2408.78226	9601.25
2411.57809	9605.55
2414.37216	9563.05
2417.16446	9561.75
2419.955	9555.75
2422.74378	9540.45
2425.5308	9528.75
2428.31606	9516.25
2431.09956	9500.55
2433.88131	9513.25
2436.6613	9528.85
2439.43954	9528.45
2442.21603	9520.25
2444.99077	9494.75
2447.76377	9500.45
2450.53501	9509.75
2453.30451	9489.55
2456.07226	9498.75
2458.83827	9503.65
2461.60254	9493.25
2464.36507	9489.75
2467.12586	9471.65
2469.88492	9456.35
2472.64224	9499.55
2475.39782	9525.35
2478.15167	9513.95
2480.90379	9489.85
2483.65417	9504.95
2486.40283	9545.55
2489.14976	9546.55
2491.89497	9564.25
2494.63845	9590.45
2497.3802	9584.85
2500.12024	9545.35
2502.85855	9553.75
2505.59514	9536.45
2508.33002	9497.25
2511.06318	9456.75
2513.79462	9432.65
2516.52435	9398.05
2519.25237	9392.95
2521.97867	9367.65
2524.70327	9353.45
2527.42616	9311.15
2530.14734	9319.45
2532.86681	9320.55
2535.58458	9320.15
2538.30065	9295.85
2541.01501	9296.35
2543.72768	9298.95
2546.43864	9296.95
2549.14791	9281.95
2551.85548	9280.05
2554.56136	9237.65
2557.26554	9238.75
2559.96803	9219.35
2562.66883	9208.75
2565.36794	9172.95
2568.06536	9170.85
2570.7611	9157.75
2573.45514	9146.55
2576.14751	9136.85
2578.83819	9128.15
2581.52719	9140.35
2584.21451	9119.95
2586.90015	9108.45
2589.58411	9104.05
2592.2664	9111.55
2594.94701	9091.45
2597.62594	9103.15
2600.30321	9067.05
2602.9788	9082.15
2605.65273	9072.55
2608.32498	9081.35
2610.99557	9056.35
2613.66449	9072.85
2616.33175	9065.05
2618.99734	9043.05
2621.66128	9038.35
2624.32355	9049.75
2626.98416	9028.85
2629.64311	9030.75
2632.30041	9014.45
2634.95605	9029.75
2637.61004	8995.25
2640.26238	8994.35
2642.91306	8963.55
2645.56209	8957.75
2648.20948	8962.55
2650.85521	8945.45
2653.4993	8968.25
2656.14175	8948.65
2658.78255	8966.15
2661.42171	8955.05
2664.05923	8987.85
2666.6951	8977.75
2669.32934	8988.65
2671.96194	9028.15
2674.59291	9025.65
2677.22224	9018.35
2679.84993	9024.95
2682.476	8992.35
2685.10043	8997.45
2687.72324	8983.75
2690.34441	8995.65
2692.96396	8969.45
2695.58188	8975.65
2698.19818	8984.05
2700.81285	8958.05
2703.4259	9002.95
2706.03733	9031.35
2708.64714	9006.65
2711.25533	8991.65
2713.86191	8975.35
2716.46687	9000.25
2719.07021	8988.45
2721.67194	9002.75
2724.27206	9013.05
2726.87057	9025.15
2729.46747	9002.35
2732.06276	9019.45
2734.65644	9001.45
2737.24852	8994.65
2739.83899	8969.65
2742.42786	8956.65
2745.01513	8935.85
2747.60079	8958.35
2750.18486	8900.55
2752.76733	8898.85
2755.3482	8885.65
2757.92747	8910.35
2760.50515	8885.05
2763.08123	8874.15
2765.65573	8878.85
2768.22863	8876.25
2770.79994	8835.15
2773.36967	8847.95
2775.9378	8837.25
2778.50435	8825.95
2781.06932	8845.25
2783.6327	8826.85
2786.1945	8839.05
2788.75471	8845.55
2791.31335	8811.15
2793.87041	8812.85
2796.42589	8788.65
2798.97979	8786.75
2801.53212	8753.95
2804.08288	8761.05
2806.63206	8733.45
2809.17967	8719.95
2811.72571	8716.05
2814.27018	8718.85
2816.81308	8713.15
2819.35442	8699.45
2821.89419	8723.15
2824.43239	8737.55
2826.96904	8721.35
2829.50412	8754.05
2832.03763	8727.95
2834.56959	8727.95
2837.1	8705.65
2839.62884	8744.65
2842.15613	8760.55
2844.68186	8816.65
2847.20604	8888.45
2849.72867	8936.15
2852.24974	8934.25
2854.76927	8957.55
2857.28724	8946.45
2859.80367	8906.35
2862.31855	8896.45
2864.83189	8861.25
2867.34368	8848.95
2869.85393	8845.75
2872.36264	8866.55
2874.8698	8819.95
2877.37543	8818.75
2879.87952	8814.35
2882.38207	8805.05
2884.88308	8796.85
2887.38256	8773.35
2889.88051	8785.25
2892.37692	8774.95
2894.8718	8762.25
2897.36515	8790.85
2899.85698	8782.55
2902.34727	8820.35
2904.83604	8819.55
2907.32328	8854.75
2909.809	8830.75
2912.29319	8822.35
2914.77587	8828.85
2917.25702	8827.15
2919.73665	8824.65
2922.21476	8808.95
2924.69136	8773.55
2927.16644	8792.75
2929.64	8767.95
2932.11205	8727.45
2934.58258	8691.35
2937.05161	8673.85
2939.51912	8668.05
2941.98513	8633.55
2944.44962	8602.05
2946.91261	8542.15
2949.37409	8505.25
2951.83407	8504.85
2954.29254	8471.65
2956.74951	8440.85
2959.20498	8453.75
2961.65895	8427.55
2964.11142	8408.55
2966.56239	8393.55
2969.01186	8393.85
2971.45984	8354.25
2973.90632	8339.95
2976.35131	8331.75
2978.7948	8317.55
2981.23681	8277.55
2983.67732	8266.75
2986.11635	8240.95
2988.55388	8213.55
2990.98993	8191.85
2993.4245	8157.05
2995.85758	8136.15
2998.28917	8122.55
3000.71928	8091.75
3003.14791	8098.05
3005.57506	8097.45
3008.00073	8050.55
3010.42493	7959.65
3012.84764	8040.45
3015.26888	8034.75
3017.68865	8017.65
3020.10694	8001.55
3022.52376	7992.55
3024.9391	7977.85
3027.35298	7971.95
3029.76539	7948.25
3032.17632	7912.65
3034.5858	7902.25
3036.9938	7911.15
3039.40034	7896.25
3041.80542	7880.65
3044.20903	7862.15
3046.61118	7850.95
3049.01187	7822.05
3051.4111	7840.65
3053.80888	7813.25
3056.20519	7807.75
3058.60005	7779.85
3060.99345	7776.85
3063.3854	7746.15
3065.7759	7724.35
3068.16494	7702.15
3070.55254	7659.55
3072.93868	7621.85
3075.32338	7605.45
3077.70662	7576.95
3080.08842	7561.15
3082.46878	7549.25
3084.84769	7542.45
3087.22515	7510.45
3089.60118	7504.75
3091.97576	7498.35
3094.3489	7502.75
3096.72061	7462.85
3099.09087	7477.95
3101.4597	7471.65
3103.82709	7475.25
3106.19305	7447.05
3108.55757	7473.05
3110.92066	7415.85
3113.28232	7423.45
3115.64255	7413.15
3118.00134	7383.65
3120.35871	7375.95
3122.71466	7363.85
3125.06917	7345.85
3127.42226	7315.65
3129.77393	7319.45
3132.12417	7304.15
3134.47299	7311.65
3136.82039	7314.55
3139.16636	7317.15
3141.51092	7290.55
3143.85406	7294.15
3146.19579	7294.95
3148.53609	7290.65
3150.87499	7319.05
3153.21246	7323.05
3155.54853	7323.35
3157.88318	7325.55
3160.21642	7307.95
3162.54826	7319.15
3164.87868	7334.65
3167.2077	7306.05
3169.5353	7325.75
3171.86151	7310.75
3174.18631	7315.15
3176.5097	7312.05
3178.83169	7299.75
3181.15228	7287.25
3183.47147	7271.75
3185.78926	7261.85
3188.10565	7242.85
3190.42065	7251.25
3192.73424	7246.65
3195.04645	7251.95
3197.35725	7244.15
3199.66667	7252.95
3201.97469	7256.15
3204.28132	7257.65
3206.58656	7264.55
3208.8904	7240.05
3211.19287	7258.25
3213.49394	7262.35
3215.79363	7277.45
3218.09193	7288.75
3220.38884	7286.35
3222.68438	7272.75
3224.97853	7263.95
3227.2713	7254.25
3229.56269	7247.85
3231.8527	7234.75
3234.14133	7214.35
3236.42858	7214.95
3238.71446	7180.75
3240.99896	7167.95
3243.28209	7166.15
3245.56384	7146.05
3247.84423	7140.85
3250.12324	7146.25
3252.40088	7123.65
3254.67715	7131.05
3256.95205	7123.85
3259.22558	7118.45
3261.49775	7112.25
3263.76855	7093.95
3266.03799	7069.85
3268.30606	7071.45
3270.57277	7068.35
3272.83812	7017.55
3275.10211	7004.85
3277.36474	7018.05
3279.62601	7020.65
3281.88593	6978.95
3284.14448	6978.65
3286.40168	6999.25
3288.65753	6981.45
3290.91202	6965.05
3293.16516	6951.05
3295.41695	6931.15
3297.66738	6926.55
3299.91647	6880.75
3302.16421	6799.35
3304.4106	6776.85
3306.65564	6750.85
3308.89933	6687.95
3311.14169	6632.15
3313.38269	6590.35
3315.62236	6536.05
3317.86068	6470.85
3320.09766	6430.25
3322.3333	6378.65
3324.5676	6352.75
3326.80056	6252.75
3329.03219	6189.45
3331.26248	2.85
3333.49143	-2.55
3335.71905	-0.05
