Data from AgNPs_FTO_APTES_UA_5uM_CRN_200uM_R6G_10uM_NaF_0.1M_Addition_RamanShift__29__16-33-41-800.txt Node

Date: Mon Feb 07 16:33:41 GMT 2022
User: TCL
Spectrometer: QEP01345
Trigger mode: 4
Integration Time (sec): 7.000000E0
Scans to average: 10
Electric dark correction enabled: true
Nonlinearity correction enabled: false
Boxcar width: 0
XAxis mode: Raman Shifts
Number of Pixels in Spectrum: 1044
>>>>>Begin Spectral Data<<<<<
46.04893	-1.95
50.45542	0.15
54.85868	-0.15
59.25871	-1.05
63.6555	66.45
68.04907	67.95
72.43941	73.85
76.82654	71.25
81.21044	74.45
85.59113	77.65
89.96862	82.25
94.34289	82.75
98.71396	85.75
103.08183	91.55
107.4465	92.15
111.80798	94.35
116.16626	94.55
120.52136	101.45
124.87327	106.45
129.222	111.55
133.56755	119.15
137.90993	131.75
142.24913	143.75
146.58517	164.95
150.91804	185.25
155.24774	228.95
159.57429	288.25
163.89768	363.85
168.21792	497.75
172.53501	673.75
176.84895	941.75
181.15975	1322.35
185.46741	1858.65
189.77193	2567.75
194.07331	3455.95
198.37157	4441.25
202.6667	5484.25
206.9587	6533.05
211.24758	7600.15
215.53334	8688.55
219.81599	9894.85
224.09553	11233.85
228.37195	12715.45
232.64527	14359.25
236.91549	15980.85
241.18261	17513.15
245.44663	18826.55
249.70755	19921.85
253.96539	20875.75
258.22014	21739.05
262.4718	22465.35
266.72039	22956.65
270.96589	23321.15
275.20832	23420.25
279.44768	23313.65
283.68397	23169.05
287.91719	23116.75
292.14735	23335.05
296.37445	23806.95
300.59849	24443.45
304.81948	25060.75
309.03742	25427.85
313.25231	25160.95
317.46415	23987.65
321.67296	22344.75
325.87872	20949.55
330.08145	20301.45
334.28114	20294.95
338.47781	20543.95
342.67145	21035.75
346.86207	21796.55
351.04966	22929.95
355.23424	24115.55
359.4158	25021.05
363.59435	25349.85
367.76989	25442.55
371.94243	25367.05
376.11196	25264.45
380.27849	25108.55
384.44203	24908.35
388.60257	24731.25
392.76012	24652.75
396.91468	24867.65
401.06626	25466.35
405.21485	25941.25
409.36047	25563.65
413.50311	24467.75
417.64277	23350.75
421.77947	22771.85
425.9132	22624.45
430.04396	22682.25
434.17176	22867.35
438.2966	23186.65
442.41849	23762.35
446.53742	24480.85
450.6534	25253.05
454.76644	25726.05
458.87653	25820.45
462.98368	25602.95
467.08789	25311.65
471.18916	24986.05
475.2875	24659.75
479.38291	24387.15
483.4754	23999.75
487.56496	23547.35
491.6516	23054.45
495.73531	22785.85
499.81612	22702.25
503.89401	22879.95
507.96899	23070.65
512.04106	23288.65
516.11023	23454.05
520.1765	23594.75
524.23987	23451.35
528.30034	23152.55
532.35792	22769.85
536.41261	22384.05
540.46441	22048.35
544.51333	21954.75
548.55936	22222.65
552.60252	22807.95
556.64279	23572.55
560.6802	24015.35
564.71473	24450.85
568.7464	25430.05
572.7752	26053.35
576.80114	25491.15
580.82422	24714.05
584.84444	24367.25
588.86181	24449.35
592.87633	24695.15
596.888	24958.75
600.89682	25418.65
604.9028	27389.65
608.90594	33145.45
612.90624	41117.55
616.90371	39546.15
620.89834	28632.95
624.89015	23541.95
628.87913	22690.45
632.86528	22821.05
636.84862	23018.05
640.82913	22624.95
644.80683	21725.95
648.78172	21053.95
652.75379	21030.95
656.72306	21705.45
660.68952	22663.25
664.65319	22517.05
668.61405	21612.15
672.57211	21125.85
676.52738	21151.55
680.47986	21172.05
684.42955	21054.55
688.37646	20941.35
692.32058	21012.65
696.26192	21209.55
700.20048	21486.35
704.13626	21634.15
708.06928	21631.55
711.99952	21458.75
715.927	21379.15
719.85171	21418.45
723.77365	21400.05
727.69284	21166.15
731.60928	20961.95
735.52295	20908.75
739.43388	20945.65
743.34206	20985.95
747.24749	21108.25
751.15017	21273.55
755.05012	21751.45
758.94733	22785.45
762.8418	25052.75
766.73354	28856.35
770.62254	32651.95
774.50882	34336.85
778.39237	32684.05
782.27321	28588.65
786.15132	24683.85
790.02671	22390.15
793.89938	21371.15
797.76935	20937.35
801.6366	20731.65
805.50115	20641.15
809.36299	20590.95
813.22213	20498.25
817.07857	20489.85
820.93231	20498.25
824.78336	20546.65
828.63172	20632.65
832.47738	20637.95
836.32036	20575.25
840.16066	20451.45
843.99827	20365.35
847.8332	20290.85
851.66546	20234.85
855.49504	20223.85
859.32195	20181.65
863.1462	20075.35
866.96777	20009.65
870.78668	19968.45
874.60293	20007.25
878.41652	20044.45
882.22745	20163.65
886.03573	20210.35
889.84136	20200.25
893.64433	20098.15
897.44466	20046.25
901.24235	20031.35
905.0374	19979.65
908.8298	19886.05
912.61957	19941.25
916.40671	20079.75
920.19121	20291.75
923.97308	20444.45
927.75233	20551.05
931.52895	20663.95
935.30295	20448.05
939.07433	19906.95
942.84309	19424.65
946.60924	19141.05
950.37278	18992.45
954.13371	18910.05
957.89203	18878.45
961.64774	18841.65
965.40086	18786.05
969.15137	18742.95
972.89929	18653.05
976.64461	18583.75
980.38733	18550.95
984.12747	18603.95
987.86502	18673.25
991.59999	18842.15
995.33237	19056.95
999.06217	19466.25
1002.78939	19988.65
1006.51404	20415.35
1010.23611	20776.55
1013.95561	20986.75
1017.67255	20973.45
1021.38692	20660.85
1025.09872	20358.75
1028.80796	20158.75
1032.51465	20278.75
1036.21877	20517.05
1039.92035	20653.85
1043.61937	20688.35
1047.31584	20669.85
1051.00976	20543.25
1054.70114	20533.15
1058.38998	20601.55
1062.07627	20804.95
1065.76003	20971.55
1069.44126	21100.75
1073.11995	21256.85
1076.79611	21476.95
1080.46974	21768.35
1084.14085	22174.95
1087.80943	22693.15
1091.47549	22906.15
1095.13903	22660.15
1098.80005	22015.55
1102.45857	21435.45
1106.11456	21099.05
1109.76805	21153.85
1113.41903	21555.85
1117.06751	22217.55
1120.71348	23035.05
1124.35696	23926.85
1127.99793	24616.65
1131.63641	24447.95
1135.2724	23486.75
1138.90589	22524.45
1142.5369	22026.55
1146.16542	21750.95
1149.79145	21671.15
1153.415	21781.85
1157.03607	22102.45
1160.65467	22605.25
1164.27079	23463.05
1167.88443	24757.45
1171.49561	26684.95
1175.10432	29746.65
1178.71056	33671.45
1182.31434	36596.85
1185.91565	37406.55
1189.51451	36633.35
1193.11091	34930.85
1196.70485	32840.25
1200.29634	31106.95
1203.88538	29675.35
1207.47197	28058.85
1211.05612	26722.55
1214.63782	25922.45
1218.21708	25538.65
1221.79391	25439.45
1225.36829	25324.55
1228.94024	25190.65
1232.50976	25008.85
1236.07685	24827.55
1239.6415	24825.15
1243.20374	24920.05
1246.76355	25148.25
1250.32093	25409.45
1253.8759	25971.75
1257.42845	26718.05
1260.97859	27538.15
1264.52631	28223.75
1268.07163	28956.85
1271.61453	29632.45
1275.15503	30210.75
1278.69312	30543.65
1282.22882	30945.15
1285.76211	31692.45
1289.29301	32829.55
1292.82151	34117.25
1296.34761	35663.05
1299.87133	37697.75
1303.39266	40726.35
1306.9116	44871.05
1310.42815	49381.25
1313.94233	52024.45
1317.45412	51442.45
1320.96354	48924.15
1324.47058	46162.55
1327.97525	43773.25
1331.47754	42201.95
1334.97747	41693.65
1338.47502	41830.55
1341.97022	42479.85
1345.46305	43232.55
1348.95352	44156.35
1352.44163	45496.55
1355.92738	48367.15
1359.41078	53497.75
1362.89183	58517.25
1366.37053	56520.85
1369.84688	48627.15
1373.32088	41126.55
1376.79254	36590.35
1380.26186	34432.25
1383.72883	33555.85
1387.19347	33134.45
1390.65578	32657.35
1394.11575	32438.95
1397.57339	32630.45
1401.0287	33091.95
1404.48168	33726.55
1407.93234	34079.25
1411.38068	33964.35
1414.82669	33255.45
1418.27039	31941.15
1421.71177	30476.95
1425.15083	29223.85
1428.58758	28570.45
1432.02203	28511.35
1435.45416	28807.45
1438.88399	29206.45
1442.31151	29530.05
1445.73673	29875.45
1449.15965	30333.05
1452.58027	30655.85
1455.9986	30870.45
1459.41463	31194.65
1462.82837	31674.95
1466.23982	32226.25
1469.64898	32771.15
1473.05586	32971.55
1476.46045	32979.05
1479.86276	33043.65
1483.26279	33145.75
1486.66054	33471.45
1490.05602	34145.45
1493.44922	35117.25
1496.84016	36632.25
1500.22882	39239.85
1503.61521	42981.45
1506.99934	47414.55
1510.38121	51709.95
1513.76081	53469.55
1517.13816	51223.95
1520.51324	45903.65
1523.88607	40836.75
1527.25665	37378.35
1530.62498	35592.15
1533.99105	34597.55
1537.35488	34005.35
1540.71647	33566.15
1544.07581	33251.85
1547.4329	32816.95
1550.78776	32478.45
1554.14038	32205.95
1557.49077	32289.35
1560.83892	32642.25
1564.18484	33379.05
1567.52853	34071.05
1570.86999	34545.75
1574.20922	34908.75
1577.54624	34836.55
1580.88103	33728.25
1584.2136	32347.45
1587.54395	31912.85
1590.87208	32738.15
1594.19801	34592.25
1597.52172	36772.65
1600.84321	37762.15
1604.16251	36413.65
1607.47959	33827.85
1610.79447	31015.95
1614.10715	28292.25
1617.41763	26066.15
1620.7259	24633.65
1624.03199	23909.95
1627.33587	23855.45
1630.63757	24380.35
1633.93707	25618.85
1637.23439	27682.55
1640.52951	30777.55
1643.82246	34771.05
1647.11321	39075.75
1650.40179	41593.75
1653.68819	40118.85
1656.97241	34935.55
1660.25446	29258.55
1663.53433	25032.45
1666.81203	22338.45
1670.08756	20783.95
1673.36092	19845.75
1676.63211	19239.85
1679.90115	18802.45
1683.16801	18483.95
1686.43272	18220.75
1689.69527	18032.45
1692.95567	17913.65
1696.2139	17818.25
1699.46999	17728.85
1702.72392	17663.45
1705.97571	17624.35
1709.22535	17624.95
1712.47284	17596.05
1715.71819	17602.05
1718.96139	17555.55
1722.20246	17502.55
1725.44139	17444.85
1728.67818	17328.75
1731.91284	17222.05
1735.14537	17103.05
1738.37576	17012.85
1741.60403	16957.95
1744.83017	16860.45
1748.05418	16831.55
1751.27607	16809.65
1754.49584	16790.45
1757.71349	16759.55
1760.92903	16725.35
1764.14244	16718.45
1767.35375	16671.95
1770.56294	16631.65
1773.77002	16573.55
1776.97499	16487.85
1780.17785	16463.75
1783.37861	16417.45
1786.57727	16423.45
1789.77382	16407.95
1792.96828	16400.85
1796.16064	16356.05
1799.3509	16332.25
1802.53907	16302.95
1805.72514	16264.15
1808.90913	16200.35
1812.09102	16162.35
1815.27083	16085.45
1818.44856	16082.35
1821.6242	16037.95
1824.79776	16003.15
1827.96924	15962.05
1831.13864	15951.35
1834.30597	15941.75
1837.47122	15923.15
1840.6344	15889.25
1843.7955	15896.55
1846.95454	15898.85
1850.11151	15854.75
1853.26642	15832.25
1856.41926	15839.85
1859.57004	15852.15
1862.71876	15834.75
1865.86542	15843.75
1869.01003	15833.65
1872.15258	15838.15
1875.29308	15847.45
1878.43152	15834.85
1881.56792	15839.25
1884.70227	15833.05
1887.83457	15793.85
1890.96482	15794.75
1894.09304	15767.65
1897.21921	15754.05
1900.34335	15782.65
1903.46544	15767.85
1906.58551	15752.85
1909.70353	15732.95
1912.81953	15746.85
1915.93349	15728.05
1919.04543	15689.45
1922.15534	15674.45
1925.26322	15650.45
1928.36908	15600.75
1931.47292	15565.95
1934.57473	15515.45
1937.67453	15472.35
1940.77232	15411.45
1943.86808	15335.45
1946.96184	15274.75
1950.05358	15216.15
1953.14331	15155.05
1956.23103	15087.95
1959.31675	15047.65
1962.40046	15016.45
1965.48217	14964.95
1968.56188	14933.45
1971.63959	14902.95
1974.7153	14867.55
1977.78901	14849.35
1980.86073	14807.55
1983.93046	14705.45
1986.99819	14657.45
1990.06394	14597.95
1993.1277	14547.95
1996.18947	14502.95
1999.24925	14448.65
2002.30706	14417.75
2005.36288	14404.25
2008.41672	14354.95
2011.46859	14320.25
2014.51848	14239.35
2017.56639	14214.45
2020.61233	14185.85
2023.6563	14137.55
2026.6983	14080.55
2029.73833	14054.25
2032.7764	14014.35
2035.8125	13993.85
2038.84664	13966.65
2041.87881	13947.85
2044.90903	13910.85
2047.93729	13878.65
2050.96359	13875.85
2053.98794	13850.35
2057.01034	13846.35
2060.03078	13799.85
2063.04927	13818.15
2066.06582	13805.55
2069.08042	13791.15
2072.09307	13763.35
2075.10378	13767.55
2078.11255	13733.75
2081.11938	13750.15
2084.12426	13709.65
2087.12722	13718.65
2090.12824	13712.75
2093.12732	13703.85
2096.12447	13714.55
2099.11969	13695.15
2102.11299	13689.85
2105.10435	13681.15
2108.09379	13695.05
2111.08131	13680.65
2114.0669	13675.75
2117.05057	13715.25
2120.03233	13724.55
2123.01216	13751.75
2125.99008	13749.15
2128.96609	13746.35
2131.94018	13752.95
2134.91236	13756.15
2137.88263	13768.05
2140.851	13778.05
2143.81746	13791.35
2146.78201	13745.45
2149.74466	13747.25
2152.7054	13741.95
2155.66425	13718.25
2158.6212	13704.25
2161.57625	13678.55
2164.52941	13682.25
2167.48067	13683.55
2170.43004	13677.15
2173.37752	13687.35
2176.32311	13702.45
2179.26681	13688.15
2182.20863	13710.95
2185.14856	13657.15
2188.08661	13711.35
2191.02278	13671.15
2193.95707	13666.35
2196.88948	13633.45
2199.82001	13627.05
2202.74867	13573.65
2205.67545	13602.15
2208.60037	13542.35
2211.52341	13561.05
2214.44458	13527.75
2217.36388	13492.15
2220.28132	13469.65
2223.1969	13416.75
2226.11061	13391.35
2229.02246	13393.65
2231.93245	13374.55
2234.84058	13326.75
2237.74686	13275.75
2240.65128	13270.45
2243.55385	13251.15
2246.45456	13255.75
2249.35343	13272.15
2252.25044	13242.25
2255.14561	13217.65
2258.03893	13182.95
2260.93041	13170.25
2263.82004	13134.45
2266.70783	13108.45
2269.59378	13084.85
2272.4779	13045.15
2275.36017	13003.05
2278.24061	12981.15
2281.11922	12946.75
2283.996	12935.55
2286.87094	12891.25
2289.74405	12875.75
2292.61534	12846.35
2295.4848	12855.05
2298.35243	12836.15
2301.21824	12857.95
2304.08223	12874.05
2306.94439	12856.95
2309.80474	12844.35
2312.66327	12824.85
2315.51999	12817.55
2318.37489	12797.75
2321.22797	12797.25
2324.07925	12751.65
2326.92871	12737.25
2329.77637	12727.85
2332.62222	12700.25
2335.46626	12714.25
2338.3085	12686.95
2341.14893	12685.55
2343.98756	12694.15
2346.8244	12693.35
2349.65943	12687.85
2352.49267	12683.45
2355.32411	12693.15
2358.15376	12699.95
2360.98161	12700.45
2363.80768	12715.65
2366.63195	12732.55
2369.45444	12703.65
2372.27514	12694.65
2375.09405	12683.95
2377.91118	12628.75
2380.72652	12578.55
2383.54009	12536.35
2386.35187	12502.75
2389.16188	12469.75
2391.97011	12426.35
2394.77657	12376.25
2397.58125	12335.35
2400.38416	12346.85
2403.18529	12295.75
2405.98466	12282.95
2408.78226	12267.75
2411.57809	12266.35
2414.37216	12230.25
2417.16446	12231.15
2419.955	12208.15
2422.74378	12185.05
2425.5308	12187.15
2428.31606	12179.65
2431.09956	12165.75
2433.88131	12159.15
2436.6613	12188.65
2439.43954	12173.85
2442.21603	12176.95
2444.99077	12141.25
2447.76377	12144.25
2450.53501	12112.45
2453.30451	12134.05
2456.07226	12129.25
2458.83827	12107.25
2461.60254	12087.45
2464.36507	12093.65
2467.12586	12077.35
2469.88492	12086.45
2472.64224	12094.85
2475.39782	12082.85
2478.15167	12095.75
2480.90379	12122.15
2483.65417	12118.05
2486.40283	12135.55
2489.14976	12142.95
2491.89497	12183.65
2494.63845	12195.15
2497.3802	12166.65
2500.12024	12175.35
2502.85855	12110.45
2505.59514	12102.45
2508.33002	12053.55
2511.06318	12045.95
2513.79462	12030.55
2516.52435	12009.25
2519.25237	11971.25
2521.97867	11901.95
2524.70327	11925.05
2527.42616	11907.65
2530.14734	11872.35
2532.86681	11865.35
2535.58458	11880.65
2538.30065	11843.45
2541.01501	11867.05
2543.72768	11854.95
2546.43864	11812.15
2549.14791	11796.65
2551.85548	11807.55
2554.56136	11791.55
2557.26554	11761.45
2559.96803	11757.85
2562.66883	11734.15
2565.36794	11728.35
2568.06536	11716.95
2570.7611	11712.75
2573.45514	11691.75
2576.14751	11652.15
2578.83819	11650.65
2581.52719	11649.35
2584.21451	11619.25
2586.90015	11616.85
2589.58411	11614.15
2592.2664	11605.25
2594.94701	11590.15
2597.62594	11566.85
2600.30321	11574.95
2602.9788	11542.55
2605.65273	11550.35
2608.32498	11564.25
2610.99557	11551.35
2613.66449	11546.15
2616.33175	11529.85
2618.99734	11527.15
2621.66128	11523.95
2624.32355	11530.25
2626.98416	11509.45
2629.64311	11451.65
2632.30041	11471.55
2634.95605	11445.45
2637.61004	11426.95
2640.26238	11446.85
2642.91306	11397.35
2645.56209	11405.15
2648.20948	11398.65
2650.85521	11405.85
2653.4993	11418.85
2656.14175	11426.35
2658.78255	11432.45
2661.42171	11417.85
2664.05923	11399.25
2666.6951	11414.05
2669.32934	11444.25
2671.96194	11470.25
2674.59291	11423.75
2677.22224	11438.05
2679.84993	11451.25
2682.476	11415.35
2685.10043	11425.35
2687.72324	11397.15
2690.34441	11399.85
2692.96396	11391.15
2695.58188	11406.35
2698.19818	11406.85
2700.81285	11413.95
2703.4259	11436.95
2706.03733	11425.85
2708.64714	11430.05
2711.25533	11419.85
2713.86191	11448.05
2716.46687	11458.45
2719.07021	11459.15
2721.67194	11441.85
2724.27206	11454.55
2726.87057	11475.45
2729.46747	11509.35
2732.06276	11463.35
2734.65644	11456.55
2737.24852	11444.15
2739.83899	11397.25
2742.42786	11415.15
2745.01513	11393.45
2747.60079	11386.35
2750.18486	11336.15
2752.76733	11350.15
2755.3482	11341.45
2757.92747	11329.85
2760.50515	11295.75
2763.08123	11308.05
2765.65573	11299.55
2768.22863	11291.35
2770.79994	11248.95
2773.36967	11285.75
2775.9378	11292.15
2778.50435	11297.55
2781.06932	11270.95
2783.6327	11269.35
2786.1945	11269.95
2788.75471	11246.65
2791.31335	11258.25
2793.87041	11245.25
2796.42589	11221.85
2798.97979	11213.95
2801.53212	11176.75
2804.08288	11153.55
2806.63206	11146.15
2809.17967	11159.85
2811.72571	11131.55
2814.27018	11149.15
2816.81308	11114.45
2819.35442	11107.85
2821.89419	11099.95
2824.43239	11091.55
2826.96904	11095.35
2829.50412	11120.75
2832.03763	11064.35
2834.56959	11070.25
2837.1	11074.45
2839.62884	11083.35
2842.15613	11143.05
2844.68186	11214.15
2847.20604	11265.45
2849.72867	11290.05
2852.24974	11329.45
2854.76927	11309.65
2857.28724	11281.05
2859.80367	11273.75
2862.31855	11253.65
2864.83189	11217.45
2867.34368	11191.15
2869.85393	11195.95
2872.36264	11220.45
2874.8698	11197.15
2877.37543	11183.15
2879.87952	11181.55
2882.38207	11155.75
2884.88308	11163.85
2887.38256	11164.35
2889.88051	11141.85
2892.37692	11144.25
2894.8718	11170.55
2897.36515	11159.75
2899.85698	11147.95
2902.34727	11174.75
2904.83604	11164.05
2907.32328	11201.95
2909.809	11191.45
2912.29319	11183.85
2914.77587	11164.05
2917.25702	11150.25
2919.73665	11114.75
2922.21476	11122.85
2924.69136	11124.45
2927.16644	11135.65
2929.64	11092.25
2932.11205	11097.25
2934.58258	11044.65
2937.05161	11013.75
2939.51912	11006.15
2941.98513	10945.35
2944.44962	10920.05
2946.91261	10832.45
2949.37409	10864.65
2951.83407	10828.35
2954.29254	10771.75
2956.74951	10760.15
2959.20498	10768.45
2961.65895	10755.05
2964.11142	10727.45
2966.56239	10684.35
2969.01186	10683.55
2971.45984	10664.05
2973.90632	10650.15
2976.35131	10614.85
2978.7948	10579.65
2981.23681	10559.15
2983.67732	10558.95
2986.11635	10512.15
2988.55388	10477.95
2990.98993	10461.15
2993.4245	10426.75
2995.85758	10388.35
2998.28917	10400.15
3000.71928	10355.75
3003.14791	10340.05
3005.57506	10332.85
3008.00073	10296.65
3010.42493	10298.65
3012.84764	10265.85
3015.26888	10281.55
3017.68865	10212.55
3020.10694	10212.75
3022.52376	10181.35
3024.9391	10162.75
3027.35298	10159.25
3029.76539	10150.65
3032.17632	10119.45
3034.5858	10089.85
3036.9938	10119.45
3039.40034	10106.15
3041.80542	10078.15
3044.20903	10059.25
3046.61118	10067.85
3049.01187	10013.85
3051.4111	10004.65
3053.80888	9985.55
3056.20519	9989.65
3058.60005	9940.05
3060.99345	9902.75
3063.3854	9885.15
3065.7759	9858.35
3068.16494	9829.45
3070.55254	9761.25
3072.93868	9758.95
3075.32338	9723.45
3077.70662	9696.35
3080.08842	9676.55
3082.46878	9638.75
3084.84769	9618.95
3087.22515	9627.75
3089.60118	9648.25
3091.97576	9624.15
3094.3489	9615.45
3096.72061	9634.35
3099.09087	9591.35
3101.4597	9589.85
3103.82709	9593.95
3106.19305	9564.45
3108.55757	9579.45
3110.92066	9527.95
3113.28232	9510.15
3115.64255	9462.85
3118.00134	9444.35
3120.35871	9462.35
3122.71466	9442.25
3125.06917	9396.95
3127.42226	9392.65
3129.77393	9374.65
3132.12417	9372.25
3134.47299	9379.05
3136.82039	9354.35
3139.16636	9359.85
3141.51092	9350.05
3143.85406	9356.45
3146.19579	9355.35
3148.53609	9363.45
3150.87499	9359.05
3153.21246	9361.65
3155.54853	9371.75
3157.88318	9376.45
3160.21642	9396.05
3162.54826	9391.55
3164.87868	9374.55
3167.2077	9374.55
3169.5353	9383.25
3171.86151	9370.05
3174.18631	9349.05
3176.5097	9352.45
3178.83169	9349.65
3181.15228	9325.75
3183.47147	9317.65
3185.78926	9291.15
3188.10565	9280.15
3190.42065	9287.25
3192.73424	9273.25
3195.04645	9292.95
3197.35725	9263.25
3199.66667	9260.45
3201.97469	9276.65
3204.28132	9284.25
3206.58656	9274.05
3208.8904	9276.25
3211.19287	9310.45
3213.49394	9305.05
3215.79363	9277.25
3218.09193	9311.95
3220.38884	9303.85
3222.68438	9294.25
3224.97853	9265.15
3227.2713	9284.85
3229.56269	9263.75
3231.8527	9275.55
3234.14133	9231.95
3236.42858	9215.45
3238.71446	9175.15
3240.99896	9187.05
3243.28209	9156.05
3245.56384	9149.85
3247.84423	9152.55
3250.12324	9128.75
3252.40088	9139.35
3254.67715	9116.85
3256.95205	9095.85
3259.22558	9102.95
3261.49775	9068.25
3263.76855	9075.15
3266.03799	9037.65
3268.30606	9032.45
3270.57277	9018.15
3272.83812	8988.45
3275.10211	8982.15
3277.36474	8964.25
3279.62601	8958.15
3281.88593	8952.35
3284.14448	8930.25
3286.40168	8965.75
3288.65753	8932.55
3290.91202	8937.45
3293.16516	8918.45
3295.41695	8899.25
3297.66738	8847.65
3299.91647	8778.15
3302.16421	8728.65
3304.4106	8702.35
3306.65564	8616.65
3308.89933	8590.25
3311.14169	8529.55
3313.38269	8430.15
3315.62236	8390.15
3317.86068	8294.55
3320.09766	8208.55
3322.3333	8176.35
3324.5676	8138.35
3326.80056	8012.65
3329.03219	7931.05
3331.26248	2.55
3333.49143	1.05
3335.71905	-0.55
