Data from AgNPs_FTO_APTES_UA_5uM_CRN_500uM_R6G_10uM_NaF_0.1M_Addition_RamanShift__18__17-01-41-833.txt Node

Date: Mon Feb 07 17:01:41 GMT 2022
User: TCL
Spectrometer: QEP01345
Trigger mode: 4
Integration Time (sec): 7.000000E0
Scans to average: 10
Electric dark correction enabled: true
Nonlinearity correction enabled: false
Boxcar width: 0
XAxis mode: Raman Shifts
Number of Pixels in Spectrum: 1044
>>>>>Begin Spectral Data<<<<<
46.04893	-1.35
50.45542	-0.85
54.85868	-0.25
59.25871	-0.75
63.6555	57.95
68.04907	60.95
72.43941	64.15
76.82654	67.15
81.21044	68.45
85.59113	67.05
89.96862	73.85
94.34289	77.65
98.71396	78.05
103.08183	83.35
107.4465	83.55
111.80798	87.25
116.16626	87.35
120.52136	92.95
124.87327	96.25
129.222	104.95
133.56755	106.15
137.90993	117.15
142.24913	133.65
146.58517	149.85
150.91804	171.95
155.24774	210.85
159.57429	263.65
163.89768	344.15
168.21792	461.55
172.53501	622.05
176.84895	871.05
181.15975	1239.65
185.46741	1742.35
189.77193	2386.55
194.07331	3206.05
198.37157	4127.65
202.6667	5084.65
206.9587	6036.85
211.24758	6988.25
215.53334	7949.75
219.81599	8950.55
224.09553	10056.35
228.37195	11272.75
232.64527	12557.75
236.91549	13970.65
241.18261	15351.05
245.44663	16637.15
249.70755	17825.15
253.96539	18850.65
258.22014	19746.55
262.4718	20445.75
266.72039	21001.45
270.96589	21271.25
275.20832	21386.15
279.44768	21401.45
283.68397	21318.65
287.91719	21164.65
292.14735	21216.55
296.37445	21321.85
300.59849	21417.65
304.81948	21421.05
309.03742	21243.15
313.25231	20892.75
317.46415	20331.95
321.67296	19691.45
325.87872	19214.25
330.08145	18946.55
334.28114	18856.25
338.47781	18952.05
342.67145	19125.75
346.86207	19378.75
351.04966	19697.95
355.23424	19975.25
359.4158	20240.15
363.59435	20398.35
367.76989	20542.25
371.94243	20686.75
376.11196	20775.75
380.27849	20853.05
384.44203	21045.65
388.60257	21248.45
392.76012	21465.15
396.91468	21732.95
401.06626	21999.15
405.21485	22192.85
409.36047	22085.15
413.50311	21787.65
417.64277	21628.45
421.77947	21625.75
425.9132	21709.35
430.04396	21896.05
434.17176	22108.15
438.2966	22359.95
442.41849	22744.95
446.53742	23418.35
450.6534	24216.55
454.76644	24813.85
458.87653	24989.35
462.98368	24892.45
467.08789	24645.55
471.18916	24480.05
475.2875	24418.45
479.38291	24487.15
483.4754	24468.35
487.56496	24106.35
491.6516	23459.45
495.73531	22860.55
499.81612	22447.35
503.89401	22403.75
507.96899	22410.15
512.04106	22290.95
516.11023	22070.75
520.1765	21809.15
524.23987	21543.35
528.30034	21333.55
532.35792	21153.55
536.41261	21002.15
540.46441	20828.55
544.51333	20905.45
548.55936	21242.45
552.60252	21783.55
556.64279	22498.45
560.6802	23038.15
564.71473	23510.25
568.7464	24060.35
572.7752	24848.65
576.80114	25388.15
580.82422	25666.55
584.84444	25911.85
588.86181	26307.75
592.87633	26757.05
596.888	26682.75
600.89682	26178.35
604.9028	26144.65
608.90594	27347.05
612.90624	28500.65
616.90371	26604.65
620.89834	22779.75
624.89015	21154.55
628.87913	21032.05
632.86528	21246.75
636.84862	21316.95
640.82913	21081.65
644.80683	20599.25
648.78172	20189.35
652.75379	20060.65
656.72306	20116.55
660.68952	20313.85
664.65319	20219.65
668.61405	19930.55
672.57211	19915.75
676.52738	19973.95
680.47986	20013.75
684.42955	19921.35
688.37646	19826.65
692.32058	19883.95
696.26192	19976.35
700.20048	20217.15
704.13626	20352.05
708.06928	20408.75
711.99952	20354.75
715.927	20306.35
719.85171	20337.85
723.77365	20275.75
727.69284	20095.85
731.60928	19892.05
735.52295	19810.15
739.43388	19788.45
743.34206	19823.75
747.24749	19892.65
751.15017	20117.85
755.05012	20489.25
758.94733	21093.15
762.8418	22147.95
766.73354	23680.65
770.62254	25060.05
774.50882	25241.35
778.39237	24051.95
782.27321	22295.35
786.15132	20923.65
790.02671	20076.05
793.89938	19684.15
797.76935	19528.45
801.6366	19475.25
805.50115	19453.95
809.36299	19345.65
813.22213	19226.55
817.07857	19188.95
820.93231	19192.35
824.78336	19038.95
828.63172	18897.55
832.47738	18817.85
836.32036	18785.65
840.16066	18801.35
843.99827	18830.35
847.8332	18768.05
851.66546	18715.55
855.49504	18690.05
859.32195	18726.95
863.1462	18689.85
866.96777	18677.15
870.78668	18601.55
874.60293	18601.35
878.41652	18579.45
882.22745	18646.45
886.03573	18636.65
889.84136	18659.65
893.64433	18620.75
897.44466	18535.85
901.24235	18460.15
905.0374	18354.55
908.8298	18289.35
912.61957	18354.75
916.40671	18573.65
920.19121	18837.95
923.97308	19024.85
927.75233	18951.85
931.52895	18776.95
935.30295	18464.35
939.07433	18142.35
942.84309	17869.25
946.60924	17704.95
950.37278	17604.55
954.13371	17611.45
957.89203	17663.85
961.64774	17610.65
965.40086	17607.95
969.15137	17526.95
972.89929	17343.25
976.64461	17247.85
980.38733	17161.75
984.12747	17199.35
987.86502	17276.05
991.59999	17431.55
995.33237	17640.35
999.06217	17996.25
1002.78939	18432.85
1006.51404	18726.95
1010.23611	18952.45
1013.95561	19113.75
1017.67255	19183.55
1021.38692	19012.55
1025.09872	18673.05
1028.80796	18513.95
1032.51465	18629.35
1036.21877	18817.75
1039.92035	18907.75
1043.61937	18822.35
1047.31584	18743.75
1051.00976	18651.35
1054.70114	18665.45
1058.38998	18756.35
1062.07627	19005.15
1065.76003	19198.15
1069.44126	19364.75
1073.11995	19597.05
1076.79611	19735.25
1080.46974	19836.05
1084.14085	19885.75
1087.80943	20058.45
1091.47549	20265.85
1095.13903	20377.05
1098.80005	20256.35
1102.45857	19849.75
1106.11456	19442.05
1109.76805	19271.75
1113.41903	19297.55
1117.06751	19518.85
1120.71348	19696.25
1124.35696	19960.55
1127.99793	20236.25
1131.63641	20480.65
1135.2724	20386.25
1138.90589	20257.75
1142.5369	20290.05
1146.16542	20432.15
1149.79145	20719.75
1153.415	21094.25
1157.03607	21556.75
1160.65467	22260.05
1164.27079	23376.75
1167.88443	24712.85
1171.49561	26286.85
1175.10432	28234.95
1178.71056	30581.85
1182.31434	32782.55
1185.91565	33874.85
1189.51451	33927.75
1193.11091	33220.35
1196.70485	32128.45
1200.29634	30878.45
1203.88538	29930.85
1207.47197	29310.85
1211.05612	28746.15
1214.63782	28173.05
1218.21708	27451.05
1221.79391	26821.35
1225.36829	26309.75
1228.94024	25789.75
1232.50976	25155.35
1236.07685	24631.55
1239.6415	24379.95
1243.20374	24324.65
1246.76355	24523.35
1250.32093	24829.35
1253.8759	25366.15
1257.42845	26015.35
1260.97859	26732.65
1264.52631	27419.35
1268.07163	28173.35
1271.61453	28935.75
1275.15503	29848.85
1278.69312	30830.15
1282.22882	31867.05
1285.76211	33060.75
1289.29301	34536.85
1292.82151	36492.35
1296.34761	38846.95
1299.87133	41417.95
1303.39266	44006.35
1306.9116	46224.05
1310.42815	48131.75
1313.94233	49275.85
1317.45412	49477.25
1320.96354	49124.05
1324.47058	48795.65
1327.97525	48342.95
1331.47754	48080.65
1334.97747	47861.05
1338.47502	47628.85
1341.97022	47072.15
1345.46305	46174.05
1348.95352	45061.05
1352.44163	44035.25
1355.92738	43692.55
1359.41078	44258.65
1362.89183	44919.65
1366.37053	44083.95
1369.84688	40967.25
1373.32088	37213.65
1376.79254	34672.95
1380.26186	33913.15
1383.72883	34259.75
1387.19347	34771.85
1390.65578	35100.55
1394.11575	35473.75
1397.57339	36290.45
1401.0287	37216.85
1404.48168	37840.05
1407.93234	37763.85
1411.38068	36714.65
1414.82669	34969.55
1418.27039	32908.05
1421.71177	30914.55
1425.15083	29305.15
1428.58758	28445.25
1432.02203	28481.05
1435.45416	29240.75
1438.88399	30329.85
1442.31151	31347.55
1445.73673	32147.65
1449.15965	32847.55
1452.58027	33557.05
1455.9986	33935.15
1459.41463	34320.15
1462.82837	34737.25
1466.23982	35154.95
1469.64898	35472.25
1473.05586	35464.65
1476.46045	35116.25
1479.86276	34605.45
1483.26279	33906.75
1486.66054	33395.35
1490.05602	33167.05
1493.44922	33106.85
1496.84016	33122.95
1500.22882	33399.05
1503.61521	34093.15
1506.99934	34972.85
1510.38121	35926.05
1513.76081	36193.55
1517.13816	35716.55
1520.51324	34905.15
1523.88607	34255.05
1527.25665	34109.05
1530.62498	34254.45
1533.99105	34401.55
1537.35488	34254.75
1540.71647	33758.35
1544.07581	32891.05
1547.4329	31880.35
1550.78776	31021.45
1554.14038	30402.05
1557.49077	30028.85
1560.83892	29860.75
1564.18484	29829.95
1567.52853	29887.35
1570.86999	30202.55
1574.20922	30917.85
1577.54624	31656.25
1580.88103	32158.15
1584.2136	32717.75
1587.54395	33846.55
1590.87208	35457.85
1594.19801	37350.05
1597.52172	39127.35
1600.84321	39591.75
1604.16251	37817.15
1607.47959	34708.25
1610.79447	31379.25
1614.10715	28323.75
1617.41763	25868.95
1620.7259	24084.45
1624.03199	23191.65
1627.33587	23112.15
1630.63757	23839.65
1633.93707	25535.05
1637.23439	28404.75
1640.52951	32475.65
1643.82246	37155.65
1647.11321	40650.35
1650.40179	41191.15
1653.68819	38248.15
1656.97241	33048.45
1660.25446	27810.75
1663.53433	23798.85
1666.81203	21070.05
1670.08756	19391.25
1673.36092	18325.25
1676.63211	17647.45
1679.90115	17159.65
1683.16801	16773.65
1686.43272	16518.95
1689.69527	16280.85
1692.95567	16151.45
1696.2139	16003.05
1699.46999	15899.85
1702.72392	15774.65
1705.97571	15737.65
1709.22535	15667.45
1712.47284	15602.85
1715.71819	15600.95
1718.96139	15538.85
1722.20246	15435.45
1725.44139	15367.45
1728.67818	15260.25
1731.91284	15155.85
1735.14537	15077.65
1738.37576	15010.35
1741.60403	14932.55
1744.83017	14918.85
1748.05418	14865.75
1751.27607	14853.15
1754.49584	14791.25
1757.71349	14783.25
1760.92903	14801.75
1764.14244	14734.65
1767.35375	14718.95
1770.56294	14663.35
1773.77002	14612.05
1776.97499	14590.45
1780.17785	14517.25
1783.37861	14527.75
1786.57727	14489.85
1789.77382	14429.25
1792.96828	14407.35
1796.16064	14346.65
1799.3509	14322.95
1802.53907	14270.25
1805.72514	14258.75
1808.90913	14202.95
1812.09102	14184.25
1815.27083	14135.55
1818.44856	14096.65
1821.6242	14062.45
1824.79776	14032.65
1827.96924	14031.15
1831.13864	14000.45
1834.30597	14007.75
1837.47122	13972.45
1840.6344	13950.95
1843.7955	13986.35
1846.95454	13962.35
1850.11151	13934.95
1853.26642	13909.95
1856.41926	13924.25
1859.57004	13897.15
1862.71876	13857.05
1865.86542	13862.65
1869.01003	13859.55
1872.15258	13842.95
1875.29308	13840.05
1878.43152	13814.75
1881.56792	13795.05
1884.70227	13792.55
1887.83457	13783.45
1890.96482	13739.35
1894.09304	13702.45
1897.21921	13738.05
1900.34335	13677.25
1903.46544	13697.15
1906.58551	13663.95
1909.70353	13642.15
1912.81953	13614.05
1915.93349	13596.05
1919.04543	13546.35
1922.15534	13514.15
1925.26322	13508.35
1928.36908	13464.55
1931.47292	13451.05
1934.57473	13395.65
1937.67453	13363.45
1940.77232	13330.85
1943.86808	13266.05
1946.96184	13217.85
1950.05358	13168.15
1953.14331	13133.35
1956.23103	13051.85
1959.31675	12996.75
1962.40046	12992.65
1965.48217	12956.85
1968.56188	12912.35
1971.63959	12875.35
1974.7153	12839.95
1977.78901	12793.25
1980.86073	12782.65
1983.93046	12736.45
1986.99819	12691.55
1990.06394	12646.75
1993.1277	12606.55
1996.18947	12578.05
1999.24925	12521.55
2002.30706	12491.65
2005.36288	12436.05
2008.41672	12410.35
2011.46859	12376.65
2014.51848	12332.65
2017.56639	12333.35
2020.61233	12257.45
2023.6563	12217.35
2026.6983	12176.25
2029.73833	12147.75
2032.7764	12133.35
2035.8125	12133.75
2038.84664	12075.25
2041.87881	12064.25
2044.90903	12028.75
2047.93729	12005.75
2050.96359	12005.15
2053.98794	12011.25
2057.01034	11989.35
2060.03078	11974.45
2063.04927	11981.35
2066.06582	11944.95
2069.08042	11977.35
2072.09307	11925.15
2075.10378	11912.55
2078.11255	11908.55
2081.11938	11894.65
2084.12426	11889.25
2087.12722	11843.65
2090.12824	11845.75
2093.12732	11849.05
2096.12447	11879.25
2099.11969	11831.85
2102.11299	11861.05
2105.10435	11867.55
2108.09379	11856.15
2111.08131	11836.05
2114.0669	11864.75
2117.05057	11867.45
2120.03233	11877.65
2123.01216	11872.75
2125.99008	11879.25
2128.96609	11867.15
2131.94018	11882.85
2134.91236	11872.15
2137.88263	11892.55
2140.851	11902.25
2143.81746	11884.45
2146.78201	11875.55
2149.74466	11902.35
2152.7054	11855.15
2155.66425	11859.55
2158.6212	11864.55
2161.57625	11839.35
2164.52941	11822.35
2167.48067	11819.05
2170.43004	11820.15
2173.37752	11844.55
2176.32311	11827.45
2179.26681	11834.95
2182.20863	11814.55
2185.14856	11827.35
2188.08661	11813.65
2191.02278	11847.55
2193.95707	11801.75
2196.88948	11775.95
2199.82001	11748.55
2202.74867	11743.15
2205.67545	11744.65
2208.60037	11705.85
2211.52341	11671.25
2214.44458	11662.95
2217.36388	11628.95
2220.28132	11619.75
2223.1969	11590.75
2226.11061	11598.65
2229.02246	11585.55
2231.93245	11534.95
2234.84058	11509.15
2237.74686	11467.75
2240.65128	11501.05
2243.55385	11442.05
2246.45456	11439.55
2249.35343	11431.95
2252.25044	11418.15
2255.14561	11377.75
2258.03893	11361.55
2260.93041	11281.15
2263.82004	11300.15
2266.70783	11232.35
2269.59378	11191.15
2272.4779	11194.25
2275.36017	11140.35
2278.24061	11133.85
2281.11922	11109.45
2283.996	11088.05
2286.87094	11094.75
2289.74405	11065.95
2292.61534	11053.75
2295.4848	11060.45
2298.35243	11058.45
2301.21824	11042.95
2304.08223	11056.75
2306.94439	11066.35
2309.80474	11024.25
2312.66327	11020.55
2315.51999	11020.75
2318.37489	11014.75
2321.22797	10965.75
2324.07925	10973.95
2326.92871	10959.95
2329.77637	10938.05
2332.62222	10924.05
2335.46626	10930.15
2338.3085	10922.55
2341.14893	10894.65
2343.98756	10897.75
2346.8244	10896.85
2349.65943	10857.65
2352.49267	10885.65
2355.32411	10891.95
2358.15376	10884.75
2360.98161	10857.75
2363.80768	10880.85
2366.63195	10869.45
2369.45444	10853.25
2372.27514	10841.65
2375.09405	10812.75
2377.91118	10773.65
2380.72652	10764.55
2383.54009	10759.45
2386.35187	10718.65
2389.16188	10707.05
2391.97011	10668.85
2394.77657	10660.35
2397.58125	10623.05
2400.38416	10608.85
2403.18529	10590.05
2405.98466	10573.85
2408.78226	10554.65
2411.57809	10546.85
2414.37216	10553.55
2417.16446	10571.45
2419.955	10522.15
2422.74378	10499.85
2425.5308	10516.65
2428.31606	10485.65
2431.09956	10490.05
2433.88131	10452.15
2436.6613	10464.35
2439.43954	10478.05
2442.21603	10465.85
2444.99077	10436.05
2447.76377	10420.65
2450.53501	10408.95
2453.30451	10420.75
2456.07226	10406.55
2458.83827	10405.35
2461.60254	10413.25
2464.36507	10410.85
2467.12586	10424.45
2469.88492	10409.15
2472.64224	10427.95
2475.39782	10413.65
2478.15167	10415.75
2480.90379	10423.85
2483.65417	10404.75
2486.40283	10391.35
2489.14976	10419.55
2491.89497	10421.85
2494.63845	10419.35
2497.3802	10438.95
2500.12024	10432.25
2502.85855	10408.25
2505.59514	10403.35
2508.33002	10390.35
2511.06318	10405.35
2513.79462	10413.85
2516.52435	10372.05
2519.25237	10377.25
2521.97867	10342.15
2524.70327	10328.65
2527.42616	10312.35
2530.14734	10325.45
2532.86681	10332.25
2535.58458	10320.35
2538.30065	10305.05
2541.01501	10299.85
2543.72768	10302.25
2546.43864	10295.75
2549.14791	10283.35
2551.85548	10241.95
2554.56136	10234.75
2557.26554	10239.15
2559.96803	10205.15
2562.66883	10213.15
2565.36794	10185.35
2568.06536	10193.45
2570.7611	10196.05
2573.45514	10169.15
2576.14751	10150.15
2578.83819	10148.15
2581.52719	10156.05
2584.21451	10151.95
2586.90015	10131.95
2589.58411	10155.15
2592.2664	10124.15
2594.94701	10125.45
2597.62594	10114.55
2600.30321	10103.15
2602.9788	10106.65
2605.65273	10111.35
2608.32498	10134.35
2610.99557	10125.45
2613.66449	10121.85
2616.33175	10113.65
2618.99734	10113.15
2621.66128	10101.85
2624.32355	10090.25
2626.98416	10102.35
2629.64311	10067.75
2632.30041	10081.35
2634.95605	10045.15
2637.61004	10060.05
2640.26238	10058.35
2642.91306	10033.25
2645.56209	10023.75
2648.20948	10057.55
2650.85521	10043.45
2653.4993	10059.35
2656.14175	10044.05
2658.78255	10085.55
2661.42171	10059.05
2664.05923	10081.65
2666.6951	10067.65
2669.32934	10106.45
2671.96194	10076.05
2674.59291	10084.85
2677.22224	10092.35
2679.84993	10077.05
2682.476	10034.55
2685.10043	10038.95
2687.72324	10041.35
2690.34441	10028.35
2692.96396	10008.55
2695.58188	10041.65
2698.19818	10043.65
2700.81285	10034.45
2703.4259	10063.25
2706.03733	10032.25
2708.64714	10047.55
2711.25533	10055.85
2713.86191	10078.05
2716.46687	10093.35
2719.07021	10067.15
2721.67194	10083.95
2724.27206	10071.85
2726.87057	10098.35
2729.46747	10129.65
2732.06276	10132.55
2734.65644	10114.45
2737.24852	10112.65
2739.83899	10087.15
2742.42786	10103.75
2745.01513	10102.85
2747.60079	10087.65
2750.18486	10088.85
2752.76733	10057.35
2755.3482	10055.35
2757.92747	10065.35
2760.50515	10054.55
2763.08123	10046.05
2765.65573	10049.65
2768.22863	10034.85
2770.79994	10055.05
2773.36967	10048.05
2775.9378	10056.85
2778.50435	10070.45
2781.06932	10037.55
2783.6327	10059.25
2786.1945	10057.75
2788.75471	10056.85
2791.31335	10054.95
2793.87041	10042.35
2796.42589	10010.75
2798.97979	10021.85
2801.53212	9976.15
2804.08288	9969.65
2806.63206	9943.35
2809.17967	9945.75
2811.72571	9907.25
2814.27018	9922.65
2816.81308	9885.05
2819.35442	9876.15
2821.89419	9842.85
2824.43239	9853.15
2826.96904	9838.35
2829.50412	9827.75
2832.03763	9803.15
2834.56959	9785.75
2837.1	9798.75
2839.62884	9817.25
2842.15613	9826.05
2844.68186	9864.25
2847.20604	9867.25
2849.72867	9905.95
2852.24974	9889.25
2854.76927	9870.85
2857.28724	9864.65
2859.80367	9851.95
2862.31855	9814.35
2864.83189	9820.65
2867.34368	9802.75
2869.85393	9801.05
2872.36264	9802.85
2874.8698	9813.95
2877.37543	9794.05
2879.87952	9793.45
2882.38207	9798.25
2884.88308	9797.35
2887.38256	9807.55
2889.88051	9825.05
2892.37692	9804.15
2894.8718	9827.65
2897.36515	9808.15
2899.85698	9804.85
2902.34727	9851.95
2904.83604	9839.65
2907.32328	9871.15
2909.809	9861.85
2912.29319	9876.65
2914.77587	9858.85
2917.25702	9856.65
2919.73665	9855.05
2922.21476	9865.95
2924.69136	9885.85
2927.16644	9877.45
2929.64	9863.95
2932.11205	9858.15
2934.58258	9817.95
2937.05161	9820.55
2939.51912	9811.85
2941.98513	9778.05
2944.44962	9779.25
2946.91261	9711.35
2949.37409	9732.85
2951.83407	9726.25
2954.29254	9704.45
2956.74951	9709.75
2959.20498	9690.45
2961.65895	9657.35
2964.11142	9667.55
2966.56239	9604.45
2969.01186	9642.85
2971.45984	9623.55
2973.90632	9571.75
2976.35131	9563.35
2978.7948	9529.35
2981.23681	9496.55
2983.67732	9489.25
2986.11635	9476.85
2988.55388	9423.45
2990.98993	9418.75
2993.4245	9379.05
2995.85758	9350.95
2998.28917	9344.05
3000.71928	9319.15
3003.14791	9300.75
3005.57506	9287.45
3008.00073	9238.85
3010.42493	9240.55
3012.84764	9223.15
3015.26888	9227.85
3017.68865	9186.15
3020.10694	9169.25
3022.52376	9142.45
3024.9391	9132.45
3027.35298	9119.15
3029.76539	9114.05
3032.17632	9115.55
3034.5858	9107.55
3036.9938	9122.45
3039.40034	9095.65
3041.80542	9103.45
3044.20903	9069.25
3046.61118	9078.85
3049.01187	9049.15
3051.4111	9051.95
3053.80888	9010.15
3056.20519	8999.45
3058.60005	8990.25
3060.99345	8960.95
3063.3854	8932.55
3065.7759	8884.25
3068.16494	8880.75
3070.55254	8834.75
3072.93868	8803.75
3075.32338	8793.55
3077.70662	8776.55
3080.08842	8736.55
3082.46878	8727.05
3084.84769	8713.55
3087.22515	8698.05
3089.60118	8694.25
3091.97576	8679.35
3094.3489	8726.95
3096.72061	8724.95
3099.09087	8702.15
3101.4597	8695.15
3103.82709	8693.25
3106.19305	8663.35
3108.55757	8656.25
3110.92066	8659.95
3113.28232	8607.75
3115.64255	8591.95
3118.00134	8569.75
3120.35871	8598.65
3122.71466	8562.05
3125.06917	8518.35
3127.42226	8500.65
3129.77393	8501.95
3132.12417	8497.35
3134.47299	8489.65
3136.82039	8488.75
3139.16636	8461.05
3141.51092	8488.25
3143.85406	8468.05
3146.19579	8454.35
3148.53609	8470.45
3150.87499	8459.45
3153.21246	8463.65
3155.54853	8495.55
3157.88318	8490.85
3160.21642	8520.95
3162.54826	8475.45
3164.87868	8492.15
3167.2077	8514.35
3169.5353	8508.35
3171.86151	8507.65
3174.18631	8511.15
3176.5097	8502.75
3178.83169	8483.65
3181.15228	8492.55
3183.47147	8441.55
3185.78926	8456.55
3188.10565	8413.55
3190.42065	8460.55
3192.73424	8430.05
3195.04645	8416.85
3197.35725	8437.95
3199.66667	8417.95
3201.97469	8447.15
3204.28132	8397.75
3206.58656	8424.15
3208.8904	8410.65
3211.19287	8409.95
3213.49394	8441.85
3215.79363	8452.25
3218.09193	8422.75
3220.38884	8422.85
3222.68438	8420.45
3224.97853	8431.65
3227.2713	8425.25
3229.56269	8398.15
3231.8527	8409.45
3234.14133	8402.05
3236.42858	8372.15
3238.71446	8362.65
3240.99896	8337.25
3243.28209	8320.25
3245.56384	8322.15
3247.84423	8325.05
3250.12324	8307.65
3252.40088	8286.65
3254.67715	8287.25
3256.95205	8272.75
3259.22558	8267.35
3261.49775	8239.15
3263.76855	8206.75
3266.03799	8195.65
3268.30606	8182.65
3270.57277	8192.45
3272.83812	8164.65
3275.10211	8154.85
3277.36474	8124.15
3279.62601	8161.25
3281.88593	8131.45
3284.14448	8131.75
3286.40168	8126.75
3288.65753	8130.25
3290.91202	8136.05
3293.16516	8111.75
3295.41695	8091.05
3297.66738	8017.55
3299.91647	7980.35
3302.16421	7926.15
3304.4106	7895.55
3306.65564	7841.95
3308.89933	7780.65
3311.14169	7739.75
3313.38269	7666.55
3315.62236	7602.15
3317.86068	7537.45
3320.09766	7471.05
3322.3333	7440.05
3324.5676	7393.45
3326.80056	7281.45
3329.03219	7228.15
3331.26248	3.15
3333.49143	-0.35
3335.71905	-0.95
