Data from AgNPs_FTO_APTES_UA_5uM_CRN_1000uM_R6G_10uM_NaF_0.1M_Addition_RamanShift__15__17-41-21-880.txt Node

Date: Mon Feb 07 17:41:21 GMT 2022
User: TCL
Spectrometer: QEP01345
Trigger mode: 4
Integration Time (sec): 7.000000E0
Scans to average: 10
Electric dark correction enabled: true
Nonlinearity correction enabled: false
Boxcar width: 0
XAxis mode: Raman Shifts
Number of Pixels in Spectrum: 1044
>>>>>Begin Spectral Data<<<<<
46.04893	-1.35
50.45542	0.75
54.85868	-0.15
59.25871	-0.35
63.6555	43.85
68.04907	47.65
72.43941	50.15
76.82654	48.35
81.21044	50.45
85.59113	50.55
89.96862	58.75
94.34289	57.45
98.71396	57.75
103.08183	61.15
107.4465	64.45
111.80798	66.25
116.16626	67.65
120.52136	69.75
124.87327	71.45
129.222	79.25
133.56755	78.95
137.90993	89.25
142.24913	98.05
146.58517	111.05
150.91804	128.05
155.24774	156.65
159.57429	194.25
163.89768	247.85
168.21792	328.45
172.53501	452.45
176.84895	622.55
181.15975	881.95
185.46741	1243.85
189.77193	1733.15
194.07331	2315.05
198.37157	3004.05
202.6667	3733.25
206.9587	4449.15
211.24758	5153.05
215.53334	5846.05
219.81599	6599.95
224.09553	7422.55
228.37195	8305.25
232.64527	9274.55
236.91549	10300.45
241.18261	11318.05
245.44663	12260.95
249.70755	13076.85
253.96539	13833.05
258.22014	14409.75
262.4718	14931.75
266.72039	15273.35
270.96589	15468.35
275.20832	15545.45
279.44768	15491.75
283.68397	15407.85
287.91719	15313.55
292.14735	15300.35
296.37445	15347.55
300.59849	15475.85
304.81948	15563.85
309.03742	15546.25
313.25231	15390.45
317.46415	15032.15
321.67296	14544.65
325.87872	14065.65
330.08145	13849.15
334.28114	13788.45
338.47781	13866.55
342.67145	14008.35
346.86207	14231.25
351.04966	14484.25
355.23424	14747.75
359.4158	14931.05
363.59435	15073.65
367.76989	15149.75
371.94243	15208.95
376.11196	15244.45
380.27849	15232.75
384.44203	15302.05
388.60257	15371.05
392.76012	15512.05
396.91468	15715.95
401.06626	15938.45
405.21485	16115.05
409.36047	16047.15
413.50311	15764.45
417.64277	15528.95
421.77947	15403.05
425.9132	15428.45
430.04396	15443.45
434.17176	15548.95
438.2966	15640.95
442.41849	15794.95
446.53742	16098.95
450.6534	16427.65
454.76644	16684.55
458.87653	16773.45
462.98368	16804.75
467.08789	16805.25
471.18916	16687.55
475.2875	16650.15
479.38291	16598.45
483.4754	16505.25
487.56496	16407.25
491.6516	16183.95
495.73531	15961.45
499.81612	15796.65
503.89401	15802.65
507.96899	15849.45
512.04106	15841.05
516.11023	15777.95
520.1765	15694.95
524.23987	15588.25
528.30034	15455.05
532.35792	15339.05
536.41261	15240.25
540.46441	15074.95
544.51333	15104.55
548.55936	15277.65
552.60252	15582.75
556.64279	15906.85
560.6802	16154.75
564.71473	16348.25
568.7464	16632.75
572.7752	17129.25
576.80114	17455.65
580.82422	17666.25
584.84444	17795.65
588.86181	17822.15
592.87633	17781.95
596.888	17628.45
600.89682	17500.75
604.9028	17853.75
608.90594	19230.25
612.90624	20865.05
616.90371	19790.45
620.89834	16757.25
624.89015	15297.55
628.87913	15176.65
632.86528	15285.05
636.84862	15452.65
640.82913	15334.75
644.80683	15029.25
648.78172	14744.55
652.75379	14665.35
656.72306	14779.25
660.68952	15003.85
664.65319	14972.65
668.61405	14805.25
672.57211	14753.95
676.52738	14825.55
680.47986	14851.15
684.42955	14806.05
688.37646	14687.35
692.32058	14649.85
696.26192	14730.75
700.20048	14859.05
704.13626	14927.55
708.06928	15018.25
711.99952	14966.25
715.927	14933.15
719.85171	14916.85
723.77365	14853.45
727.69284	14720.35
731.60928	14602.05
735.52295	14509.95
739.43388	14465.15
743.34206	14475.75
747.24749	14497.75
751.15017	14621.15
755.05012	14823.05
758.94733	15185.55
762.8418	15973.65
766.73354	17221.55
770.62254	18438.55
774.50882	18829.75
778.39237	18064.15
782.27321	16789.85
786.15132	15663.15
790.02671	14949.25
793.89938	14521.75
797.76935	14372.65
801.6366	14280.05
805.50115	14225.55
809.36299	14141.95
813.22213	14057.65
817.07857	14048.25
820.93231	14022.65
824.78336	14020.85
828.63172	13946.25
832.47738	13918.45
836.32036	13885.85
840.16066	13821.95
843.99827	13829.45
847.8332	13797.85
851.66546	13779.75
855.49504	13839.85
859.32195	13816.15
863.1462	13815.15
866.96777	13784.45
870.78668	13784.35
874.60293	13817.75
878.41652	13796.25
882.22745	13822.65
886.03573	13846.95
889.84136	13848.15
893.64433	13836.65
897.44466	13809.85
901.24235	13781.95
905.0374	13695.05
908.8298	13670.95
912.61957	13646.45
916.40671	13773.05
920.19121	13925.75
923.97308	14058.45
927.75233	14007.55
931.52895	13931.35
935.30295	13713.25
939.07433	13512.65
942.84309	13305.65
946.60924	13157.05
950.37278	13086.35
954.13371	13039.95
957.89203	13023.35
961.64774	13014.55
965.40086	12969.75
969.15137	12955.55
972.89929	12891.75
976.64461	12857.95
980.38733	12796.55
984.12747	12774.55
987.86502	12825.15
991.59999	12851.25
995.33237	12922.85
999.06217	13006.75
1002.78939	13109.05
1006.51404	13297.85
1010.23611	13449.05
1013.95561	13559.05
1017.67255	13621.95
1021.38692	13546.15
1025.09872	13409.95
1028.80796	13289.95
1032.51465	13233.35
1036.21877	13277.75
1039.92035	13355.45
1043.61937	13419.05
1047.31584	13465.75
1051.00976	13518.25
1054.70114	13594.45
1058.38998	13649.45
1062.07627	13791.75
1065.76003	13992.15
1069.44126	14093.65
1073.11995	14236.15
1076.79611	14380.25
1080.46974	14434.95
1084.14085	14473.15
1087.80943	14562.35
1091.47549	14689.75
1095.13903	14713.05
1098.80005	14642.75
1102.45857	14337.15
1106.11456	14046.85
1109.76805	13887.15
1113.41903	13866.15
1117.06751	13950.35
1120.71348	14166.45
1124.35696	14399.05
1127.99793	14670.55
1131.63641	14864.65
1135.2724	14686.75
1138.90589	14462.45
1142.5369	14378.65
1146.16542	14380.25
1149.79145	14394.35
1153.415	14507.55
1157.03607	14713.15
1160.65467	15021.05
1164.27079	15506.45
1167.88443	16137.05
1171.49561	16906.25
1175.10432	17932.15
1178.71056	19262.65
1182.31434	20452.65
1185.91565	21134.35
1189.51451	21288.85
1193.11091	21040.15
1196.70485	20376.95
1200.29634	19572.95
1203.88538	18926.15
1207.47197	18364.45
1211.05612	17895.75
1214.63782	17508.25
1218.21708	17075.75
1221.79391	16693.85
1225.36829	16402.55
1228.94024	16197.25
1232.50976	16030.45
1236.07685	15896.15
1239.6415	15853.55
1243.20374	15876.75
1246.76355	15955.05
1250.32093	16060.95
1253.8759	16294.75
1257.42845	16602.95
1260.97859	16992.25
1264.52631	17400.75
1268.07163	17831.85
1271.61453	18189.95
1275.15503	18558.55
1278.69312	18972.35
1282.22882	19326.35
1285.76211	19875.45
1289.29301	20542.85
1292.82151	21352.45
1296.34761	22281.65
1299.87133	23317.45
1303.39266	24427.75
1306.9116	25458.95
1310.42815	26475.35
1313.94233	26925.55
1317.45412	26805.45
1320.96354	26363.15
1324.47058	25983.95
1327.97525	25616.75
1331.47754	25439.65
1334.97747	25343.05
1338.47502	25384.65
1341.97022	25585.25
1345.46305	25801.35
1348.95352	26012.05
1352.44163	26165.65
1355.92738	26408.05
1359.41078	27022.45
1362.89183	27751.55
1366.37053	27250.35
1369.84688	25151.65
1373.32088	22692.55
1376.79254	20981.05
1380.26186	20147.85
1383.72883	19867.25
1387.19347	19784.15
1390.65578	19663.35
1394.11575	19552.45
1397.57339	19483.45
1401.0287	19509.95
1404.48168	19450.45
1407.93234	19258.05
1411.38068	18897.35
1414.82669	18327.15
1418.27039	17676.05
1421.71177	17060.85
1425.15083	16546.95
1428.58758	16265.45
1432.02203	16251.25
1435.45416	16482.55
1438.88399	16778.15
1442.31151	17030.35
1445.73673	17221.85
1449.15965	17477.75
1452.58027	17736.95
1455.9986	17937.15
1459.41463	18133.25
1462.82837	18365.95
1466.23982	18560.05
1469.64898	18756.55
1473.05586	18868.25
1476.46045	18834.05
1479.86276	18806.55
1483.26279	18801.65
1486.66054	18860.55
1490.05602	19108.75
1493.44922	19518.05
1496.84016	20164.45
1500.22882	21162.55
1503.61521	22423.35
1506.99934	23803.45
1510.38121	24940.55
1513.76081	25219.55
1517.13816	24500.85
1520.51324	23241.25
1523.88607	22129.15
1527.25665	21428.05
1530.62498	21042.65
1533.99105	20737.05
1537.35488	20418.75
1540.71647	19978.55
1544.07581	19431.45
1547.4329	18915.95
1550.78776	18521.95
1554.14038	18252.45
1557.49077	18125.25
1560.83892	18173.95
1564.18484	18285.35
1567.52853	18502.45
1570.86999	18750.55
1574.20922	19081.55
1577.54624	19266.25
1580.88103	19103.45
1584.2136	18811.15
1587.54395	18753.25
1590.87208	19017.65
1594.19801	19570.15
1597.52172	20256.75
1600.84321	20433.85
1604.16251	19827.95
1607.47959	18818.65
1610.79447	17731.55
1614.10715	16634.15
1617.41763	15588.45
1620.7259	14809.15
1624.03199	14352.25
1627.33587	14175.45
1630.63757	14363.35
1633.93707	14873.55
1637.23439	15888.95
1640.52951	17396.25
1643.82246	19360.75
1647.11321	21290.25
1650.40179	22343.35
1653.68819	21867.95
1656.97241	19868.05
1660.25446	17412.25
1663.53433	15342.95
1666.81203	13878.75
1670.08756	12910.75
1673.36092	12347.85
1676.63211	11929.65
1679.90115	11662.15
1683.16801	11450.35
1686.43272	11313.55
1689.69527	11180.25
1692.95567	11080.05
1696.2139	11006.15
1699.46999	10960.05
1702.72392	10891.65
1705.97571	10882.05
1709.22535	10857.95
1712.47284	10813.85
1715.71819	10787.55
1718.96139	10778.45
1722.20246	10705.45
1725.44139	10673.75
1728.67818	10575.05
1731.91284	10544.25
1735.14537	10482.75
1738.37576	10421.45
1741.60403	10397.25
1744.83017	10359.15
1748.05418	10345.25
1751.27607	10320.25
1754.49584	10337.45
1757.71349	10316.55
1760.92903	10297.05
1764.14244	10265.75
1767.35375	10261.15
1770.56294	10206.55
1773.77002	10164.55
1776.97499	10122.25
1780.17785	10103.85
1783.37861	10102.95
1786.57727	10086.95
1789.77382	10032.95
1792.96828	10001.55
1796.16064	9957.25
1799.3509	9938.95
1802.53907	9903.65
1805.72514	9895.75
1808.90913	9855.75
1812.09102	9815.25
1815.27083	9810.25
1818.44856	9780.65
1821.6242	9754.15
1824.79776	9757.25
1827.96924	9701.05
1831.13864	9693.35
1834.30597	9666.35
1837.47122	9658.35
1840.6344	9665.05
1843.7955	9657.75
1846.95454	9617.65
1850.11151	9629.55
1853.26642	9581.45
1856.41926	9584.35
1859.57004	9566.35
1862.71876	9574.05
1865.86542	9562.25
1869.01003	9541.45
1872.15258	9543.85
1875.29308	9494.85
1878.43152	9481.75
1881.56792	9450.35
1884.70227	9450.45
1887.83457	9427.85
1890.96482	9423.25
1894.09304	9387.45
1897.21921	9359.25
1900.34335	9366.95
1903.46544	9330.85
1906.58551	9342.25
1909.70353	9317.95
1912.81953	9278.65
1915.93349	9276.35
1919.04543	9257.25
1922.15534	9245.85
1925.26322	9204.75
1928.36908	9193.05
1931.47292	9194.65
1934.57473	9164.15
1937.67453	9130.35
1940.77232	9110.05
1943.86808	9073.95
1946.96184	9025.25
1950.05358	9004.65
1953.14331	8939.55
1956.23103	8935.35
1959.31675	8930.15
1962.40046	8900.55
1965.48217	8873.65
1968.56188	8827.35
1971.63959	8788.25
1974.7153	8771.95
1977.78901	8737.35
1980.86073	8681.05
1983.93046	8683.45
1986.99819	8619.95
1990.06394	8626.55
1993.1277	8567.75
1996.18947	8548.25
1999.24925	8553.05
2002.30706	8513.15
2005.36288	8467.65
2008.41672	8443.25
2011.46859	8398.35
2014.51848	8381.35
2017.56639	8364.05
2020.61233	8332.55
2023.6563	8309.25
2026.6983	8279.65
2029.73833	8244.55
2032.7764	8242.45
2035.8125	8225.75
2038.84664	8193.35
2041.87881	8183.25
2044.90903	8152.55
2047.93729	8134.95
2050.96359	8108.55
2053.98794	8111.75
2057.01034	8091.65
2060.03078	8086.35
2063.04927	8091.45
2066.06582	8059.55
2069.08042	8084.85
2072.09307	8062.65
2075.10378	8040.25
2078.11255	8022.25
2081.11938	8029.45
2084.12426	8036.85
2087.12722	8025.55
2090.12824	8002.05
2093.12732	7999.25
2096.12447	7993.45
2099.11969	7972.65
2102.11299	7983.85
2105.10435	7977.35
2108.09379	7970.95
2111.08131	7967.75
2114.0669	7996.75
2117.05057	7999.05
2120.03233	7995.95
2123.01216	7991.75
2125.99008	8015.55
2128.96609	7977.85
2131.94018	7988.25
2134.91236	8012.85
2137.88263	8005.95
2140.851	8014.85
2143.81746	8012.55
2146.78201	7999.05
2149.74466	8012.75
2152.7054	7985.35
2155.66425	7943.25
2158.6212	7966.35
2161.57625	7933.45
2164.52941	7931.45
2167.48067	7954.25
2170.43004	7952.75
2173.37752	7922.35
2176.32311	7966.35
2179.26681	7940.45
2182.20863	7904.45
2185.14856	7913.95
2188.08661	7903.35
2191.02278	7916.15
2193.95707	7899.75
2196.88948	7878.15
2199.82001	7857.85
2202.74867	7830.95
2205.67545	7821.95
2208.60037	7810.75
2211.52341	7810.55
2214.44458	7800.65
2217.36388	7756.35
2220.28132	7738.65
2223.1969	7714.75
2226.11061	7717.95
2229.02246	7689.35
2231.93245	7677.75
2234.84058	7652.85
2237.74686	7642.25
2240.65128	7621.45
2243.55385	7621.05
2246.45456	7607.45
2249.35343	7619.55
2252.25044	7589.45
2255.14561	7575.75
2258.03893	7547.85
2260.93041	7511.35
2263.82004	7516.05
2266.70783	7483.05
2269.59378	7486.35
2272.4779	7438.35
2275.36017	7428.65
2278.24061	7422.45
2281.11922	7388.75
2283.996	7379.55
2286.87094	7371.15
2289.74405	7342.15
2292.61534	7329.05
2295.4848	7303.95
2298.35243	7314.05
2301.21824	7298.65
2304.08223	7306.45
2306.94439	7309.75
2309.80474	7293.95
2312.66327	7255.45
2315.51999	7278.15
2318.37489	7270.35
2321.22797	7252.05
2324.07925	7240.55
2326.92871	7235.75
2329.77637	7205.45
2332.62222	7183.55
2335.46626	7184.35
2338.3085	7175.75
2341.14893	7172.55
2343.98756	7161.55
2346.8244	7144.95
2349.65943	7119.25
2352.49267	7119.85
2355.32411	7124.15
2358.15376	7122.35
2360.98161	7127.65
2363.80768	7109.85
2366.63195	7119.65
2369.45444	7117.05
2372.27514	7100.05
2375.09405	7086.95
2377.91118	7065.75
2380.72652	7067.45
2383.54009	7038.15
2386.35187	7004.75
2389.16188	6987.05
2391.97011	6970.65
2394.77657	6933.25
2397.58125	6949.45
2400.38416	6940.75
2403.18529	6877.95
2405.98466	6890.75
2408.78226	6869.25
2411.57809	6871.55
2414.37216	6854.25
2417.16446	6874.45
2419.955	6843.25
2422.74378	6837.95
2425.5308	6832.55
2428.31606	6825.45
2431.09956	6822.25
2433.88131	6798.65
2436.6613	6784.15
2439.43954	6802.65
2442.21603	6767.95
2444.99077	6770.95
2447.76377	6767.95
2450.53501	6763.95
2453.30451	6750.95
2456.07226	6747.75
2458.83827	6734.85
2461.60254	6728.05
2464.36507	6730.95
2467.12586	6718.85
2469.88492	6724.55
2472.64224	6703.45
2475.39782	6694.55
2478.15167	6724.85
2480.90379	6683.65
2483.65417	6693.75
2486.40283	6693.05
2489.14976	6684.45
2491.89497	6664.15
2494.63845	6677.05
2497.3802	6664.65
2500.12024	6665.85
2502.85855	6644.05
2505.59514	6649.95
2508.33002	6624.65
2511.06318	6621.25
2513.79462	6635.75
2516.52435	6628.95
2519.25237	6562.85
2521.97867	6560.75
2524.70327	6557.75
2527.42616	6547.95
2530.14734	6558.85
2532.86681	6552.35
2535.58458	6535.55
2538.30065	6531.05
2541.01501	6513.45
2543.72768	6488.25
2546.43864	6492.35
2549.14791	6485.75
2551.85548	6463.95
2554.56136	6451.95
2557.26554	6435.95
2559.96803	6415.95
2562.66883	6414.75
2565.36794	6407.85
2568.06536	6417.45
2570.7611	6384.65
2573.45514	6365.05
2576.14751	6371.85
2578.83819	6347.35
2581.52719	6326.15
2584.21451	6331.25
2586.90015	6312.25
2589.58411	6309.95
2592.2664	6290.75
2594.94701	6277.85
2597.62594	6285.65
2600.30321	6256.15
2602.9788	6251.45
2605.65273	6247.75
2608.32498	6268.35
2610.99557	6257.05
2613.66449	6249.05
2616.33175	6227.55
2618.99734	6225.05
2621.66128	6204.25
2624.32355	6189.75
2626.98416	6186.85
2629.64311	6180.25
2632.30041	6147.05
2634.95605	6150.85
2637.61004	6140.55
2640.26238	6145.65
2642.91306	6141.05
2645.56209	6133.55
2648.20948	6133.55
2650.85521	6123.75
2653.4993	6114.85
2656.14175	6126.15
2658.78255	6130.45
2661.42171	6137.55
2664.05923	6113.65
2666.6951	6099.75
2669.32934	6111.65
2671.96194	6119.15
2674.59291	6129.65
2677.22224	6115.05
2679.84993	6101.65
2682.476	6074.35
2685.10043	6085.05
2687.72324	6087.35
2690.34441	6082.45
2692.96396	6081.95
2695.58188	6078.85
2698.19818	6068.45
2700.81285	6093.55
2703.4259	6069.15
2706.03733	6065.15
2708.64714	6078.45
2711.25533	6063.55
2713.86191	6065.75
2716.46687	6094.85
2719.07021	6061.75
2721.67194	6079.15
2724.27206	6084.25
2726.87057	6069.75
2729.46747	6079.25
2732.06276	6072.25
2734.65644	6054.55
2737.24852	6048.55
2739.83899	6054.05
2742.42786	6045.55
2745.01513	6056.05
2747.60079	6028.55
2750.18486	6024.25
2752.76733	5995.85
2755.3482	5992.45
2757.92747	5984.95
2760.50515	5973.15
2763.08123	5978.85
2765.65573	5957.85
2768.22863	5946.05
2770.79994	5944.75
2773.36967	5957.15
2775.9378	5937.85
2778.50435	5936.95
2781.06932	5933.55
2783.6327	5915.55
2786.1945	5910.45
2788.75471	5920.35
2791.31335	5896.35
2793.87041	5912.45
2796.42589	5875.65
2798.97979	5876.75
2801.53212	5848.05
2804.08288	5857.15
2806.63206	5819.35
2809.17967	5832.65
2811.72571	5808.65
2814.27018	5811.55
2816.81308	5796.85
2819.35442	5798.65
2821.89419	5765.45
2824.43239	5768.45
2826.96904	5766.05
2829.50412	5776.15
2832.03763	5772.05
2834.56959	5755.35
2837.1	5754.25
2839.62884	5751.15
2842.15613	5777.55
2844.68186	5794.95
2847.20604	5821.45
2849.72867	5843.45
2852.24974	5840.65
2854.76927	5851.75
2857.28724	5815.95
2859.80367	5814.15
2862.31855	5800.35
2864.83189	5784.05
2867.34368	5774.05
2869.85393	5768.05
2872.36264	5774.25
2874.8698	5776.95
2877.37543	5772.55
2879.87952	5751.75
2882.38207	5756.85
2884.88308	5740.55
2887.38256	5738.45
2889.88051	5746.25
2892.37692	5739.45
2894.8718	5749.95
2897.36515	5751.45
2899.85698	5737.15
2902.34727	5758.05
2904.83604	5772.95
2907.32328	5782.45
2909.809	5785.55
2912.29319	5764.85
2914.77587	5767.25
2917.25702	5764.25
2919.73665	5744.65
2922.21476	5748.15
2924.69136	5754.85
2927.16644	5758.65
2929.64	5743.85
2932.11205	5737.85
2934.58258	5727.85
2937.05161	5727.85
2939.51912	5714.05
2941.98513	5704.75
2944.44962	5701.55
2946.91261	5666.35
2949.37409	5657.25
2951.83407	5651.55
2954.29254	5617.25
2956.74951	5614.95
2959.20498	5606.75
2961.65895	5594.45
2964.11142	5577.45
2966.56239	5558.15
2969.01186	5560.85
2971.45984	5545.55
2973.90632	5555.85
2976.35131	5514.05
2978.7948	5493.85
2981.23681	5491.55
2983.67732	5458.55
2986.11635	5462.95
2988.55388	5460.35
2990.98993	5419.85
2993.4245	5425.65
2995.85758	5384.15
2998.28917	5387.45
3000.71928	5375.65
3003.14791	5356.85
3005.57506	5342.05
3008.00073	5342.95
3010.42493	5309.05
3012.84764	5314.45
3015.26888	5342.35
3017.68865	5303.45
3020.10694	5298.65
3022.52376	5284.15
3024.9391	5274.35
3027.35298	5269.35
3029.76539	5265.15
3032.17632	5220.15
3034.5858	5232.95
3036.9938	5238.35
3039.40034	5240.05
3041.80542	5210.05
3044.20903	5190.65
3046.61118	5222.05
3049.01187	5187.15
3051.4111	5195.05
3053.80888	5181.05
3056.20519	5159.05
3058.60005	5160.85
3060.99345	5158.75
3063.3854	5138.65
3065.7759	5129.85
3068.16494	5106.25
3070.55254	5085.15
3072.93868	5097.55
3075.32338	5076.95
3077.70662	5072.15
3080.08842	5053.55
3082.46878	5036.45
3084.84769	5028.25
3087.22515	5033.75
3089.60118	5023.35
3091.97576	5016.35
3094.3489	5032.05
3096.72061	5042.05
3099.09087	5022.25
3101.4597	5010.45
3103.82709	5040.95
3106.19305	5016.05
3108.55757	5020.85
3110.92066	4973.55
3113.28232	4977.85
3115.64255	4975.45
3118.00134	4974.95
3120.35871	4987.95
3122.71466	4966.35
3125.06917	4945.35
3127.42226	4937.35
3129.77393	4935.05
3132.12417	4946.85
3134.47299	4944.45
3136.82039	4930.65
3139.16636	4932.05
3141.51092	4927.15
3143.85406	4922.45
3146.19579	4931.75
3148.53609	4922.85
3150.87499	4935.85
3153.21246	4949.25
3155.54853	4969.75
3157.88318	4952.15
3160.21642	4971.55
3162.54826	4963.95
3164.87868	4955.15
3167.2077	4975.15
3169.5353	4962.95
3171.86151	4981.45
3174.18631	4954.75
3176.5097	4949.75
3178.83169	4936.75
3181.15228	4944.65
3183.47147	4928.65
3185.78926	4925.15
3188.10565	4931.25
3190.42065	4932.65
3192.73424	4918.15
3195.04645	4911.65
3197.35725	4911.85
3199.66667	4907.55
3201.97469	4914.55
3204.28132	4906.65
3206.58656	4930.05
3208.8904	4927.15
3211.19287	4921.95
3213.49394	4925.65
3215.79363	4937.45
3218.09193	4927.95
3220.38884	4925.35
3222.68438	4928.25
3224.97853	4920.85
3227.2713	4915.85
3229.56269	4906.95
3231.8527	4921.75
3234.14133	4880.25
3236.42858	4879.95
3238.71446	4880.35
3240.99896	4869.05
3243.28209	4857.35
3245.56384	4846.75
3247.84423	4854.35
3250.12324	4846.15
3252.40088	4825.35
3254.67715	4833.35
3256.95205	4817.65
3259.22558	4823.25
3261.49775	4816.85
3263.76855	4799.85
3266.03799	4788.05
3268.30606	4776.25
3270.57277	4770.25
3272.83812	4768.55
3275.10211	4744.85
3277.36474	4748.85
3279.62601	4753.35
3281.88593	4736.75
3284.14448	4756.15
3286.40168	4739.85
3288.65753	4742.35
3290.91202	4748.95
3293.16516	4719.55
3295.41695	4714.95
3297.66738	4681.35
3299.91647	4645.35
3302.16421	4619.35
3304.4106	4589.55
3306.65564	4568.85
3308.89933	4544.75
3311.14169	4513.95
3313.38269	4478.45
3315.62236	4446.55
3317.86068	4399.35
3320.09766	4383.55
3322.3333	4364.65
3324.5676	4335.45
3326.80056	4269.85
3329.03219	4219.05
3331.26248	1.45
3333.49143	0.25
3335.71905	-0.75
