Data from AgNPs_FTO_APTES_UA_5uM_CRN_50uM_R6G_10uM_NaF_0.1M_Addition_RamanShift__40__14-29-16-855.txt Node

Date: Mon Feb 07 14:29:16 GMT 2022
User: TCL
Spectrometer: QEP01345
Trigger mode: 4
Integration Time (sec): 7.000000E0
Scans to average: 10
Electric dark correction enabled: true
Nonlinearity correction enabled: false
Boxcar width: 0
XAxis mode: Raman Shifts
Number of Pixels in Spectrum: 1044
>>>>>Begin Spectral Data<<<<<
46.04893	-0.15
50.45542	-1.05
54.85868	-1.25
59.25871	0.95
63.6555	71.35
68.04907	76.85
72.43941	82.45
76.82654	84.35
81.21044	83.05
85.59113	90.55
89.96862	95.85
94.34289	94.15
98.71396	97.95
103.08183	104.85
107.4465	104.75
111.80798	106.55
116.16626	109.65
120.52136	115.95
124.87327	120.35
129.222	134.55
133.56755	141.35
137.90993	154.45
142.24913	173.15
146.58517	193.65
150.91804	228.65
155.24774	275.45
159.57429	352.65
163.89768	453.55
168.21792	613.25
172.53501	840.25
176.84895	1171.95
181.15975	1650.75
185.46741	2338.75
189.77193	3214.85
194.07331	4290.25
198.37157	5552.35
202.6667	6854.65
206.9587	8151.15
211.24758	9437.55
215.53334	10691.35
219.81599	12003.15
224.09553	13470.55
228.37195	15101.35
232.64527	16828.75
236.91549	18617.45
241.18261	20467.95
245.44663	22246.75
249.70755	23814.85
253.96539	25206.55
258.22014	26466.25
262.4718	27449.65
266.72039	28148.25
270.96589	28518.15
275.20832	28636.45
279.44768	28529.95
283.68397	28336.85
287.91719	28160.65
292.14735	28064.25
296.37445	28048.25
300.59849	28157.85
304.81948	28208.15
309.03742	28122.95
313.25231	27823.55
317.46415	27363.45
321.67296	26688.75
325.87872	26204.35
330.08145	25935.15
334.28114	25825.15
338.47781	25902.95
342.67145	26163.15
346.86207	26465.05
351.04966	26900.05
355.23424	27259.85
359.4158	27625.45
363.59435	27953.05
367.76989	28181.35
371.94243	28364.75
376.11196	28444.25
380.27849	28523.55
384.44203	28656.55
388.60257	28784.45
392.76012	29141.15
396.91468	29648.35
401.06626	30082.35
405.21485	30362.55
409.36047	30255.65
413.50311	30031.65
417.64277	29927.85
421.77947	30065.05
425.9132	30268.05
430.04396	30435.05
434.17176	30617.15
438.2966	30788.85
442.41849	31259.25
446.53742	31961.95
450.6534	32892.85
454.76644	33503.25
458.87653	33728.75
462.98368	33601.95
467.08789	33234.05
471.18916	32863.65
475.2875	32623.45
479.38291	32531.85
483.4754	32472.75
487.56496	32174.35
491.6516	31508.15
495.73531	30875.75
499.81612	30401.15
503.89401	30353.25
507.96899	30524.45
512.04106	30501.75
516.11023	30217.95
520.1765	29800.05
524.23987	29336.45
528.30034	28955.65
532.35792	28712.25
536.41261	28453.85
540.46441	28205.85
544.51333	28267.15
548.55936	28587.55
552.60252	29198.95
556.64279	29984.55
560.6802	30647.15
564.71473	31139.05
568.7464	31880.55
572.7752	33106.85
576.80114	34439.05
580.82422	35621.85
584.84444	37003.65
588.86181	38647.25
592.87633	39813.05
596.888	39227.25
600.89682	37222.05
604.9028	35975.55
608.90594	36725.75
612.90624	37694.25
616.90371	35423.95
620.89834	30942.35
624.89015	28953.75
628.87913	28823.25
632.86528	29036.95
636.84862	28983.15
640.82913	28493.05
644.80683	27868.55
648.78172	27530.75
652.75379	27476.15
656.72306	27671.15
660.68952	27895.35
664.65319	27697.75
668.61405	27360.65
672.57211	27312.35
676.52738	27394.25
680.47986	27429.15
684.42955	27258.55
688.37646	27109.45
692.32058	27266.55
696.26192	27635.25
700.20048	28042.35
704.13626	28293.45
708.06928	28410.85
711.99952	28403.15
715.927	28368.95
719.85171	28425.15
723.77365	28259.25
727.69284	27816.55
731.60928	27428.55
735.52295	27234.75
739.43388	27187.05
743.34206	27329.05
747.24749	27458.95
751.15017	27812.85
755.05012	28336.35
758.94733	29176.85
762.8418	30408.75
766.73354	32127.55
770.62254	33561.95
774.50882	33513.35
778.39237	32026.75
782.27321	30021.35
786.15132	28583.85
790.02671	27654.45
793.89938	27159.45
797.76935	26971.65
801.6366	26926.75
805.50115	26885.45
809.36299	26803.05
813.22213	26610.55
817.07857	26558.15
820.93231	26462.25
824.78336	26264.55
828.63172	26064.85
832.47738	25896.95
836.32036	25928.25
840.16066	25942.25
843.99827	26008.45
847.8332	25929.75
851.66546	25915.35
855.49504	25946.35
859.32195	25929.85
863.1462	25841.55
866.96777	25770.55
870.78668	25692.65
874.60293	25695.15
878.41652	25655.05
882.22745	25673.85
886.03573	25763.75
889.84136	25766.55
893.64433	25706.75
897.44466	25618.15
901.24235	25510.75
905.0374	25491.85
908.8298	25477.15
912.61957	25591.45
916.40671	25822.95
920.19121	26349.75
923.97308	26630.95
927.75233	26519.85
931.52895	26109.25
935.30295	25590.45
939.07433	25123.55
942.84309	24811.15
946.60924	24628.15
950.37278	24553.35
954.13371	24529.35
957.89203	24553.95
961.64774	24549.65
965.40086	24588.45
969.15137	24469.55
972.89929	24326.95
976.64461	24155.55
980.38733	24069.25
984.12747	24058.95
987.86502	24159.15
991.59999	24285.85
995.33237	24459.65
999.06217	24793.45
1002.78939	25238.05
1006.51404	25624.55
1010.23611	26057.05
1013.95561	26335.15
1017.67255	26398.45
1021.38692	26168.85
1025.09872	25765.15
1028.80796	25507.55
1032.51465	25573.05
1036.21877	25688.45
1039.92035	25873.25
1043.61937	25932.65
1047.31584	25880.25
1051.00976	25846.25
1054.70114	25889.25
1058.38998	26088.45
1062.07627	26373.25
1065.76003	26759.85
1069.44126	27099.85
1073.11995	27465.25
1076.79611	27766.05
1080.46974	27875.85
1084.14085	27965.25
1087.80943	28245.15
1091.47549	28559.65
1095.13903	28752.45
1098.80005	28465.05
1102.45857	27768.45
1106.11456	27118.65
1109.76805	26782.55
1113.41903	26778.25
1117.06751	26903.85
1120.71348	27169.85
1124.35696	27403.45
1127.99793	27751.25
1131.63641	28010.45
1135.2724	28004.05
1138.90589	28046.75
1142.5369	28255.05
1146.16542	28598.05
1149.79145	29020.35
1153.415	29500.25
1157.03607	30132.55
1160.65467	31316.55
1164.27079	33076.75
1167.88443	35062.25
1171.49561	36802.65
1175.10432	38749.35
1178.71056	41206.85
1182.31434	43511.75
1185.91565	44570.75
1189.51451	44185.55
1193.11091	43281.25
1196.70485	42104.95
1200.29634	40939.55
1203.88538	40281.15
1207.47197	40355.15
1211.05612	40330.95
1214.63782	39623.85
1218.21708	38233.65
1221.79391	36588.15
1225.36829	35338.05
1228.94024	34490.15
1232.50976	33890.95
1236.07685	33447.45
1239.6415	33237.75
1243.20374	33305.85
1246.76355	33579.15
1250.32093	34094.65
1253.8759	34787.15
1257.42845	35704.25
1260.97859	36625.35
1264.52631	37635.95
1268.07163	38656.75
1271.61453	39729.05
1275.15503	40931.85
1278.69312	42401.65
1282.22882	44066.85
1285.76211	46112.75
1289.29301	48466.45
1292.82151	51384.65
1296.34761	54930.15
1299.87133	58872.05
1303.39266	62243.75
1306.9116	64817.75
1310.42815	66194.85
1313.94233	66461.25
1317.45412	65897.55
1320.96354	65101.95
1324.47058	64591.75
1327.97525	64575.15
1331.47754	64486.85
1334.97747	64131.35
1338.47502	63375.95
1341.97022	62223.25
1345.46305	60726.85
1348.95352	59263.15
1352.44163	58600.95
1355.92738	59088.35
1359.41078	60526.45
1362.89183	61544.55
1366.37053	60613.55
1369.84688	56570.25
1373.32088	51055.45
1376.79254	47175.15
1380.26186	46205.95
1383.72883	46930.25
1387.19347	47621.85
1390.65578	47612.15
1394.11575	47716.35
1397.57339	48380.45
1401.0287	49552.65
1404.48168	50344.05
1407.93234	50022.85
1411.38068	48549.65
1414.82669	46185.75
1418.27039	43554.65
1421.71177	41101.05
1425.15083	39188.75
1428.58758	38229.95
1432.02203	38552.25
1435.45416	39863.25
1438.88399	41518.55
1442.31151	42803.95
1445.73673	43604.25
1449.15965	44199.35
1452.58027	44515.65
1455.9986	44590.55
1459.41463	44688.15
1462.82837	45172.85
1466.23982	45869.65
1469.64898	46595.45
1473.05586	46940.45
1476.46045	46933.85
1479.86276	46496.55
1483.26279	45836.05
1486.66054	45414.15
1490.05602	45343.75
1493.44922	45594.35
1496.84016	45786.95
1500.22882	46142.45
1503.61521	46664.25
1506.99934	47417.45
1510.38121	48094.35
1513.76081	48387.25
1517.13816	48140.25
1520.51324	47684.55
1523.88607	47776.95
1527.25665	48282.15
1530.62498	48801.35
1533.99105	48801.15
1537.35488	48119.85
1540.71647	46736.75
1544.07581	45106.45
1547.4329	43347.25
1550.78776	41916.35
1554.14038	40855.35
1557.49077	40180.15
1560.83892	39831.75
1564.18484	39628.25
1567.52853	39719.35
1570.86999	40195.85
1574.20922	41260.45
1577.54624	42524.15
1580.88103	43452.75
1584.2136	44590.15
1587.54395	46457.05
1590.87208	49140.75
1594.19801	52008.15
1597.52172	54278.85
1600.84321	54275.45
1604.16251	51089.55
1607.47959	46295.05
1610.79447	41646.15
1614.10715	37716.55
1617.41763	34772.45
1620.7259	32789.35
1624.03199	31845.65
1627.33587	31973.75
1630.63757	33174.65
1633.93707	35727.15
1637.23439	39934.85
1640.52951	45994.85
1643.82246	53165.25
1647.11321	58726.55
1650.40179	59579.75
1653.68819	54612.85
1656.97241	46617.15
1660.25446	38905.95
1663.53433	33187.75
1666.81203	29367.35
1670.08756	27073.85
1673.36092	25636.55
1676.63211	24654.65
1679.90115	24029.15
1683.16801	23558.05
1686.43272	23202.65
1689.69527	22915.15
1692.95567	22693.45
1696.2139	22550.55
1699.46999	22428.45
1702.72392	22319.35
1705.97571	22265.05
1709.22535	22136.35
1712.47284	22064.55
1715.71819	22012.25
1718.96139	21928.95
1722.20246	21834.75
1725.44139	21729.75
1728.67818	21599.55
1731.91284	21429.15
1735.14537	21269.95
1738.37576	21135.05
1741.60403	21060.05
1744.83017	20994.35
1748.05418	20934.85
1751.27607	20889.75
1754.49584	20887.25
1757.71349	20858.05
1760.92903	20824.55
1764.14244	20799.95
1767.35375	20790.75
1770.56294	20712.25
1773.77002	20646.55
1776.97499	20595.15
1780.17785	20549.25
1783.37861	20478.65
1786.57727	20455.95
1789.77382	20405.15
1792.96828	20387.85
1796.16064	20306.55
1799.3509	20250.65
1802.53907	20171.55
1805.72514	20136.35
1808.90913	20104.95
1812.09102	20032.55
1815.27083	19954.05
1818.44856	19949.55
1821.6242	19906.65
1824.79776	19873.85
1827.96924	19857.15
1831.13864	19865.75
1834.30597	19841.55
1837.47122	19796.85
1840.6344	19752.35
1843.7955	19766.95
1846.95454	19757.45
1850.11151	19753.95
1853.26642	19691.65
1856.41926	19712.95
1859.57004	19686.65
1862.71876	19679.35
1865.86542	19636.65
1869.01003	19585.35
1872.15258	19563.55
1875.29308	19522.85
1878.43152	19534.15
1881.56792	19494.35
1884.70227	19466.35
1887.83457	19425.35
1890.96482	19422.45
1894.09304	19323.95
1897.21921	19330.75
1900.34335	19314.15
1903.46544	19275.75
1906.58551	19273.45
1909.70353	19273.15
1912.81953	19210.45
1915.93349	19162.45
1919.04543	19165.65
1922.15534	19062.35
1925.26322	19048.25
1928.36908	18962.25
1931.47292	18920.15
1934.57473	18890.25
1937.67453	18825.85
1940.77232	18750.25
1943.86808	18753.95
1946.96184	18676.65
1950.05358	18653.95
1953.14331	18589.15
1956.23103	18527.55
1959.31675	18462.45
1962.40046	18380.95
1965.48217	18343.65
1968.56188	18286.15
1971.63959	18232.85
1974.7153	18133.35
1977.78901	18079.75
1980.86073	18039.95
1983.93046	17948.95
1986.99819	17890.05
1990.06394	17871.35
1993.1277	17829.55
1996.18947	17789.65
1999.24925	17701.45
2002.30706	17653.45
2005.36288	17592.35
2008.41672	17543.35
2011.46859	17502.15
2014.51848	17472.35
2017.56639	17376.35
2020.61233	17355.15
2023.6563	17320.05
2026.6983	17236.25
2029.73833	17171.55
2032.7764	17135.65
2035.8125	17136.15
2038.84664	17073.25
2041.87881	17054.25
2044.90903	17023.15
2047.93729	17026.65
2050.96359	17002.55
2053.98794	16952.15
2057.01034	16967.75
2060.03078	16895.35
2063.04927	16900.35
2066.06582	16897.35
2069.08042	16893.45
2072.09307	16826.25
2075.10378	16810.65
2078.11255	16816.25
2081.11938	16816.55
2084.12426	16813.85
2087.12722	16771.95
2090.12824	16758.75
2093.12732	16743.05
2096.12447	16744.25
2099.11969	16742.95
2102.11299	16758.85
2105.10435	16771.15
2108.09379	16724.55
2111.08131	16746.35
2114.0669	16762.65
2117.05057	16797.35
2120.03233	16773.55
2123.01216	16792.15
2125.99008	16811.45
2128.96609	16821.15
2131.94018	16805.75
2134.91236	16804.35
2137.88263	16791.95
2140.851	16766.55
2143.81746	16784.45
2146.78201	16770.95
2149.74466	16764.75
2152.7054	16754.35
2155.66425	16732.95
2158.6212	16721.15
2161.57625	16711.35
2164.52941	16717.45
2167.48067	16689.55
2170.43004	16693.85
2173.37752	16682.35
2176.32311	16647.85
2179.26681	16662.95
2182.20863	16686.45
2185.14856	16688.05
2188.08661	16702.75
2191.02278	16683.95
2193.95707	16673.15
2196.88948	16652.85
2199.82001	16617.95
2202.74867	16555.25
2205.67545	16554.15
2208.60037	16511.45
2211.52341	16506.55
2214.44458	16474.65
2217.36388	16447.85
2220.28132	16406.05
2223.1969	16361.65
2226.11061	16356.85
2229.02246	16307.35
2231.93245	16311.55
2234.84058	16267.65
2237.74686	16209.95
2240.65128	16217.65
2243.55385	16190.15
2246.45456	16157.65
2249.35343	16163.65
2252.25044	16084.45
2255.14561	16052.05
2258.03893	16038.15
2260.93041	15975.05
2263.82004	15947.95
2266.70783	15897.85
2269.59378	15807.35
2272.4779	15777.05
2275.36017	15732.15
2278.24061	15735.25
2281.11922	15700.25
2283.996	15651.15
2286.87094	15627.15
2289.74405	15591.45
2292.61534	15593.45
2295.4848	15567.65
2298.35243	15555.55
2301.21824	15518.85
2304.08223	15569.15
2306.94439	15522.05
2309.80474	15538.45
2312.66327	15522.85
2315.51999	15506.85
2318.37489	15495.75
2321.22797	15463.15
2324.07925	15442.85
2326.92871	15425.05
2329.77637	15396.05
2332.62222	15359.55
2335.46626	15340.75
2338.3085	15328.65
2341.14893	15353.55
2343.98756	15331.75
2346.8244	15313.85
2349.65943	15293.75
2352.49267	15301.95
2355.32411	15294.45
2358.15376	15288.25
2360.98161	15305.65
2363.80768	15268.35
2366.63195	15266.15
2369.45444	15246.35
2372.27514	15224.05
2375.09405	15204.15
2377.91118	15179.05
2380.72652	15126.85
2383.54009	15106.75
2386.35187	15063.15
2389.16188	15040.55
2391.97011	15016.25
2394.77657	14967.35
2397.58125	14927.05
2400.38416	14919.75
2403.18529	14909.65
2405.98466	14893.15
2408.78226	14852.15
2411.57809	14863.95
2414.37216	14839.35
2417.16446	14829.65
2419.955	14838.85
2422.74378	14780.45
2425.5308	14739.35
2428.31606	14740.85
2431.09956	14765.75
2433.88131	14741.85
2436.6613	14740.25
2439.43954	14743.05
2442.21603	14716.15
2444.99077	14717.75
2447.76377	14707.55
2450.53501	14678.95
2453.30451	14709.25
2456.07226	14667.15
2458.83827	14676.35
2461.60254	14651.65
2464.36507	14652.45
2467.12586	14622.75
2469.88492	14637.85
2472.64224	14656.05
2475.39782	14674.15
2478.15167	14679.85
2480.90379	14641.85
2483.65417	14621.05
2486.40283	14618.85
2489.14976	14673.15
2491.89497	14634.75
2494.63845	14656.45
2497.3802	14635.25
2500.12024	14639.45
2502.85855	14597.95
2505.59514	14599.95
2508.33002	14579.95
2511.06318	14571.55
2513.79462	14552.35
2516.52435	14516.45
2519.25237	14584.85
2521.97867	14516.15
2524.70327	14522.05
2527.42616	14487.15
2530.14734	14525.65
2532.86681	14518.75
2535.58458	14505.25
2538.30065	14473.15
2541.01501	14474.25
2543.72768	14458.55
2546.43864	14457.35
2549.14791	14440.05
2551.85548	14412.65
2554.56136	14415.45
2557.26554	14373.15
2559.96803	14353.25
2562.66883	14347.65
2565.36794	14336.85
2568.06536	14307.25
2570.7611	14266.35
2573.45514	14306.55
2576.14751	14269.45
2578.83819	14257.15
2581.52719	14273.35
2584.21451	14241.15
2586.90015	14255.75
2589.58411	14246.45
2592.2664	14220.75
2594.94701	14220.35
2597.62594	14218.85
2600.30321	14159.85
2602.9788	14176.05
2605.65273	14202.95
2608.32498	14210.75
2610.99557	14171.05
2613.66449	14167.55
2616.33175	14182.25
2618.99734	14184.15
2621.66128	14164.15
2624.32355	14128.15
2626.98416	14122.55
2629.64311	14128.95
2632.30041	14151.45
2634.95605	14121.45
2637.61004	14071.15
2640.26238	14084.25
2642.91306	14074.85
2645.56209	14074.75
2648.20948	14105.65
2650.85521	14104.25
2653.4993	14117.45
2656.14175	14106.15
2658.78255	14127.55
2661.42171	14109.15
2664.05923	14126.45
2666.6951	14166.25
2669.32934	14162.45
2671.96194	14145.45
2674.59291	14149.45
2677.22224	14163.95
2679.84993	14166.75
2682.476	14137.35
2685.10043	14120.05
2687.72324	14119.65
2690.34441	14138.35
2692.96396	14091.85
2695.58188	14111.45
2698.19818	14103.15
2700.81285	14122.15
2703.4259	14156.05
2706.03733	14173.45
2708.64714	14151.65
2711.25533	14174.65
2713.86191	14179.75
2716.46687	14189.85
2719.07021	14192.85
2721.67194	14221.15
2724.27206	14194.45
2726.87057	14204.55
2729.46747	14211.95
2732.06276	14276.25
2734.65644	14235.75
2737.24852	14237.25
2739.83899	14227.25
2742.42786	14205.35
2745.01513	14178.75
2747.60079	14186.95
2750.18486	14173.75
2752.76733	14135.45
2755.3482	14134.35
2757.92747	14148.75
2760.50515	14144.85
2763.08123	14167.65
2765.65573	14159.05
2768.22863	14181.15
2770.79994	14140.05
2773.36967	14152.45
2775.9378	14154.75
2778.50435	14126.95
2781.06932	14148.45
2783.6327	14160.15
2786.1945	14147.25
2788.75471	14127.65
2791.31335	14121.25
2793.87041	14089.95
2796.42589	14029.05
2798.97979	14061.55
2801.53212	13995.95
2804.08288	14002.65
2806.63206	13932.15
2809.17967	13932.45
2811.72571	13916.75
2814.27018	13920.05
2816.81308	13872.05
2819.35442	13831.05
2821.89419	13799.75
2824.43239	13789.45
2826.96904	13815.35
2829.50412	13794.95
2832.03763	13756.15
2834.56959	13748.05
2837.1	13753.45
2839.62884	13740.75
2842.15613	13751.05
2844.68186	13788.35
2847.20604	13829.55
2849.72867	13814.65
2852.24974	13824.95
2854.76927	13820.05
2857.28724	13791.65
2859.80367	13774.25
2862.31855	13733.65
2864.83189	13744.35
2867.34368	13706.15
2869.85393	13684.05
2872.36264	13644.75
2874.8698	13654.55
2877.37543	13624.25
2879.87952	13603.95
2882.38207	13638.75
2884.88308	13618.15
2887.38256	13625.45
2889.88051	13631.95
2892.37692	13629.15
2894.8718	13649.45
2897.36515	13631.75
2899.85698	13658.95
2902.34727	13680.35
2904.83604	13673.25
2907.32328	13696.65
2909.809	13681.15
2912.29319	13729.75
2914.77587	13702.95
2917.25702	13701.95
2919.73665	13700.15
2922.21476	13706.85
2924.69136	13701.85
2927.16644	13688.35
2929.64	13660.05
2932.11205	13665.45
2934.58258	13620.15
2937.05161	13660.45
2939.51912	13615.95
2941.98513	13610.05
2944.44962	13580.75
2946.91261	13515.05
2949.37409	13509.65
2951.83407	13505.65
2954.29254	13507.55
2956.74951	13467.35
2959.20498	13480.15
2961.65895	13408.75
2964.11142	13433.25
2966.56239	13414.85
2969.01186	13400.05
2971.45984	13379.25
2973.90632	13378.95
2976.35131	13342.75
2978.7948	13345.05
2981.23681	13278.75
2983.67732	13266.05
2986.11635	13190.05
2988.55388	13175.55
2990.98993	13157.55
2993.4245	13106.55
2995.85758	13064.95
2998.28917	12989.55
3000.71928	13002.15
3003.14791	12957.05
3005.57506	12976.35
3008.00073	12902.45
3010.42493	12797.85
3012.84764	12869.95
3015.26888	12863.45
3017.68865	12836.95
3020.10694	12783.85
3022.52376	12757.45
3024.9391	12737.65
3027.35298	12719.55
3029.76539	12719.15
3032.17632	12691.45
3034.5858	12650.25
3036.9938	12665.65
3039.40034	12670.35
3041.80542	12672.45
3044.20903	12664.65
3046.61118	12630.65
3049.01187	12601.55
3051.4111	12574.65
3053.80888	12544.75
3056.20519	12540.55
3058.60005	12510.65
3060.99345	12472.65
3063.3854	12436.25
3065.7759	12379.05
3068.16494	12347.45
3070.55254	12290.65
3072.93868	12250.15
3075.32338	12228.95
3077.70662	12194.25
3080.08842	12167.05
3082.46878	12140.85
3084.84769	12099.15
3087.22515	12119.05
3089.60118	12109.05
3091.97576	12114.35
3094.3489	12092.45
3096.72061	12081.85
3099.09087	12064.75
3101.4597	12036.25
3103.82709	12063.55
3106.19305	12009.15
3108.55757	12032.75
3110.92066	11968.55
3113.28232	11968.75
3115.64255	11958.85
3118.00134	11933.95
3120.35871	11896.65
3122.71466	11857.95
3125.06917	11824.15
3127.42226	11805.15
3129.77393	11777.05
3132.12417	11742.15
3134.47299	11753.85
3136.82039	11739.35
3139.16636	11732.55
3141.51092	11740.75
3143.85406	11716.85
3146.19579	11714.95
3148.53609	11693.35
3150.87499	11680.65
3153.21246	11697.55
3155.54853	11731.45
3157.88318	11671.85
3160.21642	11690.65
3162.54826	11702.35
3164.87868	11736.45
3167.2077	11691.05
3169.5353	11697.45
3171.86151	11701.75
3174.18631	11651.35
3176.5097	11665.65
3178.83169	11624.15
3181.15228	11652.15
3183.47147	11615.75
3185.78926	11606.65
3188.10565	11577.35
3190.42065	11553.95
3192.73424	11540.35
3195.04645	11529.05
3197.35725	11493.45
3199.66667	11479.45
3201.97469	11476.95
3204.28132	11485.95
3206.58656	11509.85
3208.8904	11486.45
3211.19287	11470.45
3213.49394	11473.45
3215.79363	11514.15
3218.09193	11453.35
3220.38884	11475.95
3222.68438	11485.75
3224.97853	11461.35
3227.2713	11428.95
3229.56269	11439.35
3231.8527	11425.45
3234.14133	11401.85
3236.42858	11380.65
3238.71446	11359.65
3240.99896	11336.25
3243.28209	11317.35
3245.56384	11301.55
3247.84423	11300.25
3250.12324	11264.15
3252.40088	11233.15
3254.67715	11235.65
3256.95205	11207.35
3259.22558	11188.05
3261.49775	11194.45
3263.76855	11150.35
3266.03799	11144.25
3268.30606	11083.65
3270.57277	11071.65
3272.83812	11065.45
3275.10211	11032.55
3277.36474	11021.95
3279.62601	11003.35
3281.88593	10988.75
3284.14448	11000.65
3286.40168	11014.05
3288.65753	11015.65
3290.91202	10999.85
3293.16516	10975.75
3295.41695	10939.85
3297.66738	10879.55
3299.91647	10840.05
3302.16421	10741.85
3304.4106	10710.25
3306.65564	10618.65
3308.89933	10558.45
3311.14169	10458.65
3313.38269	10367.25
3315.62236	10304.65
3317.86068	10182.75
3320.09766	10104.25
3322.3333	10052.35
3324.5676	10024.05
3326.80056	9858.65
3329.03219	9768.65
3331.26248	2.95
3333.49143	-1.35
3335.71905	-0.95
