Data from AgNPs_FTO_APTES_UA_5uM_CRN_5uM_R6G_10uM_NaF_0.1M_Addition_RamanShift__21__12-09-16-694.txt Node

Date: Mon Feb 07 12:09:16 GMT 2022
User: TCL
Spectrometer: QEP01345
Trigger mode: 4
Integration Time (sec): 7.000000E0
Scans to average: 10
Electric dark correction enabled: true
Nonlinearity correction enabled: false
Boxcar width: 0
XAxis mode: Raman Shifts
Number of Pixels in Spectrum: 1044
>>>>>Begin Spectral Data<<<<<
46.04893	-1.05
50.45542	-1.35
54.85868	-1.65
59.25871	0.05
63.6555	100.05
68.04907	104.35
72.43941	112.65
76.82654	113.15
81.21044	115.45
85.59113	122.75
89.96862	125.45
94.34289	128.65
98.71396	131.35
103.08183	138.35
107.4465	142.85
111.80798	145.25
116.16626	149.15
120.52136	158.45
124.87327	167.45
129.222	177.75
133.56755	193.15
137.90993	205.35
142.24913	229.15
146.58517	262.15
150.91804	306.05
155.24774	371.95
159.57429	467.05
163.89768	607.15
168.21792	812.55
172.53501	1107.65
176.84895	1556.05
181.15975	2191.35
185.46741	3067.65
189.77193	4227.95
194.07331	5639.35
198.37157	7262.35
202.6667	8918.35
206.9587	10601.15
211.24758	12244.05
215.53334	13937.55
219.81599	15731.85
224.09553	17729.75
228.37195	19987.45
232.64527	22447.45
236.91549	24973.45
241.18261	27502.45
245.44663	29739.65
249.70755	31728.95
253.96539	33474.15
258.22014	35014.85
262.4718	36278.45
266.72039	37300.75
270.96589	37897.15
275.20832	38191.25
279.44768	38147.55
283.68397	38103.65
287.91719	38050.35
292.14735	38174.25
296.37445	38371.25
300.59849	38643.85
304.81948	38783.75
309.03742	38699.35
313.25231	38029.45
317.46415	36757.05
321.67296	35099.35
325.87872	33735.15
330.08145	33046.25
334.28114	32946.05
338.47781	33199.85
342.67145	33711.35
346.86207	34396.65
351.04966	35317.55
355.23424	36260.85
359.4158	37085.85
363.59435	37494.65
367.76989	37705.55
371.94243	37781.15
376.11196	37858.25
380.27849	37929.75
384.44203	38046.45
388.60257	38177.15
392.76012	38495.85
396.91468	39082.95
401.06626	39733.05
405.21485	40299.95
409.36047	40067.35
413.50311	39162.55
417.64277	38413.15
421.77947	38280.95
425.9132	38438.85
430.04396	38628.75
434.17176	38912.05
438.2966	39254.05
442.41849	39903.45
446.53742	40976.25
450.6534	42276.75
454.76644	43387.45
458.87653	43801.45
462.98368	43674.15
467.08789	43216.95
471.18916	42554.95
475.2875	41984.75
479.38291	41801.85
483.4754	41540.55
487.56496	41016.75
491.6516	40155.85
495.73531	39395.05
499.81612	38972.65
503.89401	39125.45
507.96899	39226.55
512.04106	39083.85
516.11023	38745.75
520.1765	38248.65
524.23987	37710.05
528.30034	37221.35
532.35792	36673.35
536.41261	36095.45
540.46441	35748.85
544.51333	35739.95
548.55936	36433.55
552.60252	37569.55
556.64279	38767.25
560.6802	39486.35
564.71473	40047.95
568.7464	41033.05
572.7752	42361.65
576.80114	43048.65
580.82422	43484.75
584.84444	43814.05
588.86181	44047.15
592.87633	44448.05
596.888	44934.15
600.89682	45254.65
604.9028	47083.75
608.90594	52275.25
612.90624	57964.75
616.90371	54086.65
620.89834	43268.35
624.89015	38488.45
628.87913	38038.35
632.86528	38159.65
636.84862	37849.45
640.82913	36986.95
644.80683	35591.65
648.78172	34576.25
652.75379	34268.55
656.72306	34860.55
660.68952	35726.85
664.65319	35640.85
668.61405	34852.85
672.57211	34505.15
676.52738	34463.65
680.47986	34437.95
684.42955	34213.25
688.37646	34108.85
692.32058	34269.25
696.26192	34700.55
700.20048	35118.65
704.13626	35526.25
708.06928	35511.45
711.99952	35197.25
715.927	35048.15
719.85171	35013.85
723.77365	34889.55
727.69284	34390.15
731.60928	33982.15
735.52295	33816.65
739.43388	33847.65
743.34206	34049.95
747.24749	34241.95
751.15017	34724.85
755.05012	35557.95
758.94733	37013.55
762.8418	39688.75
766.73354	43968.05
770.62254	48024.65
774.50882	48806.25
778.39237	45800.45
782.27321	41238.25
786.15132	37552.95
790.02671	35352.05
793.89938	34357.05
797.76935	33886.75
801.6366	33760.75
805.50115	33620.65
809.36299	33437.55
813.22213	33159.35
817.07857	33002.55
820.93231	33004.45
824.78336	32874.25
828.63172	32811.35
832.47738	32725.55
836.32036	32757.65
840.16066	32843.05
843.99827	33005.55
847.8332	32825.15
851.66546	32608.05
855.49504	32517.75
859.32195	32488.05
863.1462	32286.75
866.96777	32066.15
870.78668	31954.95
874.60293	31937.95
878.41652	31928.05
882.22745	32046.15
886.03573	32136.85
889.84136	32127.55
893.64433	32012.85
897.44466	31861.75
901.24235	31729.55
905.0374	31597.45
908.8298	31523.75
912.61957	31612.45
916.40671	32123.85
920.19121	32739.45
923.97308	33285.05
927.75233	33383.15
931.52895	33128.65
935.30295	32598.15
939.07433	31789.15
942.84309	31116.55
946.60924	30831.15
950.37278	30688.15
954.13371	30570.95
957.89203	30297.15
961.64774	30219.95
965.40086	30168.15
969.15137	30108.65
972.89929	29948.25
976.64461	29776.15
980.38733	29800.35
984.12747	29957.25
987.86502	30293.35
991.59999	30843.05
995.33237	31620.75
999.06217	32876.05
1002.78939	34422.25
1006.51404	35325.35
1010.23611	35954.35
1013.95561	36236.85
1017.67255	36208.15
1021.38692	35707.55
1025.09872	35249.75
1028.80796	35568.15
1032.51465	36857.75
1036.21877	38113.75
1039.92035	38311.05
1043.61937	37633.45
1047.31584	36365.25
1051.00976	35119.95
1054.70114	34436.95
1058.38998	34377.25
1062.07627	34637.25
1065.76003	34976.25
1069.44126	35354.95
1073.11995	35770.75
1076.79611	36110.65
1080.46974	36396.95
1084.14085	36784.75
1087.80943	37370.25
1091.47549	37802.95
1095.13903	37725.85
1098.80005	37042.65
1102.45857	36084.15
1106.11456	35237.85
1109.76805	34995.85
1113.41903	35210.15
1117.06751	35625.05
1120.71348	36202.35
1124.35696	36805.15
1127.99793	37356.75
1131.63641	37606.85
1135.2724	37333.15
1138.90589	36813.25
1142.5369	36624.25
1146.16542	36544.25
1149.79145	36799.45
1153.415	37227.75
1157.03607	37955.65
1160.65467	39212.25
1164.27079	41161.85
1167.88443	43877.95
1171.49561	47362.45
1175.10432	52224.95
1178.71056	58084.65
1182.31434	63465.85
1185.91565	66477.55
1189.51451	66848.95
1193.11091	64763.55
1196.70485	61384.45
1200.29634	57824.85
1203.88538	54984.85
1207.47197	52785.05
1211.05612	51046.45
1214.63782	49768.65
1218.21708	48945.95
1221.79391	48548.05
1225.36829	48355.75
1228.94024	47864.15
1232.50976	46969.85
1236.07685	46317.05
1239.6415	45899.85
1243.20374	45573.05
1246.76355	45771.05
1250.32093	46465.55
1253.8759	47771.05
1257.42845	49540.65
1260.97859	51277.15
1264.52631	52900.95
1268.07163	54619.25
1271.61453	56532.45
1275.15503	58693.35
1278.69312	60983.85
1282.22882	62814.25
1285.76211	64536.05
1289.29301	66618.55
1292.82151	69137.95
1296.34761	72579.25
1299.87133	77102.05
1303.39266	82544.65
1306.9116	88775.95
1310.42815	95011.45
1313.94233	99026.25
1317.45412	99531.45
1320.96354	97811.45
1324.47058	95440.55
1327.97525	93268.95
1331.47754	91677.25
1334.97747	91023.95
1338.47502	91047.45
1341.97022	91015.35
1345.46305	90090.75
1348.95352	88237.35
1352.44163	86161.95
1355.92738	86234.85
1359.41078	89510.45
1362.89183	93248.95
1366.37053	91358.85
1369.84688	83193.95
1373.32088	73969.55
1376.79254	67597.65
1380.26186	64995.85
1383.72883	64592.05
1387.19347	64550.45
1390.65578	64359.75
1394.11575	64591.25
1397.57339	65802.35
1401.0287	67557.75
1404.48168	69107.65
1407.93234	69904.15
1411.38068	69176.85
1414.82669	67003.65
1418.27039	63545.95
1421.71177	59832.25
1425.15083	56914.85
1428.58758	55258.95
1432.02203	55129.65
1435.45416	56120.15
1438.88399	57680.85
1442.31151	59090.85
1445.73673	60397.05
1449.15965	61691.55
1452.58027	62693.05
1455.9986	63225.95
1459.41463	63896.55
1462.82837	65004.75
1466.23982	66193.95
1469.64898	67334.05
1473.05586	67768.65
1476.46045	67516.55
1479.86276	66893.75
1483.26279	66253.75
1486.66054	65866.15
1490.05602	66060.75
1493.44922	66497.25
1496.84016	67157.15
1500.22882	68455.05
1503.61521	70713.25
1506.99934	73814.55
1510.38121	76931.55
1513.76081	78398.85
1517.13816	77107.85
1520.51324	73723.55
1523.88607	70381.85
1527.25665	68033.15
1530.62498	66739.25
1533.99105	66147.05
1537.35488	65579.45
1540.71647	64856.75
1544.07581	63657.85
1547.4329	62242.65
1550.78776	60969.05
1554.14038	60121.25
1557.49077	59742.05
1560.83892	59661.35
1564.18484	59690.25
1567.52853	59672.05
1570.86999	59782.55
1574.20922	60394.75
1577.54624	61138.45
1580.88103	61181.45
1584.2136	61519.95
1587.54395	63344.55
1590.87208	66877.45
1594.19801	71574.15
1597.52172	76093.95
1600.84321	77386.95
1604.16251	73677.55
1607.47959	67330.95
1610.79447	60666.55
1614.10715	54620.95
1617.41763	49568.55
1620.7259	45974.75
1624.03199	44176.85
1627.33587	44054.45
1630.63757	45632.95
1633.93707	49156.35
1637.23439	54657.55
1640.52951	61831.75
1643.82246	69618.55
1647.11321	75274.05
1650.40179	76340.65
1653.68819	71057.45
1656.97241	61318.95
1660.25446	51381.75
1663.53433	43729.65
1666.81203	38688.65
1670.08756	35488.55
1673.36092	33560.35
1676.63211	32257.85
1679.90115	31420.25
1683.16801	30683.75
1686.43272	30225.05
1689.69527	29848.15
1692.95567	29559.75
1696.2139	29332.25
1699.46999	29150.65
1702.72392	28987.35
1705.97571	28939.05
1709.22535	28862.05
1712.47284	28767.25
1715.71819	28730.95
1718.96139	28646.15
1722.20246	28542.05
1725.44139	28350.65
1728.67818	28162.55
1731.91284	27925.35
1735.14537	27786.95
1738.37576	27631.75
1741.60403	27470.25
1744.83017	27401.15
1748.05418	27318.75
1751.27607	27227.75
1754.49584	27160.65
1757.71349	27118.35
1760.92903	27109.35
1764.14244	27124.45
1767.35375	27023.45
1770.56294	26996.35
1773.77002	26941.75
1776.97499	26848.15
1780.17785	26773.95
1783.37861	26743.35
1786.57727	26722.85
1789.77382	26616.35
1792.96828	26587.75
1796.16064	26592.35
1799.3509	26527.85
1802.53907	26440.85
1805.72514	26412.55
1808.90913	26296.25
1812.09102	26272.55
1815.27083	26197.85
1818.44856	26137.45
1821.6242	26071.65
1824.79776	26102.05
1827.96924	26113.15
1831.13864	26052.95
1834.30597	26086.35
1837.47122	26047.15
1840.6344	26040.75
1843.7955	26110.35
1846.95454	26135.15
1850.11151	26145.05
1853.26642	26134.55
1856.41926	26158.15
1859.57004	26210.95
1862.71876	26182.65
1865.86542	26166.25
1869.01003	26152.65
1872.15258	26141.65
1875.29308	26166.95
1878.43152	26179.95
1881.56792	26177.75
1884.70227	26259.75
1887.83457	26252.65
1890.96482	26227.15
1894.09304	26227.15
1897.21921	26239.45
1900.34335	26231.25
1903.46544	26262.45
1906.58551	26243.95
1909.70353	26255.35
1912.81953	26175.25
1915.93349	26147.85
1919.04543	26068.95
1922.15534	25986.45
1925.26322	25883.45
1928.36908	25778.35
1931.47292	25662.15
1934.57473	25547.85
1937.67453	25438.75
1940.77232	25262.05
1943.86808	25152.15
1946.96184	25065.85
1950.05358	24940.85
1953.14331	24828.65
1956.23103	24733.65
1959.31675	24634.65
1962.40046	24544.25
1965.48217	24466.65
1968.56188	24447.35
1971.63959	24385.35
1974.7153	24258.95
1977.78901	24200.25
1980.86073	24061.35
1983.93046	23997.95
1986.99819	23936.85
1990.06394	23859.35
1993.1277	23814.55
1996.18947	23698.05
1999.24925	23670.35
2002.30706	23576.05
2005.36288	23506.45
2008.41672	23413.45
2011.46859	23344.85
2014.51848	23336.25
2017.56639	23241.05
2020.61233	23173.95
2023.6563	23125.35
2026.6983	23073.15
2029.73833	23058.05
2032.7764	23014.25
2035.8125	22962.25
2038.84664	22893.25
2041.87881	22867.85
2044.90903	22866.35
2047.93729	22811.55
2050.96359	22773.95
2053.98794	22760.05
2057.01034	22751.65
2060.03078	22719.15
2063.04927	22717.35
2066.06582	22748.95
2069.08042	22734.45
2072.09307	22630.25
2075.10378	22660.45
2078.11255	22550.65
2081.11938	22590.25
2084.12426	22510.05
2087.12722	22498.75
2090.12824	22483.05
2093.12732	22460.85
2096.12447	22476.45
2099.11969	22518.15
2102.11299	22509.65
2105.10435	22472.05
2108.09379	22478.65
2111.08131	22472.15
2114.0669	22471.85
2117.05057	22540.05
2120.03233	22526.85
2123.01216	22495.15
2125.99008	22570.05
2128.96609	22532.35
2131.94018	22544.45
2134.91236	22556.45
2137.88263	22580.25
2140.851	22569.45
2143.81746	22573.25
2146.78201	22581.85
2149.74466	22594.05
2152.7054	22555.45
2155.66425	22589.75
2158.6212	22498.85
2161.57625	22539.95
2164.52941	22509.05
2167.48067	22499.65
2170.43004	22522.75
2173.37752	22457.25
2176.32311	22481.95
2179.26681	22453.05
2182.20863	22460.75
2185.14856	22504.35
2188.08661	22506.65
2191.02278	22504.95
2193.95707	22520.05
2196.88948	22534.25
2199.82001	22519.75
2202.74867	22468.45
2205.67545	22459.85
2208.60037	22463.45
2211.52341	22471.65
2214.44458	22446.95
2217.36388	22425.25
2220.28132	22374.75
2223.1969	22283.35
2226.11061	22275.55
2229.02246	22233.05
2231.93245	22194.45
2234.84058	22132.75
2237.74686	22107.15
2240.65128	22067.05
2243.55385	21991.35
2246.45456	21979.15
2249.35343	21935.65
2252.25044	21940.85
2255.14561	21914.95
2258.03893	21876.25
2260.93041	21795.45
2263.82004	21760.45
2266.70783	21696.95
2269.59378	21627.65
2272.4779	21554.45
2275.36017	21511.15
2278.24061	21483.95
2281.11922	21415.15
2283.996	21450.85
2286.87094	21382.95
2289.74405	21367.15
2292.61534	21356.65
2295.4848	21335.65
2298.35243	21373.75
2301.21824	21372.85
2304.08223	21418.25
2306.94439	21426.35
2309.80474	21445.75
2312.66327	21465.05
2315.51999	21462.55
2318.37489	21415.65
2321.22797	21432.85
2324.07925	21431.05
2326.92871	21396.75
2329.77637	21401.45
2332.62222	21378.65
2335.46626	21368.05
2338.3085	21365.65
2341.14893	21424.65
2343.98756	21455.85
2346.8244	21504.65
2349.65943	21499.15
2352.49267	21511.55
2355.32411	21499.35
2358.15376	21472.25
2360.98161	21457.35
2363.80768	21365.05
2366.63195	21383.75
2369.45444	21364.25
2372.27514	21275.15
2375.09405	21259.35
2377.91118	21193.95
2380.72652	21127.55
2383.54009	21075.25
2386.35187	21061.95
2389.16188	20985.25
2391.97011	20998.35
2394.77657	20974.55
2397.58125	20896.05
2400.38416	20874.55
2403.18529	20851.95
2405.98466	20800.05
2408.78226	20759.25
2411.57809	20732.25
2414.37216	20653.45
2417.16446	20648.65
2419.955	20564.65
2422.74378	20568.75
2425.5308	20533.75
2428.31606	20569.35
2431.09956	20535.15
2433.88131	20542.05
2436.6613	20568.45
2439.43954	20560.85
2442.21603	20556.35
2444.99077	20530.65
2447.76377	20562.35
2450.53501	20527.85
2453.30451	20500.05
2456.07226	20501.15
2458.83827	20540.75
2461.60254	20541.35
2464.36507	20521.45
2467.12586	20541.75
2469.88492	20500.95
2472.64224	20525.35
2475.39782	20587.25
2478.15167	20634.45
2480.90379	20616.85
2483.65417	20644.85
2486.40283	20649.55
2489.14976	20731.05
2491.89497	20733.45
2494.63845	20716.45
2497.3802	20769.35
2500.12024	20782.55
2502.85855	20753.15
2505.59514	20728.85
2508.33002	20698.35
2511.06318	20667.45
2513.79462	20626.45
2516.52435	20667.85
2519.25237	20661.15
2521.97867	20603.85
2524.70327	20624.85
2527.42616	20579.75
2530.14734	20588.45
2532.86681	20588.35
2535.58458	20623.35
2538.30065	20578.05
2541.01501	20574.95
2543.72768	20549.75
2546.43864	20514.25
2549.14791	20512.05
2551.85548	20495.85
2554.56136	20457.65
2557.26554	20437.15
2559.96803	20440.75
2562.66883	20433.75
2565.36794	20398.65
2568.06536	20363.55
2570.7611	20384.45
2573.45514	20393.95
2576.14751	20384.25
2578.83819	20380.05
2581.52719	20398.65
2584.21451	20389.55
2586.90015	20424.15
2589.58411	20442.15
2592.2664	20477.35
2594.94701	20393.55
2597.62594	20430.45
2600.30321	20419.05
2602.9788	20421.05
2605.65273	20431.85
2608.32498	20447.35
2610.99557	20471.55
2613.66449	20503.35
2616.33175	20479.55
2618.99734	20519.95
2621.66128	20516.15
2624.32355	20508.85
2626.98416	20518.25
2629.64311	20522.35
2632.30041	20589.15
2634.95605	20548.05
2637.61004	20508.95
2640.26238	20494.75
2642.91306	20484.65
2645.56209	20414.55
2648.20948	20449.75
2650.85521	20438.75
2653.4993	20466.55
2656.14175	20429.35
2658.78255	20443.25
2661.42171	20474.75
2664.05923	20493.35
2666.6951	20481.05
2669.32934	20552.25
2671.96194	20547.15
2674.59291	20538.75
2677.22224	20529.55
2679.84993	20554.95
2682.476	20548.85
2685.10043	20498.15
2687.72324	20477.25
2690.34441	20449.55
2692.96396	20418.65
2695.58188	20400.35
2698.19818	20379.45
2700.81285	20395.85
2703.4259	20387.15
2706.03733	20427.25
2708.64714	20382.05
2711.25533	20388.15
2713.86191	20380.85
2716.46687	20476.15
2719.07021	20410.35
2721.67194	20474.65
2724.27206	20478.75
2726.87057	20538.35
2729.46747	20536.65
2732.06276	20554.35
2734.65644	20532.45
2737.24852	20543.65
2739.83899	20532.25
2742.42786	20538.65
2745.01513	20493.45
2747.60079	20470.05
2750.18486	20502.85
2752.76733	20506.55
2755.3482	20464.35
2757.92747	20490.15
2760.50515	20450.75
2763.08123	20477.45
2765.65573	20491.55
2768.22863	20491.65
2770.79994	20465.65
2773.36967	20471.45
2775.9378	20482.65
2778.50435	20495.25
2781.06932	20490.35
2783.6327	20482.45
2786.1945	20518.45
2788.75471	20512.15
2791.31335	20480.15
2793.87041	20436.25
2796.42589	20374.15
2798.97979	20396.75
2801.53212	20349.65
2804.08288	20299.05
2806.63206	20242.05
2809.17967	20218.55
2811.72571	20208.85
2814.27018	20185.55
2816.81308	20147.15
2819.35442	20157.15
2821.89419	20111.65
2824.43239	20099.35
2826.96904	20141.55
2829.50412	20149.85
2832.03763	20058.25
2834.56959	20051.45
2837.1	20008.25
2839.62884	20040.35
2842.15613	20005.25
2844.68186	20061.45
2847.20604	20075.65
2849.72867	20065.45
2852.24974	20062.95
2854.76927	20045.55
2857.28724	20044.85
2859.80367	20029.75
2862.31855	19997.15
2864.83189	19967.95
2867.34368	19959.85
2869.85393	19987.75
2872.36264	19917.35
2874.8698	19924.15
2877.37543	19890.55
2879.87952	19941.65
2882.38207	19917.85
2884.88308	19921.25
2887.38256	19917.15
2889.88051	19915.15
2892.37692	19951.15
2894.8718	19963.55
2897.36515	19968.05
2899.85698	20000.95
2902.34727	20048.25
2904.83604	20081.15
2907.32328	20156.75
2909.809	20165.85
2912.29319	20146.95
2914.77587	20134.25
2917.25702	20149.15
2919.73665	20117.05
2922.21476	20114.05
2924.69136	20065.85
2927.16644	20060.15
2929.64	20014.35
2932.11205	19964.15
2934.58258	19886.15
2937.05161	19905.95
2939.51912	19894.65
2941.98513	19911.15
2944.44962	19814.05
2946.91261	19742.85
2949.37409	19780.45
2951.83407	19738.75
2954.29254	19733.65
2956.74951	19698.65
2959.20498	19699.85
2961.65895	19667.55
2964.11142	19598.25
2966.56239	19589.15
2969.01186	19549.25
2971.45984	19503.45
2973.90632	19517.65
2976.35131	19449.05
2978.7948	19364.55
2981.23681	19372.75
2983.67732	19294.25
2986.11635	19273.85
2988.55388	19251.75
2990.98993	19179.65
2993.4245	19090.95
2995.85758	19029.15
2998.28917	18995.35
3000.71928	18982.25
3003.14791	18910.95
3005.57506	18921.75
3008.00073	18857.65
3010.42493	18751.75
3012.84764	18804.75
3015.26888	18804.05
3017.68865	18736.35
3020.10694	18706.35
3022.52376	18645.05
3024.9391	18594.45
3027.35298	18588.95
3029.76539	18593.95
3032.17632	18537.75
3034.5858	18550.75
3036.9938	18546.95
3039.40034	18505.25
3041.80542	18526.65
3044.20903	18503.55
3046.61118	18469.45
3049.01187	18459.05
3051.4111	18408.75
3053.80888	18380.85
3056.20519	18338.65
3058.60005	18323.55
3060.99345	18233.45
3063.3854	18194.05
3065.7759	18099.25
3068.16494	18053.95
3070.55254	17987.85
3072.93868	17895.15
3075.32338	17850.05
3077.70662	17837.15
3080.08842	17782.95
3082.46878	17728.95
3084.84769	17705.45
3087.22515	17668.85
3089.60118	17678.65
3091.97576	17691.15
3094.3489	17648.15
3096.72061	17624.75
3099.09087	17622.65
3101.4597	17582.35
3103.82709	17608.95
3106.19305	17577.25
3108.55757	17550.75
3110.92066	17499.45
3113.28232	17485.85
3115.64255	17438.45
3118.00134	17407.45
3120.35871	17378.85
3122.71466	17308.85
3125.06917	17237.05
3127.42226	17211.15
3129.77393	17153.25
3132.12417	17122.75
3134.47299	17134.45
3136.82039	17134.05
3139.16636	17117.15
3141.51092	17098.55
3143.85406	17091.25
3146.19579	17077.95
3148.53609	17083.65
3150.87499	17111.85
3153.21246	17093.35
3155.54853	17085.45
3157.88318	17095.55
3160.21642	17125.55
3162.54826	17093.75
3164.87868	17085.45
3167.2077	17092.75
3169.5353	17068.15
3171.86151	17070.45
3174.18631	17033.55
3176.5097	17076.55
3178.83169	17018.05
3181.15228	16992.95
3183.47147	16972.65
3185.78926	16940.25
3188.10565	16954.25
3190.42065	16898.65
3192.73424	16903.55
3195.04645	16874.05
3197.35725	16877.15
3199.66667	16846.95
3201.97469	16854.25
3204.28132	16865.05
3206.58656	16892.05
3208.8904	16873.85
3211.19287	16880.75
3213.49394	16875.35
3215.79363	16877.15
3218.09193	16887.35
3220.38884	16845.95
3222.68438	16873.75
3224.97853	16847.05
3227.2713	16851.05
3229.56269	16825.55
3231.8527	16812.95
3234.14133	16785.35
3236.42858	16739.35
3238.71446	16734.95
3240.99896	16680.25
3243.28209	16707.95
3245.56384	16643.55
3247.84423	16623.55
3250.12324	16596.35
3252.40088	16564.35
3254.67715	16556.65
3256.95205	16573.35
3259.22558	16563.35
3261.49775	16497.35
3263.76855	16467.95
3266.03799	16432.15
3268.30606	16418.15
3270.57277	16404.05
3272.83812	16342.15
3275.10211	16318.15
3277.36474	16296.85
3279.62601	16282.95
3281.88593	16254.25
3284.14448	16298.95
3286.40168	16316.55
3288.65753	16287.55
3290.91202	16301.35
3293.16516	16249.55
3295.41695	16185.15
3297.66738	16131.05
3299.91647	16046.35
3302.16421	15927.15
3304.4106	15832.35
3306.65564	15756.25
3308.89933	15613.55
3311.14169	15508.15
3313.38269	15396.75
3315.62236	15284.35
3317.86068	15161.95
3320.09766	15036.05
3322.3333	14913.45
3324.5676	14867.25
3326.80056	14624.35
3329.03219	14527.75
3331.26248	4.05
3333.49143	-0.15
3335.71905	-0.85
