Data from AgNPs_FTO_APTES_UA_5uM_CRN_2uM_R6G_10uM_NaF_0.1M_Addition_RamanShift__11__11-09-46-625.txt Node

Date: Mon Feb 07 11:09:46 GMT 2022
User: TCL
Spectrometer: QEP01345
Trigger mode: 4
Integration Time (sec): 7.000000E0
Scans to average: 10
Electric dark correction enabled: true
Nonlinearity correction enabled: false
Boxcar width: 0
XAxis mode: Raman Shifts
Number of Pixels in Spectrum: 1044
>>>>>Begin Spectral Data<<<<<
46.04893	-0.45
50.45542	-2.55
54.85868	-0.35
59.25871	1.25
63.6555	103.55
68.04907	108.45
72.43941	113.55
76.82654	121.15
81.21044	119.25
85.59113	127.15
89.96862	132.15
94.34289	134.65
98.71396	140.65
103.08183	143.35
107.4465	147.65
111.80798	151.55
116.16626	155.85
120.52136	166.15
124.87327	175.95
129.222	186.45
133.56755	198.95
137.90993	221.55
142.24913	235.65
146.58517	276.75
150.91804	321.85
155.24774	391.35
159.57429	493.15
163.89768	637.95
168.21792	857.95
172.53501	1174.65
176.84895	1632.85
181.15975	2306.05
185.46741	3237.65
189.77193	4465.25
194.07331	5985.55
198.37157	7703.95
202.6667	9514.45
206.9587	11332.85
211.24758	13098.05
215.53334	14841.55
219.81599	16693.85
224.09553	18742.85
228.37195	21019.05
232.64527	23465.25
236.91549	26046.85
241.18261	28614.15
245.44663	31116.25
249.70755	33314.75
253.96539	35243.95
258.22014	36857.45
262.4718	38122.35
266.72039	38970.65
270.96589	39365.25
275.20832	39434.25
279.44768	39177.95
283.68397	38826.75
287.91719	38576.65
292.14735	38359.25
296.37445	38221.95
300.59849	38215.25
304.81948	38385.65
309.03742	38459.35
313.25231	38261.45
317.46415	37800.95
321.67296	37104.75
325.87872	36390.05
330.08145	35938.25
334.28114	35868.15
338.47781	36008.95
342.67145	36331.35
346.86207	36769.35
351.04966	37305.55
355.23424	37889.45
359.4158	38494.55
363.59435	38935.05
367.76989	39234.05
371.94243	39382.45
376.11196	39320.15
380.27849	39234.15
384.44203	39253.65
388.60257	39511.65
392.76012	39988.05
396.91468	40709.75
401.06626	41541.85
405.21485	41971.05
409.36047	41877.95
413.50311	41415.25
417.64277	41333.95
421.77947	41752.55
425.9132	42191.55
430.04396	42454.15
434.17176	42520.85
438.2966	42495.25
442.41849	42777.35
446.53742	43579.15
450.6534	44534.25
454.76644	45203.45
458.87653	45381.35
462.98368	45260.65
467.08789	44798.15
471.18916	44177.05
475.2875	43590.85
479.38291	43274.65
483.4754	43083.95
487.56496	42834.95
491.6516	42377.55
495.73531	41768.65
499.81612	41338.05
503.89401	41447.35
507.96899	41745.35
512.04106	41774.65
516.11023	41430.25
520.1765	40791.95
524.23987	40106.85
528.30034	39535.55
532.35792	39026.15
536.41261	38486.85
540.46441	38124.95
544.51333	38112.15
548.55936	38521.85
552.60252	39357.05
556.64279	40291.95
560.6802	41071.85
564.71473	41753.05
568.7464	42831.65
572.7752	44816.15
576.80114	47356.75
580.82422	49986.95
584.84444	52776.05
588.86181	56408.95
592.87633	59986.25
596.888	59602.25
600.89682	55040.55
604.9028	51616.75
608.90594	52013.25
612.90624	53234.95
616.90371	49512.45
620.89834	42859.85
624.89015	40113.95
628.87913	40199.65
632.86528	40866.05
636.84862	40768.75
640.82913	39702.75
644.80683	38415.95
648.78172	37666.35
652.75379	37658.55
656.72306	38041.85
660.68952	38468.55
664.65319	38165.45
668.61405	37578.15
672.57211	37492.35
676.52738	37602.45
680.47986	37561.85
684.42955	37196.85
688.37646	36982.95
692.32058	37238.85
696.26192	37939.25
700.20048	38509.55
704.13626	38987.75
708.06928	39383.95
711.99952	39369.05
715.927	39286.85
719.85171	39234.15
723.77365	38729.25
727.69284	37912.25
731.60928	37127.85
735.52295	36762.85
739.43388	36668.75
743.34206	36827.75
747.24749	37229.15
751.15017	37783.75
755.05012	38656.05
758.94733	39896.95
762.8418	41802.65
766.73354	44464.95
770.62254	46635.75
774.50882	46424.15
778.39237	44165.45
782.27321	41464.05
786.15132	39321.45
790.02671	37895.15
793.89938	37127.45
797.76935	36745.45
801.6366	36541.55
805.50115	36434.75
809.36299	36268.85
813.22213	36072.25
817.07857	35863.55
820.93231	35660.95
824.78336	35457.45
828.63172	35162.55
832.47738	35019.65
836.32036	34925.45
840.16066	34907.85
843.99827	34942.35
847.8332	34981.05
851.66546	35043.85
855.49504	35177.35
859.32195	35175.05
863.1462	35059.45
866.96777	34987.05
870.78668	34957.25
874.60293	34908.15
878.41652	34878.45
882.22745	34959.25
886.03573	35020.35
889.84136	35078.45
893.64433	34939.45
897.44466	34891.45
901.24235	34850.95
905.0374	34776.15
908.8298	34758.25
912.61957	34913.25
916.40671	35306.05
920.19121	36059.45
923.97308	36708.95
927.75233	36823.25
931.52895	36239.85
935.30295	35220.15
939.07433	34309.35
942.84309	33692.85
946.60924	33342.95
950.37278	33170.35
954.13371	33155.95
957.89203	33223.65
961.64774	33259.85
965.40086	33290.45
969.15137	33211.65
972.89929	33062.15
976.64461	32815.85
980.38733	32672.95
984.12747	32647.55
987.86502	32724.85
991.59999	32892.45
995.33237	33138.35
999.06217	33568.85
1002.78939	34247.05
1006.51404	35044.35
1010.23611	35872.65
1013.95561	36383.25
1017.67255	36406.45
1021.38692	35957.85
1025.09872	35218.75
1028.80796	34605.95
1032.51465	34403.95
1036.21877	34470.15
1039.92035	34698.45
1043.61937	34877.75
1047.31584	34964.65
1051.00976	35152.65
1054.70114	35321.05
1058.38998	35641.05
1062.07627	36144.15
1065.76003	36790.65
1069.44126	37574.85
1073.11995	38466.35
1076.79611	39159.45
1080.46974	39384.85
1084.14085	39603.05
1087.80943	40155.95
1091.47549	40771.85
1095.13903	41104.35
1098.80005	40470.85
1102.45857	39054.15
1106.11456	37852.85
1109.76805	37136.35
1113.41903	36925.05
1117.06751	36930.75
1120.71348	37256.75
1124.35696	37630.85
1127.99793	38118.25
1131.63641	38525.55
1135.2724	38654.55
1138.90589	38698.55
1142.5369	39052.35
1146.16542	39546.85
1149.79145	40148.95
1153.415	40721.25
1157.03607	41608.85
1160.65467	43111.35
1164.27079	45501.65
1167.88443	48154.45
1171.49561	50653.45
1175.10432	53309.95
1178.71056	56708.05
1182.31434	59887.85
1185.91565	61608.65
1189.51451	61496.55
1193.11091	60356.55
1196.70485	58553.75
1200.29634	56546.25
1203.88538	55355.55
1207.47197	55387.45
1211.05612	55865.25
1214.63782	55191.35
1218.21708	53342.75
1221.79391	50898.65
1225.36829	48973.15
1228.94024	47793.55
1232.50976	47068.95
1236.07685	46492.05
1239.6415	46076.35
1243.20374	45950.75
1246.76355	46251.25
1250.32093	47030.45
1253.8759	48130.25
1257.42845	49560.55
1260.97859	51280.95
1264.52631	53085.15
1268.07163	54852.95
1271.61453	56702.95
1275.15503	58656.35
1278.69312	60973.45
1282.22882	63653.35
1285.76211	66722.15
1289.29301	70147.95
1292.82151	73847.75
1296.34761	78132.75
1299.87133	83076.15
1303.39266	87610.75
1306.9116	91212.45
1310.42815	92917.35
1313.94233	92976.55
1317.45412	91727.75
1320.96354	90383.35
1324.47058	89954.85
1327.97525	90203.25
1331.47754	90521.95
1334.97747	90100.85
1338.47502	88841.85
1341.97022	87438.45
1345.46305	85944.85
1348.95352	84435.15
1352.44163	83217.05
1355.92738	83612.75
1359.41078	85862.85
1362.89183	87946.65
1366.37053	87445.15
1369.84688	82397.35
1373.32088	74083.05
1376.79254	67560.35
1380.26186	65280.35
1383.72883	65628.25
1387.19347	65992.65
1390.65578	65300.15
1394.11575	64862.05
1397.57339	65627.95
1401.0287	67261.25
1404.48168	68503.35
1407.93234	68296.65
1411.38068	66188.05
1414.82669	62953.65
1418.27039	59509.95
1421.71177	56406.05
1425.15083	54229.75
1428.58758	53480.15
1432.02203	54383.25
1435.45416	56405.55
1438.88399	58470.75
1442.31151	59894.25
1445.73673	60656.95
1449.15965	61190.55
1452.58027	61371.85
1455.9986	61355.15
1459.41463	61798.75
1462.82837	62827.95
1466.23982	64076.25
1469.64898	65190.85
1473.05586	65657.05
1476.46045	65588.85
1479.86276	65099.15
1483.26279	64545.05
1486.66054	64328.15
1490.05602	64697.25
1493.44922	65561.55
1496.84016	66716.85
1500.22882	67736.95
1503.61521	68725.45
1506.99934	69875.15
1510.38121	70605.35
1513.76081	70754.05
1517.13816	70431.95
1520.51324	70414.55
1523.88607	70877.35
1527.25665	71734.25
1530.62498	72042.75
1533.99105	71206.65
1537.35488	69383.85
1540.71647	66776.45
1544.07581	63850.25
1547.4329	61207.35
1550.78776	59082.75
1554.14038	57619.35
1557.49077	56798.35
1560.83892	56216.15
1564.18484	56013.95
1567.52853	55952.65
1570.86999	56389.35
1574.20922	57781.25
1577.54624	59256.35
1580.88103	60211.45
1584.2136	61695.35
1587.54395	64524.95
1590.87208	68832.95
1594.19801	73352.95
1597.52172	76665.65
1600.84321	76290.55
1604.16251	71292.15
1607.47959	64210.25
1610.79447	57705.05
1614.10715	52113.25
1617.41763	47754.85
1620.7259	44942.45
1624.03199	43579.25
1627.33587	43746.65
1630.63757	45495.75
1633.93707	49421.75
1637.23439	55938.55
1640.52951	65890.95
1643.82246	77796.45
1647.11321	87402.35
1650.40179	88931.05
1653.68819	80722.05
1656.97241	67710.75
1660.25446	55599.45
1663.53433	46799.05
1666.81203	41140.05
1670.08756	37613.75
1673.36092	35494.85
1676.63211	34176.05
1679.90115	33286.15
1683.16801	32559.65
1686.43272	31989.05
1689.69527	31518.65
1692.95567	31270.95
1696.2139	31026.95
1699.46999	30854.35
1702.72392	30697.05
1705.97571	30571.95
1709.22535	30442.05
1712.47284	30286.25
1715.71819	30249.05
1718.96139	30153.65
1722.20246	29973.05
1725.44139	29833.25
1728.67818	29616.25
1731.91284	29401.85
1735.14537	29170.85
1738.37576	28990.15
1741.60403	28876.85
1744.83017	28750.65
1748.05418	28609.85
1751.27607	28531.95
1754.49584	28478.95
1757.71349	28379.25
1760.92903	28322.95
1764.14244	28332.25
1767.35375	28286.95
1770.56294	28208.95
1773.77002	28135.95
1776.97499	27981.55
1780.17785	27949.15
1783.37861	27891.05
1786.57727	27839.95
1789.77382	27752.65
1792.96828	27691.85
1796.16064	27597.05
1799.3509	27551.75
1802.53907	27458.85
1805.72514	27394.45
1808.90913	27328.05
1812.09102	27277.95
1815.27083	27227.35
1818.44856	27165.05
1821.6242	27086.65
1824.79776	27073.15
1827.96924	27047.45
1831.13864	27065.85
1834.30597	27049.65
1837.47122	27041.65
1840.6344	27023.75
1843.7955	27035.85
1846.95454	27051.35
1850.11151	27038.85
1853.26642	27016.15
1856.41926	26988.55
1859.57004	26957.25
1862.71876	26919.65
1865.86542	26858.85
1869.01003	26763.35
1872.15258	26662.15
1875.29308	26618.75
1878.43152	26622.35
1881.56792	26536.55
1884.70227	26481.15
1887.83457	26473.85
1890.96482	26420.15
1894.09304	26403.25
1897.21921	26358.35
1900.34335	26299.45
1903.46544	26227.45
1906.58551	26207.95
1909.70353	26148.25
1912.81953	26048.15
1915.93349	26022.35
1919.04543	25961.15
1922.15534	25813.35
1925.26322	25774.45
1928.36908	25655.85
1931.47292	25647.75
1934.57473	25534.05
1937.67453	25445.15
1940.77232	25386.25
1943.86808	25298.95
1946.96184	25213.05
1950.05358	25137.35
1953.14331	25101.75
1956.23103	25011.05
1959.31675	24942.95
1962.40046	24845.45
1965.48217	24753.35
1968.56188	24659.45
1971.63959	24548.85
1974.7153	24442.65
1977.78901	24338.65
1980.86073	24276.35
1983.93046	24165.55
1986.99819	24077.15
1990.06394	24030.05
1993.1277	23997.65
1996.18947	23895.95
1999.24925	23854.35
2002.30706	23713.65
2005.36288	23645.65
2008.41672	23580.65
2011.46859	23476.05
2014.51848	23416.55
2017.56639	23352.05
2020.61233	23308.75
2023.6563	23231.75
2026.6983	23167.25
2029.73833	23110.15
2032.7764	23033.05
2035.8125	23009.75
2038.84664	22942.15
2041.87881	22890.15
2044.90903	22831.65
2047.93729	22791.85
2050.96359	22766.95
2053.98794	22721.95
2057.01034	22715.15
2060.03078	22682.45
2063.04927	22666.35
2066.06582	22631.75
2069.08042	22664.75
2072.09307	22619.15
2075.10378	22573.35
2078.11255	22555.95
2081.11938	22564.15
2084.12426	22522.25
2087.12722	22478.85
2090.12824	22453.85
2093.12732	22467.05
2096.12447	22439.25
2099.11969	22491.45
2102.11299	22470.45
2105.10435	22423.15
2108.09379	22450.55
2111.08131	22442.55
2114.0669	22415.05
2117.05057	22432.65
2120.03233	22460.75
2123.01216	22468.55
2125.99008	22468.75
2128.96609	22485.35
2131.94018	22469.25
2134.91236	22485.05
2137.88263	22461.05
2140.851	22483.35
2143.81746	22432.65
2146.78201	22414.35
2149.74466	22434.55
2152.7054	22377.95
2155.66425	22349.45
2158.6212	22307.05
2161.57625	22295.15
2164.52941	22280.05
2167.48067	22289.95
2170.43004	22294.75
2173.37752	22221.25
2176.32311	22226.95
2179.26681	22228.75
2182.20863	22242.15
2185.14856	22224.55
2188.08661	22262.35
2191.02278	22240.45
2193.95707	22184.65
2196.88948	22143.25
2199.82001	22083.05
2202.74867	22058.45
2205.67545	22017.95
2208.60037	21918.55
2211.52341	21963.65
2214.44458	21919.25
2217.36388	21847.05
2220.28132	21778.75
2223.1969	21754.35
2226.11061	21770.75
2229.02246	21739.65
2231.93245	21728.85
2234.84058	21680.65
2237.74686	21675.85
2240.65128	21645.35
2243.55385	21627.35
2246.45456	21560.25
2249.35343	21468.75
2252.25044	21431.25
2255.14561	21337.15
2258.03893	21268.15
2260.93041	21223.45
2263.82004	21130.25
2266.70783	21065.95
2269.59378	20990.05
2272.4779	20948.15
2275.36017	20860.65
2278.24061	20812.85
2281.11922	20750.35
2283.996	20741.05
2286.87094	20743.25
2289.74405	20684.75
2292.61534	20649.05
2295.4848	20631.55
2298.35243	20594.15
2301.21824	20578.95
2304.08223	20549.65
2306.94439	20567.85
2309.80474	20554.65
2312.66327	20571.05
2315.51999	20478.85
2318.37489	20438.05
2321.22797	20446.95
2324.07925	20382.85
2326.92871	20363.35
2329.77637	20337.75
2332.62222	20301.95
2335.46626	20297.65
2338.3085	20279.65
2341.14893	20280.25
2343.98756	20278.05
2346.8244	20256.25
2349.65943	20211.65
2352.49267	20222.45
2355.32411	20236.35
2358.15376	20216.65
2360.98161	20183.85
2363.80768	20188.95
2366.63195	20211.85
2369.45444	20164.55
2372.27514	20130.65
2375.09405	20073.35
2377.91118	20092.85
2380.72652	19995.75
2383.54009	19939.15
2386.35187	19913.85
2389.16188	19834.15
2391.97011	19817.55
2394.77657	19755.05
2397.58125	19701.95
2400.38416	19693.55
2403.18529	19673.65
2405.98466	19676.65
2408.78226	19633.85
2411.57809	19589.35
2414.37216	19586.75
2417.16446	19603.25
2419.955	19559.65
2422.74378	19555.75
2425.5308	19508.45
2428.31606	19514.65
2431.09956	19477.55
2433.88131	19476.25
2436.6613	19495.15
2439.43954	19482.75
2442.21603	19474.85
2444.99077	19408.85
2447.76377	19403.55
2450.53501	19367.15
2453.30451	19345.25
2456.07226	19343.55
2458.83827	19348.75
2461.60254	19369.65
2464.36507	19303.05
2467.12586	19317.95
2469.88492	19275.55
2472.64224	19288.45
2475.39782	19343.65
2478.15167	19331.95
2480.90379	19317.65
2483.65417	19302.75
2486.40283	19275.15
2489.14976	19261.15
2491.89497	19274.35
2494.63845	19272.65
2497.3802	19246.15
2500.12024	19278.15
2502.85855	19245.25
2505.59514	19221.65
2508.33002	19211.05
2511.06318	19188.95
2513.79462	19125.15
2516.52435	19123.75
2519.25237	19116.45
2521.97867	19116.55
2524.70327	19116.05
2527.42616	19073.45
2530.14734	19116.85
2532.86681	19080.35
2535.58458	19077.25
2538.30065	19037.45
2541.01501	19040.55
2543.72768	19023.05
2546.43864	18976.25
2549.14791	18962.35
2551.85548	18915.85
2554.56136	18910.05
2557.26554	18890.75
2559.96803	18867.15
2562.66883	18878.25
2565.36794	18844.15
2568.06536	18835.05
2570.7611	18807.55
2573.45514	18804.15
2576.14751	18806.35
2578.83819	18735.65
2581.52719	18751.85
2584.21451	18708.55
2586.90015	18714.15
2589.58411	18685.65
2592.2664	18679.85
2594.94701	18622.95
2597.62594	18627.75
2600.30321	18585.15
2602.9788	18554.85
2605.65273	18576.95
2608.32498	18624.35
2610.99557	18663.05
2613.66449	18615.15
2616.33175	18596.05
2618.99734	18603.35
2621.66128	18532.15
2624.32355	18534.65
2626.98416	18528.35
2629.64311	18516.15
2632.30041	18522.25
2634.95605	18464.85
2637.61004	18474.95
2640.26238	18440.25
2642.91306	18436.65
2645.56209	18470.05
2648.20948	18450.65
2650.85521	18487.35
2653.4993	18475.25
2656.14175	18468.15
2658.78255	18513.25
2661.42171	18508.65
2664.05923	18530.85
2666.6951	18528.95
2669.32934	18553.15
2671.96194	18549.05
2674.59291	18544.85
2677.22224	18559.25
2679.84993	18580.35
2682.476	18525.75
2685.10043	18520.95
2687.72324	18494.85
2690.34441	18489.65
2692.96396	18460.95
2695.58188	18511.15
2698.19818	18477.85
2700.81285	18478.25
2703.4259	18453.55
2706.03733	18531.65
2708.64714	18487.25
2711.25533	18472.65
2713.86191	18489.65
2716.46687	18534.15
2719.07021	18508.05
2721.67194	18547.05
2724.27206	18539.65
2726.87057	18577.35
2729.46747	18594.85
2732.06276	18596.55
2734.65644	18603.35
2737.24852	18591.65
2739.83899	18597.55
2742.42786	18556.65
2745.01513	18516.25
2747.60079	18515.35
2750.18486	18503.85
2752.76733	18500.25
2755.3482	18449.45
2757.92747	18479.65
2760.50515	18459.85
2763.08123	18435.45
2765.65573	18455.95
2768.22863	18407.55
2770.79994	18395.65
2773.36967	18425.85
2775.9378	18418.55
2778.50435	18442.35
2781.06932	18422.25
2783.6327	18382.85
2786.1945	18390.65
2788.75471	18406.55
2791.31335	18351.25
2793.87041	18333.75
2796.42589	18301.65
2798.97979	18272.95
2801.53212	18274.45
2804.08288	18261.05
2806.63206	18152.35
2809.17967	18147.65
2811.72571	18114.55
2814.27018	18077.25
2816.81308	18029.15
2819.35442	17991.15
2821.89419	17960.15
2824.43239	17974.65
2826.96904	17918.65
2829.50412	17896.95
2832.03763	17851.95
2834.56959	17843.65
2837.1	17848.05
2839.62884	17819.85
2842.15613	17818.15
2844.68186	17860.65
2847.20604	17870.95
2849.72867	17859.65
2852.24974	17834.85
2854.76927	17855.05
2857.28724	17804.05
2859.80367	17828.65
2862.31855	17776.95
2864.83189	17713.55
2867.34368	17677.55
2869.85393	17647.15
2872.36264	17560.35
2874.8698	17588.15
2877.37543	17567.05
2879.87952	17565.45
2882.38207	17581.95
2884.88308	17548.25
2887.38256	17544.65
2889.88051	17539.25
2892.37692	17551.35
2894.8718	17569.55
2897.36515	17575.25
2899.85698	17592.05
2902.34727	17632.55
2904.83604	17602.55
2907.32328	17622.85
2909.809	17646.35
2912.29319	17619.15
2914.77587	17623.45
2917.25702	17612.15
2919.73665	17586.45
2922.21476	17612.35
2924.69136	17557.75
2927.16644	17592.15
2929.64	17549.85
2932.11205	17511.85
2934.58258	17486.05
2937.05161	17496.85
2939.51912	17519.05
2941.98513	17473.55
2944.44962	17432.45
2946.91261	17366.35
2949.37409	17357.55
2951.83407	17342.75
2954.29254	17349.75
2956.74951	17303.85
2959.20498	17288.95
2961.65895	17240.85
2964.11142	17241.75
2966.56239	17183.65
2969.01186	17183.25
2971.45984	17116.25
2973.90632	17122.45
2976.35131	17075.85
2978.7948	16987.05
2981.23681	16971.15
2983.67732	16891.35
2986.11635	16904.35
2988.55388	16796.55
2990.98993	16762.65
2993.4245	16675.25
2995.85758	16647.35
2998.28917	16609.75
3000.71928	16586.45
3003.14791	16555.85
3005.57506	16523.65
3008.00073	16474.75
3010.42493	16429.25
3012.84764	16387.55
3015.26888	16365.15
3017.68865	16303.55
3020.10694	16290.65
3022.52376	16245.65
3024.9391	16213.55
3027.35298	16186.15
3029.76539	16168.15
3032.17632	16133.35
3034.5858	16132.55
3036.9938	16067.35
3039.40034	16105.85
3041.80542	16092.15
3044.20903	16065.85
3046.61118	16040.05
3049.01187	15990.85
3051.4111	15980.85
3053.80888	15960.15
3056.20519	15910.05
3058.60005	15856.05
3060.99345	15800.95
3063.3854	15740.35
3065.7759	15681.35
3068.16494	15601.45
3070.55254	15544.55
3072.93868	15477.15
3075.32338	15463.55
3077.70662	15409.05
3080.08842	15366.75
3082.46878	15313.55
3084.84769	15296.15
3087.22515	15259.55
3089.60118	15220.95
3091.97576	15261.35
3094.3489	15227.55
3096.72061	15197.65
3099.09087	15197.75
3101.4597	15155.65
3103.82709	15154.15
3106.19305	15122.35
3108.55757	15102.75
3110.92066	15029.85
3113.28232	15068.35
3115.64255	14982.65
3118.00134	14942.65
3120.35871	14917.05
3122.71466	14878.45
3125.06917	14830.95
3127.42226	14767.75
3129.77393	14733.95
3132.12417	14718.15
3134.47299	14693.85
3136.82039	14696.15
3139.16636	14686.35
3141.51092	14653.85
3143.85406	14652.55
3146.19579	14603.75
3148.53609	14627.45
3150.87499	14615.55
3153.21246	14583.25
3155.54853	14601.75
3157.88318	14532.15
3160.21642	14588.85
3162.54826	14557.35
3164.87868	14543.25
3167.2077	14526.85
3169.5353	14537.05
3171.86151	14536.65
3174.18631	14503.55
3176.5097	14512.15
3178.83169	14473.25
3181.15228	14455.95
3183.47147	14378.95
3185.78926	14367.35
3188.10565	14322.85
3190.42065	14310.65
3192.73424	14261.25
3195.04645	14278.05
3197.35725	14246.05
3199.66667	14232.25
3201.97469	14202.55
3204.28132	14173.15
3206.58656	14170.65
3208.8904	14149.25
3211.19287	14150.55
3213.49394	14158.25
3215.79363	14135.35
3218.09193	14138.15
3220.38884	14110.85
3222.68438	14135.35
3224.97853	14108.85
3227.2713	14092.35
3229.56269	14048.95
3231.8527	14091.75
3234.14133	14011.95
3236.42858	14001.65
3238.71446	13989.85
3240.99896	13957.25
3243.28209	13957.25
3245.56384	13932.85
3247.84423	13898.05
3250.12324	13870.05
3252.40088	13833.55
3254.67715	13759.95
3256.95205	13767.05
3259.22558	13722.05
3261.49775	13691.15
3263.76855	13694.65
3266.03799	13634.25
3268.30606	13611.55
3270.57277	13568.65
3272.83812	13539.55
3275.10211	13535.05
3277.36474	13504.55
3279.62601	13491.05
3281.88593	13489.25
3284.14448	13480.35
3286.40168	13490.65
3288.65753	13489.35
3290.91202	13455.25
3293.16516	13431.75
3295.41695	13398.55
3297.66738	13320.85
3299.91647	13257.45
3302.16421	13119.65
3304.4106	13054.25
3306.65564	12955.95
3308.89933	12812.35
3311.14169	12725.95
3313.38269	12607.75
3315.62236	12540.85
3317.86068	12397.95
3320.09766	12289.05
3322.3333	12199.55
3324.5676	12140.25
3326.80056	11908.75
3329.03219	11850.35
3331.26248	3.85
3333.49143	-1.45
3335.71905	-0.35
