Data from AgNPs_FTO_APTES_UA_5uM_CRN_0uM_R6G_10uM_NaF_0.1M_Addition_RamanShift__16__09-57-26-540.txt Node

Date: Mon Feb 07 09:57:26 GMT 2022
User: TCL
Spectrometer: QEP01345
Trigger mode: 4
Integration Time (sec): 7.000000E0
Scans to average: 10
Electric dark correction enabled: true
Nonlinearity correction enabled: false
Boxcar width: 0
XAxis mode: Raman Shifts
Number of Pixels in Spectrum: 1044
>>>>>Begin Spectral Data<<<<<
46.04893	-2.45
50.45542	-0.85
54.85868	-0.25
59.25871	0.25
63.6555	80.55
68.04907	82.85
72.43941	87.35
76.82654	90.85
81.21044	93.75
85.59113	100.15
89.96862	103.15
94.34289	101.35
98.71396	106.15
103.08183	112.65
107.4465	113.65
111.80798	118.35
116.16626	121.35
120.52136	130.15
124.87327	135.05
129.222	144.95
133.56755	157.55
137.90993	172.25
142.24913	187.85
146.58517	221.85
150.91804	256.85
155.24774	315.45
159.57429	398.55
163.89768	518.95
168.21792	696.85
172.53501	959.95
176.84895	1343.35
181.15975	1891.55
185.46741	2664.45
189.77193	3663.25
194.07331	4874.25
198.37157	6252.85
202.6667	7693.55
206.9587	9152.35
211.24758	10593.95
215.53334	12053.85
219.81599	13622.95
224.09553	15431.75
228.37195	17416.45
232.64527	19595.05
236.91549	21791.85
241.18261	23946.85
245.44663	25914.15
249.70755	27656.05
253.96539	29133.45
258.22014	30560.05
262.4718	31680.05
266.72039	32478.95
270.96589	33033.15
275.20832	33204.85
279.44768	33223.85
283.68397	33224.25
287.91719	33293.75
292.14735	33466.05
296.37445	33540.65
300.59849	33556.05
304.81948	33652.15
309.03742	33671.15
313.25231	33195.85
317.46415	31972.75
321.67296	30213.95
325.87872	28688.55
330.08145	27811.05
334.28114	27484.85
338.47781	27614.25
342.67145	27926.25
346.86207	28429.55
351.04966	29121.65
355.23424	29912.55
359.4158	30541.75
363.59435	30977.25
367.76989	31126.15
371.94243	31187.45
376.11196	31126.85
380.27849	31027.95
384.44203	30982.15
388.60257	31075.65
392.76012	31360.95
396.91468	31910.15
401.06626	32621.25
405.21485	33142.85
409.36047	32948.35
413.50311	32370.55
417.64277	31860.35
421.77947	31800.25
425.9132	31837.25
430.04396	31930.75
434.17176	31811.25
438.2966	31620.65
442.41849	31702.85
446.53742	32243.75
450.6534	33057.75
454.76644	33884.05
458.87653	34309.55
462.98368	34306.05
467.08789	34024.45
471.18916	33682.45
475.2875	33410.65
479.38291	33504.75
483.4754	33853.85
487.56496	33996.25
491.6516	33726.45
495.73531	33412.45
499.81612	33173.45
503.89401	33357.75
507.96899	33386.15
512.04106	32870.45
516.11023	32031.85
520.1765	30908.85
524.23987	30024.65
528.30034	29313.95
532.35792	28742.55
536.41261	28173.75
540.46441	27777.95
544.51333	27876.05
548.55936	28574.45
552.60252	29781.25
556.64279	31020.45
560.6802	31700.25
564.71473	32181.25
568.7464	33263.15
572.7752	34921.95
576.80114	36500.35
580.82422	37932.65
584.84444	39041.65
588.86181	39245.35
592.87633	38286.15
596.888	36922.15
600.89682	36351.45
604.9028	37958.55
608.90594	42697.85
612.90624	47589.45
616.90371	44040.05
620.89834	34248.05
624.89015	29620.65
628.87913	28939.15
632.86528	29256.75
636.84862	29440.05
640.82913	28918.45
644.80683	27744.25
648.78172	26821.45
652.75379	26554.35
656.72306	26939.75
660.68952	27593.65
664.65319	27520.25
668.61405	26951.45
672.57211	26698.95
676.52738	26728.05
680.47986	26591.85
684.42955	26237.65
688.37646	25958.35
692.32058	26044.85
696.26192	26472.75
700.20048	27070.15
704.13626	27541.95
708.06928	27826.15
711.99952	27699.85
715.927	27491.35
719.85171	27492.95
723.77365	27388.85
727.69284	26909.65
731.60928	26312.35
735.52295	26001.55
739.43388	25972.45
743.34206	26082.25
747.24749	26365.45
751.15017	26811.55
755.05012	27663.95
758.94733	29064.75
762.8418	31610.25
766.73354	35684.45
770.62254	39371.75
774.50882	39577.55
778.39237	36330.15
782.27321	32362.15
786.15132	29229.75
790.02671	27383.55
793.89938	26332.85
797.76935	25855.05
801.6366	25785.15
805.50115	25772.15
809.36299	25564.15
813.22213	25244.35
817.07857	25078.15
820.93231	24952.75
824.78336	24788.45
828.63172	24541.55
832.47738	24468.95
836.32036	24418.05
840.16066	24463.55
843.99827	24594.65
847.8332	24536.65
851.66546	24442.95
855.49504	24399.15
859.32195	24390.95
863.1462	24295.75
866.96777	24151.75
870.78668	24016.35
874.60293	23952.35
878.41652	23835.85
882.22745	23876.35
886.03573	23976.35
889.84136	24061.75
893.64433	23992.95
897.44466	23919.95
901.24235	23871.75
905.0374	23724.65
908.8298	23529.05
912.61957	23529.85
916.40671	23860.45
920.19121	24616.45
923.97308	25338.35
927.75233	25480.85
931.52895	25114.55
935.30295	24321.25
939.07433	23501.75
942.84309	22775.55
946.60924	22431.75
950.37278	22331.65
954.13371	22309.15
957.89203	22286.95
961.64774	22281.35
965.40086	22251.85
969.15137	22239.45
972.89929	22109.95
976.64461	21941.15
980.38733	21854.55
984.12747	21846.75
987.86502	21973.95
991.59999	22215.95
995.33237	22643.85
999.06217	23289.25
1002.78939	24186.75
1006.51404	24837.25
1010.23611	25271.55
1013.95561	25643.55
1017.67255	25750.55
1021.38692	25485.85
1025.09872	25098.35
1028.80796	25232.45
1032.51465	25996.75
1036.21877	26794.95
1039.92035	26934.65
1043.61937	26479.15
1047.31584	25835.35
1051.00976	25139.85
1054.70114	24842.85
1058.38998	24973.75
1062.07627	25330.45
1065.76003	25799.75
1069.44126	26490.65
1073.11995	27457.55
1076.79611	28270.45
1080.46974	28538.15
1084.14085	28592.15
1087.80943	29084.75
1091.47549	29725.45
1095.13903	29991.55
1098.80005	29558.15
1102.45857	28124.05
1106.11456	26594.95
1109.76805	25617.85
1113.41903	25217.85
1117.06751	25203.55
1120.71348	25540.35
1124.35696	25995.75
1127.99793	26636.15
1131.63641	27179.15
1135.2724	27280.15
1138.90589	27117.55
1142.5369	27020.75
1146.16542	27063.15
1149.79145	27213.35
1153.415	27640.45
1157.03607	28400.15
1160.65467	29672.25
1164.27079	31822.85
1167.88443	34499.25
1171.49561	37605.05
1175.10432	41472.95
1178.71056	46310.15
1182.31434	50603.05
1185.91565	53113.25
1189.51451	53484.25
1193.11091	51924.55
1196.70485	49004.25
1200.29634	45877.35
1203.88538	43564.05
1207.47197	41964.95
1211.05612	40710.95
1214.63782	39468.35
1218.21708	38052.45
1221.79391	36895.15
1225.36829	36003.95
1228.94024	35226.05
1232.50976	34209.35
1236.07685	33478.05
1239.6415	33143.15
1243.20374	33084.65
1246.76355	33363.95
1250.32093	34040.35
1253.8759	35199.95
1257.42845	36869.45
1260.97859	38710.25
1264.52631	40391.05
1268.07163	42135.75
1271.61453	43907.55
1275.15503	45853.55
1278.69312	47786.55
1282.22882	49518.75
1285.76211	51348.75
1289.29301	53619.05
1292.82151	56489.65
1296.34761	60224.85
1299.87133	64765.05
1303.39266	69909.95
1306.9116	74889.65
1310.42815	78999.55
1313.94233	81072.55
1317.45412	80978.45
1320.96354	80227.95
1324.47058	80026.45
1327.97525	80260.45
1331.47754	80372.75
1334.97747	79789.75
1338.47502	78648.15
1341.97022	77077.25
1345.46305	74956.65
1348.95352	72188.85
1352.44163	69364.95
1355.92738	68156.85
1359.41078	69789.15
1362.89183	72668.85
1366.37053	72854.25
1369.84688	68354.25
1373.32088	61425.65
1376.79254	55407.75
1380.26186	52090.65
1383.72883	50901.85
1387.19347	50748.55
1390.65578	50589.45
1394.11575	50648.15
1397.57339	51402.55
1401.0287	52811.15
1404.48168	53965.25
1407.93234	53926.15
1411.38068	52237.35
1414.82669	49317.65
1418.27039	45811.55
1421.71177	42534.95
1425.15083	39941.65
1428.58758	38497.55
1432.02203	38319.05
1435.45416	39457.15
1438.88399	41093.75
1442.31151	42692.35
1445.73673	44020.25
1449.15965	45278.95
1452.58027	46274.85
1455.9986	46738.25
1459.41463	47277.15
1462.82837	48224.15
1466.23982	49581.95
1469.64898	50815.25
1473.05586	51485.65
1476.46045	51555.25
1479.86276	51094.75
1483.26279	50545.55
1486.66054	50248.55
1490.05602	50551.85
1493.44922	51240.75
1496.84016	52284.15
1500.22882	54010.35
1503.61521	56533.75
1506.99934	59723.55
1510.38121	62774.95
1513.76081	64438.65
1517.13816	63799.85
1520.51324	61472.95
1523.88607	58875.45
1527.25665	56947.65
1530.62498	55669.55
1533.99105	54600.55
1537.35488	53593.45
1540.71647	52097.25
1544.07581	50289.35
1547.4329	48204.75
1550.78776	46448.75
1554.14038	45175.15
1557.49077	44659.85
1560.83892	44820.05
1564.18484	45255.95
1567.52853	45653.55
1570.86999	45801.35
1574.20922	46282.25
1577.54624	46764.85
1580.88103	46586.75
1584.2136	46533.15
1587.54395	48021.05
1590.87208	51246.35
1594.19801	55455.85
1597.52172	59236.55
1600.84321	59819.65
1604.16251	55892.15
1607.47959	49899.95
1610.79447	44086.85
1614.10715	39094.85
1617.41763	34949.45
1620.7259	32052.15
1624.03199	30534.55
1627.33587	30361.55
1630.63757	31411.05
1633.93707	34051.65
1637.23439	38465.05
1640.52951	45073.95
1643.82246	53042.35
1647.11321	60290.15
1650.40179	63414.85
1653.68819	60287.25
1656.97241	52064.15
1660.25446	42466.65
1663.53433	34498.05
1666.81203	29056.25
1670.08756	25748.95
1673.36092	23721.65
1676.63211	22407.85
1679.90115	21553.05
1683.16801	20861.05
1686.43272	20412.85
1689.69527	20120.75
1692.95567	19848.05
1696.2139	19671.55
1699.46999	19491.85
1702.72392	19367.75
1705.97571	19267.75
1709.22535	19145.85
1712.47284	19046.15
1715.71819	18960.15
1718.96139	18845.85
1722.20246	18698.45
1725.44139	18568.05
1728.67818	18407.55
1731.91284	18234.55
1735.14537	18054.95
1738.37576	17931.55
1741.60403	17831.15
1744.83017	17742.55
1748.05418	17674.35
1751.27607	17583.15
1754.49584	17571.75
1757.71349	17498.25
1760.92903	17477.75
1764.14244	17416.15
1767.35375	17419.85
1770.56294	17381.45
1773.77002	17315.25
1776.97499	17269.05
1780.17785	17189.65
1783.37861	17145.05
1786.57727	17112.45
1789.77382	17061.25
1792.96828	17027.05
1796.16064	16989.85
1799.3509	16934.75
1802.53907	16888.35
1805.72514	16825.05
1808.90913	16727.55
1812.09102	16689.95
1815.27083	16626.85
1818.44856	16618.35
1821.6242	16571.05
1824.79776	16555.25
1827.96924	16530.15
1831.13864	16525.75
1834.30597	16552.45
1837.47122	16536.45
1840.6344	16530.95
1843.7955	16566.55
1846.95454	16564.15
1850.11151	16541.15
1853.26642	16525.15
1856.41926	16491.55
1859.57004	16499.75
1862.71876	16491.85
1865.86542	16429.35
1869.01003	16422.15
1872.15258	16349.75
1875.29308	16325.65
1878.43152	16326.15
1881.56792	16308.25
1884.70227	16270.05
1887.83457	16259.45
1890.96482	16245.35
1894.09304	16236.85
1897.21921	16182.35
1900.34335	16184.15
1903.46544	16124.85
1906.58551	16111.15
1909.70353	16076.15
1912.81953	16024.15
1915.93349	15989.85
1919.04543	15971.45
1922.15534	15906.65
1925.26322	15861.15
1928.36908	15828.05
1931.47292	15756.25
1934.57473	15664.45
1937.67453	15635.85
1940.77232	15608.15
1943.86808	15466.85
1946.96184	15436.35
1950.05358	15374.05
1953.14331	15348.85
1956.23103	15324.65
1959.31675	15278.95
1962.40046	15210.05
1965.48217	15160.05
1968.56188	15135.05
1971.63959	15081.55
1974.7153	15043.85
1977.78901	14974.25
1980.86073	14925.75
1983.93046	14863.75
1986.99819	14822.95
1990.06394	14776.85
1993.1277	14728.05
1996.18947	14656.05
1999.24925	14621.05
2002.30706	14546.55
2005.36288	14532.85
2008.41672	14481.35
2011.46859	14427.15
2014.51848	14387.55
2017.56639	14339.45
2020.61233	14320.45
2023.6563	14281.65
2026.6983	14252.65
2029.73833	14235.85
2032.7764	14239.15
2035.8125	14180.15
2038.84664	14140.25
2041.87881	14167.25
2044.90903	14087.35
2047.93729	14050.35
2050.96359	14071.95
2053.98794	14036.15
2057.01034	14072.45
2060.03078	14040.75
2063.04927	14006.15
2066.06582	13985.25
2069.08042	13973.95
2072.09307	13963.15
2075.10378	13942.55
2078.11255	13936.15
2081.11938	13910.45
2084.12426	13889.85
2087.12722	13887.35
2090.12824	13861.85
2093.12732	13884.25
2096.12447	13839.35
2099.11969	13870.75
2102.11299	13852.85
2105.10435	13838.75
2108.09379	13840.65
2111.08131	13846.95
2114.0669	13857.05
2117.05057	13879.15
2120.03233	13861.35
2123.01216	13879.05
2125.99008	13906.75
2128.96609	13910.95
2131.94018	13924.15
2134.91236	13893.15
2137.88263	13903.15
2140.851	13887.15
2143.81746	13938.15
2146.78201	13917.85
2149.74466	13926.65
2152.7054	13896.15
2155.66425	13871.35
2158.6212	13867.85
2161.57625	13870.45
2164.52941	13840.75
2167.48067	13842.25
2170.43004	13846.85
2173.37752	13829.35
2176.32311	13815.35
2179.26681	13805.55
2182.20863	13816.05
2185.14856	13805.15
2188.08661	13833.05
2191.02278	13799.25
2193.95707	13798.15
2196.88948	13766.85
2199.82001	13772.15
2202.74867	13735.15
2205.67545	13720.85
2208.60037	13714.25
2211.52341	13726.45
2214.44458	13736.75
2217.36388	13708.45
2220.28132	13703.05
2223.1969	13670.65
2226.11061	13656.95
2229.02246	13619.85
2231.93245	13577.75
2234.84058	13563.25
2237.74686	13534.65
2240.65128	13484.55
2243.55385	13439.15
2246.45456	13423.75
2249.35343	13386.35
2252.25044	13347.95
2255.14561	13362.75
2258.03893	13327.85
2260.93041	13314.65
2263.82004	13271.45
2266.70783	13245.05
2269.59378	13181.75
2272.4779	13159.65
2275.36017	13122.95
2278.24061	13110.25
2281.11922	13097.95
2283.996	13081.15
2286.87094	13063.55
2289.74405	13072.45
2292.61534	13017.45
2295.4848	12989.45
2298.35243	13033.45
2301.21824	13000.55
2304.08223	13044.55
2306.94439	13058.45
2309.80474	13057.45
2312.66327	13054.15
2315.51999	13062.15
2318.37489	13058.95
2321.22797	13075.35
2324.07925	13034.25
2326.92871	13012.95
2329.77637	13019.65
2332.62222	13031.25
2335.46626	13015.15
2338.3085	13051.05
2341.14893	13049.55
2343.98756	13079.65
2346.8244	13075.55
2349.65943	13096.55
2352.49267	13125.45
2355.32411	13151.85
2358.15376	13149.45
2360.98161	13133.35
2363.80768	13155.85
2366.63195	13123.95
2369.45444	13098.25
2372.27514	13030.05
2375.09405	13019.15
2377.91118	12950.35
2380.72652	12935.65
2383.54009	12863.85
2386.35187	12857.65
2389.16188	12826.15
2391.97011	12792.95
2394.77657	12794.65
2397.58125	12728.45
2400.38416	12735.65
2403.18529	12729.05
2405.98466	12702.65
2408.78226	12604.95
2411.57809	12630.15
2414.37216	12602.35
2417.16446	12591.45
2419.955	12563.05
2422.74378	12559.45
2425.5308	12538.85
2428.31606	12520.65
2431.09956	12541.15
2433.88131	12515.95
2436.6613	12539.35
2439.43954	12550.15
2442.21603	12528.25
2444.99077	12532.45
2447.76377	12550.55
2450.53501	12537.65
2453.30451	12535.85
2456.07226	12526.85
2458.83827	12544.45
2461.60254	12554.35
2464.36507	12581.25
2467.12586	12542.65
2469.88492	12545.15
2472.64224	12577.65
2475.39782	12567.75
2478.15167	12589.05
2480.90379	12573.65
2483.65417	12604.95
2486.40283	12635.95
2489.14976	12679.75
2491.89497	12668.55
2494.63845	12692.45
2497.3802	12711.45
2500.12024	12683.15
2502.85855	12672.15
2505.59514	12678.05
2508.33002	12630.95
2511.06318	12604.45
2513.79462	12631.75
2516.52435	12608.95
2519.25237	12617.05
2521.97867	12599.55
2524.70327	12568.95
2527.42616	12540.35
2530.14734	12555.05
2532.86681	12557.55
2535.58458	12596.85
2538.30065	12545.25
2541.01501	12555.75
2543.72768	12533.85
2546.43864	12531.75
2549.14791	12501.05
2551.85548	12481.75
2554.56136	12470.85
2557.26554	12460.45
2559.96803	12480.15
2562.66883	12479.35
2565.36794	12468.75
2568.06536	12456.25
2570.7611	12451.45
2573.45514	12450.45
2576.14751	12426.95
2578.83819	12426.65
2581.52719	12445.55
2584.21451	12433.75
2586.90015	12413.35
2589.58411	12433.25
2592.2664	12415.75
2594.94701	12420.65
2597.62594	12443.65
2600.30321	12442.85
2602.9788	12438.15
2605.65273	12445.25
2608.32498	12476.75
2610.99557	12473.15
2613.66449	12460.45
2616.33175	12445.35
2618.99734	12485.55
2621.66128	12499.35
2624.32355	12487.55
2626.98416	12495.15
2629.64311	12489.15
2632.30041	12520.05
2634.95605	12480.05
2637.61004	12460.95
2640.26238	12447.55
2642.91306	12445.05
2645.56209	12447.35
2648.20948	12452.55
2650.85521	12447.45
2653.4993	12460.45
2656.14175	12426.85
2658.78255	12441.25
2661.42171	12452.25
2664.05923	12479.15
2666.6951	12463.75
2669.32934	12499.15
2671.96194	12506.05
2674.59291	12512.05
2677.22224	12491.95
2679.84993	12492.25
2682.476	12473.95
2685.10043	12448.55
2687.72324	12422.95
2690.34441	12389.35
2692.96396	12407.35
2695.58188	12432.65
2698.19818	12371.55
2700.81285	12388.45
2703.4259	12412.35
2706.03733	12418.85
2708.64714	12418.55
2711.25533	12428.95
2713.86191	12407.25
2716.46687	12439.55
2719.07021	12421.35
2721.67194	12464.45
2724.27206	12461.25
2726.87057	12497.35
2729.46747	12497.35
2732.06276	12487.25
2734.65644	12487.75
2737.24852	12469.85
2739.83899	12461.95
2742.42786	12462.85
2745.01513	12454.05
2747.60079	12458.35
2750.18486	12451.75
2752.76733	12422.55
2755.3482	12398.85
2757.92747	12420.95
2760.50515	12392.65
2763.08123	12372.85
2765.65573	12391.75
2768.22863	12400.05
2770.79994	12395.75
2773.36967	12431.15
2775.9378	12460.85
2778.50435	12422.35
2781.06932	12422.75
2783.6327	12449.35
2786.1945	12461.55
2788.75471	12462.75
2791.31335	12431.85
2793.87041	12445.55
2796.42589	12404.85
2798.97979	12428.85
2801.53212	12393.05
2804.08288	12385.85
2806.63206	12328.95
2809.17967	12368.25
2811.72571	12312.75
2814.27018	12316.65
2816.81308	12310.15
2819.35442	12299.15
2821.89419	12253.05
2824.43239	12271.95
2826.96904	12274.35
2829.50412	12305.55
2832.03763	12249.95
2834.56959	12250.75
2837.1	12237.85
2839.62884	12267.25
2842.15613	12237.25
2844.68186	12291.35
2847.20604	12321.85
2849.72867	12315.55
2852.24974	12295.25
2854.76927	12321.85
2857.28724	12332.05
2859.80367	12302.95
2862.31855	12285.65
2864.83189	12305.05
2867.34368	12297.95
2869.85393	12288.85
2872.36264	12248.95
2874.8698	12241.35
2877.37543	12232.15
2879.87952	12258.55
2882.38207	12255.05
2884.88308	12265.05
2887.38256	12264.45
2889.88051	12264.25
2892.37692	12303.95
2894.8718	12294.55
2897.36515	12338.75
2899.85698	12327.35
2902.34727	12417.85
2904.83604	12412.15
2907.32328	12427.95
2909.809	12422.25
2912.29319	12441.85
2914.77587	12449.75
2917.25702	12442.65
2919.73665	12426.95
2922.21476	12403.85
2924.69136	12397.85
2927.16644	12388.65
2929.64	12364.75
2932.11205	12365.05
2934.58258	12327.85
2937.05161	12295.05
2939.51912	12288.65
2941.98513	12268.65
2944.44962	12231.85
2946.91261	12185.15
2949.37409	12176.25
2951.83407	12145.25
2954.29254	12127.15
2956.74951	12073.85
2959.20498	12079.95
2961.65895	12081.35
2964.11142	12049.75
2966.56239	12036.35
2969.01186	12033.75
2971.45984	11971.85
2973.90632	11970.95
2976.35131	11958.05
2978.7948	11942.75
2981.23681	11895.15
2983.67732	11878.65
2986.11635	11822.35
2988.55388	11816.75
2990.98993	11788.05
2993.4245	11746.05
2995.85758	11710.45
2998.28917	11658.05
3000.71928	11622.05
3003.14791	11585.45
3005.57506	11552.05
3008.00073	11542.25
3010.42493	11550.65
3012.84764	11503.95
3015.26888	11483.15
3017.68865	11456.45
3020.10694	11435.15
3022.52376	11413.15
3024.9391	11365.25
3027.35298	11354.65
3029.76539	11372.55
3032.17632	11364.55
3034.5858	11350.75
3036.9938	11375.95
3039.40034	11381.35
3041.80542	11348.35
3044.20903	11342.45
3046.61118	11348.95
3049.01187	11321.35
3051.4111	11342.55
3053.80888	11280.15
3056.20519	11272.15
3058.60005	11217.35
3060.99345	11182.35
3063.3854	11168.25
3065.7759	11129.65
3068.16494	11100.65
3070.55254	11064.85
3072.93868	11007.35
3075.32338	10980.95
3077.70662	10960.85
3080.08842	10875.15
3082.46878	10904.25
3084.84769	10889.65
3087.22515	10897.05
3089.60118	10900.65
3091.97576	10886.65
3094.3489	10857.15
3096.72061	10873.05
3099.09087	10846.95
3101.4597	10839.85
3103.82709	10842.65
3106.19305	10838.45
3108.55757	10862.65
3110.92066	10790.95
3113.28232	10792.05
3115.64255	10759.75
3118.00134	10733.55
3120.35871	10748.25
3122.71466	10716.45
3125.06917	10704.35
3127.42226	10706.45
3129.77393	10692.25
3132.12417	10670.75
3134.47299	10680.25
3136.82039	10618.15
3139.16636	10621.55
3141.51092	10653.85
3143.85406	10639.15
3146.19579	10628.75
3148.53609	10619.65
3150.87499	10620.25
3153.21246	10619.55
3155.54853	10620.95
3157.88318	10615.15
3160.21642	10652.95
3162.54826	10679.75
3164.87868	10704.65
3167.2077	10667.85
3169.5353	10661.65
3171.86151	10663.35
3174.18631	10652.05
3176.5097	10666.75
3178.83169	10656.45
3181.15228	10645.05
3183.47147	10658.25
3185.78926	10634.85
3188.10565	10603.85
3190.42065	10608.35
3192.73424	10618.35
3195.04645	10617.45
3197.35725	10599.45
3199.66667	10569.15
3201.97469	10571.85
3204.28132	10560.05
3206.58656	10600.65
3208.8904	10603.85
3211.19287	10598.25
3213.49394	10591.45
3215.79363	10609.35
3218.09193	10625.75
3220.38884	10619.55
3222.68438	10643.65
3224.97853	10617.15
3227.2713	10576.65
3229.56269	10584.35
3231.8527	10586.25
3234.14133	10602.85
3236.42858	10564.65
3238.71446	10581.35
3240.99896	10522.55
3243.28209	10527.15
3245.56384	10516.15
3247.84423	10529.65
3250.12324	10490.65
3252.40088	10481.15
3254.67715	10472.95
3256.95205	10455.55
3259.22558	10447.15
3261.49775	10415.25
3263.76855	10419.65
3266.03799	10396.85
3268.30606	10404.45
3270.57277	10378.85
3272.83812	10335.55
3275.10211	10349.05
3277.36474	10331.75
3279.62601	10327.65
3281.88593	10320.95
3284.14448	10319.65
3286.40168	10300.85
3288.65753	10324.05
3290.91202	10288.45
3293.16516	10274.65
3295.41695	10247.05
3297.66738	10183.45
3299.91647	10168.75
3302.16421	10086.75
3304.4106	10049.55
3306.65564	9970.85
3308.89933	9897.75
3311.14169	9817.95
3313.38269	9745.85
3315.62236	9658.65
3317.86068	9573.95
3320.09766	9479.45
3322.3333	9436.95
3324.5676	9373.55
3326.80056	9221.65
3329.03219	9170.15
3331.26248	3.95
3333.49143	-0.55
3335.71905	-0.55
