Data from AgNPs_FTO_APTES_UA_5uM_CRN_10uM_R6G_10uM_NaF_0.1M_Addition_RamanShift__21__12-47-46-739.txt Node

Date: Mon Feb 07 12:47:46 GMT 2022
User: TCL
Spectrometer: QEP01345
Trigger mode: 4
Integration Time (sec): 7.000000E0
Scans to average: 10
Electric dark correction enabled: true
Nonlinearity correction enabled: false
Boxcar width: 0
XAxis mode: Raman Shifts
Number of Pixels in Spectrum: 1044
>>>>>Begin Spectral Data<<<<<
46.04893	-1.45
50.45542	-1.95
54.85868	-0.25
59.25871	0.45
63.6555	91.15
68.04907	94.65
72.43941	100.35
76.82654	101.15
81.21044	103.55
85.59113	110.05
89.96862	114.85
94.34289	118.45
98.71396	117.75
103.08183	125.45
107.4465	128.75
111.80798	127.15
116.16626	137.25
120.52136	143.85
124.87327	151.75
129.222	159.95
133.56755	173.55
137.90993	189.65
142.24913	211.05
146.58517	236.95
150.91804	274.05
155.24774	336.05
159.57429	419.95
163.89768	542.35
168.21792	725.15
172.53501	999.45
176.84895	1386.25
181.15975	1960.55
185.46741	2747.85
189.77193	3790.35
194.07331	5060.35
198.37157	6503.35
202.6667	8019.45
206.9587	9474.75
211.24758	10943.75
215.53334	12450.15
219.81599	14034.75
224.09553	15800.65
228.37195	17765.85
232.64527	19943.45
236.91549	22187.55
241.18261	24394.75
245.44663	26436.75
249.70755	28273.35
253.96539	29873.55
258.22014	31235.05
262.4718	32391.55
266.72039	33261.95
270.96589	33819.95
275.20832	34114.75
279.44768	34081.25
283.68397	34035.55
287.91719	34045.05
292.14735	34098.55
296.37445	34281.75
300.59849	34436.75
304.81948	34546.15
309.03742	34300.35
313.25231	33679.85
317.46415	32562.15
321.67296	31268.75
325.87872	30204.15
330.08145	29691.95
334.28114	29578.05
338.47781	29751.25
342.67145	30174.65
346.86207	30685.75
351.04966	31429.55
355.23424	32206.25
359.4158	32801.15
363.59435	33198.05
367.76989	33432.45
371.94243	33530.05
376.11196	33624.05
380.27849	33714.95
384.44203	33872.85
388.60257	34059.05
392.76012	34396.15
396.91468	34870.25
401.06626	35489.95
405.21485	35930.15
409.36047	35674.85
413.50311	34966.95
417.64277	34441.75
421.77947	34332.45
425.9132	34470.05
430.04396	34710.45
434.17176	34920.85
438.2966	35262.05
442.41849	35926.95
446.53742	36905.85
450.6534	38074.55
454.76644	38972.55
458.87653	39430.35
462.98368	39389.85
467.08789	39018.35
471.18916	38496.05
475.2875	38224.45
479.38291	38054.45
483.4754	37898.35
487.56496	37360.65
491.6516	36562.85
495.73531	35816.65
499.81612	35347.55
503.89401	35358.55
507.96899	35417.75
512.04106	35312.15
516.11023	34940.05
520.1765	34596.45
524.23987	34137.95
528.30034	33710.85
532.35792	33308.55
536.41261	32811.75
540.46441	32541.95
544.51333	32618.55
548.55936	33178.55
552.60252	34181.25
556.64279	35195.05
560.6802	35915.05
564.71473	36393.25
568.7464	37163.85
572.7752	38167.65
576.80114	38832.75
580.82422	39227.45
584.84444	39538.05
588.86181	39776.15
592.87633	40189.35
596.888	40609.25
600.89682	40827.15
604.9028	42107.85
608.90594	46004.85
612.90624	50022.65
616.90371	46829.05
620.89834	38310.95
624.89015	34652.15
628.87913	34406.85
632.86528	34498.75
636.84862	34318.75
640.82913	33541.55
644.80683	32435.65
648.78172	31515.25
652.75379	31263.75
656.72306	31600.45
660.68952	32253.85
664.65319	32156.15
668.61405	31534.55
672.57211	31315.85
676.52738	31308.35
680.47986	31280.35
684.42955	31126.35
688.37646	31051.05
692.32058	31179.35
696.26192	31540.95
700.20048	31944.75
704.13626	32208.15
708.06928	32190.65
711.99952	31935.65
715.927	31804.75
719.85171	31803.25
723.77365	31703.05
727.69284	31297.45
731.60928	30978.45
735.52295	30789.15
739.43388	30838.05
743.34206	30987.35
747.24749	31188.25
751.15017	31588.55
755.05012	32272.75
758.94733	33491.85
762.8418	35638.45
766.73354	39021.25
770.62254	42146.95
774.50882	42659.15
778.39237	40207.65
782.27321	36544.85
786.15132	33614.85
790.02671	31955.55
793.89938	31107.25
797.76935	30779.95
801.6366	30673.85
805.50115	30589.95
809.36299	30434.55
813.22213	30191.95
817.07857	30127.65
820.93231	30112.65
824.78336	29973.45
828.63172	29819.65
832.47738	29754.65
836.32036	29759.25
840.16066	29847.75
843.99827	29972.15
847.8332	29865.55
851.66546	29674.95
855.49504	29591.15
859.32195	29567.85
863.1462	29380.35
866.96777	29243.55
870.78668	29115.35
874.60293	29093.75
878.41652	29052.35
882.22745	29219.55
886.03573	29264.35
889.84136	29254.05
893.64433	29139.35
897.44466	29042.25
901.24235	28889.55
905.0374	28802.55
908.8298	28778.25
912.61957	28826.55
916.40671	29224.45
920.19121	29760.75
923.97308	30188.25
927.75233	30222.05
931.52895	29994.05
935.30295	29554.65
939.07433	28833.35
942.84309	28283.35
946.60924	28105.45
950.37278	27896.35
954.13371	27826.85
957.89203	27687.45
961.64774	27633.35
965.40086	27615.25
969.15137	27490.85
972.89929	27317.95
976.64461	27179.35
980.38733	27202.25
984.12747	27281.85
987.86502	27602.85
991.59999	27994.05
995.33237	28636.45
999.06217	29732.35
1002.78939	30913.35
1006.51404	31700.05
1010.23611	32053.05
1013.95561	32337.15
1017.67255	32359.75
1021.38692	31986.75
1025.09872	31553.25
1028.80796	31860.55
1032.51465	32863.65
1036.21877	33874.25
1039.92035	33990.85
1043.61937	33419.65
1047.31584	32461.55
1051.00976	31471.15
1054.70114	31026.15
1058.38998	31070.35
1062.07627	31302.85
1065.76003	31620.75
1069.44126	31841.95
1073.11995	32222.45
1076.79611	32465.85
1080.46974	32729.15
1084.14085	32979.05
1087.80943	33404.75
1091.47549	33775.15
1095.13903	33761.05
1098.80005	33324.35
1102.45857	32536.75
1106.11456	31823.75
1109.76805	31619.85
1113.41903	31781.65
1117.06751	32100.95
1120.71348	32546.75
1124.35696	33013.35
1127.99793	33465.45
1131.63641	33663.55
1135.2724	33448.85
1138.90589	33148.85
1142.5369	33024.95
1146.16542	33075.15
1149.79145	33324.65
1153.415	33780.15
1157.03607	34577.65
1160.65467	35654.75
1164.27079	37340.55
1167.88443	39739.45
1171.49561	42665.95
1175.10432	46641.15
1178.71056	51497.65
1182.31434	55990.35
1185.91565	58611.25
1189.51451	59048.95
1193.11091	57484.15
1196.70485	54807.95
1200.29634	51844.95
1203.88538	49494.65
1207.47197	47728.45
1211.05612	46456.65
1214.63782	45319.95
1218.21708	44405.85
1221.79391	43930.15
1225.36829	43602.75
1228.94024	43078.85
1232.50976	42247.35
1236.07685	41624.05
1239.6415	41231.35
1243.20374	41072.65
1246.76355	41304.85
1250.32093	41923.25
1253.8759	43069.85
1257.42845	44521.25
1260.97859	45956.05
1264.52631	47258.45
1268.07163	48736.95
1271.61453	50401.05
1275.15503	52198.85
1278.69312	54112.35
1282.22882	55846.65
1285.76211	57420.95
1289.29301	59312.05
1292.82151	61740.25
1296.34761	64963.05
1299.87133	68985.75
1303.39266	73644.65
1306.9116	78794.05
1310.42815	83703.15
1313.94233	86885.45
1317.45412	87350.35
1320.96354	86143.55
1324.47058	84638.15
1327.97525	83114.65
1331.47754	82075.95
1334.97747	81652.05
1338.47502	81694.75
1341.97022	81622.55
1345.46305	80622.15
1348.95352	78750.65
1352.44163	76656.95
1355.92738	76134.85
1359.41078	78051.35
1362.89183	80462.65
1366.37053	78779.45
1369.84688	72207.55
1373.32088	64840.15
1376.79254	59726.65
1380.26186	57815.85
1383.72883	57775.35
1387.19347	58048.65
1390.65578	58130.85
1394.11575	58525.65
1397.57339	59698.75
1401.0287	61373.65
1404.48168	62675.35
1407.93234	63124.75
1411.38068	62276.55
1414.82669	60000.85
1418.27039	56947.55
1421.71177	53624.15
1425.15083	50994.75
1428.58758	49521.65
1432.02203	49378.65
1435.45416	50296.15
1438.88399	51730.05
1442.31151	53110.05
1445.73673	54340.85
1449.15965	55660.35
1452.58027	56669.35
1455.9986	57373.75
1459.41463	58026.15
1462.82837	58953.55
1466.23982	59972.15
1469.64898	60721.85
1473.05586	60936.95
1476.46045	60570.15
1479.86276	59864.95
1483.26279	59053.45
1486.66054	58575.45
1490.05602	58572.75
1493.44922	58792.55
1496.84016	59098.45
1500.22882	60036.95
1503.61521	61629.85
1506.99934	63915.35
1510.38121	66238.25
1513.76081	67354.15
1517.13816	66373.55
1520.51324	64021.55
1523.88607	61616.75
1527.25665	60117.45
1530.62498	59455.55
1533.99105	59156.35
1537.35488	58863.15
1540.71647	58250.95
1544.07581	57172.35
1547.4329	55894.65
1550.78776	54648.35
1554.14038	53867.05
1557.49077	53449.75
1560.83892	53393.45
1564.18484	53339.95
1567.52853	53261.85
1570.86999	53389.65
1574.20922	54011.55
1577.54624	54770.55
1580.88103	55173.55
1584.2136	55752.25
1587.54395	57512.45
1590.87208	60595.05
1594.19801	64458.95
1597.52172	68103.45
1600.84321	68998.45
1604.16251	65807.65
1607.47959	60306.15
1610.79447	54540.45
1614.10715	49312.85
1617.41763	44876.65
1620.7259	41745.65
1624.03199	40044.65
1627.33587	39940.65
1630.63757	41324.85
1633.93707	44421.55
1637.23439	49191.35
1640.52951	55483.35
1643.82246	62155.95
1647.11321	67084.05
1650.40179	67694.15
1653.68819	63074.05
1656.97241	54760.05
1660.25446	46169.95
1663.53433	39572.85
1666.81203	35150.35
1670.08756	32307.25
1673.36092	30598.25
1676.63211	29478.65
1679.90115	28668.75
1683.16801	28054.75
1686.43272	27645.15
1689.69527	27258.55
1692.95567	27023.55
1696.2139	26846.75
1699.46999	26651.65
1702.72392	26501.45
1705.97571	26415.25
1709.22535	26350.15
1712.47284	26305.25
1715.71819	26253.75
1718.96139	26119.55
1722.20246	26036.55
1725.44139	25913.15
1728.67818	25745.25
1731.91284	25525.35
1735.14537	25363.95
1738.37576	25270.85
1741.60403	25158.65
1744.83017	25090.55
1748.05418	24990.25
1751.27607	24959.05
1754.49584	24895.75
1757.71349	24815.25
1760.92903	24803.75
1764.14244	24781.75
1767.35375	24731.85
1770.56294	24694.25
1773.77002	24645.65
1776.97499	24583.75
1780.17785	24506.45
1783.37861	24474.95
1786.57727	24462.65
1789.77382	24400.45
1792.96828	24369.25
1796.16064	24341.45
1799.3509	24294.65
1802.53907	24231.15
1805.72514	24176.85
1808.90913	24125.85
1812.09102	24021.05
1815.27083	24010.65
1818.44856	23946.85
1821.6242	23901.45
1824.79776	23862.85
1827.96924	23903.15
1831.13864	23869.55
1834.30597	23929.25
1837.47122	23928.75
1840.6344	23876.65
1843.7955	23881.95
1846.95454	23962.35
1850.11151	23929.95
1853.26642	23932.75
1856.41926	23943.35
1859.57004	23976.25
1862.71876	23953.95
1865.86542	23924.45
1869.01003	23914.85
1872.15258	23870.05
1875.29308	23935.95
1878.43152	23902.05
1881.56792	23932.55
1884.70227	23922.05
1887.83457	23941.35
1890.96482	23965.55
1894.09304	23950.45
1897.21921	23934.05
1900.34335	23940.15
1903.46544	23929.35
1906.58551	23945.95
1909.70353	23889.15
1912.81953	23810.25
1915.93349	23814.85
1919.04543	23783.15
1922.15534	23694.75
1925.26322	23588.95
1928.36908	23496.05
1931.47292	23426.25
1934.57473	23323.95
1937.67453	23176.25
1940.77232	23093.85
1943.86808	23007.45
1946.96184	22937.95
1950.05358	22854.25
1953.14331	22809.45
1956.23103	22659.65
1959.31675	22598.85
1962.40046	22497.55
1965.48217	22425.35
1968.56188	22383.55
1971.63959	22306.65
1974.7153	22249.15
1977.78901	22128.05
1980.86073	22065.55
1983.93046	21989.45
1986.99819	21913.15
1990.06394	21858.05
1993.1277	21838.45
1996.18947	21749.85
1999.24925	21712.15
2002.30706	21577.95
2005.36288	21563.95
2008.41672	21469.35
2011.46859	21408.45
2014.51848	21371.95
2017.56639	21347.65
2020.61233	21250.45
2023.6563	21215.25
2026.6983	21163.65
2029.73833	21125.15
2032.7764	21059.35
2035.8125	21016.75
2038.84664	21006.15
2041.87881	20984.95
2044.90903	20971.35
2047.93729	20919.75
2050.96359	20875.65
2053.98794	20869.05
2057.01034	20804.25
2060.03078	20836.45
2063.04927	20813.55
2066.06582	20826.95
2069.08042	20793.95
2072.09307	20771.15
2075.10378	20717.25
2078.11255	20704.75
2081.11938	20700.15
2084.12426	20652.85
2087.12722	20659.95
2090.12824	20640.15
2093.12732	20625.25
2096.12447	20645.55
2099.11969	20611.45
2102.11299	20620.85
2105.10435	20632.45
2108.09379	20609.25
2111.08131	20634.05
2114.0669	20652.25
2117.05057	20632.75
2120.03233	20628.45
2123.01216	20687.35
2125.99008	20713.15
2128.96609	20704.05
2131.94018	20732.05
2134.91236	20723.55
2137.88263	20717.85
2140.851	20733.45
2143.81746	20745.55
2146.78201	20748.95
2149.74466	20716.55
2152.7054	20717.35
2155.66425	20691.95
2158.6212	20682.95
2161.57625	20682.35
2164.52941	20666.95
2167.48067	20658.95
2170.43004	20701.15
2173.37752	20686.85
2176.32311	20649.85
2179.26681	20693.75
2182.20863	20657.25
2185.14856	20669.55
2188.08661	20676.35
2191.02278	20713.65
2193.95707	20678.55
2196.88948	20641.15
2199.82001	20644.65
2202.74867	20637.75
2205.67545	20621.65
2208.60037	20615.05
2211.52341	20629.95
2214.44458	20615.75
2217.36388	20567.25
2220.28132	20521.25
2223.1969	20481.75
2226.11061	20412.45
2229.02246	20378.15
2231.93245	20339.55
2234.84058	20289.55
2237.74686	20263.55
2240.65128	20246.65
2243.55385	20182.25
2246.45456	20166.15
2249.35343	20130.25
2252.25044	20112.55
2255.14561	20062.55
2258.03893	20033.55
2260.93041	19990.45
2263.82004	19968.95
2266.70783	19898.45
2269.59378	19864.45
2272.4779	19794.25
2275.36017	19767.65
2278.24061	19719.95
2281.11922	19670.65
2283.996	19660.75
2286.87094	19616.75
2289.74405	19582.15
2292.61534	19587.85
2295.4848	19569.05
2298.35243	19558.15
2301.21824	19590.35
2304.08223	19618.85
2306.94439	19605.35
2309.80474	19635.85
2312.66327	19648.05
2315.51999	19666.95
2318.37489	19676.75
2321.22797	19644.75
2324.07925	19639.75
2326.92871	19595.05
2329.77637	19565.35
2332.62222	19524.85
2335.46626	19557.95
2338.3085	19576.55
2341.14893	19564.65
2343.98756	19629.15
2346.8244	19638.35
2349.65943	19605.15
2352.49267	19638.75
2355.32411	19666.15
2358.15376	19651.65
2360.98161	19623.25
2363.80768	19585.05
2366.63195	19589.25
2369.45444	19529.85
2372.27514	19492.05
2375.09405	19444.75
2377.91118	19377.55
2380.72652	19333.15
2383.54009	19322.35
2386.35187	19288.15
2389.16188	19219.35
2391.97011	19236.55
2394.77657	19175.05
2397.58125	19162.95
2400.38416	19141.35
2403.18529	19108.65
2405.98466	19079.65
2408.78226	19006.45
2411.57809	18986.55
2414.37216	18942.55
2417.16446	18954.05
2419.955	18908.85
2422.74378	18883.55
2425.5308	18824.65
2428.31606	18854.45
2431.09956	18862.85
2433.88131	18858.05
2436.6613	18853.05
2439.43954	18833.65
2442.21603	18833.25
2444.99077	18800.55
2447.76377	18855.75
2450.53501	18806.05
2453.30451	18834.35
2456.07226	18782.75
2458.83827	18788.35
2461.60254	18838.75
2464.36507	18779.65
2467.12586	18790.65
2469.88492	18779.05
2472.64224	18834.75
2475.39782	18853.95
2478.15167	18906.85
2480.90379	18884.45
2483.65417	18901.95
2486.40283	18971.05
2489.14976	18972.15
2491.89497	18955.35
2494.63845	18981.05
2497.3802	19003.25
2500.12024	19019.15
2502.85855	18972.85
2505.59514	18964.65
2508.33002	18975.05
2511.06318	18943.85
2513.79462	18918.95
2516.52435	18921.25
2519.25237	18939.85
2521.97867	18919.05
2524.70327	18902.75
2527.42616	18855.15
2530.14734	18886.05
2532.86681	18866.45
2535.58458	18906.75
2538.30065	18850.95
2541.01501	18890.95
2543.72768	18841.35
2546.43864	18825.15
2549.14791	18799.05
2551.85548	18825.75
2554.56136	18789.45
2557.26554	18761.65
2559.96803	18768.25
2562.66883	18741.05
2565.36794	18657.55
2568.06536	18711.35
2570.7611	18682.95
2573.45514	18673.95
2576.14751	18691.65
2578.83819	18683.85
2581.52719	18683.95
2584.21451	18739.45
2586.90015	18700.45
2589.58411	18753.05
2592.2664	18730.95
2594.94701	18743.15
2597.62594	18731.05
2600.30321	18719.35
2602.9788	18744.85
2605.65273	18718.85
2608.32498	18731.75
2610.99557	18751.05
2613.66449	18761.95
2616.33175	18733.25
2618.99734	18745.05
2621.66128	18757.75
2624.32355	18776.35
2626.98416	18795.85
2629.64311	18830.65
2632.30041	18814.15
2634.95605	18799.15
2637.61004	18782.65
2640.26238	18774.45
2642.91306	18751.85
2645.56209	18699.35
2648.20948	18708.05
2650.85521	18741.05
2653.4993	18706.55
2656.14175	18695.05
2658.78255	18721.55
2661.42171	18755.05
2664.05923	18780.55
2666.6951	18767.55
2669.32934	18803.35
2671.96194	18802.65
2674.59291	18826.05
2677.22224	18843.95
2679.84993	18831.05
2682.476	18813.05
2685.10043	18810.25
2687.72324	18756.85
2690.34441	18761.25
2692.96396	18719.25
2695.58188	18743.55
2698.19818	18693.85
2700.81285	18729.45
2703.4259	18713.35
2706.03733	18763.95
2708.64714	18739.25
2711.25533	18736.85
2713.86191	18746.55
2716.46687	18780.45
2719.07021	18799.35
2721.67194	18820.85
2724.27206	18806.65
2726.87057	18868.65
2729.46747	18849.95
2732.06276	18866.45
2734.65644	18865.95
2737.24852	18861.95
2739.83899	18871.65
2742.42786	18865.45
2745.01513	18795.15
2747.60079	18829.05
2750.18486	18833.55
2752.76733	18816.25
2755.3482	18795.05
2757.92747	18821.15
2760.50515	18807.85
2763.08123	18822.65
2765.65573	18828.15
2768.22863	18832.45
2770.79994	18834.65
2773.36967	18818.85
2775.9378	18817.95
2778.50435	18837.05
2781.06932	18849.65
2783.6327	18830.25
2786.1945	18829.25
2788.75471	18886.15
2791.31335	18809.55
2793.87041	18795.65
2796.42589	18760.85
2798.97979	18735.75
2801.53212	18747.55
2804.08288	18666.95
2806.63206	18602.45
2809.17967	18603.95
2811.72571	18540.75
2814.27018	18542.05
2816.81308	18522.35
2819.35442	18500.65
2821.89419	18483.75
2824.43239	18487.55
2826.96904	18517.95
2829.50412	18510.15
2832.03763	18447.25
2834.56959	18421.65
2837.1	18384.65
2839.62884	18379.85
2842.15613	18380.85
2844.68186	18432.55
2847.20604	18459.55
2849.72867	18440.25
2852.24974	18428.65
2854.76927	18404.85
2857.28724	18437.15
2859.80367	18413.95
2862.31855	18382.65
2864.83189	18335.65
2867.34368	18300.45
2869.85393	18365.65
2872.36264	18296.45
2874.8698	18310.65
2877.37543	18303.85
2879.87952	18286.45
2882.38207	18302.45
2884.88308	18312.95
2887.38256	18322.55
2889.88051	18327.75
2892.37692	18335.75
2894.8718	18335.35
2897.36515	18382.25
2899.85698	18404.05
2902.34727	18411.45
2904.83604	18479.15
2907.32328	18507.25
2909.809	18490.85
2912.29319	18544.15
2914.77587	18501.35
2917.25702	18505.45
2919.73665	18501.85
2922.21476	18512.55
2924.69136	18480.15
2927.16644	18443.15
2929.64	18397.05
2932.11205	18380.25
2934.58258	18283.15
2937.05161	18304.95
2939.51912	18315.35
2941.98513	18286.25
2944.44962	18252.75
2946.91261	18197.35
2949.37409	18189.65
2951.83407	18188.25
2954.29254	18176.45
2956.74951	18146.35
2959.20498	18129.75
2961.65895	18066.05
2964.11142	18076.35
2966.56239	18059.35
2969.01186	18039.75
2971.45984	18012.05
2973.90632	17979.15
2976.35131	17939.95
2978.7948	17893.75
2981.23681	17855.15
2983.67732	17806.55
2986.11635	17751.85
2988.55388	17734.45
2990.98993	17683.25
2993.4245	17625.15
2995.85758	17569.05
2998.28917	17521.35
3000.71928	17491.75
3003.14791	17474.25
3005.57506	17465.65
3008.00073	17414.95
3010.42493	17272.45
3012.84764	17327.05
3015.26888	17317.85
3017.68865	17290.85
3020.10694	17249.25
3022.52376	17224.15
3024.9391	17192.35
3027.35298	17155.25
3029.76539	17151.25
3032.17632	17127.75
3034.5858	17117.25
3036.9938	17114.05
3039.40034	17114.35
3041.80542	17108.75
3044.20903	17049.65
3046.61118	17021.95
3049.01187	17005.65
3051.4111	17040.65
3053.80888	16983.85
3056.20519	16934.25
3058.60005	16887.35
3060.99345	16883.25
3063.3854	16814.55
3065.7759	16762.45
3068.16494	16678.65
3070.55254	16625.05
3072.93868	16608.85
3075.32338	16573.95
3077.70662	16519.45
3080.08842	16445.95
3082.46878	16452.15
3084.84769	16387.25
3087.22515	16391.55
3089.60118	16354.15
3091.97576	16373.35
3094.3489	16382.15
3096.72061	16314.25
3099.09087	16353.15
3101.4597	16315.75
3103.82709	16322.35
3106.19305	16315.75
3108.55757	16268.85
3110.92066	16214.45
3113.28232	16206.55
3115.64255	16158.95
3118.00134	16100.65
3120.35871	16090.65
3122.71466	16054.15
3125.06917	16054.55
3127.42226	15982.95
3129.77393	15967.75
3132.12417	15917.25
3134.47299	15921.45
3136.82039	15922.35
3139.16636	15904.65
3141.51092	15895.25
3143.85406	15863.25
3146.19579	15868.15
3148.53609	15865.35
3150.87499	15871.15
3153.21246	15875.75
3155.54853	15881.55
3157.88318	15892.65
3160.21642	15875.05
3162.54826	15882.45
3164.87868	15897.95
3167.2077	15840.95
3169.5353	15893.95
3171.86151	15891.95
3174.18631	15856.25
3176.5097	15875.15
3178.83169	15833.55
3181.15228	15818.95
3183.47147	15822.85
3185.78926	15793.95
3188.10565	15788.25
3190.42065	15778.45
3192.73424	15774.75
3195.04645	15736.05
3197.35725	15734.85
3199.66667	15699.05
3201.97469	15724.95
3204.28132	15672.45
3206.58656	15679.85
3208.8904	15720.85
3211.19287	15714.35
3213.49394	15740.75
3215.79363	15741.15
3218.09193	15773.65
3220.38884	15717.85
3222.68438	15731.95
3224.97853	15692.75
3227.2713	15692.45
3229.56269	15687.95
3231.8527	15671.75
3234.14133	15668.55
3236.42858	15582.95
3238.71446	15605.55
3240.99896	15579.45
3243.28209	15535.65
3245.56384	15512.35
3247.84423	15505.75
3250.12324	15489.65
3252.40088	15446.85
3254.67715	15459.15
3256.95205	15449.15
3259.22558	15464.25
3261.49775	15415.85
3263.76855	15406.75
3266.03799	15353.55
3268.30606	15328.05
3270.57277	15334.15
3272.83812	15294.05
3275.10211	15237.45
3277.36474	15194.45
3279.62601	15220.75
3281.88593	15199.55
3284.14448	15210.15
3286.40168	15203.35
3288.65753	15199.85
3290.91202	15207.55
3293.16516	15162.75
3295.41695	15154.05
3297.66738	15068.95
3299.91647	14995.85
3302.16421	14867.85
3304.4106	14792.75
3306.65564	14720.75
3308.89933	14585.75
3311.14169	14511.45
3313.38269	14386.55
3315.62236	14267.95
3317.86068	14170.25
3320.09766	14059.75
3322.3333	13972.95
3324.5676	13914.05
3326.80056	13678.05
3329.03219	13622.85
3331.26248	3.95
3333.49143	-0.05
3335.71905	-0.65
