Data from AgNPs_FTO_APTES_UA_5uM_CRN_1uM_R6G_10uM_NaF_0.1M_Addition_RamanShift__30__10-52-16-604.txt Node

Date: Mon Feb 07 10:52:16 GMT 2022
User: TCL
Spectrometer: QEP01345
Trigger mode: 4
Integration Time (sec): 7.000000E0
Scans to average: 10
Electric dark correction enabled: true
Nonlinearity correction enabled: false
Boxcar width: 0
XAxis mode: Raman Shifts
Number of Pixels in Spectrum: 1044
>>>>>Begin Spectral Data<<<<<
46.04893	0.55
50.45542	-1.35
54.85868	0.15
59.25871	0.25
63.6555	50.75
68.04907	55.45
72.43941	63.35
76.82654	65.45
81.21044	64.35
85.59113	69.55
89.96862	75.05
94.34289	72.65
98.71396	76.85
103.08183	79.55
107.4465	76.95
111.80798	82.15
116.16626	82.95
120.52136	87.15
124.87327	92.25
129.222	93.55
133.56755	102.15
137.90993	105.15
142.24913	112.85
146.58517	127.85
150.91804	144.15
155.24774	170.15
159.57429	213.65
163.89768	270.05
168.21792	358.85
172.53501	481.05
176.84895	667.15
181.15975	931.75
185.46741	1307.95
189.77193	1801.75
194.07331	2398.75
198.37157	3099.95
202.6667	3827.85
206.9587	4536.15
211.24758	5282.95
215.53334	6071.25
219.81599	6959.55
224.09553	7956.35
228.37195	9063.35
232.64527	10285.05
236.91549	11470.95
241.18261	12520.75
245.44663	13343.85
249.70755	13946.15
253.96539	14463.45
258.22014	14900.55
262.4718	15287.15
266.72039	15627.55
270.96589	15812.95
275.20832	15837.25
279.44768	15696.05
283.68397	15564.75
287.91719	15518.05
292.14735	15634.65
296.37445	15983.85
300.59849	16699.75
304.81948	17570.35
309.03742	18261.65
313.25231	18261.45
317.46415	17259.25
321.67296	15594.15
325.87872	14176.15
330.08145	13503.05
334.28114	13366.35
338.47781	13627.85
342.67145	14052.65
346.86207	14779.05
351.04966	15898.65
355.23424	17130.25
359.4158	18096.25
363.59435	18508.05
367.76989	18460.45
371.94243	18194.75
376.11196	17896.05
380.27849	17602.85
384.44203	17268.45
388.60257	16886.55
392.76012	16769.25
396.91468	16966.25
401.06626	17600.65
405.21485	18097.65
409.36047	17773.35
413.50311	16659.45
417.64277	15536.75
421.77947	14913.75
425.9132	14639.15
430.04396	14582.25
434.17176	14545.05
438.2966	14700.35
442.41849	15056.35
446.53742	15557.75
450.6534	16018.95
454.76644	16287.15
458.87653	16300.45
462.98368	16136.45
467.08789	15841.05
471.18916	15431.65
475.2875	14942.95
479.38291	14611.45
483.4754	14323.65
487.56496	14140.75
491.6516	14033.75
495.73531	14041.85
499.81612	14139.65
503.89401	14354.85
507.96899	14559.35
512.04106	14741.85
516.11023	14947.15
520.1765	15060.25
524.23987	14912.85
528.30034	14527.75
532.35792	14089.95
536.41261	13627.55
540.46441	13201.95
544.51333	12990.95
548.55936	13126.95
552.60252	13592.05
556.64279	14099.45
560.6802	14367.55
564.71473	14654.95
568.7464	15555.25
572.7752	16261.75
576.80114	15899.95
580.82422	15389.95
584.84444	15178.85
588.86181	14951.45
592.87633	14734.35
596.888	14763.95
600.89682	15433.55
604.9028	17649.75
608.90594	23663.15
612.90624	31951.65
616.90371	31039.85
620.89834	20240.55
624.89015	14883.15
628.87913	13842.95
632.86528	13984.95
636.84862	14314.75
640.82913	14049.65
644.80683	13161.35
648.78172	12520.55
652.75379	12586.85
656.72306	13342.25
660.68952	14384.95
664.65319	14293.95
668.61405	13322.35
672.57211	12757.75
676.52738	12680.95
680.47986	12616.65
684.42955	12421.25
688.37646	12306.05
692.32058	12390.15
696.26192	12583.35
700.20048	12839.45
704.13626	13104.65
708.06928	13171.45
711.99952	12997.55
715.927	12853.55
719.85171	12789.75
723.77365	12735.85
727.69284	12511.05
731.60928	12302.65
735.52295	12284.15
739.43388	12324.85
743.34206	12428.65
747.24749	12571.55
751.15017	12772.05
755.05012	13190.75
758.94733	14090.25
762.8418	16146.35
766.73354	19877.45
770.62254	23630.35
774.50882	25273.15
778.39237	23979.95
782.27321	20302.05
786.15132	16427.75
790.02671	14168.95
793.89938	13097.35
797.76935	12665.75
801.6366	12428.55
805.50115	12310.35
809.36299	12164.15
813.22213	12047.35
817.07857	12018.75
820.93231	11968.65
824.78336	12028.75
828.63172	12137.55
832.47738	12192.55
836.32036	12170.35
840.16066	12073.05
843.99827	11963.25
847.8332	11874.15
851.66546	11837.75
855.49504	11817.55
859.32195	11797.05
863.1462	11688.15
866.96777	11612.45
870.78668	11594.05
874.60293	11603.15
878.41652	11664.05
882.22745	11773.45
886.03573	11845.65
889.84136	11814.65
893.64433	11703.85
897.44466	11689.25
901.24235	11694.65
905.0374	11645.35
908.8298	11606.15
912.61957	11598.05
916.40671	11669.15
920.19121	11910.65
923.97308	12132.75
927.75233	12327.05
931.52895	12434.25
935.30295	12221.05
939.07433	11678.45
942.84309	11189.85
946.60924	10922.55
950.37278	10790.15
954.13371	10674.45
957.89203	10641.05
961.64774	10602.05
965.40086	10567.55
969.15137	10530.95
972.89929	10484.25
976.64461	10492.65
980.38733	10481.85
984.12747	10524.95
987.86502	10551.25
991.59999	10652.15
995.33237	10823.35
999.06217	11144.15
1002.78939	11551.25
1006.51404	11981.85
1010.23611	12391.25
1013.95561	12626.95
1017.67255	12560.95
1021.38692	12265.25
1025.09872	11991.55
1028.80796	11805.15
1032.51465	11932.75
1036.21877	12175.25
1039.92035	12351.95
1043.61937	12430.75
1047.31584	12333.05
1051.00976	12246.45
1054.70114	12161.95
1058.38998	12118.75
1062.07627	12241.45
1065.76003	12388.55
1069.44126	12626.65
1073.11995	12888.55
1076.79611	13150.35
1080.46974	13386.35
1084.14085	13787.95
1087.80943	14318.55
1091.47549	14588.75
1095.13903	14270.15
1098.80005	13606.05
1102.45857	12891.95
1106.11456	12499.45
1109.76805	12409.65
1113.41903	12668.55
1117.06751	13166.85
1120.71348	13937.15
1124.35696	14870.35
1127.99793	15665.35
1131.63641	15629.45
1135.2724	14701.15
1138.90589	13788.25
1142.5369	13228.55
1146.16542	12897.65
1149.79145	12694.65
1153.415	12709.25
1157.03607	12888.05
1160.65467	13304.05
1164.27079	13962.85
1167.88443	14975.05
1171.49561	16679.95
1175.10432	19444.95
1178.71056	23041.45
1182.31434	25522.75
1185.91565	25988.25
1189.51451	25167.95
1193.11091	23461.25
1196.70485	21259.65
1200.29634	19524.45
1203.88538	18200.15
1207.47197	16741.45
1211.05612	15467.65
1214.63782	14803.15
1218.21708	14549.05
1221.79391	14625.05
1225.36829	14808.25
1228.94024	15003.95
1232.50976	15179.05
1236.07685	15242.05
1239.6415	15204.15
1243.20374	15163.55
1246.76355	15114.45
1250.32093	15273.75
1253.8759	15685.95
1257.42845	16275.65
1260.97859	16986.35
1264.52631	17712.15
1268.07163	18418.45
1271.61453	19128.75
1275.15503	19664.35
1278.69312	19964.45
1282.22882	20188.45
1285.76211	20787.45
1289.29301	21626.85
1292.82151	22485.25
1296.34761	23340.05
1299.87133	24614.45
1303.39266	26872.65
1306.9116	30349.85
1310.42815	34545.75
1313.94233	37292.95
1317.45412	36903.85
1320.96354	34469.65
1324.47058	31505.35
1327.97525	29007.65
1331.47754	27381.25
1334.97747	26595.75
1338.47502	26325.95
1341.97022	26670.75
1345.46305	27379.25
1348.95352	28738.45
1352.44163	30727.55
1355.92738	33908.55
1359.41078	39148.05
1362.89183	44597.05
1366.37053	43829.95
1369.84688	37147.55
1373.32088	30121.65
1376.79254	25485.25
1380.26186	23055.25
1383.72883	21782.25
1387.19347	20838.25
1390.65578	19878.25
1394.11575	19098.95
1397.57339	18735.55
1401.0287	18785.55
1404.48168	19028.85
1407.93234	19336.75
1411.38068	19522.75
1414.82669	19320.35
1418.27039	18813.25
1421.71177	18220.45
1425.15083	17619.75
1428.58758	17295.65
1432.02203	17262.95
1435.45416	17395.35
1438.88399	17473.55
1442.31151	17525.45
1445.73673	17644.85
1449.15965	17808.45
1452.58027	17840.15
1455.9986	17732.55
1459.41463	17694.65
1462.82837	17876.65
1466.23982	18312.55
1469.64898	18749.65
1473.05586	19067.95
1476.46045	19310.45
1479.86276	19727.95
1483.26279	20302.55
1486.66054	20970.45
1490.05602	21889.15
1493.44922	23215.35
1496.84016	25176.95
1500.22882	28195.15
1503.61521	32049.55
1506.99934	36418.45
1510.38121	40624.25
1513.76081	42828.05
1517.13816	41096.25
1520.51324	36014.45
1523.88607	30602.45
1527.25665	26721.45
1530.62498	24341.55
1533.99105	22877.95
1537.35488	21869.15
1540.71647	21234.55
1544.07581	20775.55
1547.4329	20459.45
1550.78776	20152.05
1554.14038	20069.75
1557.49077	20219.25
1560.83892	20722.75
1564.18484	21499.65
1567.52853	22358.15
1570.86999	22959.95
1574.20922	23339.25
1577.54624	23117.35
1580.88103	21769.85
1584.2136	19984.95
1587.54395	19150.15
1590.87208	19535.35
1594.19801	20870.85
1597.52172	22618.55
1600.84321	23353.25
1604.16251	22346.25
1607.47959	20485.45
1610.79447	18506.95
1614.10715	16726.85
1617.41763	15296.55
1620.7259	14396.75
1624.03199	14010.35
1627.33587	14027.65
1630.63757	14474.45
1633.93707	15424.35
1637.23439	16917.95
1640.52951	19091.35
1643.82246	21939.05
1647.11321	25339.65
1650.40179	27922.85
1653.68819	27587.65
1656.97241	23773.85
1660.25446	19067.55
1663.53433	15516.05
1666.81203	13368.45
1670.08756	12130.65
1673.36092	11391.05
1676.63211	10951.15
1679.90115	10653.05
1683.16801	10407.95
1686.43272	10239.65
1689.69527	10117.95
1692.95567	10048.75
1696.2139	9992.45
1699.46999	9962.45
1702.72392	9904.95
1705.97571	9881.65
1709.22535	9860.05
1712.47284	9844.75
1715.71819	9875.05
1718.96139	9863.55
1722.20246	9845.05
1725.44139	9806.85
1728.67818	9703.65
1731.91284	9610.75
1735.14537	9480.45
1738.37576	9410.75
1741.60403	9349.35
1744.83017	9293.45
1748.05418	9244.25
1751.27607	9216.15
1754.49584	9191.35
1757.71349	9165.55
1760.92903	9153.45
1764.14244	9182.15
1767.35375	9145.65
1770.56294	9103.25
1773.77002	9060.15
1776.97499	9019.55
1780.17785	8976.75
1783.37861	8950.75
1786.57727	8934.05
1789.77382	8907.55
1792.96828	8883.35
1796.16064	8870.05
1799.3509	8875.85
1802.53907	8855.55
1805.72514	8801.95
1808.90913	8763.45
1812.09102	8730.95
1815.27083	8727.45
1818.44856	8706.05
1821.6242	8692.75
1824.79776	8654.35
1827.96924	8636.55
1831.13864	8643.45
1834.30597	8636.05
1837.47122	8606.85
1840.6344	8603.15
1843.7955	8631.75
1846.95454	8608.35
1850.11151	8605.45
1853.26642	8593.25
1856.41926	8589.55
1859.57004	8624.35
1862.71876	8640.05
1865.86542	8635.85
1869.01003	8630.25
1872.15258	8638.15
1875.29308	8667.65
1878.43152	8681.25
1881.56792	8689.35
1884.70227	8703.45
1887.83457	8721.75
1890.96482	8730.75
1894.09304	8741.85
1897.21921	8757.95
1900.34335	8730.95
1903.46544	8744.05
1906.58551	8761.55
1909.70353	8735.15
1912.81953	8771.55
1915.93349	8761.85
1919.04543	8759.95
1922.15534	8742.05
1925.26322	8723.95
1928.36908	8674.45
1931.47292	8622.65
1934.57473	8550.75
1937.67453	8501.65
1940.77232	8410.55
1943.86808	8330.85
1946.96184	8293.25
1950.05358	8244.55
1953.14331	8213.95
1956.23103	8170.65
1959.31675	8118.45
1962.40046	8097.35
1965.48217	8061.85
1968.56188	8050.05
1971.63959	8019.05
1974.7153	7989.55
1977.78901	7966.35
1980.86073	7915.45
1983.93046	7891.25
1986.99819	7870.15
1990.06394	7844.45
1993.1277	7788.85
1996.18947	7773.05
1999.24925	7769.45
2002.30706	7716.35
2005.36288	7681.25
2008.41672	7662.45
2011.46859	7634.45
2014.51848	7640.85
2017.56639	7596.65
2020.61233	7562.25
2023.6563	7546.05
2026.6983	7519.45
2029.73833	7497.15
2032.7764	7469.55
2035.8125	7450.05
2038.84664	7449.45
2041.87881	7441.65
2044.90903	7417.85
2047.93729	7406.85
2050.96359	7386.55
2053.98794	7371.55
2057.01034	7356.05
2060.03078	7336.95
2063.04927	7341.15
2066.06582	7332.25
2069.08042	7311.35
2072.09307	7318.25
2075.10378	7296.15
2078.11255	7289.65
2081.11938	7303.75
2084.12426	7266.75
2087.12722	7275.95
2090.12824	7267.65
2093.12732	7269.45
2096.12447	7248.75
2099.11969	7259.05
2102.11299	7245.35
2105.10435	7264.15
2108.09379	7259.15
2111.08131	7274.15
2114.0669	7248.25
2117.05057	7251.75
2120.03233	7260.25
2123.01216	7272.95
2125.99008	7271.15
2128.96609	7289.05
2131.94018	7295.85
2134.91236	7283.55
2137.88263	7288.75
2140.851	7272.85
2143.81746	7282.95
2146.78201	7249.95
2149.74466	7262.95
2152.7054	7228.45
2155.66425	7243.55
2158.6212	7227.15
2161.57625	7201.25
2164.52941	7221.05
2167.48067	7192.95
2170.43004	7203.85
2173.37752	7185.95
2176.32311	7182.75
2179.26681	7201.45
2182.20863	7196.45
2185.14856	7201.15
2188.08661	7178.75
2191.02278	7199.75
2193.95707	7191.25
2196.88948	7156.55
2199.82001	7153.85
2202.74867	7122.25
2205.67545	7138.35
2208.60037	7118.25
2211.52341	7107.55
2214.44458	7109.45
2217.36388	7080.65
2220.28132	7074.35
2223.1969	7048.65
2226.11061	7021.75
2229.02246	7004.55
2231.93245	7007.45
2234.84058	6982.85
2237.74686	6951.75
2240.65128	6959.35
2243.55385	6947.25
2246.45456	6937.05
2249.35343	6935.55
2252.25044	6932.75
2255.14561	6919.55
2258.03893	6920.35
2260.93041	6935.25
2263.82004	6900.55
2266.70783	6894.35
2269.59378	6880.55
2272.4779	6832.35
2275.36017	6817.35
2278.24061	6828.55
2281.11922	6813.15
2283.996	6799.75
2286.87094	6767.45
2289.74405	6742.45
2292.61534	6740.85
2295.4848	6715.95
2298.35243	6708.95
2301.21824	6709.55
2304.08223	6698.95
2306.94439	6688.95
2309.80474	6717.95
2312.66327	6709.95
2315.51999	6712.75
2318.37489	6689.55
2321.22797	6671.65
2324.07925	6692.25
2326.92871	6676.45
2329.77637	6642.75
2332.62222	6628.85
2335.46626	6640.65
2338.3085	6639.05
2341.14893	6646.85
2343.98756	6662.15
2346.8244	6651.85
2349.65943	6654.15
2352.49267	6679.35
2355.32411	6673.95
2358.15376	6711.15
2360.98161	6726.35
2363.80768	6713.45
2366.63195	6731.45
2369.45444	6746.85
2372.27514	6739.45
2375.09405	6726.35
2377.91118	6702.05
2380.72652	6667.25
2383.54009	6634.35
2386.35187	6596.15
2389.16188	6554.65
2391.97011	6532.25
2394.77657	6504.65
2397.58125	6475.15
2400.38416	6477.55
2403.18529	6459.55
2405.98466	6446.55
2408.78226	6412.55
2411.57809	6403.55
2414.37216	6401.85
2417.16446	6389.15
2419.955	6399.65
2422.74378	6382.85
2425.5308	6385.95
2428.31606	6363.65
2431.09956	6369.55
2433.88131	6369.35
2436.6613	6382.75
2439.43954	6375.65
2442.21603	6383.35
2444.99077	6376.15
2447.76377	6381.55
2450.53501	6384.95
2453.30451	6380.85
2456.07226	6379.55
2458.83827	6384.25
2461.60254	6373.25
2464.36507	6390.25
2467.12586	6367.35
2469.88492	6360.05
2472.64224	6374.55
2475.39782	6397.35
2478.15167	6411.45
2480.90379	6403.75
2483.65417	6428.05
2486.40283	6441.05
2489.14976	6439.95
2491.89497	6494.15
2494.63845	6471.85
2497.3802	6468.35
2500.12024	6472.25
2502.85855	6462.05
2505.59514	6430.45
2508.33002	6379.45
2511.06318	6372.35
2513.79462	6346.45
2516.52435	6292.25
2519.25237	6289.45
2521.97867	6275.55
2524.70327	6273.85
2527.42616	6233.45
2530.14734	6247.75
2532.86681	6227.15
2535.58458	6227.45
2538.30065	6226.65
2541.01501	6198.35
2543.72768	6219.45
2546.43864	6234.25
2549.14791	6210.75
2551.85548	6231.65
2554.56136	6197.65
2557.26554	6192.35
2559.96803	6189.25
2562.66883	6180.95
2565.36794	6166.45
2568.06536	6152.75
2570.7611	6145.45
2573.45514	6142.05
2576.14751	6137.25
2578.83819	6135.65
2581.52719	6117.45
2584.21451	6112.35
2586.90015	6097.55
2589.58411	6095.05
2592.2664	6088.85
2594.94701	6083.55
2597.62594	6097.35
2600.30321	6081.65
2602.9788	6079.75
2605.65273	6080.85
2608.32498	6069.75
2610.99557	6088.35
2613.66449	6089.75
2616.33175	6086.25
2618.99734	6069.05
2621.66128	6070.05
2624.32355	6068.65
2626.98416	6050.65
2629.64311	6045.25
2632.30041	6059.85
2634.95605	6040.45
2637.61004	6025.95
2640.26238	6011.65
2642.91306	6002.15
2645.56209	5984.45
2648.20948	6001.15
2650.85521	5979.75
2653.4993	5985.85
2656.14175	5982.55
2658.78255	5996.35
2661.42171	6001.55
2664.05923	6023.45
2666.6951	6007.05
2669.32934	6042.35
2671.96194	6039.55
2674.59291	6058.85
2677.22224	6050.35
2679.84993	6053.35
2682.476	6054.05
2685.10043	6037.15
2687.72324	6021.85
2690.34441	6033.75
2692.96396	6039.15
2695.58188	6032.35
2698.19818	6024.05
2700.81285	6001.75
2703.4259	6019.95
2706.03733	6056.65
2708.64714	6053.55
2711.25533	6027.95
2713.86191	6039.55
2716.46687	6059.15
2719.07021	6040.95
2721.67194	6057.55
2724.27206	6045.25
2726.87057	6062.35
2729.46747	6061.95
2732.06276	6058.65
2734.65644	6057.55
2737.24852	6051.25
2739.83899	6028.95
2742.42786	6021.65
2745.01513	5990.05
2747.60079	5984.25
2750.18486	5985.35
2752.76733	5964.85
2755.3482	5953.85
2757.92747	5953.55
2760.50515	5931.75
2763.08123	5932.75
2765.65573	5937.55
2768.22863	5926.55
2770.79994	5926.65
2773.36967	5915.45
2775.9378	5931.85
2778.50435	5943.15
2781.06932	5917.45
2783.6327	5931.75
2786.1945	5935.15
2788.75471	5936.95
2791.31335	5932.55
2793.87041	5946.75
2796.42589	5915.55
2798.97979	5930.15
2801.53212	5917.75
2804.08288	5915.75
2806.63206	5899.55
2809.17967	5899.65
2811.72571	5903.15
2814.27018	5916.45
2816.81308	5923.75
2819.35442	5924.75
2821.89419	5940.95
2824.43239	5944.75
2826.96904	5975.75
2829.50412	5983.85
2832.03763	5991.25
2834.56959	5982.65
2837.1	6001.65
2839.62884	6014.65
2842.15613	6043.95
2844.68186	6142.95
2847.20604	6190.25
2849.72867	6265.65
2852.24974	6285.35
2854.76927	6270.35
2857.28724	6281.05
2859.80367	6248.75
2862.31855	6237.75
2864.83189	6201.45
2867.34368	6199.85
2869.85393	6206.65
2872.36264	6191.15
2874.8698	6207.25
2877.37543	6182.15
2879.87952	6161.95
2882.38207	6154.05
2884.88308	6151.45
2887.38256	6146.95
2889.88051	6158.05
2892.37692	6142.35
2894.8718	6149.35
2897.36515	6151.35
2899.85698	6149.85
2902.34727	6158.05
2904.83604	6167.05
2907.32328	6179.15
2909.809	6166.85
2912.29319	6166.85
2914.77587	6154.05
2917.25702	6156.35
2919.73665	6145.05
2922.21476	6124.35
2924.69136	6117.75
2927.16644	6112.15
2929.64	6101.65
2932.11205	6075.35
2934.58258	6050.05
2937.05161	6030.35
2939.51912	5984.55
2941.98513	5963.15
2944.44962	5915.95
2946.91261	5855.65
2949.37409	5830.15
2951.83407	5793.05
2954.29254	5778.75
2956.74951	5746.95
2959.20498	5736.85
2961.65895	5726.65
2964.11142	5693.95
2966.56239	5684.55
2969.01186	5690.35
2971.45984	5641.05
2973.90632	5639.05
2976.35131	5605.35
2978.7948	5609.25
2981.23681	5578.55
2983.67732	5573.85
2986.11635	5561.85
2988.55388	5527.75
2990.98993	5507.65
2993.4245	5487.65
2995.85758	5464.55
2998.28917	5457.05
3000.71928	5455.65
3003.14791	5439.65
3005.57506	5432.85
3008.00073	5413.15
3010.42493	5412.35
3012.84764	5399.45
3015.26888	5414.35
3017.68865	5389.05
3020.10694	5372.85
3022.52376	5360.35
3024.9391	5359.05
3027.35298	5352.05
3029.76539	5336.95
3032.17632	5325.85
3034.5858	5314.65
3036.9938	5301.95
3039.40034	5294.45
3041.80542	5277.05
3044.20903	5258.85
3046.61118	5255.05
3049.01187	5245.85
3051.4111	5234.05
3053.80888	5234.95
3056.20519	5214.65
3058.60005	5207.45
3060.99345	5206.55
3063.3854	5205.55
3065.7759	5177.65
3068.16494	5151.35
3070.55254	5144.75
3072.93868	5127.45
3075.32338	5106.75
3077.70662	5085.15
3080.08842	5054.35
3082.46878	5043.85
3084.84769	5023.65
3087.22515	5019.55
3089.60118	5018.25
3091.97576	5020.35
3094.3489	5017.35
3096.72061	5004.75
3099.09087	5000.95
3101.4597	4976.25
3103.82709	4985.05
3106.19305	4995.15
3108.55757	4973.75
3110.92066	4967.25
3113.28232	4935.65
3115.64255	4945.35
3118.00134	4925.45
3120.35871	4922.45
3122.71466	4926.55
3125.06917	4912.15
3127.42226	4894.75
3129.77393	4910.55
3132.12417	4882.65
3134.47299	4906.35
3136.82039	4898.75
3139.16636	4895.15
3141.51092	4893.45
3143.85406	4895.75
3146.19579	4894.35
3148.53609	4896.85
3150.87499	4896.45
3153.21246	4911.25
3155.54853	4903.95
3157.88318	4924.55
3160.21642	4922.05
3162.54826	4920.15
3164.87868	4914.95
3167.2077	4922.65
3169.5353	4927.15
3171.86151	4927.55
3174.18631	4911.85
3176.5097	4901.25
3178.83169	4897.15
3181.15228	4892.75
3183.47147	4906.45
3185.78926	4904.15
3188.10565	4895.95
3190.42065	4884.25
3192.73424	4896.25
3195.04645	4892.45
3197.35725	4906.05
3199.66667	4897.85
3201.97469	4900.55
3204.28132	4882.55
3206.58656	4909.15
3208.8904	4910.15
3211.19287	4927.35
3213.49394	4924.25
3215.79363	4927.85
3218.09193	4928.15
3220.38884	4945.45
3222.68438	4945.35
3224.97853	4944.25
3227.2713	4917.75
3229.56269	4921.45
3231.8527	4922.05
3234.14133	4905.55
3236.42858	4896.55
3238.71446	4899.35
3240.99896	4878.95
3243.28209	4863.85
3245.56384	4876.45
3247.84423	4875.65
3250.12324	4847.55
3252.40088	4856.55
3254.67715	4836.75
3256.95205	4830.55
3259.22558	4846.85
3261.49775	4824.85
3263.76855	4815.05
3266.03799	4812.75
3268.30606	4796.55
3270.57277	4800.75
3272.83812	4790.55
3275.10211	4777.05
3277.36474	4755.05
3279.62601	4752.55
3281.88593	4748.15
3284.14448	4757.65
3286.40168	4764.75
3288.65753	4736.85
3290.91202	4748.65
3293.16516	4727.65
3295.41695	4738.75
3297.66738	4700.05
3299.91647	4674.85
3302.16421	4639.55
3304.4106	4616.25
3306.65564	4587.75
3308.89933	4552.85
3311.14169	4514.95
3313.38269	4490.55
3315.62236	4433.55
3317.86068	4396.15
3320.09766	4359.65
3322.3333	4325.15
3324.5676	4304.15
3326.80056	4248.85
3329.03219	4200.15
3331.26248	0.95
3333.49143	-0.85
3335.71905	-0.25
