Data from AgNPs_FTO_APTES_UA_5uM_CRN_500uM_R6G_10uM_NaF_0.1M_Addition_RamanShift__22__17-06-21-839.txt Node

Date: Mon Feb 07 17:06:21 GMT 2022
User: TCL
Spectrometer: QEP01345
Trigger mode: 4
Integration Time (sec): 7.000000E0
Scans to average: 10
Electric dark correction enabled: true
Nonlinearity correction enabled: false
Boxcar width: 0
XAxis mode: Raman Shifts
Number of Pixels in Spectrum: 1044
>>>>>Begin Spectral Data<<<<<
46.04893	-1.85
50.45542	-1.05
54.85868	-0.25
59.25871	-0.65
63.6555	68.55
68.04907	69.55
72.43941	74.55
76.82654	74.65
81.21044	75.25
85.59113	76.85
89.96862	83.45
94.34289	88.65
98.71396	86.35
103.08183	91.05
107.4465	92.15
111.80798	96.65
116.16626	99.35
120.52136	107.15
124.87327	111.35
129.222	117.05
133.56755	120.35
137.90993	132.25
142.24913	147.85
146.58517	170.05
150.91804	199.95
155.24774	245.05
159.57429	300.75
163.89768	390.25
168.21792	519.75
172.53501	708.15
176.84895	997.65
181.15975	1397.35
185.46741	1958.95
189.77193	2712.95
194.07331	3626.95
198.37157	4669.35
202.6667	5764.45
206.9587	6830.85
211.24758	7952.25
215.53334	9044.25
219.81599	10188.85
224.09553	11468.55
228.37195	12867.65
232.64527	14392.95
236.91549	15971.05
241.18261	17572.75
245.44663	19037.85
249.70755	20374.85
253.96539	21567.05
258.22014	22548.75
262.4718	23407.25
266.72039	24003.55
270.96589	24377.45
275.20832	24497.75
279.44768	24408.85
283.68397	24295.85
287.91719	24184.25
292.14735	24242.45
296.37445	24351.15
300.59849	24476.95
304.81948	24506.05
309.03742	24362.05
313.25231	23943.75
317.46415	23262.75
321.67296	22495.75
325.87872	21917.95
330.08145	21586.25
334.28114	21597.85
338.47781	21713.95
342.67145	21919.05
346.86207	22238.85
351.04966	22705.25
355.23424	23164.55
359.4158	23543.55
363.59435	23833.85
367.76989	24013.05
371.94243	24159.65
376.11196	24296.55
380.27849	24370.35
384.44203	24602.25
388.60257	24762.45
392.76012	25008.95
396.91468	25269.55
401.06626	25605.15
405.21485	25843.05
409.36047	25734.65
413.50311	25352.85
417.64277	25096.25
421.77947	25076.55
425.9132	25214.65
430.04396	25419.85
434.17176	25700.25
438.2966	26100.95
442.41849	26689.45
446.53742	27628.85
450.6534	28654.65
454.76644	29342.95
458.87653	29575.05
462.98368	29351.15
467.08789	28922.25
471.18916	28632.95
475.2875	28479.95
479.38291	28580.85
483.4754	28519.35
487.56496	28101.75
491.6516	27379.45
495.73531	26642.65
499.81612	26152.25
503.89401	26072.35
507.96899	26049.85
512.04106	25894.75
516.11023	25659.35
520.1765	25369.85
524.23987	25165.65
528.30034	24964.85
532.35792	24866.75
536.41261	24569.05
540.46441	24358.05
544.51333	24415.75
548.55936	24710.55
552.60252	25373.45
556.64279	26135.65
560.6802	26837.75
564.71473	27367.35
568.7464	28072.15
572.7752	28854.25
576.80114	29242.55
580.82422	29352.35
584.84444	29550.55
588.86181	30108.75
592.87633	30859.65
596.888	31225.35
600.89682	30758.95
604.9028	30893.05
608.90594	32475.15
612.90624	34394.65
616.90371	32228.15
620.89834	27173.25
624.89015	24931.65
628.87913	24746.85
632.86528	25004.15
636.84862	25080.85
640.82913	24768.35
644.80683	24090.35
648.78172	23541.75
652.75379	23383.85
656.72306	23471.85
660.68952	23829.15
664.65319	23697.95
668.61405	23364.55
672.57211	23252.45
676.52738	23323.85
680.47986	23354.85
684.42955	23246.25
688.37646	23181.85
692.32058	23212.85
696.26192	23364.85
700.20048	23598.25
704.13626	23802.55
708.06928	23822.25
711.99952	23680.75
715.927	23629.05
719.85171	23636.85
723.77365	23663.15
727.69284	23487.15
731.60928	23292.85
735.52295	23291.55
739.43388	23313.45
743.34206	23347.45
747.24749	23391.25
751.15017	23607.35
755.05012	24027.65
758.94733	24737.75
762.8418	26072.75
766.73354	27995.25
770.62254	29781.15
774.50882	30117.95
778.39237	28694.55
782.27321	26483.55
786.15132	24613.25
790.02671	23571.95
793.89938	23040.45
797.76935	22859.95
801.6366	22808.25
805.50115	22794.05
809.36299	22712.95
813.22213	22617.35
817.07857	22606.25
820.93231	22578.05
824.78336	22432.65
828.63172	22329.05
832.47738	22240.35
836.32036	22198.25
840.16066	22176.65
843.99827	22196.55
847.8332	22127.75
851.66546	22070.85
855.49504	22081.95
859.32195	22064.25
863.1462	22065.55
866.96777	22013.15
870.78668	21934.35
874.60293	21941.75
878.41652	21943.15
882.22745	22009.25
886.03573	22040.55
889.84136	22027.45
893.64433	21931.95
897.44466	21904.75
901.24235	21772.35
905.0374	21674.25
908.8298	21555.75
912.61957	21639.85
916.40671	21841.65
920.19121	22179.65
923.97308	22357.05
927.75233	22350.55
931.52895	22153.35
935.30295	21851.15
939.07433	21486.25
942.84309	21193.65
946.60924	21003.45
950.37278	20926.75
954.13371	20893.15
957.89203	20896.45
961.64774	20888.75
965.40086	20831.15
969.15137	20704.95
972.89929	20556.85
976.64461	20454.45
980.38733	20355.45
984.12747	20403.15
987.86502	20547.55
991.59999	20715.65
995.33237	21047.55
999.06217	21535.25
1002.78939	22113.05
1006.51404	22543.95
1010.23611	22834.85
1013.95561	23014.05
1017.67255	23034.65
1021.38692	22739.05
1025.09872	22344.05
1028.80796	22167.15
1032.51465	22302.35
1036.21877	22486.65
1039.92035	22564.55
1043.61937	22512.45
1047.31584	22353.45
1051.00976	22200.65
1054.70114	22118.65
1058.38998	22216.15
1062.07627	22430.45
1065.76003	22702.85
1069.44126	22836.85
1073.11995	23051.45
1076.79611	23257.75
1080.46974	23314.15
1084.14085	23466.15
1087.80943	23705.05
1091.47549	23936.15
1095.13903	24015.05
1098.80005	23826.75
1102.45857	23407.65
1106.11456	23007.15
1109.76805	22890.15
1113.41903	23029.25
1117.06751	23304.75
1120.71348	23658.65
1124.35696	23990.15
1127.99793	24382.75
1131.63641	24569.95
1135.2724	24397.05
1138.90589	24163.95
1142.5369	24108.55
1146.16542	24182.75
1149.79145	24511.45
1153.415	24831.65
1157.03607	25295.45
1160.65467	26109.75
1164.27079	27362.85
1167.88443	28887.45
1171.49561	30824.95
1175.10432	33196.25
1178.71056	36159.55
1182.31434	38817.05
1185.91565	40164.85
1189.51451	40028.45
1193.11091	39063.95
1196.70485	37808.55
1200.29634	36456.75
1203.88538	35409.65
1207.47197	34512.75
1211.05612	33838.05
1214.63782	33095.15
1218.21708	32462.05
1221.79391	31880.95
1225.36829	31323.75
1228.94024	30579.35
1232.50976	29868.75
1236.07685	29273.75
1239.6415	28964.55
1243.20374	28926.65
1246.76355	29132.95
1250.32093	29552.95
1253.8759	30126.85
1257.42845	30904.95
1260.97859	31732.35
1264.52631	32519.35
1268.07163	33364.65
1271.61453	34240.65
1275.15503	35296.95
1278.69312	36347.65
1282.22882	37485.75
1285.76211	38748.35
1289.29301	40382.95
1292.82151	42523.35
1296.34761	45231.85
1299.87133	48223.25
1303.39266	51396.15
1306.9116	54483.95
1310.42815	57211.55
1313.94233	59134.35
1317.45412	59449.75
1320.96354	59040.55
1324.47058	58220.65
1327.97525	57389.45
1331.47754	56867.45
1334.97747	56700.65
1338.47502	56739.85
1341.97022	56300.65
1345.46305	55335.75
1348.95352	53798.45
1352.44163	52546.55
1355.92738	52290.55
1359.41078	53288.75
1362.89183	54534.05
1366.37053	53535.85
1369.84688	49434.25
1373.32088	44429.25
1376.79254	41157.95
1380.26186	40087.75
1383.72883	40388.35
1387.19347	40974.45
1390.65578	41368.75
1394.11575	42090.75
1397.57339	43296.75
1401.0287	44857.25
1404.48168	46225.35
1407.93234	46709.85
1411.38068	45959.95
1414.82669	44088.85
1418.27039	41411.95
1421.71177	38768.05
1425.15083	36466.75
1428.58758	35128.55
1432.02203	35013.75
1435.45416	35802.95
1438.88399	37083.45
1442.31151	38271.25
1445.73673	39295.95
1449.15965	40341.65
1452.58027	41237.75
1455.9986	41808.25
1459.41463	42225.95
1462.82837	42771.75
1466.23982	43460.45
1469.64898	44071.05
1473.05586	44162.95
1476.46045	43868.35
1479.86276	43297.65
1483.26279	42424.95
1486.66054	41595.65
1490.05602	41197.25
1493.44922	40854.35
1496.84016	40479.25
1500.22882	40423.55
1503.61521	40962.75
1506.99934	41927.95
1510.38121	43103.95
1513.76081	43532.85
1517.13816	42806.55
1520.51324	41408.35
1523.88607	40290.35
1527.25665	39812.45
1530.62498	39966.65
1533.99105	40245.65
1537.35488	40313.55
1540.71647	40015.75
1544.07581	39263.35
1547.4329	38395.15
1550.78776	37505.75
1554.14038	36759.15
1557.49077	36378.65
1560.83892	36158.05
1564.18484	36019.85
1567.52853	36095.65
1570.86999	36390.45
1574.20922	37020.85
1577.54624	37765.25
1580.88103	38260.95
1584.2136	38884.65
1587.54395	40362.35
1590.87208	42503.95
1594.19801	45302.55
1597.52172	47957.75
1600.84321	48903.55
1604.16251	46977.55
1607.47959	43049.15
1610.79447	38626.15
1614.10715	34567.35
1617.41763	31368.15
1620.7259	29157.75
1624.03199	28054.45
1627.33587	27925.55
1630.63757	28751.85
1633.93707	30772.65
1637.23439	34146.15
1640.52951	38921.35
1643.82246	44469.85
1647.11321	48854.55
1650.40179	49703.95
1653.68819	46201.25
1656.97241	39925.75
1660.25446	33507.45
1663.53433	28659.85
1666.81203	25427.45
1670.08756	23383.55
1673.36092	22120.05
1676.63211	21331.55
1679.90115	20763.65
1683.16801	20333.95
1686.43272	20001.55
1689.69527	19761.85
1692.95567	19587.05
1696.2139	19451.55
1699.46999	19308.35
1702.72392	19190.25
1705.97571	19159.35
1709.22535	19071.75
1712.47284	18986.85
1715.71819	18950.35
1718.96139	18893.65
1722.20246	18850.25
1725.44139	18715.35
1728.67818	18611.95
1731.91284	18534.95
1735.14537	18357.45
1738.37576	18286.55
1741.60403	18290.95
1744.83017	18184.25
1748.05418	18156.45
1751.27607	18117.65
1754.49584	18085.35
1757.71349	18046.45
1760.92903	18041.25
1764.14244	18012.85
1767.35375	17994.75
1770.56294	17934.15
1773.77002	17894.65
1776.97499	17819.95
1780.17785	17812.25
1783.37861	17778.55
1786.57727	17747.65
1789.77382	17721.45
1792.96828	17661.65
1796.16064	17628.75
1799.3509	17582.05
1802.53907	17579.15
1805.72514	17533.25
1808.90913	17455.35
1812.09102	17411.65
1815.27083	17387.15
1818.44856	17318.05
1821.6242	17314.85
1824.79776	17297.25
1827.96924	17260.25
1831.13864	17235.75
1834.30597	17209.75
1837.47122	17194.55
1840.6344	17176.95
1843.7955	17168.65
1846.95454	17163.75
1850.11151	17163.55
1853.26642	17111.65
1856.41926	17167.35
1859.57004	17171.95
1862.71876	17143.75
1865.86542	17145.25
1869.01003	17132.15
1872.15258	17149.35
1875.29308	17114.25
1878.43152	17092.45
1881.56792	17064.25
1884.70227	17057.75
1887.83457	17039.65
1890.96482	17015.85
1894.09304	17016.05
1897.21921	17017.35
1900.34335	16984.85
1903.46544	16970.75
1906.58551	16985.05
1909.70353	16945.05
1912.81953	16913.25
1915.93349	16897.25
1919.04543	16829.95
1922.15534	16814.95
1925.26322	16774.45
1928.36908	16734.85
1931.47292	16697.35
1934.57473	16665.25
1937.67453	16629.15
1940.77232	16570.85
1943.86808	16500.15
1946.96184	16430.65
1950.05358	16358.05
1953.14331	16321.35
1956.23103	16230.95
1959.31675	16179.55
1962.40046	16152.05
1965.48217	16109.15
1968.56188	16049.95
1971.63959	15973.65
1974.7153	15899.75
1977.78901	15899.65
1980.86073	15839.15
1983.93046	15797.95
1986.99819	15753.95
1990.06394	15708.25
1993.1277	15671.05
1996.18947	15579.85
1999.24925	15569.65
2002.30706	15512.55
2005.36288	15467.75
2008.41672	15447.65
2011.46859	15386.75
2014.51848	15342.65
2017.56639	15300.75
2020.61233	15270.25
2023.6563	15194.15
2026.6983	15145.75
2029.73833	15129.85
2032.7764	15110.35
2035.8125	15094.35
2038.84664	15072.05
2041.87881	15050.15
2044.90903	14992.85
2047.93729	14961.95
2050.96359	14965.95
2053.98794	14890.75
2057.01034	14923.95
2060.03078	14944.75
2063.04927	14904.05
2066.06582	14884.65
2069.08042	14888.15
2072.09307	14887.65
2075.10378	14830.75
2078.11255	14835.35
2081.11938	14849.15
2084.12426	14817.85
2087.12722	14797.45
2090.12824	14768.45
2093.12732	14786.55
2096.12447	14777.45
2099.11969	14767.05
2102.11299	14742.75
2105.10435	14740.85
2108.09379	14755.15
2111.08131	14766.45
2114.0669	14782.65
2117.05057	14786.15
2120.03233	14769.95
2123.01216	14784.55
2125.99008	14796.85
2128.96609	14796.55
2131.94018	14795.75
2134.91236	14822.95
2137.88263	14819.65
2140.851	14815.25
2143.81746	14845.25
2146.78201	14816.25
2149.74466	14796.75
2152.7054	14814.95
2155.66425	14791.75
2158.6212	14779.55
2161.57625	14775.75
2164.52941	14761.35
2167.48067	14773.15
2170.43004	14743.25
2173.37752	14751.65
2176.32311	14764.85
2179.26681	14779.15
2182.20863	14744.85
2185.14856	14724.35
2188.08661	14754.05
2191.02278	14769.35
2193.95707	14733.75
2196.88948	14686.65
2199.82001	14691.45
2202.74867	14682.75
2205.67545	14661.05
2208.60037	14634.55
2211.52341	14627.15
2214.44458	14570.15
2217.36388	14565.95
2220.28132	14533.75
2223.1969	14477.25
2226.11061	14491.55
2229.02246	14453.45
2231.93245	14429.55
2234.84058	14374.65
2237.74686	14354.45
2240.65128	14324.05
2243.55385	14316.35
2246.45456	14326.95
2249.35343	14286.25
2252.25044	14268.85
2255.14561	14228.65
2258.03893	14186.05
2260.93041	14122.25
2263.82004	14086.95
2266.70783	14067.85
2269.59378	13979.05
2272.4779	14004.25
2275.36017	13929.55
2278.24061	13928.75
2281.11922	13925.65
2283.996	13897.05
2286.87094	13859.85
2289.74405	13816.15
2292.61534	13826.45
2295.4848	13817.75
2298.35243	13800.45
2301.21824	13812.45
2304.08223	13836.55
2306.94439	13854.75
2309.80474	13841.85
2312.66327	13826.95
2315.51999	13788.65
2318.37489	13798.65
2321.22797	13758.85
2324.07925	13729.05
2326.92871	13714.45
2329.77637	13690.75
2332.62222	13716.95
2335.46626	13706.75
2338.3085	13672.45
2341.14893	13658.45
2343.98756	13669.75
2346.8244	13654.85
2349.65943	13622.95
2352.49267	13655.95
2355.32411	13666.15
2358.15376	13615.35
2360.98161	13619.25
2363.80768	13655.05
2366.63195	13631.25
2369.45444	13606.35
2372.27514	13591.35
2375.09405	13538.65
2377.91118	13529.75
2380.72652	13474.25
2383.54009	13464.05
2386.35187	13449.05
2389.16188	13406.55
2391.97011	13370.65
2394.77657	13374.45
2397.58125	13336.75
2400.38416	13309.05
2403.18529	13283.75
2405.98466	13259.35
2408.78226	13252.75
2411.57809	13236.75
2414.37216	13219.45
2417.16446	13245.95
2419.955	13167.75
2422.74378	13178.95
2425.5308	13170.65
2428.31606	13138.35
2431.09956	13118.05
2433.88131	13112.05
2436.6613	13135.25
2439.43954	13114.95
2442.21603	13127.95
2444.99077	13102.55
2447.76377	13090.05
2450.53501	13081.95
2453.30451	13057.05
2456.07226	13076.15
2458.83827	13067.55
2461.60254	13036.95
2464.36507	13060.45
2467.12586	13057.75
2469.88492	13063.65
2472.64224	13052.85
2475.39782	13082.55
2478.15167	13088.05
2480.90379	13069.75
2483.65417	13063.05
2486.40283	13063.55
2489.14976	13088.65
2491.89497	13098.15
2494.63845	13137.85
2497.3802	13081.35
2500.12024	13080.15
2502.85855	13073.85
2505.59514	13074.05
2508.33002	13065.55
2511.06318	13037.15
2513.79462	13039.05
2516.52435	13036.45
2519.25237	13006.85
2521.97867	12992.25
2524.70327	12974.85
2527.42616	12972.95
2530.14734	12978.65
2532.86681	12975.25
2535.58458	12961.45
2538.30065	12980.55
2541.01501	12951.95
2543.72768	12932.45
2546.43864	12926.75
2549.14791	12894.15
2551.85548	12919.65
2554.56136	12898.85
2557.26554	12847.25
2559.96803	12863.55
2562.66883	12810.75
2565.36794	12813.85
2568.06536	12832.85
2570.7611	12797.55
2573.45514	12781.65
2576.14751	12768.75
2578.83819	12763.25
2581.52719	12739.65
2584.21451	12776.65
2586.90015	12766.15
2589.58411	12769.05
2592.2664	12769.45
2594.94701	12735.85
2597.62594	12740.15
2600.30321	12728.55
2602.9788	12726.75
2605.65273	12749.95
2608.32498	12751.15
2610.99557	12741.45
2613.66449	12733.15
2616.33175	12744.05
2618.99734	12731.15
2621.66128	12730.85
2624.32355	12733.35
2626.98416	12707.95
2629.64311	12707.85
2632.30041	12729.45
2634.95605	12717.85
2637.61004	12705.15
2640.26238	12694.85
2642.91306	12672.55
2645.56209	12673.85
2648.20948	12668.85
2650.85521	12701.65
2653.4993	12711.15
2656.14175	12680.95
2658.78255	12706.45
2661.42171	12689.35
2664.05923	12697.75
2666.6951	12713.65
2669.32934	12721.45
2671.96194	12703.35
2674.59291	12700.75
2677.22224	12711.95
2679.84993	12703.45
2682.476	12649.65
2685.10043	12673.55
2687.72324	12662.25
2690.34441	12673.85
2692.96396	12652.15
2695.58188	12669.35
2698.19818	12677.35
2700.81285	12690.85
2703.4259	12680.65
2706.03733	12686.65
2708.64714	12681.95
2711.25533	12687.35
2713.86191	12703.75
2716.46687	12743.45
2719.07021	12748.35
2721.67194	12760.55
2724.27206	12724.45
2726.87057	12747.55
2729.46747	12772.05
2732.06276	12778.65
2734.65644	12753.85
2737.24852	12770.75
2739.83899	12742.05
2742.42786	12754.25
2745.01513	12740.35
2747.60079	12726.85
2750.18486	12729.45
2752.76733	12740.85
2755.3482	12715.05
2757.92747	12725.25
2760.50515	12721.25
2763.08123	12720.15
2765.65573	12708.55
2768.22863	12714.85
2770.79994	12732.65
2773.36967	12718.95
2775.9378	12737.15
2778.50435	12710.65
2781.06932	12745.05
2783.6327	12739.85
2786.1945	12710.75
2788.75471	12733.75
2791.31335	12708.45
2793.87041	12727.05
2796.42589	12662.45
2798.97979	12654.45
2801.53212	12658.85
2804.08288	12632.65
2806.63206	12589.45
2809.17967	12582.95
2811.72571	12548.25
2814.27018	12546.25
2816.81308	12512.75
2819.35442	12510.15
2821.89419	12454.15
2824.43239	12468.25
2826.96904	12450.25
2829.50412	12451.05
2832.03763	12401.95
2834.56959	12399.15
2837.1	12396.55
2839.62884	12384.75
2842.15613	12411.15
2844.68186	12446.85
2847.20604	12473.65
2849.72867	12484.25
2852.24974	12463.15
2854.76927	12454.95
2857.28724	12465.05
2859.80367	12437.25
2862.31855	12404.95
2864.83189	12379.55
2867.34368	12338.15
2869.85393	12359.75
2872.36264	12343.65
2874.8698	12375.55
2877.37543	12378.15
2879.87952	12329.55
2882.38207	12347.15
2884.88308	12347.05
2887.38256	12378.95
2889.88051	12373.05
2892.37692	12376.35
2894.8718	12383.75
2897.36515	12401.05
2899.85698	12421.75
2902.34727	12408.15
2904.83604	12441.45
2907.32328	12443.45
2909.809	12477.15
2912.29319	12463.05
2914.77587	12443.45
2917.25702	12449.45
2919.73665	12414.85
2922.21476	12468.35
2924.69136	12446.35
2927.16644	12454.05
2929.64	12439.05
2932.11205	12410.95
2934.58258	12352.35
2937.05161	12374.65
2939.51912	12376.85
2941.98513	12367.65
2944.44962	12326.95
2946.91261	12254.05
2949.37409	12271.65
2951.83407	12265.55
2954.29254	12253.55
2956.74951	12243.55
2959.20498	12220.65
2961.65895	12179.05
2964.11142	12188.25
2966.56239	12125.45
2969.01186	12129.45
2971.45984	12119.55
2973.90632	12090.95
2976.35131	12058.25
2978.7948	12024.75
2981.23681	11978.55
2983.67732	11966.95
2986.11635	11963.35
2988.55388	11905.85
2990.98993	11882.25
2993.4245	11861.75
2995.85758	11803.75
2998.28917	11767.35
3000.71928	11759.05
3003.14791	11733.75
3005.57506	11710.75
3008.00073	11679.95
3010.42493	11664.35
3012.84764	11651.55
3015.26888	11621.85
3017.68865	11601.95
3020.10694	11555.15
3022.52376	11538.25
3024.9391	11499.95
3027.35298	11483.05
3029.76539	11513.35
3032.17632	11483.75
3034.5858	11479.95
3036.9938	11460.85
3039.40034	11457.35
3041.80542	11482.55
3044.20903	11441.25
3046.61118	11444.95
3049.01187	11410.55
3051.4111	11402.65
3053.80888	11333.45
3056.20519	11361.65
3058.60005	11325.45
3060.99345	11249.35
3063.3854	11255.95
3065.7759	11198.55
3068.16494	11179.55
3070.55254	11110.05
3072.93868	11076.85
3075.32338	11060.85
3077.70662	11003.75
3080.08842	10989.65
3082.46878	10979.35
3084.84769	10940.65
3087.22515	10950.05
3089.60118	10969.45
3091.97576	10939.55
3094.3489	10953.55
3096.72061	10932.45
3099.09087	10938.25
3101.4597	10889.95
3103.82709	10900.55
3106.19305	10888.35
3108.55757	10894.45
3110.92066	10826.85
3113.28232	10813.15
3115.64255	10765.45
3118.00134	10749.95
3120.35871	10762.95
3122.71466	10726.65
3125.06917	10704.35
3127.42226	10649.35
3129.77393	10668.25
3132.12417	10624.95
3134.47299	10619.75
3136.82039	10640.55
3139.16636	10596.65
3141.51092	10613.95
3143.85406	10592.55
3146.19579	10588.55
3148.53609	10567.75
3150.87499	10585.05
3153.21246	10566.75
3155.54853	10591.55
3157.88318	10614.75
3160.21642	10625.95
3162.54826	10598.15
3164.87868	10598.35
3167.2077	10595.45
3169.5353	10579.85
3171.86151	10600.05
3174.18631	10594.45
3176.5097	10589.45
3178.83169	10539.15
3181.15228	10580.35
3183.47147	10551.85
3185.78926	10518.35
3188.10565	10511.05
3190.42065	10506.85
3192.73424	10510.25
3195.04645	10511.75
3197.35725	10477.55
3199.66667	10454.05
3201.97469	10477.65
3204.28132	10468.65
3206.58656	10497.75
3208.8904	10476.25
3211.19287	10473.95
3213.49394	10484.05
3215.79363	10508.65
3218.09193	10462.45
3220.38884	10446.95
3222.68438	10473.65
3224.97853	10453.15
3227.2713	10437.05
3229.56269	10433.05
3231.8527	10447.85
3234.14133	10428.95
3236.42858	10392.55
3238.71446	10387.45
3240.99896	10362.15
3243.28209	10335.85
3245.56384	10313.85
3247.84423	10323.55
3250.12324	10312.25
3252.40088	10292.05
3254.67715	10277.45
3256.95205	10248.65
3259.22558	10214.05
3261.49775	10218.65
3263.76855	10190.95
3266.03799	10171.15
3268.30606	10165.25
3270.57277	10138.55
3272.83812	10105.05
3275.10211	10094.05
3277.36474	10078.35
3279.62601	10109.05
3281.88593	10061.15
3284.14448	10095.45
3286.40168	10084.05
3288.65753	10051.85
3290.91202	10070.05
3293.16516	10051.55
3295.41695	10020.05
3297.66738	9956.85
3299.91647	9897.15
3302.16421	9812.25
3304.4106	9763.15
3306.65564	9693.25
3308.89933	9663.75
3311.14169	9574.05
3313.38269	9488.85
3315.62236	9415.25
3317.86068	9342.15
3320.09766	9260.65
3322.3333	9217.85
3324.5676	9160.05
3326.80056	9007.75
3329.03219	8940.75
3331.26248	4.15
3333.49143	0.65
3335.71905	-1.55
