Data from AgNPs_FTO_APTES_UA_5uM_CRN_100uM_R6G_10uM_NaF_0.1M_Addition_RamanShift__31__15-12-26-907.txt Node

Date: Mon Feb 07 15:12:26 GMT 2022
User: TCL
Spectrometer: QEP01345
Trigger mode: 4
Integration Time (sec): 7.000000E0
Scans to average: 10
Electric dark correction enabled: true
Nonlinearity correction enabled: false
Boxcar width: 0
XAxis mode: Raman Shifts
Number of Pixels in Spectrum: 1044
>>>>>Begin Spectral Data<<<<<
46.04893	0.45
50.45542	-0.85
54.85868	-0.25
59.25871	0.75
63.6555	37.45
68.04907	42.65
72.43941	44.25
76.82654	46.95
81.21044	49.15
85.59113	49.95
89.96862	52.15
94.34289	52.45
98.71396	53.75
103.08183	56.85
107.4465	58.45
111.80798	59.25
116.16626	61.35
120.52136	64.35
124.87327	68.35
129.222	68.35
133.56755	76.75
137.90993	85.55
142.24913	90.35
146.58517	101.35
150.91804	114.05
155.24774	136.65
159.57429	171.25
163.89768	222.45
168.21792	294.05
172.53501	403.45
176.84895	548.05
181.15975	766.15
185.46741	1083.45
189.77193	1499.45
194.07331	1997.05
198.37157	2583.25
202.6667	3199.35
206.9587	3809.45
211.24758	4419.45
215.53334	5054.05
219.81599	5798.05
224.09553	6628.55
228.37195	7561.05
232.64527	8544.25
236.91549	9511.55
241.18261	10407.35
245.44663	11086.45
249.70755	11618.35
253.96539	12039.75
258.22014	12407.65
262.4718	12813.25
266.72039	13107.85
270.96589	13314.05
275.20832	13366.15
279.44768	13250.75
283.68397	13157.05
287.91719	13088.75
292.14735	13222.65
296.37445	13554.65
300.59849	14139.75
304.81948	14869.65
309.03742	15393.95
313.25231	15348.55
317.46415	14474.35
321.67296	13107.45
325.87872	11984.95
330.08145	11420.55
334.28114	11362.15
338.47781	11565.25
342.67145	11937.35
346.86207	12569.45
351.04966	13495.75
355.23424	14540.95
359.4158	15270.95
363.59435	15571.65
367.76989	15587.85
371.94243	15435.75
376.11196	15250.05
380.27849	15096.95
384.44203	14856.15
388.60257	14554.55
392.76012	14425.45
396.91468	14561.25
401.06626	14978.15
405.21485	15384.15
409.36047	15048.45
413.50311	14064.45
417.64277	13099.85
421.77947	12582.95
425.9132	12329.95
430.04396	12266.65
434.17176	12334.35
438.2966	12477.85
442.41849	12723.05
446.53742	13129.45
450.6534	13502.65
454.76644	13739.75
458.87653	13763.75
462.98368	13653.25
467.08789	13472.95
471.18916	13167.15
475.2875	12868.35
479.38291	12575.55
483.4754	12329.75
487.56496	12101.95
491.6516	11966.25
495.73531	11894.25
499.81612	11947.05
503.89401	12176.55
507.96899	12355.15
512.04106	12612.75
516.11023	12836.35
520.1765	13022.25
524.23987	12940.55
528.30034	12601.05
532.35792	12243.85
536.41261	11951.95
540.46441	11611.85
544.51333	11444.95
548.55936	11590.45
552.60252	11958.35
556.64279	12409.95
560.6802	12635.45
564.71473	12935.05
568.7464	13626.85
572.7752	14114.95
576.80114	13597.65
580.82422	12867.75
584.84444	12562.35
588.86181	12409.65
592.87633	12331.05
596.888	12450.95
600.89682	12989.65
604.9028	14838.95
608.90594	19879.75
612.90624	27026.05
616.90371	26234.65
620.89834	17140.75
624.89015	12768.25
628.87913	11940.15
632.86528	12048.65
636.84862	12360.35
640.82913	12170.95
644.80683	11529.45
648.78172	11062.95
652.75379	11078.15
656.72306	11702.65
660.68952	12501.25
664.65319	12366.85
668.61405	11551.95
672.57211	11204.25
676.52738	11161.75
680.47986	11146.55
684.42955	11010.85
688.37646	10957.25
692.32058	10973.05
696.26192	11113.95
700.20048	11302.55
704.13626	11444.55
708.06928	11465.75
711.99952	11334.65
715.927	11259.45
719.85171	11276.55
723.77365	11274.25
727.69284	11129.65
731.60928	10947.45
735.52295	10924.85
739.43388	10929.35
743.34206	10982.75
747.24749	11037.15
751.15017	11185.55
755.05012	11446.55
758.94733	12196.85
762.8418	13907.85
766.73354	16932.35
770.62254	20141.75
774.50882	21757.45
778.39237	20715.05
782.27321	17438.85
786.15132	14188.95
790.02671	12316.55
793.89938	11490.15
797.76935	11127.25
801.6366	10955.45
805.50115	10873.05
809.36299	10785.25
813.22213	10743.55
817.07857	10737.35
820.93231	10714.55
824.78336	10773.05
828.63172	10847.35
832.47738	10864.55
836.32036	10780.05
840.16066	10680.45
843.99827	10602.25
847.8332	10545.85
851.66546	10543.15
855.49504	10565.45
859.32195	10513.55
863.1462	10431.15
866.96777	10392.95
870.78668	10374.05
874.60293	10399.35
878.41652	10433.85
882.22745	10519.35
886.03573	10556.05
889.84136	10537.45
893.64433	10479.25
897.44466	10438.45
901.24235	10474.75
905.0374	10401.45
908.8298	10369.75
912.61957	10374.05
916.40671	10437.35
920.19121	10587.15
923.97308	10691.85
927.75233	10750.55
931.52895	10914.15
935.30295	10757.25
939.07433	10368.45
942.84309	10031.45
946.60924	9781.65
950.37278	9684.25
954.13371	9611.65
957.89203	9576.15
961.64774	9555.75
965.40086	9544.45
969.15137	9498.45
972.89929	9451.55
976.64461	9435.65
980.38733	9428.95
984.12747	9434.95
987.86502	9485.75
991.59999	9518.45
995.33237	9627.75
999.06217	9802.35
1002.78939	10044.75
1006.51404	10301.45
1010.23611	10592.55
1013.95561	10763.75
1017.67255	10699.65
1021.38692	10515.15
1025.09872	10303.15
1028.80796	10186.75
1032.51465	10195.75
1036.21877	10287.15
1039.92035	10442.65
1043.61937	10522.55
1047.31584	10573.85
1051.00976	10595.65
1054.70114	10595.45
1058.38998	10620.15
1062.07627	10729.95
1065.76003	10837.65
1069.44126	10914.15
1073.11995	11013.95
1076.79611	11159.05
1080.46974	11397.25
1084.14085	11767.65
1087.80943	12219.55
1091.47549	12418.75
1095.13903	12160.65
1098.80005	11672.55
1102.45857	11228.95
1106.11456	10999.45
1109.76805	11030.45
1113.41903	11276.45
1117.06751	11780.45
1120.71348	12441.25
1124.35696	13175.05
1127.99793	13827.25
1131.63641	13716.85
1135.2724	12891.25
1138.90589	12036.15
1142.5369	11577.95
1146.16542	11296.45
1149.79145	11145.55
1153.415	11177.15
1157.03607	11277.45
1160.65467	11623.95
1164.27079	12138.25
1167.88443	12935.55
1171.49561	14235.15
1175.10432	16455.65
1178.71056	19331.15
1182.31434	21146.65
1185.91565	21310.05
1189.51451	20473.55
1193.11091	19017.95
1196.70485	17375.65
1200.29634	16141.75
1203.88538	15276.45
1207.47197	14169.95
1211.05612	13207.35
1214.63782	12663.55
1218.21708	12440.15
1221.79391	12426.15
1225.36829	12469.05
1228.94024	12529.45
1232.50976	12605.25
1236.07685	12629.15
1239.6415	12691.95
1243.20374	12745.35
1246.76355	12801.55
1250.32093	12977.25
1253.8759	13297.35
1257.42845	13736.05
1260.97859	14242.85
1264.52631	14723.65
1268.07163	15240.85
1271.61453	15705.55
1275.15503	15991.35
1278.69312	16077.55
1282.22882	16108.05
1285.76211	16491.75
1289.29301	17069.25
1292.82151	17769.05
1296.34761	18435.55
1299.87133	19467.65
1303.39266	21297.55
1306.9116	24161.15
1310.42815	27557.65
1313.94233	29558.05
1317.45412	28941.25
1320.96354	26642.85
1324.47058	24113.95
1327.97525	22061.75
1331.47754	20738.15
1334.97747	20210.55
1338.47502	20297.65
1341.97022	20832.85
1345.46305	21699.85
1348.95352	23114.05
1352.44163	25100.35
1355.92738	27932.75
1359.41078	32624.45
1362.89183	37267.95
1366.37053	36179.85
1369.84688	29911.55
1373.32088	23881.85
1376.79254	20177.35
1380.26186	18370.75
1383.72883	17521.85
1387.19347	16874.95
1390.65578	16184.15
1394.11575	15604.35
1397.57339	15289.65
1401.0287	15316.75
1404.48168	15441.45
1407.93234	15586.65
1411.38068	15637.25
1414.82669	15484.45
1418.27039	15168.05
1421.71177	14752.65
1425.15083	14347.45
1428.58758	14057.55
1432.02203	14043.95
1435.45416	14213.15
1438.88399	14305.15
1442.31151	14348.55
1445.73673	14430.25
1449.15965	14619.65
1452.58027	14640.65
1455.9986	14560.55
1459.41463	14621.35
1462.82837	14815.85
1466.23982	15120.65
1469.64898	15489.95
1473.05586	15717.45
1476.46045	15893.85
1479.86276	16149.05
1483.26279	16565.75
1486.66054	17092.15
1490.05602	17775.25
1493.44922	18722.75
1496.84016	20276.75
1500.22882	22794.15
1503.61521	26144.95
1506.99934	29953.95
1510.38121	33686.75
1513.76081	35685.95
1517.13816	34003.35
1520.51324	29396.85
1523.88607	24620.75
1527.25665	21418.65
1530.62498	19547.65
1533.99105	18398.95
1537.35488	17705.05
1540.71647	17235.85
1544.07581	16989.05
1547.4329	16854.35
1550.78776	16748.85
1554.14038	16730.45
1557.49077	16919.65
1560.83892	17398.45
1564.18484	18033.35
1567.52853	18815.15
1570.86999	19341.85
1574.20922	19697.05
1577.54624	19503.45
1580.88103	18358.85
1584.2136	16802.75
1587.54395	15946.65
1590.87208	15991.75
1594.19801	16831.85
1597.52172	17999.45
1600.84321	18505.45
1604.16251	17763.05
1607.47959	16493.35
1610.79447	15229.25
1614.10715	13980.45
1617.41763	12963.15
1620.7259	12311.05
1624.03199	11977.95
1627.33587	11934.05
1630.63757	12158.85
1633.93707	12775.15
1637.23439	13790.95
1640.52951	15333.15
1643.82246	17633.65
1647.11321	20499.75
1650.40179	22857.55
1653.68819	22623.25
1656.97241	19512.35
1660.25446	15819.05
1663.53433	13039.45
1666.81203	11442.85
1670.08756	10536.05
1673.36092	9992.05
1676.63211	9633.15
1679.90115	9404.95
1683.16801	9226.15
1686.43272	9080.25
1689.69527	9000.05
1692.95567	8925.45
1696.2139	8901.05
1699.46999	8873.35
1702.72392	8799.55
1705.97571	8771.35
1709.22535	8797.55
1712.47284	8759.75
1715.71819	8774.05
1718.96139	8780.55
1722.20246	8766.15
1725.44139	8715.35
1728.67818	8633.85
1731.91284	8545.65
1735.14537	8481.95
1738.37576	8432.75
1741.60403	8359.45
1744.83017	8324.85
1748.05418	8306.25
1751.27607	8299.45
1754.49584	8249.15
1757.71349	8248.05
1760.92903	8241.35
1764.14244	8230.25
1767.35375	8190.75
1770.56294	8139.95
1773.77002	8112.25
1776.97499	8087.45
1780.17785	8051.25
1783.37861	8017.15
1786.57727	7993.15
1789.77382	7977.35
1792.96828	7989.05
1796.16064	7968.95
1799.3509	7944.05
1802.53907	7902.05
1805.72514	7878.45
1808.90913	7845.35
1812.09102	7845.75
1815.27083	7805.45
1818.44856	7796.55
1821.6242	7745.95
1824.79776	7740.95
1827.96924	7714.75
1831.13864	7725.95
1834.30597	7712.05
1837.47122	7695.15
1840.6344	7701.15
1843.7955	7682.65
1846.95454	7666.15
1850.11151	7669.75
1853.26642	7664.15
1856.41926	7672.55
1859.57004	7664.85
1862.71876	7654.75
1865.86542	7668.25
1869.01003	7669.85
1872.15258	7646.95
1875.29308	7648.15
1878.43152	7643.05
1881.56792	7675.65
1884.70227	7647.05
1887.83457	7639.25
1890.96482	7635.95
1894.09304	7623.65
1897.21921	7643.35
1900.34335	7637.35
1903.46544	7652.75
1906.58551	7646.45
1909.70353	7649.35
1912.81953	7649.05
1915.93349	7632.75
1919.04543	7625.35
1922.15534	7632.55
1925.26322	7607.45
1928.36908	7572.45
1931.47292	7543.35
1934.57473	7504.85
1937.67453	7457.75
1940.77232	7409.05
1943.86808	7397.25
1946.96184	7348.35
1950.05358	7329.25
1953.14331	7313.95
1956.23103	7287.95
1959.31675	7234.55
1962.40046	7239.95
1965.48217	7184.55
1968.56188	7169.85
1971.63959	7160.55
1974.7153	7142.75
1977.78901	7122.55
1980.86073	7087.85
1983.93046	7060.85
1986.99819	7018.95
1990.06394	6982.65
1993.1277	6955.75
1996.18947	6952.65
1999.24925	6922.85
2002.30706	6891.85
2005.36288	6884.35
2008.41672	6878.15
2011.46859	6830.85
2014.51848	6804.65
2017.56639	6800.25
2020.61233	6778.15
2023.6563	6742.25
2026.6983	6711.95
2029.73833	6694.55
2032.7764	6676.25
2035.8125	6663.85
2038.84664	6652.45
2041.87881	6626.25
2044.90903	6638.15
2047.93729	6614.75
2050.96359	6600.95
2053.98794	6602.85
2057.01034	6560.25
2060.03078	6571.25
2063.04927	6555.85
2066.06582	6555.75
2069.08042	6539.45
2072.09307	6535.25
2075.10378	6521.85
2078.11255	6506.85
2081.11938	6509.35
2084.12426	6515.65
2087.12722	6513.15
2090.12824	6494.05
2093.12732	6495.55
2096.12447	6493.25
2099.11969	6476.75
2102.11299	6488.65
2105.10435	6494.05
2108.09379	6491.85
2111.08131	6490.95
2114.0669	6476.35
2117.05057	6505.55
2120.03233	6503.05
2123.01216	6528.65
2125.99008	6532.55
2128.96609	6520.35
2131.94018	6528.45
2134.91236	6533.95
2137.88263	6535.55
2140.851	6522.55
2143.81746	6526.75
2146.78201	6518.35
2149.74466	6507.15
2152.7054	6498.45
2155.66425	6469.45
2158.6212	6489.25
2161.57625	6473.05
2164.52941	6461.35
2167.48067	6468.15
2170.43004	6458.05
2173.37752	6435.85
2176.32311	6460.35
2179.26681	6455.15
2182.20863	6457.55
2185.14856	6444.35
2188.08661	6433.25
2191.02278	6439.25
2193.95707	6421.35
2196.88948	6430.25
2199.82001	6401.95
2202.74867	6381.35
2205.67545	6374.85
2208.60037	6388.15
2211.52341	6381.05
2214.44458	6359.95
2217.36388	6326.35
2220.28132	6324.95
2223.1969	6295.55
2226.11061	6299.05
2229.02246	6293.35
2231.93245	6257.45
2234.84058	6227.15
2237.74686	6218.55
2240.65128	6207.55
2243.55385	6214.75
2246.45456	6214.25
2249.35343	6209.05
2252.25044	6193.85
2255.14561	6186.75
2258.03893	6202.65
2260.93041	6199.05
2263.82004	6184.45
2266.70783	6204.05
2269.59378	6142.95
2272.4779	6124.65
2275.36017	6108.95
2278.24061	6115.85
2281.11922	6082.75
2283.996	6070.15
2286.87094	6048.95
2289.74405	6028.65
2292.61534	6026.25
2295.4848	6006.65
2298.35243	6002.55
2301.21824	5989.05
2304.08223	5993.25
2306.94439	5991.25
2309.80474	5984.25
2312.66327	5982.15
2315.51999	5997.25
2318.37489	5971.15
2321.22797	5949.85
2324.07925	5936.55
2326.92871	5936.85
2329.77637	5936.95
2332.62222	5917.25
2335.46626	5916.05
2338.3085	5914.25
2341.14893	5919.25
2343.98756	5907.95
2346.8244	5916.25
2349.65943	5907.05
2352.49267	5917.25
2355.32411	5934.05
2358.15376	5926.85
2360.98161	5940.45
2363.80768	5983.15
2366.63195	5987.55
2369.45444	5979.75
2372.27514	5989.05
2375.09405	5970.35
2377.91118	5936.55
2380.72652	5915.05
2383.54009	5877.15
2386.35187	5865.95
2389.16188	5794.85
2391.97011	5793.45
2394.77657	5772.35
2397.58125	5765.05
2400.38416	5728.25
2403.18529	5729.95
2405.98466	5714.75
2408.78226	5709.45
2411.57809	5702.85
2414.37216	5696.05
2417.16446	5672.65
2419.955	5666.15
2422.74378	5672.85
2425.5308	5679.15
2428.31606	5653.15
2431.09956	5678.85
2433.88131	5653.05
2436.6613	5671.05
2439.43954	5677.35
2442.21603	5659.65
2444.99077	5653.45
2447.76377	5680.65
2450.53501	5654.85
2453.30451	5672.45
2456.07226	5667.25
2458.83827	5659.15
2461.60254	5655.35
2464.36507	5641.55
2467.12586	5627.45
2469.88492	5649.25
2472.64224	5646.25
2475.39782	5660.25
2478.15167	5653.35
2480.90379	5656.65
2483.65417	5684.85
2486.40283	5694.15
2489.14976	5731.35
2491.89497	5729.75
2494.63845	5723.95
2497.3802	5717.95
2500.12024	5711.55
2502.85855	5689.35
2505.59514	5668.45
2508.33002	5639.95
2511.06318	5613.95
2513.79462	5609.85
2516.52435	5565.15
2519.25237	5537.65
2521.97867	5501.65
2524.70327	5518.15
2527.42616	5499.35
2530.14734	5483.65
2532.86681	5477.35
2535.58458	5463.05
2538.30065	5460.95
2541.01501	5473.85
2543.72768	5478.55
2546.43864	5477.25
2549.14791	5458.65
2551.85548	5464.25
2554.56136	5457.45
2557.26554	5454.35
2559.96803	5435.75
2562.66883	5421.95
2565.36794	5421.65
2568.06536	5401.75
2570.7611	5402.05
2573.45514	5389.85
2576.14751	5368.65
2578.83819	5380.45
2581.52719	5351.25
2584.21451	5358.85
2586.90015	5352.35
2589.58411	5350.25
2592.2664	5327.75
2594.94701	5327.85
2597.62594	5324.05
2600.30321	5295.05
2602.9788	5315.05
2605.65273	5318.65
2608.32498	5299.05
2610.99557	5299.55
2613.66449	5297.25
2616.33175	5309.95
2618.99734	5291.85
2621.66128	5310.45
2624.32355	5284.15
2626.98416	5271.25
2629.64311	5270.95
2632.30041	5259.15
2634.95605	5255.05
2637.61004	5232.85
2640.26238	5202.75
2642.91306	5209.75
2645.56209	5183.15
2648.20948	5200.75
2650.85521	5199.25
2653.4993	5195.85
2656.14175	5204.15
2658.78255	5217.35
2661.42171	5230.95
2664.05923	5226.95
2666.6951	5212.35
2669.32934	5242.25
2671.96194	5241.55
2674.59291	5227.35
2677.22224	5252.25
2679.84993	5261.95
2682.476	5243.35
2685.10043	5238.25
2687.72324	5217.05
2690.34441	5220.25
2692.96396	5234.15
2695.58188	5224.95
2698.19818	5215.75
2700.81285	5207.35
2703.4259	5261.65
2706.03733	5286.15
2708.64714	5262.85
2711.25533	5281.45
2713.86191	5269.85
2716.46687	5275.65
2719.07021	5261.05
2721.67194	5269.95
2724.27206	5254.15
2726.87057	5274.85
2729.46747	5252.95
2732.06276	5252.15
2734.65644	5257.25
2737.24852	5236.95
2739.83899	5213.65
2742.42786	5217.35
2745.01513	5198.15
2747.60079	5200.05
2750.18486	5183.95
2752.76733	5176.35
2755.3482	5165.15
2757.92747	5165.85
2760.50515	5147.35
2763.08123	5142.65
2765.65573	5136.55
2768.22863	5134.35
2770.79994	5115.45
2773.36967	5123.45
2775.9378	5120.15
2778.50435	5107.85
2781.06932	5102.35
2783.6327	5121.85
2786.1945	5129.75
2788.75471	5134.55
2791.31335	5105.85
2793.87041	5104.95
2796.42589	5094.45
2798.97979	5085.85
2801.53212	5094.05
2804.08288	5069.55
2806.63206	5079.95
2809.17967	5065.05
2811.72571	5076.75
2814.27018	5068.25
2816.81308	5076.95
2819.35442	5091.05
2821.89419	5076.05
2824.43239	5104.25
2826.96904	5097.55
2829.50412	5106.95
2832.03763	5098.25
2834.56959	5106.25
2837.1	5127.15
2839.62884	5128.55
2842.15613	5180.65
2844.68186	5257.55
2847.20604	5320.45
2849.72867	5380.05
2852.24974	5383.75
2854.76927	5401.15
2857.28724	5404.95
2859.80367	5363.25
2862.31855	5348.15
2864.83189	5328.85
2867.34368	5310.65
2869.85393	5321.45
2872.36264	5310.95
2874.8698	5292.15
2877.37543	5295.15
2879.87952	5300.15
2882.38207	5280.25
2884.88308	5276.95
2887.38256	5273.75
2889.88051	5259.45
2892.37692	5263.15
2894.8718	5253.75
2897.36515	5271.35
2899.85698	5266.75
2902.34727	5257.55
2904.83604	5264.35
2907.32328	5278.65
2909.809	5277.45
2912.29319	5270.45
2914.77587	5278.15
2917.25702	5282.35
2919.73665	5246.75
2922.21476	5276.25
2924.69136	5258.05
2927.16644	5247.95
2929.64	5230.75
2932.11205	5204.45
2934.58258	5209.55
2937.05161	5179.95
2939.51912	5174.35
2941.98513	5124.65
2944.44962	5073.55
2946.91261	5034.35
2949.37409	5000.45
2951.83407	4988.85
2954.29254	4967.15
2956.74951	4958.35
2959.20498	4938.75
2961.65895	4925.35
2964.11142	4928.45
2966.56239	4907.45
2969.01186	4900.65
2971.45984	4874.45
2973.90632	4876.15
2976.35131	4865.75
2978.7948	4843.75
2981.23681	4827.05
2983.67732	4817.85
2986.11635	4775.45
2988.55388	4772.05
2990.98993	4763.85
2993.4245	4743.05
2995.85758	4735.85
2998.28917	4726.65
3000.71928	4720.75
3003.14791	4707.75
3005.57506	4682.25
3008.00073	4677.05
3010.42493	4588.55
3012.84764	4678.05
3015.26888	4664.35
3017.68865	4655.15
3020.10694	4646.15
3022.52376	4639.65
3024.9391	4633.65
3027.35298	4646.35
3029.76539	4633.85
3032.17632	4603.05
3034.5858	4610.45
3036.9938	4602.25
3039.40034	4593.45
3041.80542	4572.35
3044.20903	4564.95
3046.61118	4579.45
3049.01187	4567.95
3051.4111	4566.05
3053.80888	4538.15
3056.20519	4534.55
3058.60005	4521.05
3060.99345	4514.95
3063.3854	4510.35
3065.7759	4489.55
3068.16494	4486.45
3070.55254	4468.45
3072.93868	4453.15
3075.32338	4431.65
3077.70662	4423.35
3080.08842	4406.15
3082.46878	4392.95
3084.84769	4390.15
3087.22515	4372.45
3089.60118	4381.65
3091.97576	4378.65
3094.3489	4356.55
3096.72061	4352.75
3099.09087	4356.75
3101.4597	4357.95
3103.82709	4359.95
3106.19305	4352.75
3108.55757	4359.75
3110.92066	4342.75
3113.28232	4340.75
3115.64255	4316.15
3118.00134	4329.45
3120.35871	4320.45
3122.71466	4305.05
3125.06917	4308.85
3127.42226	4305.45
3129.77393	4306.55
3132.12417	4292.75
3134.47299	4306.95
3136.82039	4298.95
3139.16636	4305.25
3141.51092	4297.85
3143.85406	4288.65
3146.19579	4288.75
3148.53609	4301.95
3150.87499	4296.55
3153.21246	4308.65
3155.54853	4315.55
3157.88318	4315.35
3160.21642	4318.85
3162.54826	4311.95
3164.87868	4311.65
3167.2077	4319.15
3169.5353	4328.65
3171.86151	4331.15
3174.18631	4336.65
3176.5097	4335.85
3178.83169	4304.25
3181.15228	4315.35
3183.47147	4307.15
3185.78926	4308.15
3188.10565	4303.65
3190.42065	4318.65
3192.73424	4305.85
3195.04645	4306.75
3197.35725	4305.45
3199.66667	4307.15
3201.97469	4321.45
3204.28132	4306.95
3206.58656	4316.35
3208.8904	4330.45
3211.19287	4318.65
3213.49394	4330.25
3215.79363	4346.55
3218.09193	4347.55
3220.38884	4337.35
3222.68438	4346.45
3224.97853	4327.45
3227.2713	4337.45
3229.56269	4315.75
3231.8527	4329.85
3234.14133	4320.15
3236.42858	4287.45
3238.71446	4286.75
3240.99896	4287.55
3243.28209	4289.05
3245.56384	4280.75
3247.84423	4266.35
3250.12324	4274.15
3252.40088	4264.75
3254.67715	4247.05
3256.95205	4256.55
3259.22558	4256.75
3261.49775	4239.15
3263.76855	4249.25
3266.03799	4238.55
3268.30606	4211.15
3270.57277	4208.95
3272.83812	4218.65
3275.10211	4211.55
3277.36474	4193.95
3279.62601	4179.55
3281.88593	4187.05
3284.14448	4194.25
3286.40168	4207.15
3288.65753	4185.85
3290.91202	4179.05
3293.16516	4184.45
3295.41695	4166.25
3297.66738	4129.55
3299.91647	4111.25
3302.16421	4092.25
3304.4106	4087.75
3306.65564	4050.95
3308.89933	4019.05
3311.14169	3986.35
3313.38269	3959.55
3315.62236	3933.55
3317.86068	3881.45
3320.09766	3856.85
3322.3333	3826.35
3324.5676	3821.65
3326.80056	3767.65
3329.03219	3724.15
3331.26248	1.55
3333.49143	-1.95
3335.71905	-0.75
