Data from AgNPs_FTO_APTES_UA_5uM_CRN_500uM_R6G_10uM_NaF_0.1M_Addition_RamanShift__3__16-44-11-812.txt Node

Date: Mon Feb 07 16:44:11 GMT 2022
User: TCL
Spectrometer: QEP01345
Trigger mode: 4
Integration Time (sec): 7.000000E0
Scans to average: 10
Electric dark correction enabled: true
Nonlinearity correction enabled: false
Boxcar width: 0
XAxis mode: Raman Shifts
Number of Pixels in Spectrum: 1044
>>>>>Begin Spectral Data<<<<<
46.04893	-1.25
50.45542	0.75
54.85868	-0.65
59.25871	-0.95
63.6555	70.15
68.04907	74.45
72.43941	75.35
76.82654	74.45
81.21044	81.65
85.59113	81.85
89.96862	88.75
94.34289	92.75
98.71396	93.05
103.08183	92.05
107.4465	99.75
111.80798	102.25
116.16626	104.05
120.52136	106.15
124.87327	117.05
129.222	120.75
133.56755	129.65
137.90993	142.95
142.24913	162.95
146.58517	179.35
150.91804	210.25
155.24774	256.65
159.57429	329.95
163.89768	419.85
168.21792	565.65
172.53501	772.35
176.84895	1076.35
181.15975	1519.75
185.46741	2141.05
189.77193	2947.95
194.07331	3953.05
198.37157	5077.25
202.6667	6270.85
206.9587	7432.15
211.24758	8616.25
215.53334	9779.75
219.81599	11026.75
224.09553	12397.45
228.37195	13900.25
232.64527	15477.75
236.91549	17185.25
241.18261	18895.25
245.44663	20504.35
249.70755	21920.25
253.96539	23153.65
258.22014	24219.75
262.4718	25093.85
266.72039	25697.85
270.96589	26071.25
275.20832	26168.45
279.44768	26067.05
283.68397	25865.75
287.91719	25688.85
292.14735	25637.75
296.37445	25731.15
300.59849	25899.55
304.81948	26067.65
309.03742	26012.15
313.25231	25790.55
317.46415	25168.35
321.67296	24491.35
325.87872	23912.85
330.08145	23556.05
334.28114	23465.95
338.47781	23554.85
342.67145	23757.45
346.86207	24110.65
351.04966	24544.85
355.23424	24941.25
359.4158	25252.75
363.59435	25556.55
367.76989	25718.65
371.94243	25864.15
376.11196	25945.45
380.27849	26039.75
384.44203	26243.35
388.60257	26479.15
392.76012	26793.95
396.91468	27102.95
401.06626	27453.65
405.21485	27706.15
409.36047	27555.35
413.50311	27193.85
417.64277	26943.85
421.77947	26926.75
425.9132	27008.35
430.04396	27171.35
434.17176	27378.25
438.2966	27614.35
442.41849	28138.35
446.53742	29011.95
450.6534	29960.65
454.76644	30610.75
458.87653	30761.45
462.98368	30581.45
467.08789	30219.95
471.18916	29903.45
475.2875	29672.45
479.38291	29667.75
483.4754	29609.65
487.56496	29198.05
491.6516	28459.95
495.73531	27735.25
499.81612	27290.15
503.89401	27225.15
507.96899	27287.25
512.04106	27250.95
516.11023	26981.05
520.1765	26711.35
524.23987	26453.25
528.30034	26180.95
532.35792	25983.15
536.41261	25689.85
540.46441	25392.35
544.51333	25445.95
548.55936	25754.15
552.60252	26437.45
556.64279	27296.45
560.6802	28023.95
564.71473	28525.65
568.7464	29131.35
572.7752	30181.45
576.80114	31098.95
580.82422	31896.55
584.84444	32741.05
588.86181	34059.15
592.87633	35124.45
596.888	34745.15
600.89682	33041.35
604.9028	32240.45
608.90594	33580.45
612.90624	35435.05
616.90371	33246.35
620.89834	28145.95
624.89015	25869.15
628.87913	25628.45
632.86528	25824.65
636.84862	25815.95
640.82913	25402.35
644.80683	24866.45
648.78172	24464.75
652.75379	24397.85
656.72306	24619.95
660.68952	24907.65
664.65319	24690.05
668.61405	24222.65
672.57211	24143.35
676.52738	24203.75
680.47986	24258.25
684.42955	24145.75
688.37646	24031.45
692.32058	24104.45
696.26192	24371.55
700.20048	24704.75
704.13626	24939.95
708.06928	25029.65
711.99952	24967.35
715.927	24977.75
719.85171	25037.05
723.77365	24924.25
727.69284	24561.95
731.60928	24341.35
735.52295	24176.15
739.43388	24207.25
743.34206	24232.25
747.24749	24408.35
751.15017	24648.15
755.05012	25158.55
758.94733	25902.65
762.8418	27238.45
766.73354	29136.35
770.62254	30868.65
774.50882	31127.55
778.39237	29755.05
782.27321	27602.15
786.15132	25820.45
790.02671	24713.75
793.89938	24188.65
797.76935	23951.15
801.6366	23888.85
805.50115	23827.65
809.36299	23690.95
813.22213	23556.95
817.07857	23512.95
820.93231	23436.75
824.78336	23282.55
828.63172	23110.85
832.47738	23047.65
836.32036	22979.05
840.16066	23019.45
843.99827	23022.25
847.8332	23034.95
851.66546	22959.05
855.49504	22950.45
859.32195	22964.05
863.1462	22895.95
866.96777	22783.25
870.78668	22727.05
874.60293	22743.95
878.41652	22748.45
882.22745	22833.35
886.03573	22866.35
889.84136	22846.25
893.64433	22775.55
897.44466	22679.35
901.24235	22600.65
905.0374	22514.75
908.8298	22480.15
912.61957	22550.95
916.40671	22809.75
920.19121	23193.45
923.97308	23475.45
927.75233	23441.45
931.52895	23161.55
935.30295	22716.15
939.07433	22217.55
942.84309	21883.25
946.60924	21692.65
950.37278	21594.75
954.13371	21606.35
957.89203	21631.05
961.64774	21625.25
965.40086	21566.35
969.15137	21477.05
972.89929	21330.85
976.64461	21190.15
980.38733	21114.55
984.12747	21119.95
987.86502	21198.25
991.59999	21384.55
995.33237	21593.45
999.06217	21978.85
1002.78939	22398.65
1006.51404	22806.25
1010.23611	23173.35
1013.95561	23458.55
1017.67255	23620.65
1021.38692	23362.25
1025.09872	22912.25
1028.80796	22642.95
1032.51465	22709.75
1036.21877	22930.05
1039.92035	23079.65
1043.61937	23031.45
1047.31584	22967.75
1051.00976	22878.05
1054.70114	22888.05
1058.38998	22952.95
1062.07627	23194.35
1065.76003	23470.65
1069.44126	23711.35
1073.11995	24008.95
1076.79611	24300.15
1080.46974	24439.95
1084.14085	24554.75
1087.80943	24812.85
1091.47549	25046.25
1095.13903	25178.95
1098.80005	24914.35
1102.45857	24339.75
1106.11456	23853.15
1109.76805	23663.35
1113.41903	23721.25
1117.06751	23917.55
1120.71348	24193.45
1124.35696	24599.55
1127.99793	24987.55
1131.63641	25261.35
1135.2724	25051.65
1138.90589	24864.65
1142.5369	24938.55
1146.16542	25187.05
1149.79145	25584.85
1153.415	26005.55
1157.03607	26582.65
1160.65467	27516.35
1164.27079	29081.95
1167.88443	30871.65
1171.49561	32751.35
1175.10432	35099.25
1178.71056	38088.95
1182.31434	40782.75
1185.91565	41957.65
1189.51451	41605.55
1193.11091	40303.65
1196.70485	38708.95
1200.29634	37191.45
1203.88538	36226.95
1207.47197	35788.15
1211.05612	35385.15
1214.63782	34677.05
1218.21708	33571.85
1221.79391	32494.05
1225.36829	31713.95
1228.94024	31129.65
1232.50976	30490.95
1236.07685	29919.65
1239.6415	29546.65
1243.20374	29500.65
1246.76355	29765.55
1250.32093	30139.05
1253.8759	30748.05
1257.42845	31540.35
1260.97859	32440.15
1264.52631	33360.05
1268.07163	34284.55
1271.61453	35294.65
1275.15503	36401.65
1278.69312	37718.65
1282.22882	39075.75
1285.76211	40869.75
1289.29301	43030.05
1292.82151	45806.45
1296.34761	49097.05
1299.87133	52711.85
1303.39266	56192.15
1306.9116	59108.65
1310.42815	61327.05
1313.94233	62415.45
1317.45412	62091.15
1320.96354	60968.35
1324.47058	59913.55
1327.97525	58926.65
1331.47754	58294.85
1334.97747	57668.55
1338.47502	56766.35
1341.97022	55645.85
1345.46305	54554.85
1348.95352	53641.15
1352.44163	53536.95
1355.92738	54614.35
1359.41078	56629.75
1362.89183	58322.05
1366.37053	57154.65
1369.84688	52367.75
1373.32088	46545.55
1376.79254	42776.35
1380.26186	41746.25
1383.72883	42216.25
1387.19347	42708.85
1390.65578	42739.25
1394.11575	43022.85
1397.57339	43825.45
1401.0287	44832.25
1404.48168	45427.65
1407.93234	45070.25
1411.38068	43711.05
1414.82669	41573.55
1418.27039	39122.05
1421.71177	36892.25
1425.15083	35003.85
1428.58758	34154.15
1432.02203	34424.75
1435.45416	35538.55
1438.88399	36903.15
1442.31151	38016.65
1445.73673	38671.25
1449.15965	39183.55
1452.58027	39616.15
1455.9986	39732.35
1459.41463	40007.15
1462.82837	40462.05
1466.23982	41034.45
1469.64898	41571.35
1473.05586	41756.85
1476.46045	41692.45
1479.86276	41174.35
1483.26279	40515.75
1486.66054	40077.15
1490.05602	40054.05
1493.44922	40301.55
1496.84016	40671.95
1500.22882	41419.35
1503.61521	42552.65
1506.99934	44066.45
1510.38121	45378.95
1513.76081	45737.25
1517.13816	44932.45
1520.51324	43610.65
1523.88607	42735.75
1527.25665	42619.25
1530.62498	42818.75
1533.99105	42880.75
1537.35488	42425.75
1540.71647	41403.95
1544.07581	40004.75
1547.4329	38569.25
1550.78776	37254.95
1554.14038	36269.25
1557.49077	35771.35
1560.83892	35514.95
1564.18484	35455.45
1567.52853	35701.05
1570.86999	36264.25
1574.20922	37289.55
1577.54624	38296.25
1580.88103	38932.25
1584.2136	39624.55
1587.54395	41035.45
1590.87208	43134.95
1594.19801	45783.85
1597.52172	48118.45
1600.84321	48539.75
1604.16251	46143.35
1607.47959	41876.75
1610.79447	37452.75
1614.10715	33565.55
1617.41763	30610.15
1620.7259	28726.55
1624.03199	27888.45
1627.33587	27952.25
1630.63757	29073.25
1633.93707	31325.85
1637.23439	35065.25
1640.52951	40583.15
1643.82246	47083.35
1647.11321	52353.15
1650.40179	53272.55
1653.68819	48963.75
1656.97241	41520.25
1660.25446	34392.85
1663.53433	29106.45
1666.81203	25685.85
1670.08756	23577.75
1673.36092	22231.65
1676.63211	21369.05
1679.90115	20831.65
1683.16801	20374.25
1686.43272	20050.45
1689.69527	19820.25
1692.95567	19651.25
1696.2139	19471.75
1699.46999	19336.15
1702.72392	19233.15
1705.97571	19149.55
1709.22535	19082.85
1712.47284	19026.25
1715.71819	18972.55
1718.96139	18937.75
1722.20246	18831.95
1725.44139	18745.45
1728.67818	18606.85
1731.91284	18472.65
1735.14537	18350.05
1738.37576	18250.45
1741.60403	18202.65
1744.83017	18098.85
1748.05418	18074.75
1751.27607	18005.35
1754.49584	17982.85
1757.71349	17952.55
1760.92903	17939.05
1764.14244	17916.95
1767.35375	17887.45
1770.56294	17843.25
1773.77002	17769.85
1776.97499	17719.35
1780.17785	17652.15
1783.37861	17643.55
1786.57727	17619.55
1789.77382	17571.45
1792.96828	17523.55
1796.16064	17473.45
1799.3509	17422.45
1802.53907	17404.95
1805.72514	17318.55
1808.90913	17277.75
1812.09102	17257.55
1815.27083	17179.05
1818.44856	17119.65
1821.6242	17099.75
1824.79776	17097.25
1827.96924	17071.25
1831.13864	17067.05
1834.30597	17039.85
1837.47122	17057.35
1840.6344	17008.65
1843.7955	16987.35
1846.95454	16992.55
1850.11151	16937.95
1853.26642	16927.65
1856.41926	16916.15
1859.57004	16896.95
1862.71876	16899.05
1865.86542	16838.65
1869.01003	16860.25
1872.15258	16818.75
1875.29308	16788.05
1878.43152	16771.15
1881.56792	16727.55
1884.70227	16720.05
1887.83457	16691.45
1890.96482	16664.65
1894.09304	16655.75
1897.21921	16598.85
1900.34335	16560.05
1903.46544	16564.35
1906.58551	16535.35
1909.70353	16486.55
1912.81953	16484.35
1915.93349	16432.05
1919.04543	16426.75
1922.15534	16393.45
1925.26322	16321.35
1928.36908	16271.45
1931.47292	16242.75
1934.57473	16229.25
1937.67453	16151.25
1940.77232	16117.95
1943.86808	16041.45
1946.96184	16003.05
1950.05358	15948.65
1953.14331	15892.15
1956.23103	15815.25
1959.31675	15779.25
1962.40046	15731.45
1965.48217	15686.85
1968.56188	15628.35
1971.63959	15546.55
1974.7153	15508.35
1977.78901	15457.75
1980.86073	15432.65
1983.93046	15383.55
1986.99819	15305.25
1990.06394	15284.05
1993.1277	15259.95
1996.18947	15157.15
1999.24925	15116.15
2002.30706	15062.95
2005.36288	15032.15
2008.41672	14968.65
2011.46859	14937.55
2014.51848	14883.05
2017.56639	14878.25
2020.61233	14778.55
2023.6563	14746.15
2026.6983	14688.05
2029.73833	14662.75
2032.7764	14632.55
2035.8125	14605.25
2038.84664	14587.65
2041.87881	14573.15
2044.90903	14493.55
2047.93729	14476.25
2050.96359	14437.95
2053.98794	14459.85
2057.01034	14445.65
2060.03078	14437.05
2063.04927	14405.05
2066.06582	14400.65
2069.08042	14423.85
2072.09307	14373.95
2075.10378	14357.65
2078.11255	14331.45
2081.11938	14342.45
2084.12426	14315.35
2087.12722	14303.25
2090.12824	14271.45
2093.12732	14280.05
2096.12447	14274.55
2099.11969	14252.65
2102.11299	14249.65
2105.10435	14246.95
2108.09379	14266.45
2111.08131	14263.95
2114.0669	14247.75
2117.05057	14271.05
2120.03233	14272.45
2123.01216	14275.85
2125.99008	14283.15
2128.96609	14279.85
2131.94018	14311.05
2134.91236	14292.15
2137.88263	14282.35
2140.851	14294.65
2143.81746	14306.35
2146.78201	14269.05
2149.74466	14263.45
2152.7054	14267.25
2155.66425	14204.45
2158.6212	14231.85
2161.57625	14201.05
2164.52941	14186.25
2167.48067	14186.45
2170.43004	14170.05
2173.37752	14174.05
2176.32311	14181.15
2179.26681	14175.05
2182.20863	14193.25
2185.14856	14201.85
2188.08661	14202.15
2191.02278	14188.95
2193.95707	14147.35
2196.88948	14132.25
2199.82001	14132.05
2202.74867	14071.75
2205.67545	14058.45
2208.60037	14053.85
2211.52341	14002.05
2214.44458	13956.15
2217.36388	13941.05
2220.28132	13906.35
2223.1969	13865.95
2226.11061	13872.55
2229.02246	13810.75
2231.93245	13832.75
2234.84058	13792.15
2237.74686	13767.15
2240.65128	13749.35
2243.55385	13724.35
2246.45456	13702.35
2249.35343	13698.45
2252.25044	13652.05
2255.14561	13603.95
2258.03893	13573.25
2260.93041	13496.95
2263.82004	13485.65
2266.70783	13477.05
2269.59378	13420.65
2272.4779	13383.45
2275.36017	13320.55
2278.24061	13305.45
2281.11922	13272.75
2283.996	13303.45
2286.87094	13274.15
2289.74405	13214.45
2292.61534	13200.35
2295.4848	13175.35
2298.35243	13215.15
2301.21824	13188.65
2304.08223	13181.75
2306.94439	13206.05
2309.80474	13190.55
2312.66327	13167.25
2315.51999	13158.15
2318.37489	13133.95
2321.22797	13090.05
2324.07925	13046.55
2326.92871	13085.15
2329.77637	13053.15
2332.62222	13030.85
2335.46626	13027.45
2338.3085	13007.95
2341.14893	12999.65
2343.98756	13020.95
2346.8244	12990.95
2349.65943	12994.25
2352.49267	12968.35
2355.32411	12980.95
2358.15376	12962.85
2360.98161	12955.85
2363.80768	12963.85
2366.63195	12955.65
2369.45444	12971.85
2372.27514	12912.35
2375.09405	12908.95
2377.91118	12842.65
2380.72652	12846.95
2383.54009	12819.05
2386.35187	12806.55
2389.16188	12748.35
2391.97011	12715.05
2394.77657	12689.15
2397.58125	12657.35
2400.38416	12634.25
2403.18529	12634.95
2405.98466	12603.55
2408.78226	12587.85
2411.57809	12583.25
2414.37216	12554.25
2417.16446	12574.45
2419.955	12524.65
2422.74378	12503.65
2425.5308	12465.05
2428.31606	12505.75
2431.09956	12483.15
2433.88131	12458.45
2436.6613	12486.25
2439.43954	12472.35
2442.21603	12473.45
2444.99077	12446.55
2447.76377	12431.35
2450.53501	12423.95
2453.30451	12449.15
2456.07226	12410.75
2458.83827	12393.25
2461.60254	12398.35
2464.36507	12404.85
2467.12586	12391.55
2469.88492	12391.55
2472.64224	12392.95
2475.39782	12390.05
2478.15167	12408.55
2480.90379	12398.45
2483.65417	12399.35
2486.40283	12408.85
2489.14976	12408.65
2491.89497	12406.15
2494.63845	12436.75
2497.3802	12400.25
2500.12024	12402.45
2502.85855	12357.25
2505.59514	12378.85
2508.33002	12340.05
2511.06318	12333.15
2513.79462	12318.05
2516.52435	12296.85
2519.25237	12286.85
2521.97867	12265.05
2524.70327	12249.85
2527.42616	12244.55
2530.14734	12259.95
2532.86681	12270.75
2535.58458	12235.25
2538.30065	12229.25
2541.01501	12254.55
2543.72768	12230.15
2546.43864	12208.85
2549.14791	12201.75
2551.85548	12178.65
2554.56136	12167.45
2557.26554	12131.65
2559.96803	12138.75
2562.66883	12116.65
2565.36794	12097.15
2568.06536	12106.75
2570.7611	12103.35
2573.45514	12102.35
2576.14751	12052.85
2578.83819	12058.35
2581.52719	12076.55
2584.21451	12052.85
2586.90015	12046.25
2589.58411	12040.05
2592.2664	12043.35
2594.94701	12030.75
2597.62594	11981.55
2600.30321	11985.15
2602.9788	11973.05
2605.65273	12010.45
2608.32498	12018.15
2610.99557	12001.45
2613.66449	12012.15
2616.33175	12001.75
2618.99734	11984.85
2621.66128	11990.15
2624.32355	11993.15
2626.98416	11957.25
2629.64311	11922.05
2632.30041	11952.45
2634.95605	11920.95
2637.61004	11911.05
2640.26238	11909.85
2642.91306	11892.15
2645.56209	11892.25
2648.20948	11877.45
2650.85521	11943.65
2653.4993	11903.05
2656.14175	11907.75
2658.78255	11950.25
2661.42171	11930.55
2664.05923	11918.35
2666.6951	11937.95
2669.32934	11943.75
2671.96194	11937.85
2674.59291	11934.95
2677.22224	11914.05
2679.84993	11929.25
2682.476	11909.55
2685.10043	11896.55
2687.72324	11903.15
2690.34441	11908.15
2692.96396	11885.75
2695.58188	11883.45
2698.19818	11866.05
2700.81285	11917.75
2703.4259	11899.65
2706.03733	11922.95
2708.64714	11897.25
2711.25533	11922.65
2713.86191	11923.25
2716.46687	11949.05
2719.07021	11935.75
2721.67194	11978.35
2724.27206	11943.55
2726.87057	11980.45
2729.46747	12000.05
2732.06276	11985.05
2734.65644	11990.35
2737.24852	11959.75
2739.83899	11945.35
2742.42786	11973.65
2745.01513	11960.05
2747.60079	11934.65
2750.18486	11936.35
2752.76733	11942.45
2755.3482	11912.75
2757.92747	11898.95
2760.50515	11891.35
2763.08123	11895.65
2765.65573	11862.05
2768.22863	11852.65
2770.79994	11894.85
2773.36967	11908.95
2775.9378	11900.65
2778.50435	11915.15
2781.06932	11899.15
2783.6327	11889.25
2786.1945	11874.85
2788.75471	11867.55
2791.31335	11896.75
2793.87041	11865.75
2796.42589	11828.45
2798.97979	11849.35
2801.53212	11813.15
2804.08288	11783.25
2806.63206	11760.85
2809.17967	11730.05
2811.72571	11699.65
2814.27018	11698.25
2816.81308	11663.85
2819.35442	11652.55
2821.89419	11602.25
2824.43239	11638.15
2826.96904	11637.75
2829.50412	11588.35
2832.03763	11579.75
2834.56959	11580.95
2837.1	11591.35
2839.62884	11622.35
2842.15613	11611.75
2844.68186	11682.55
2847.20604	11702.85
2849.72867	11744.75
2852.24974	11718.15
2854.76927	11706.55
2857.28724	11692.35
2859.80367	11660.75
2862.31855	11650.35
2864.83189	11619.55
2867.34368	11618.05
2869.85393	11594.45
2872.36264	11608.25
2874.8698	11623.55
2877.37543	11571.55
2879.87952	11573.75
2882.38207	11578.95
2884.88308	11583.05
2887.38256	11609.45
2889.88051	11557.65
2892.37692	11584.65
2894.8718	11570.35
2897.36515	11599.05
2899.85698	11612.25
2902.34727	11610.15
2904.83604	11614.95
2907.32328	11629.25
2909.809	11667.65
2912.29319	11642.75
2914.77587	11620.35
2917.25702	11623.65
2919.73665	11586.45
2922.21476	11606.75
2924.69136	11614.45
2927.16644	11604.95
2929.64	11622.35
2932.11205	11577.65
2934.58258	11574.55
2937.05161	11563.25
2939.51912	11572.45
2941.98513	11540.25
2944.44962	11494.95
2946.91261	11453.55
2949.37409	11450.35
2951.83407	11422.85
2954.29254	11406.65
2956.74951	11382.05
2959.20498	11370.55
2961.65895	11366.35
2964.11142	11351.55
2966.56239	11352.35
2969.01186	11343.35
2971.45984	11283.35
2973.90632	11287.05
2976.35131	11262.35
2978.7948	11213.15
2981.23681	11187.75
2983.67732	11159.25
2986.11635	11135.95
2988.55388	11095.05
2990.98993	11090.35
2993.4245	11037.85
2995.85758	10992.75
2998.28917	10967.45
3000.71928	10956.25
3003.14791	10942.45
3005.57506	10906.75
3008.00073	10872.05
3010.42493	10856.65
3012.84764	10839.85
3015.26888	10825.85
3017.68865	10780.75
3020.10694	10748.55
3022.52376	10731.85
3024.9391	10730.65
3027.35298	10708.95
3029.76539	10719.05
3032.17632	10702.65
3034.5858	10683.95
3036.9938	10682.15
3039.40034	10677.05
3041.80542	10685.65
3044.20903	10666.45
3046.61118	10649.65
3049.01187	10610.55
3051.4111	10622.65
3053.80888	10592.25
3056.20519	10589.15
3058.60005	10513.15
3060.99345	10509.75
3063.3854	10464.35
3065.7759	10410.35
3068.16494	10409.15
3070.55254	10346.75
3072.93868	10303.25
3075.32338	10288.25
3077.70662	10270.85
3080.08842	10236.85
3082.46878	10220.65
3084.84769	10183.15
3087.22515	10218.95
3089.60118	10209.85
3091.97576	10204.35
3094.3489	10207.45
3096.72061	10198.45
3099.09087	10185.25
3101.4597	10153.35
3103.82709	10152.25
3106.19305	10118.75
3108.55757	10141.95
3110.92066	10102.45
3113.28232	10078.15
3115.64255	10051.55
3118.00134	10016.85
3120.35871	10021.45
3122.71466	10012.75
3125.06917	9962.75
3127.42226	9950.05
3129.77393	9946.15
3132.12417	9922.65
3134.47299	9922.65
3136.82039	9912.45
3139.16636	9920.65
3141.51092	9895.95
3143.85406	9910.65
3146.19579	9904.75
3148.53609	9900.45
3150.87499	9885.15
3153.21246	9886.45
3155.54853	9907.65
3157.88318	9900.05
3160.21642	9938.45
3162.54826	9903.15
3164.87868	9899.75
3167.2077	9923.25
3169.5353	9908.35
3171.86151	9909.55
3174.18631	9908.75
3176.5097	9893.95
3178.83169	9883.55
3181.15228	9885.35
3183.47147	9856.55
3185.78926	9819.55
3188.10565	9838.75
3190.42065	9823.25
3192.73424	9799.55
3195.04645	9771.55
3197.35725	9789.95
3199.66667	9756.85
3201.97469	9765.15
3204.28132	9752.95
3206.58656	9732.85
3208.8904	9762.75
3211.19287	9754.45
3213.49394	9789.85
3215.79363	9772.25
3218.09193	9782.45
3220.38884	9760.65
3222.68438	9772.45
3224.97853	9761.25
3227.2713	9751.55
3229.56269	9748.75
3231.8527	9748.65
3234.14133	9710.25
3236.42858	9705.05
3238.71446	9681.65
3240.99896	9640.35
3243.28209	9645.15
3245.56384	9624.85
3247.84423	9627.85
3250.12324	9620.15
3252.40088	9608.35
3254.67715	9583.65
3256.95205	9566.45
3259.22558	9526.65
3261.49775	9503.25
3263.76855	9502.15
3266.03799	9491.25
3268.30606	9476.85
3270.57277	9460.15
3272.83812	9427.05
3275.10211	9415.95
3277.36474	9404.25
3279.62601	9397.05
3281.88593	9393.65
3284.14448	9385.05
3286.40168	9399.95
3288.65753	9390.95
3290.91202	9417.25
3293.16516	9359.65
3295.41695	9347.95
3297.66738	9297.25
3299.91647	9210.75
3302.16421	9165.35
3304.4106	9112.65
3306.65564	9063.95
3308.89933	8995.95
3311.14169	8907.35
3313.38269	8831.75
3315.62236	8775.55
3317.86068	8695.15
3320.09766	8660.45
3322.3333	8590.55
3324.5676	8519.85
3326.80056	8393.85
3329.03219	8332.05
3331.26248	2.65
3333.49143	0.05
3335.71905	-1.25
