Data from AgNPs_FTO_APTES_UA_5uM_CRN_1000uM_R6G_10uM_NaF_0.1M_Addition_RamanShift__12__17-37-51-876.txt Node

Date: Mon Feb 07 17:37:51 GMT 2022
User: TCL
Spectrometer: QEP01345
Trigger mode: 4
Integration Time (sec): 7.000000E0
Scans to average: 10
Electric dark correction enabled: true
Nonlinearity correction enabled: false
Boxcar width: 0
XAxis mode: Raman Shifts
Number of Pixels in Spectrum: 1044
>>>>>Begin Spectral Data<<<<<
46.04893	-1.25
50.45542	-0.05
54.85868	-1.25
59.25871	0.35
63.6555	48.15
68.04907	49.95
72.43941	53.95
76.82654	55.25
81.21044	56.45
85.59113	56.45
89.96862	61.55
94.34289	61.55
98.71396	62.35
103.08183	67.55
107.4465	69.05
111.80798	72.75
116.16626	74.05
120.52136	74.15
124.87327	78.45
129.222	84.25
133.56755	88.95
137.90993	95.05
142.24913	105.95
146.58517	119.65
150.91804	139.05
155.24774	170.85
159.57429	210.95
163.89768	267.65
168.21792	360.75
172.53501	486.95
176.84895	683.45
181.15975	964.35
185.46741	1346.85
189.77193	1871.35
194.07331	2524.35
198.37157	3239.95
202.6667	4018.65
206.9587	4779.05
211.24758	5553.75
215.53334	6298.65
219.81599	7087.65
224.09553	7951.55
228.37195	8880.85
232.64527	9916.25
236.91549	10997.05
241.18261	12128.85
245.44663	13168.45
249.70755	14100.55
253.96539	14935.35
258.22014	15623.05
262.4718	16172.25
266.72039	16553.35
270.96589	16745.45
275.20832	16813.15
279.44768	16757.05
283.68397	16637.95
287.91719	16558.65
292.14735	16481.85
296.37445	16503.35
300.59849	16539.35
304.81948	16597.85
309.03742	16565.35
313.25231	16427.05
317.46415	16128.15
321.67296	15758.05
325.87872	15381.95
330.08145	15166.55
334.28114	15118.65
338.47781	15175.15
342.67145	15280.55
346.86207	15464.95
351.04966	15681.85
355.23424	15877.75
359.4158	16030.95
363.59435	16163.45
367.76989	16253.35
371.94243	16305.95
376.11196	16363.25
380.27849	16356.15
384.44203	16398.25
388.60257	16518.95
392.76012	16667.15
396.91468	16930.35
401.06626	17188.35
405.21485	17341.75
409.36047	17310.35
413.50311	17104.25
417.64277	16981.05
421.77947	16959.05
425.9132	17068.95
430.04396	17194.55
434.17176	17292.25
438.2966	17402.95
442.41849	17632.15
446.53742	17980.85
450.6534	18314.35
454.76644	18619.15
458.87653	18786.75
462.98368	18795.35
467.08789	18694.05
471.18916	18554.95
475.2875	18442.05
479.38291	18395.45
483.4754	18329.05
487.56496	18189.25
491.6516	17950.75
495.73531	17690.05
499.81612	17427.35
503.89401	17426.75
507.96899	17452.25
512.04106	17417.25
516.11023	17328.35
520.1765	17180.35
524.23987	17034.65
528.30034	16895.85
532.35792	16755.75
536.41261	16603.95
540.46441	16500.95
544.51333	16496.15
548.55936	16696.45
552.60252	17059.55
556.64279	17435.45
560.6802	17744.05
564.71473	17998.15
568.7464	18313.45
572.7752	19000.25
576.80114	19651.85
580.82422	20246.85
584.84444	20653.15
588.86181	21043.45
592.87633	21456.45
596.888	21382.45
600.89682	20728.25
604.9028	20401.65
608.90594	20991.15
612.90624	21793.85
616.90371	20574.25
620.89834	18016.45
624.89015	16913.35
628.87913	16869.55
632.86528	17066.05
636.84862	17110.55
640.82913	16915.75
644.80683	16519.35
648.78172	16268.65
652.75379	16204.75
656.72306	16273.25
660.68952	16467.45
664.65319	16387.05
668.61405	16227.45
672.57211	16209.15
676.52738	16280.85
680.47986	16308.55
684.42955	16264.55
688.37646	16187.45
692.32058	16223.85
696.26192	16273.75
700.20048	16455.65
704.13626	16564.95
708.06928	16712.65
711.99952	16724.45
715.927	16648.85
719.85171	16608.35
723.77365	16446.75
727.69284	16293.75
731.60928	16095.15
735.52295	16018.85
739.43388	15973.85
743.34206	15987.55
747.24749	16064.35
751.15017	16235.55
755.05012	16516.05
758.94733	16950.35
762.8418	17706.85
766.73354	18786.85
770.62254	19810.65
774.50882	19990.65
778.39237	19171.95
782.27321	17978.35
786.15132	16971.05
790.02671	16379.45
793.89938	16029.45
797.76935	15908.65
801.6366	15783.55
805.50115	15729.05
809.36299	15643.75
813.22213	15591.35
817.07857	15542.55
820.93231	15525.25
824.78336	15481.85
828.63172	15403.45
832.47738	15353.45
836.32036	15310.65
840.16066	15295.85
843.99827	15294.75
847.8332	15267.05
851.66546	15302.65
855.49504	15304.65
859.32195	15298.75
863.1462	15217.95
866.96777	15279.25
870.78668	15208.45
874.60293	15223.05
878.41652	15211.25
882.22745	15260.95
886.03573	15272.35
889.84136	15251.55
893.64433	15287.05
897.44466	15245.55
901.24235	15240.35
905.0374	15189.85
908.8298	15148.25
912.61957	15170.05
916.40671	15381.35
920.19121	15607.15
923.97308	15783.55
927.75233	15718.35
931.52895	15522.15
935.30295	15242.55
939.07433	14953.85
942.84309	14738.55
946.60924	14594.05
950.37278	14502.45
954.13371	14454.75
957.89203	14487.35
961.64774	14457.25
965.40086	14414.45
969.15137	14386.85
972.89929	14324.95
976.64461	14225.55
980.38733	14196.25
984.12747	14136.85
987.86502	14199.65
991.59999	14225.95
995.33237	14265.15
999.06217	14362.45
1002.78939	14522.75
1006.51404	14665.25
1010.23611	14857.25
1013.95561	15042.05
1017.67255	15087.55
1021.38692	15046.35
1025.09872	14876.85
1028.80796	14750.05
1032.51465	14644.45
1036.21877	14658.05
1039.92035	14744.05
1043.61937	14809.25
1047.31584	14910.65
1051.00976	14946.55
1054.70114	15033.25
1058.38998	15149.35
1062.07627	15353.75
1065.76003	15517.15
1069.44126	15687.45
1073.11995	15879.55
1076.79611	16083.65
1080.46974	16103.25
1084.14085	16157.45
1087.80943	16263.45
1091.47549	16411.55
1095.13903	16482.65
1098.80005	16394.05
1102.45857	16064.45
1106.11456	15708.15
1109.76805	15464.95
1113.41903	15397.05
1117.06751	15447.55
1120.71348	15631.65
1124.35696	15810.75
1127.99793	16108.85
1131.63641	16289.75
1135.2724	16186.65
1138.90589	16060.25
1142.5369	16044.65
1146.16542	16139.95
1149.79145	16328.95
1153.415	16522.25
1157.03607	16763.75
1160.65467	17192.65
1164.27079	17768.95
1167.88443	18554.65
1171.49561	19372.85
1175.10432	20380.45
1178.71056	21601.25
1182.31434	22822.85
1185.91565	23521.75
1189.51451	23789.25
1193.11091	23542.45
1196.70485	23010.55
1200.29634	22319.05
1203.88538	21808.35
1207.47197	21406.05
1211.05612	21133.25
1214.63782	20790.55
1218.21708	20260.25
1221.79391	19622.65
1225.36829	19065.75
1228.94024	18747.35
1232.50976	18518.35
1236.07685	18322.55
1239.6415	18191.35
1243.20374	18178.25
1246.76355	18248.75
1250.32093	18433.65
1253.8759	18744.65
1257.42845	19123.85
1260.97859	19567.25
1264.52631	20033.25
1268.07163	20523.85
1271.61453	21000.35
1275.15503	21541.75
1278.69312	22098.05
1282.22882	22757.65
1285.76211	23539.95
1289.29301	24408.55
1292.82151	25483.85
1296.34761	26748.55
1299.87133	28094.25
1303.39266	29404.85
1306.9116	30515.15
1310.42815	31293.05
1313.94233	31633.25
1317.45412	31409.55
1320.96354	31011.25
1324.47058	30734.75
1327.97525	30562.85
1331.47754	30480.25
1334.97747	30532.65
1338.47502	30547.05
1341.97022	30559.15
1345.46305	30588.25
1348.95352	30550.85
1352.44163	30382.25
1355.92738	30462.45
1359.41078	30809.65
1362.89183	31242.85
1366.37053	30744.55
1369.84688	28857.25
1373.32088	26308.95
1376.79254	24468.35
1380.26186	23759.75
1383.72883	23665.95
1387.19347	23679.65
1390.65578	23621.95
1394.11575	23558.45
1397.57339	23631.55
1401.0287	23794.85
1404.48168	23889.35
1407.93234	23670.65
1411.38068	23116.75
1414.82669	22270.75
1418.27039	21296.35
1421.71177	20361.45
1425.15083	19645.75
1428.58758	19216.55
1432.02203	19226.85
1435.45416	19534.25
1438.88399	19921.85
1442.31151	20320.45
1445.73673	20561.15
1449.15965	20868.45
1452.58027	21150.45
1455.9986	21336.05
1459.41463	21594.65
1462.82837	21857.15
1466.23982	22143.85
1469.64898	22433.15
1473.05586	22589.85
1476.46045	22644.95
1479.86276	22592.65
1483.26279	22501.95
1486.66054	22496.55
1490.05602	22633.75
1493.44922	23005.65
1496.84016	23516.65
1500.22882	24220.85
1503.61521	25064.55
1506.99934	25903.65
1510.38121	26580.45
1513.76081	26785.05
1517.13816	26407.75
1520.51324	25800.65
1523.88607	25419.65
1527.25665	25260.05
1530.62498	25147.05
1533.99105	24949.95
1537.35488	24561.15
1540.71647	24000.85
1544.07581	23224.65
1547.4329	22434.45
1550.78776	21841.25
1554.14038	21322.95
1557.49077	21066.95
1560.83892	20950.85
1564.18484	20926.85
1567.52853	21063.55
1570.86999	21292.45
1574.20922	21673.35
1577.54624	22023.75
1580.88103	22058.15
1584.2136	22056.95
1587.54395	22320.15
1590.87208	22925.15
1594.19801	23865.55
1597.52172	24824.15
1600.84321	25069.65
1604.16251	24217.95
1607.47959	22692.65
1610.79447	21110.95
1614.10715	19593.25
1617.41763	18246.65
1620.7259	17274.15
1624.03199	16712.15
1627.33587	16516.15
1630.63757	16759.35
1633.93707	17514.95
1637.23439	18875.55
1640.52951	20981.25
1643.82246	23675.35
1647.11321	26251.65
1650.40179	27505.15
1653.68819	26638.35
1656.97241	24052.25
1660.25446	20954.35
1663.53433	18282.05
1666.81203	16324.75
1670.08756	15050.65
1673.36092	14204.85
1676.63211	13649.75
1679.90115	13317.15
1683.16801	13047.15
1686.43272	12834.75
1689.69527	12674.55
1692.95567	12521.45
1696.2139	12463.15
1699.46999	12358.55
1702.72392	12334.05
1705.97571	12253.85
1709.22535	12240.15
1712.47284	12193.25
1715.71819	12141.65
1718.96139	12118.15
1722.20246	12047.95
1725.44139	12005.55
1728.67818	11935.65
1731.91284	11855.15
1735.14537	11793.15
1738.37576	11725.75
1741.60403	11659.75
1744.83017	11641.85
1748.05418	11602.45
1751.27607	11559.35
1754.49584	11580.25
1757.71349	11547.75
1760.92903	11558.15
1764.14244	11531.55
1767.35375	11517.35
1770.56294	11465.55
1773.77002	11422.25
1776.97499	11388.55
1780.17785	11342.65
1783.37861	11334.75
1786.57727	11325.25
1789.77382	11267.35
1792.96828	11234.05
1796.16064	11198.25
1799.3509	11164.15
1802.53907	11125.15
1805.72514	11083.65
1808.90913	11042.95
1812.09102	11007.05
1815.27083	10983.35
1818.44856	10971.05
1821.6242	10929.35
1824.79776	10892.25
1827.96924	10893.15
1831.13864	10861.25
1834.30597	10858.55
1837.47122	10828.65
1840.6344	10820.25
1843.7955	10804.65
1846.95454	10808.35
1850.11151	10765.55
1853.26642	10748.95
1856.41926	10729.85
1859.57004	10735.85
1862.71876	10721.65
1865.86542	10716.05
1869.01003	10695.45
1872.15258	10666.85
1875.29308	10674.75
1878.43152	10626.05
1881.56792	10593.45
1884.70227	10564.45
1887.83457	10542.25
1890.96482	10536.55
1894.09304	10526.45
1897.21921	10504.35
1900.34335	10498.05
1903.46544	10447.05
1906.58551	10454.65
1909.70353	10449.35
1912.81953	10393.95
1915.93349	10360.15
1919.04543	10330.95
1922.15534	10319.85
1925.26322	10318.55
1928.36908	10267.35
1931.47292	10266.15
1934.57473	10229.35
1937.67453	10215.35
1940.77232	10187.65
1943.86808	10122.45
1946.96184	10083.55
1950.05358	10050.65
1953.14331	10017.25
1956.23103	9986.65
1959.31675	9943.45
1962.40046	9927.25
1965.48217	9874.45
1968.56188	9857.05
1971.63959	9811.75
1974.7153	9793.05
1977.78901	9729.55
1980.86073	9715.75
1983.93046	9654.85
1986.99819	9633.05
1990.06394	9595.95
1993.1277	9590.35
1996.18947	9542.55
1999.24925	9531.25
2002.30706	9490.25
2005.36288	9446.95
2008.41672	9395.35
2011.46859	9372.15
2014.51848	9370.35
2017.56639	9333.95
2020.61233	9298.25
2023.6563	9258.95
2026.6983	9204.75
2029.73833	9165.65
2032.7764	9155.75
2035.8125	9158.15
2038.84664	9140.55
2041.87881	9109.75
2044.90903	9072.05
2047.93729	9056.55
2050.96359	9050.95
2053.98794	9021.25
2057.01034	8991.15
2060.03078	9005.75
2063.04927	8997.85
2066.06582	8999.85
2069.08042	8993.25
2072.09307	8992.95
2075.10378	8945.25
2078.11255	8947.45
2081.11938	8948.85
2084.12426	8921.05
2087.12722	8902.45
2090.12824	8890.85
2093.12732	8913.45
2096.12447	8914.35
2099.11969	8878.75
2102.11299	8867.75
2105.10435	8866.15
2108.09379	8862.05
2111.08131	8880.85
2114.0669	8885.45
2117.05057	8918.55
2120.03233	8891.15
2123.01216	8894.25
2125.99008	8880.25
2128.96609	8888.55
2131.94018	8872.35
2134.91236	8879.35
2137.88263	8899.15
2140.851	8890.85
2143.81746	8883.65
2146.78201	8868.35
2149.74466	8870.55
2152.7054	8855.75
2155.66425	8805.15
2158.6212	8827.55
2161.57625	8823.65
2164.52941	8801.65
2167.48067	8795.35
2170.43004	8787.95
2173.37752	8768.75
2176.32311	8781.15
2179.26681	8769.35
2182.20863	8769.75
2185.14856	8763.15
2188.08661	8761.05
2191.02278	8774.65
2193.95707	8745.35
2196.88948	8731.05
2199.82001	8680.65
2202.74867	8675.45
2205.67545	8658.05
2208.60037	8647.95
2211.52341	8613.65
2214.44458	8605.75
2217.36388	8592.85
2220.28132	8559.55
2223.1969	8546.85
2226.11061	8522.95
2229.02246	8509.05
2231.93245	8501.55
2234.84058	8493.25
2237.74686	8458.55
2240.65128	8463.35
2243.55385	8434.85
2246.45456	8423.55
2249.35343	8419.65
2252.25044	8391.85
2255.14561	8356.95
2258.03893	8334.95
2260.93041	8307.75
2263.82004	8279.75
2266.70783	8277.05
2269.59378	8244.65
2272.4779	8194.65
2275.36017	8160.65
2278.24061	8161.95
2281.11922	8127.35
2283.996	8130.25
2286.87094	8115.45
2289.74405	8083.65
2292.61534	8079.95
2295.4848	8057.65
2298.35243	8060.55
2301.21824	8032.35
2304.08223	8054.35
2306.94439	8053.45
2309.80474	8034.95
2312.66327	8010.35
2315.51999	7998.05
2318.37489	7991.25
2321.22797	7963.15
2324.07925	7947.35
2326.92871	7935.05
2329.77637	7923.35
2332.62222	7922.85
2335.46626	7899.05
2338.3085	7855.35
2341.14893	7876.75
2343.98756	7866.65
2346.8244	7855.35
2349.65943	7836.95
2352.49267	7843.45
2355.32411	7837.85
2358.15376	7828.05
2360.98161	7811.65
2363.80768	7814.95
2366.63195	7816.55
2369.45444	7787.35
2372.27514	7811.55
2375.09405	7764.65
2377.91118	7758.35
2380.72652	7726.15
2383.54009	7711.05
2386.35187	7699.35
2389.16188	7687.45
2391.97011	7671.25
2394.77657	7653.55
2397.58125	7623.85
2400.38416	7608.85
2403.18529	7588.75
2405.98466	7573.35
2408.78226	7567.65
2411.57809	7561.55
2414.37216	7550.65
2417.16446	7553.25
2419.955	7511.65
2422.74378	7492.45
2425.5308	7493.25
2428.31606	7486.55
2431.09956	7459.75
2433.88131	7432.55
2436.6613	7442.35
2439.43954	7457.05
2442.21603	7443.25
2444.99077	7414.85
2447.76377	7426.45
2450.53501	7433.65
2453.30451	7428.65
2456.07226	7410.75
2458.83827	7394.05
2461.60254	7384.35
2464.36507	7388.65
2467.12586	7362.55
2469.88492	7364.45
2472.64224	7330.15
2475.39782	7353.25
2478.15167	7356.95
2480.90379	7338.45
2483.65417	7337.35
2486.40283	7329.45
2489.14976	7331.05
2491.89497	7323.25
2494.63845	7322.45
2497.3802	7332.85
2500.12024	7291.25
2502.85855	7294.45
2505.59514	7295.45
2508.33002	7259.95
2511.06318	7261.95
2513.79462	7250.15
2516.52435	7264.15
2519.25237	7226.75
2521.97867	7229.75
2524.70327	7201.55
2527.42616	7201.05
2530.14734	7186.85
2532.86681	7184.55
2535.58458	7184.25
2538.30065	7149.05
2541.01501	7139.35
2543.72768	7130.05
2546.43864	7149.25
2549.14791	7110.65
2551.85548	7116.65
2554.56136	7088.35
2557.26554	7081.25
2559.96803	7057.55
2562.66883	7055.95
2565.36794	7039.65
2568.06536	7040.35
2570.7611	7023.15
2573.45514	6983.45
2576.14751	6995.55
2578.83819	6967.65
2581.52719	6957.35
2584.21451	6948.15
2586.90015	6966.95
2589.58411	6945.75
2592.2664	6917.95
2594.94701	6934.95
2597.62594	6917.45
2600.30321	6884.25
2602.9788	6871.05
2605.65273	6905.75
2608.32498	6882.75
2610.99557	6884.95
2613.66449	6875.05
2616.33175	6859.25
2618.99734	6847.25
2621.66128	6818.25
2624.32355	6816.85
2626.98416	6800.65
2629.64311	6812.35
2632.30041	6776.85
2634.95605	6781.75
2637.61004	6760.35
2640.26238	6752.65
2642.91306	6752.05
2645.56209	6765.75
2648.20948	6747.85
2650.85521	6751.75
2653.4993	6756.45
2656.14175	6738.25
2658.78255	6750.45
2661.42171	6745.15
2664.05923	6737.25
2666.6951	6744.55
2669.32934	6756.05
2671.96194	6737.15
2674.59291	6752.25
2677.22224	6743.15
2679.84993	6740.65
2682.476	6717.45
2685.10043	6722.45
2687.72324	6718.05
2690.34441	6719.25
2692.96396	6717.75
2695.58188	6685.75
2698.19818	6708.25
2700.81285	6730.55
2703.4259	6705.85
2706.03733	6699.45
2708.64714	6706.15
2711.25533	6714.45
2713.86191	6700.15
2716.46687	6715.35
2719.07021	6707.35
2721.67194	6713.85
2724.27206	6716.45
2726.87057	6706.05
2729.46747	6703.95
2732.06276	6718.15
2734.65644	6700.05
2737.24852	6708.45
2739.83899	6677.65
2742.42786	6677.65
2745.01513	6658.35
2747.60079	6655.45
2750.18486	6633.75
2752.76733	6632.55
2755.3482	6631.85
2757.92747	6625.65
2760.50515	6606.55
2763.08123	6597.55
2765.65573	6576.05
2768.22863	6597.25
2770.79994	6580.85
2773.36967	6571.75
2775.9378	6559.35
2778.50435	6577.55
2781.06932	6539.15
2783.6327	6529.05
2786.1945	6519.75
2788.75471	6547.45
2791.31335	6519.55
2793.87041	6523.35
2796.42589	6497.45
2798.97979	6496.65
2801.53212	6480.25
2804.08288	6457.45
2806.63206	6437.55
2809.17967	6451.05
2811.72571	6413.65
2814.27018	6403.25
2816.81308	6409.95
2819.35442	6380.75
2821.89419	6374.15
2824.43239	6379.25
2826.96904	6373.25
2829.50412	6381.45
2832.03763	6348.45
2834.56959	6360.45
2837.1	6356.35
2839.62884	6364.65
2842.15613	6385.15
2844.68186	6406.85
2847.20604	6439.85
2849.72867	6449.35
2852.24974	6452.85
2854.76927	6436.95
2857.28724	6425.55
2859.80367	6421.25
2862.31855	6403.75
2864.83189	6379.75
2867.34368	6358.15
2869.85393	6375.05
2872.36264	6366.55
2874.8698	6370.85
2877.37543	6356.25
2879.87952	6349.95
2882.38207	6346.55
2884.88308	6319.95
2887.38256	6321.25
2889.88051	6337.95
2892.37692	6322.25
2894.8718	6328.65
2897.36515	6329.25
2899.85698	6320.65
2902.34727	6336.45
2904.83604	6331.65
2907.32328	6352.65
2909.809	6356.95
2912.29319	6333.35
2914.77587	6327.65
2917.25702	6332.45
2919.73665	6321.45
2922.21476	6307.65
2924.69136	6318.85
2927.16644	6321.75
2929.64	6311.15
2932.11205	6312.15
2934.58258	6301.35
2937.05161	6281.45
2939.51912	6276.75
2941.98513	6271.25
2944.44962	6236.55
2946.91261	6206.05
2949.37409	6206.45
2951.83407	6183.85
2954.29254	6160.35
2956.74951	6160.85
2959.20498	6133.65
2961.65895	6115.25
2964.11142	6114.75
2966.56239	6112.25
2969.01186	6106.05
2971.45984	6075.65
2973.90632	6062.85
2976.35131	6031.45
2978.7948	6029.65
2981.23681	6017.25
2983.67732	5980.95
2986.11635	5986.65
2988.55388	5961.25
2990.98993	5950.95
2993.4245	5920.25
2995.85758	5906.95
2998.28917	5883.55
3000.71928	5869.35
3003.14791	5856.05
3005.57506	5840.65
3008.00073	5832.45
3010.42493	5840.65
3012.84764	5800.45
3015.26888	5809.95
3017.68865	5786.75
3020.10694	5781.35
3022.52376	5776.25
3024.9391	5760.55
3027.35298	5727.15
3029.76539	5732.75
3032.17632	5734.85
3034.5858	5707.65
3036.9938	5725.95
3039.40034	5691.15
3041.80542	5698.35
3044.20903	5689.55
3046.61118	5666.45
3049.01187	5658.95
3051.4111	5667.55
3053.80888	5659.25
3056.20519	5636.55
3058.60005	5629.35
3060.99345	5605.25
3063.3854	5596.65
3065.7759	5581.75
3068.16494	5544.55
3070.55254	5538.55
3072.93868	5538.55
3075.32338	5513.65
3077.70662	5498.55
3080.08842	5474.75
3082.46878	5475.05
3084.84769	5454.45
3087.22515	5449.25
3089.60118	5453.25
3091.97576	5455.35
3094.3489	5462.15
3096.72061	5444.15
3099.09087	5458.25
3101.4597	5445.95
3103.82709	5431.25
3106.19305	5440.15
3108.55757	5432.65
3110.92066	5401.75
3113.28232	5416.25
3115.64255	5383.65
3118.00134	5356.05
3120.35871	5376.95
3122.71466	5357.25
3125.06917	5349.45
3127.42226	5329.95
3129.77393	5345.35
3132.12417	5319.25
3134.47299	5322.15
3136.82039	5311.75
3139.16636	5322.05
3141.51092	5321.85
3143.85406	5324.55
3146.19579	5316.65
3148.53609	5319.95
3150.87499	5326.45
3153.21246	5325.45
3155.54853	5341.55
3157.88318	5339.25
3160.21642	5334.15
3162.54826	5323.25
3164.87868	5319.75
3167.2077	5321.85
3169.5353	5323.25
3171.86151	5342.25
3174.18631	5334.05
3176.5097	5321.75
3178.83169	5298.85
3181.15228	5312.75
3183.47147	5311.75
3185.78926	5294.75
3188.10565	5275.55
3190.42065	5270.25
3192.73424	5283.65
3195.04645	5262.85
3197.35725	5254.15
3199.66667	5247.05
3201.97469	5257.05
3204.28132	5239.25
3206.58656	5259.05
3208.8904	5254.85
3211.19287	5247.45
3213.49394	5261.65
3215.79363	5251.05
3218.09193	5272.65
3220.38884	5255.05
3222.68438	5257.85
3224.97853	5238.25
3227.2713	5227.95
3229.56269	5241.05
3231.8527	5241.25
3234.14133	5213.15
3236.42858	5212.75
3238.71446	5198.85
3240.99896	5189.35
3243.28209	5160.95
3245.56384	5156.15
3247.84423	5163.25
3250.12324	5154.65
3252.40088	5129.45
3254.67715	5149.95
3256.95205	5130.85
3259.22558	5122.65
3261.49775	5113.75
3263.76855	5111.95
3266.03799	5091.65
3268.30606	5100.35
3270.57277	5087.05
3272.83812	5054.05
3275.10211	5067.75
3277.36474	5048.35
3279.62601	5036.55
3281.88593	5026.25
3284.14448	5039.25
3286.40168	5038.65
3288.65753	5047.65
3290.91202	5033.65
3293.16516	5001.85
3295.41695	5001.45
3297.66738	4947.05
3299.91647	4945.15
3302.16421	4884.85
3304.4106	4879.65
3306.65564	4833.15
3308.89933	4813.75
3311.14169	4773.35
3313.38269	4721.05
3315.62236	4710.95
3317.86068	4669.25
3320.09766	4616.75
3322.3333	4601.25
3324.5676	4563.65
3326.80056	4473.55
3329.03219	4466.95
3331.26248	2.15
3333.49143	0.45
3335.71905	-0.85
