Data from AgNPs_FTO_APTES_UA_5uM_CRN_1uM_R6G_10uM_NaF_0.1M_Addition_RamanShift__13__10-32-26-581.txt Node

Date: Mon Feb 07 10:32:26 GMT 2022
User: TCL
Spectrometer: QEP01345
Trigger mode: 4
Integration Time (sec): 7.000000E0
Scans to average: 10
Electric dark correction enabled: true
Nonlinearity correction enabled: false
Boxcar width: 0
XAxis mode: Raman Shifts
Number of Pixels in Spectrum: 1044
>>>>>Begin Spectral Data<<<<<
46.04893	0.75
50.45542	-1.55
54.85868	-1.35
59.25871	-0.35
63.6555	95.65
68.04907	100.65
72.43941	102.95
76.82654	109.75
81.21044	112.65
85.59113	116.85
89.96862	121.35
94.34289	119.15
98.71396	125.65
103.08183	129.25
107.4465	133.45
111.80798	139.85
116.16626	143.55
120.52136	152.85
124.87327	158.25
129.222	170.85
133.56755	183.25
137.90993	202.75
142.24913	218.05
146.58517	255.65
150.91804	294.25
155.24774	361.75
159.57429	457.05
163.89768	596.55
168.21792	801.45
172.53501	1095.05
176.84895	1533.95
181.15975	2163.75
185.46741	3044.55
189.77193	4193.65
194.07331	5621.15
198.37157	7266.15
202.6667	8963.35
206.9587	10709.75
211.24758	12372.35
215.53334	14014.55
219.81599	15778.45
224.09553	17735.25
228.37195	19809.35
232.64527	22187.75
236.91549	24658.75
241.18261	27222.95
245.44663	29533.65
249.70755	31729.55
253.96539	33635.65
258.22014	35158.95
262.4718	36382.65
266.72039	37176.75
270.96589	37576.85
275.20832	37625.75
279.44768	37403.55
283.68397	37042.25
287.91719	36759.25
292.14735	36505.15
296.37445	36351.25
300.59849	36318.95
304.81948	36401.25
309.03742	36416.15
313.25231	36277.05
317.46415	35755.85
321.67296	34937.25
325.87872	34235.75
330.08145	33855.85
334.28114	33755.05
338.47781	33911.05
342.67145	34254.85
346.86207	34592.65
351.04966	35154.65
355.23424	35759.55
359.4158	36301.45
363.59435	36742.15
367.76989	37041.75
371.94243	37201.45
376.11196	37166.05
380.27849	37155.95
384.44203	37117.75
388.60257	37331.65
392.76012	37734.75
396.91468	38380.95
401.06626	39153.25
405.21485	39640.15
409.36047	39500.35
413.50311	38983.85
417.64277	38873.75
421.77947	39126.15
425.9132	39358.75
430.04396	39535.95
434.17176	39622.45
438.2966	39668.55
442.41849	39791.25
446.53742	40329.95
450.6534	41071.65
454.76644	41596.25
458.87653	41834.85
462.98368	41848.65
467.08789	41667.65
471.18916	41226.95
475.2875	40750.05
479.38291	40615.85
483.4754	40636.15
487.56496	40600.05
491.6516	40231.65
495.73531	39810.15
499.81612	39377.15
503.89401	39385.85
507.96899	39601.55
512.04106	39615.25
516.11023	39356.95
520.1765	38771.55
524.23987	38248.05
528.30034	37688.95
532.35792	37255.55
536.41261	36827.75
540.46441	36505.45
544.51333	36535.95
548.55936	36934.55
552.60252	37669.15
556.64279	38513.95
560.6802	39076.25
564.71473	39686.05
568.7464	40621.85
572.7752	42184.85
576.80114	44222.05
580.82422	46375.05
584.84444	48453.45
588.86181	50882.05
592.87633	53173.75
596.888	52867.85
600.89682	49507.45
604.9028	47360.95
608.90594	48491.95
612.90624	50426.75
616.90371	47480.25
620.89834	41290.85
624.89015	38585.45
628.87913	38532.95
632.86528	39112.75
636.84862	39212.85
640.82913	38346.85
644.80683	37211.65
648.78172	36465.85
652.75379	36369.65
656.72306	36668.55
660.68952	37122.65
664.65319	37027.55
668.61405	36578.35
672.57211	36437.95
676.52738	36567.45
680.47986	36474.15
684.42955	36110.55
688.37646	35961.55
692.32058	36172.15
696.26192	36732.35
700.20048	37214.65
704.13626	37554.35
708.06928	37924.75
711.99952	37924.25
715.927	37909.15
719.85171	37809.05
723.77365	37401.15
727.69284	36661.15
731.60928	36042.15
735.52295	35717.95
739.43388	35682.25
743.34206	35751.55
747.24749	36072.55
751.15017	36518.05
755.05012	37242.95
758.94733	38328.15
762.8418	39996.15
766.73354	42392.75
770.62254	44583.65
774.50882	44650.05
778.39237	42757.35
782.27321	40286.05
786.15132	38309.65
790.02671	37010.55
793.89938	36182.75
797.76935	35864.75
801.6366	35656.75
805.50115	35525.15
809.36299	35354.25
813.22213	35240.65
817.07857	35087.55
820.93231	35039.55
824.78336	34841.05
828.63172	34670.75
832.47738	34493.65
836.32036	34423.85
840.16066	34451.55
843.99827	34429.05
847.8332	34466.45
851.66546	34522.85
855.49504	34592.85
859.32195	34692.15
863.1462	34555.65
866.96777	34533.45
870.78668	34523.65
874.60293	34504.05
878.41652	34471.55
882.22745	34594.65
886.03573	34620.85
889.84136	34618.65
893.64433	34585.45
897.44466	34546.65
901.24235	34557.85
905.0374	34570.35
908.8298	34506.85
912.61957	34647.45
916.40671	34971.05
920.19121	35558.85
923.97308	36179.85
927.75233	36240.25
931.52895	35761.55
935.30295	34975.25
939.07433	34068.75
942.84309	33507.05
946.60924	33211.55
950.37278	33040.75
954.13371	33018.55
957.89203	32944.85
961.64774	32999.35
965.40086	32971.85
969.15137	32920.45
972.89929	32784.15
976.64461	32574.05
980.38733	32486.65
984.12747	32375.95
987.86502	32449.25
991.59999	32589.15
995.33237	32757.15
999.06217	33126.05
1002.78939	33537.65
1006.51404	34189.65
1010.23611	34843.65
1013.95561	35321.65
1017.67255	35323.25
1021.38692	34965.15
1025.09872	34473.25
1028.80796	33951.05
1032.51465	33783.55
1036.21877	33801.25
1039.92035	33946.65
1043.61937	34174.85
1047.31584	34248.65
1051.00976	34485.25
1054.70114	34689.45
1058.38998	34957.65
1062.07627	35379.05
1065.76003	35929.55
1069.44126	36528.55
1073.11995	37335.05
1076.79611	37991.25
1080.46974	38247.35
1084.14085	38387.45
1087.80943	38824.15
1091.47549	39358.35
1095.13903	39660.05
1098.80005	39221.75
1102.45857	38114.65
1106.11456	37026.95
1109.76805	36258.25
1113.41903	35947.75
1117.06751	35932.35
1120.71348	36215.25
1124.35696	36550.25
1127.99793	36984.15
1131.63641	37323.05
1135.2724	37339.25
1138.90589	37362.45
1142.5369	37477.45
1146.16542	37822.25
1149.79145	38216.05
1153.415	38655.35
1157.03607	39324.55
1160.65467	40427.75
1164.27079	42198.25
1167.88443	44373.95
1171.49561	46459.45
1175.10432	48764.15
1178.71056	51726.35
1182.31434	54509.35
1185.91565	56074.45
1189.51451	56168.55
1193.11091	55353.25
1196.70485	53831.15
1200.29634	51956.45
1203.88538	50852.35
1207.47197	50548.65
1211.05612	50559.85
1214.63782	50010.65
1218.21708	48455.75
1221.79391	46541.05
1225.36829	44948.55
1228.94024	44042.15
1232.50976	43504.25
1236.07685	43120.35
1239.6415	42825.55
1243.20374	42811.85
1246.76355	43007.65
1250.32093	43557.25
1253.8759	44413.05
1257.42845	45598.95
1260.97859	47041.05
1264.52631	48538.75
1268.07163	50001.15
1271.61453	51508.85
1275.15503	53106.05
1278.69312	54902.85
1282.22882	56975.15
1285.76211	59356.85
1289.29301	61902.45
1292.82151	64760.35
1296.34761	68030.65
1299.87133	71714.35
1303.39266	75259.55
1306.9116	77993.75
1310.42815	79530.95
1313.94233	79784.95
1317.45412	78941.15
1320.96354	78078.75
1324.47058	77928.75
1327.97525	78202.25
1331.47754	78491.95
1334.97747	78137.05
1338.47502	77302.25
1341.97022	76381.55
1345.46305	75462.05
1348.95352	74498.95
1352.44163	73749.05
1355.92738	73750.35
1359.41078	75146.65
1362.89183	76854.65
1366.37053	76351.65
1369.84688	72177.75
1373.32088	65529.65
1376.79254	60261.15
1380.26186	58205.45
1383.72883	58105.25
1387.19347	58032.25
1390.65578	57378.05
1394.11575	56918.65
1397.57339	57204.75
1401.0287	58307.65
1404.48168	59107.55
1407.93234	58799.35
1411.38068	57039.85
1414.82669	54552.25
1418.27039	51815.85
1421.71177	49530.75
1425.15083	47883.25
1428.58758	47294.25
1432.02203	47836.25
1435.45416	49234.15
1438.88399	50714.05
1442.31151	51842.75
1445.73673	52512.25
1449.15965	53014.65
1452.58027	53362.05
1455.9986	53501.95
1459.41463	53943.65
1462.82837	54771.85
1466.23982	55768.65
1469.64898	56613.35
1473.05586	57032.35
1476.46045	56977.85
1479.86276	56673.15
1483.26279	56326.65
1486.66054	56212.85
1490.05602	56655.15
1493.44922	57539.15
1496.84016	58814.85
1500.22882	60188.45
1503.61521	61651.55
1506.99934	63160.25
1510.38121	64395.15
1513.76081	64710.55
1517.13816	64297.25
1520.51324	63805.65
1523.88607	63543.75
1527.25665	63573.85
1530.62498	63412.65
1533.99105	62553.75
1537.35488	60988.35
1540.71647	58896.75
1544.07581	56510.05
1547.4329	54388.55
1550.78776	52679.25
1554.14038	51544.85
1557.49077	50986.65
1560.83892	50758.65
1564.18484	50674.75
1567.52853	50756.55
1570.86999	51155.65
1574.20922	52189.35
1577.54624	53209.35
1580.88103	53742.15
1584.2136	54505.05
1587.54395	56442.35
1590.87208	59350.55
1594.19801	62640.25
1597.52172	65249.25
1600.84321	65030.25
1604.16251	61185.15
1607.47959	55930.75
1610.79447	50903.95
1614.10715	46630.45
1617.41763	43266.55
1620.7259	40994.45
1624.03199	39888.35
1627.33587	39956.65
1630.63757	41237.45
1633.93707	44027.05
1637.23439	48903.15
1640.52951	56292.95
1643.82246	65494.25
1647.11321	73244.75
1650.40179	75132.35
1653.68819	69519.15
1656.97241	59647.85
1660.25446	50068.25
1663.53433	42933.05
1666.81203	38267.05
1670.08756	35403.55
1673.36092	33610.35
1676.63211	32509.65
1679.90115	31735.05
1683.16801	31141.05
1686.43272	30691.25
1689.69527	30330.75
1692.95567	30098.85
1696.2139	29909.35
1699.46999	29775.15
1702.72392	29640.85
1705.97571	29503.95
1709.22535	29387.15
1712.47284	29324.35
1715.71819	29298.35
1718.96139	29174.55
1722.20246	29053.15
1725.44139	28934.75
1728.67818	28723.15
1731.91284	28521.35
1735.14537	28382.55
1738.37576	28210.35
1741.60403	28099.55
1744.83017	27992.65
1748.05418	27895.15
1751.27607	27841.15
1754.49584	27708.25
1757.71349	27663.15
1760.92903	27645.05
1764.14244	27597.85
1767.35375	27583.35
1770.56294	27535.75
1773.77002	27445.75
1776.97499	27350.05
1780.17785	27310.05
1783.37861	27283.85
1786.57727	27197.75
1789.77382	27155.85
1792.96828	27102.95
1796.16064	27050.55
1799.3509	26949.65
1802.53907	26898.35
1805.72514	26782.65
1808.90913	26714.15
1812.09102	26653.55
1815.27083	26579.05
1818.44856	26566.25
1821.6242	26455.05
1824.79776	26429.15
1827.96924	26427.85
1831.13864	26441.55
1834.30597	26407.95
1837.47122	26372.85
1840.6344	26390.05
1843.7955	26411.55
1846.95454	26389.65
1850.11151	26436.05
1853.26642	26399.05
1856.41926	26417.75
1859.57004	26414.25
1862.71876	26336.15
1865.86542	26270.85
1869.01003	26238.45
1872.15258	26147.45
1875.29308	26116.85
1878.43152	26041.15
1881.56792	26028.35
1884.70227	25985.75
1887.83457	25927.15
1890.96482	25839.25
1894.09304	25815.55
1897.21921	25762.85
1900.34335	25748.25
1903.46544	25670.35
1906.58551	25644.85
1909.70353	25524.65
1912.81953	25450.85
1915.93349	25453.35
1919.04543	25373.15
1922.15534	25352.25
1925.26322	25209.45
1928.36908	25141.95
1931.47292	25044.95
1934.57473	24979.15
1937.67453	24891.35
1940.77232	24826.85
1943.86808	24731.55
1946.96184	24678.65
1950.05358	24595.25
1953.14331	24528.95
1956.23103	24444.65
1959.31675	24349.85
1962.40046	24302.35
1965.48217	24208.75
1968.56188	24117.05
1971.63959	24046.15
1974.7153	23903.05
1977.78901	23824.95
1980.86073	23726.65
1983.93046	23644.55
1986.99819	23600.25
1990.06394	23498.25
1993.1277	23436.95
1996.18947	23394.45
1999.24925	23249.25
2002.30706	23156.45
2005.36288	23070.05
2008.41672	23049.55
2011.46859	23018.25
2014.51848	22928.65
2017.56639	22819.05
2020.61233	22774.75
2023.6563	22701.35
2026.6983	22605.65
2029.73833	22558.45
2032.7764	22492.45
2035.8125	22435.45
2038.84664	22342.15
2041.87881	22330.85
2044.90903	22240.05
2047.93729	22226.65
2050.96359	22183.65
2053.98794	22165.05
2057.01034	22125.25
2060.03078	22137.45
2063.04927	22105.45
2066.06582	22113.05
2069.08042	22084.85
2072.09307	22043.45
2075.10378	22020.05
2078.11255	22006.25
2081.11938	22012.85
2084.12426	21968.15
2087.12722	21961.05
2090.12824	21960.05
2093.12732	21933.65
2096.12447	21949.55
2099.11969	21966.55
2102.11299	21938.75
2105.10435	21935.55
2108.09379	21885.45
2111.08131	21894.95
2114.0669	21889.45
2117.05057	21901.55
2120.03233	21891.85
2123.01216	21943.65
2125.99008	21960.95
2128.96609	21966.85
2131.94018	21950.25
2134.91236	21949.45
2137.88263	21967.25
2140.851	21923.15
2143.81746	21949.95
2146.78201	21929.15
2149.74466	21862.45
2152.7054	21842.45
2155.66425	21805.95
2158.6212	21822.75
2161.57625	21787.75
2164.52941	21777.85
2167.48067	21766.95
2170.43004	21803.15
2173.37752	21786.55
2176.32311	21697.25
2179.26681	21694.45
2182.20863	21684.45
2185.14856	21707.65
2188.08661	21748.75
2191.02278	21752.35
2193.95707	21651.95
2196.88948	21602.55
2199.82001	21569.65
2202.74867	21529.85
2205.67545	21514.85
2208.60037	21472.65
2211.52341	21431.55
2214.44458	21403.75
2217.36388	21367.65
2220.28132	21282.15
2223.1969	21261.05
2226.11061	21203.55
2229.02246	21180.95
2231.93245	21187.95
2234.84058	21155.45
2237.74686	21112.75
2240.65128	21154.55
2243.55385	21094.85
2246.45456	21025.65
2249.35343	20958.35
2252.25044	20890.45
2255.14561	20814.45
2258.03893	20775.85
2260.93041	20680.05
2263.82004	20669.85
2266.70783	20586.15
2269.59378	20503.15
2272.4779	20457.45
2275.36017	20377.05
2278.24061	20379.75
2281.11922	20322.75
2283.996	20298.15
2286.87094	20253.75
2289.74405	20241.05
2292.61534	20191.35
2295.4848	20134.65
2298.35243	20108.65
2301.21824	20078.95
2304.08223	20074.45
2306.94439	20041.45
2309.80474	20028.55
2312.66327	20036.35
2315.51999	19995.75
2318.37489	19908.55
2321.22797	19928.45
2324.07925	19865.95
2326.92871	19866.75
2329.77637	19824.65
2332.62222	19737.25
2335.46626	19738.05
2338.3085	19748.25
2341.14893	19733.25
2343.98756	19729.85
2346.8244	19709.35
2349.65943	19683.55
2352.49267	19656.05
2355.32411	19719.35
2358.15376	19706.25
2360.98161	19639.95
2363.80768	19642.65
2366.63195	19665.45
2369.45444	19624.05
2372.27514	19633.45
2375.09405	19581.95
2377.91118	19534.35
2380.72652	19476.65
2383.54009	19404.15
2386.35187	19347.55
2389.16188	19314.45
2391.97011	19231.45
2394.77657	19232.35
2397.58125	19171.95
2400.38416	19168.75
2403.18529	19138.15
2405.98466	19123.65
2408.78226	19073.55
2411.57809	19021.75
2414.37216	19029.35
2417.16446	19052.75
2419.955	18983.45
2422.74378	18984.15
2425.5308	18922.15
2428.31606	18952.05
2431.09956	18908.55
2433.88131	18907.25
2436.6613	18901.65
2439.43954	18894.15
2442.21603	18851.85
2444.99077	18846.85
2447.76377	18825.65
2450.53501	18803.05
2453.30451	18790.25
2456.07226	18740.55
2458.83827	18754.65
2461.60254	18738.05
2464.36507	18707.85
2467.12586	18715.25
2469.88492	18654.25
2472.64224	18685.25
2475.39782	18712.65
2478.15167	18718.55
2480.90379	18653.25
2483.65417	18665.05
2486.40283	18662.45
2489.14976	18683.95
2491.89497	18632.95
2494.63845	18659.75
2497.3802	18615.95
2500.12024	18631.85
2502.85855	18592.55
2505.59514	18555.35
2508.33002	18526.55
2511.06318	18477.65
2513.79462	18480.75
2516.52435	18450.15
2519.25237	18442.35
2521.97867	18415.15
2524.70327	18406.65
2527.42616	18340.35
2530.14734	18381.95
2532.86681	18361.25
2535.58458	18324.25
2538.30065	18284.95
2541.01501	18316.25
2543.72768	18312.05
2546.43864	18240.75
2549.14791	18214.45
2551.85548	18209.75
2554.56136	18182.85
2557.26554	18131.85
2559.96803	18071.55
2562.66883	18130.85
2565.36794	18078.95
2568.06536	18047.95
2570.7611	18050.05
2573.45514	17986.65
2576.14751	18006.25
2578.83819	17925.75
2581.52719	17930.55
2584.21451	17862.25
2586.90015	17893.45
2589.58411	17876.95
2592.2664	17827.65
2594.94701	17790.45
2597.62594	17763.95
2600.30321	17769.55
2602.9788	17762.45
2605.65273	17759.25
2608.32498	17759.35
2610.99557	17750.35
2613.66449	17751.15
2616.33175	17715.45
2618.99734	17716.15
2621.66128	17664.45
2624.32355	17643.45
2626.98416	17608.15
2629.64311	17561.65
2632.30041	17578.15
2634.95605	17569.35
2637.61004	17529.25
2640.26238	17541.95
2642.91306	17531.55
2645.56209	17500.35
2648.20948	17499.65
2650.85521	17553.95
2653.4993	17547.75
2656.14175	17515.45
2658.78255	17530.35
2661.42171	17546.45
2664.05923	17558.45
2666.6951	17539.45
2669.32934	17560.45
2671.96194	17565.15
2674.59291	17536.15
2677.22224	17579.55
2679.84993	17557.95
2682.476	17540.35
2685.10043	17527.65
2687.72324	17484.55
2690.34441	17477.45
2692.96396	17483.15
2695.58188	17501.05
2698.19818	17449.35
2700.81285	17429.45
2703.4259	17450.15
2706.03733	17511.95
2708.64714	17494.95
2711.25533	17479.55
2713.86191	17464.65
2716.46687	17482.95
2719.07021	17451.55
2721.67194	17499.65
2724.27206	17508.45
2726.87057	17541.35
2729.46747	17499.05
2732.06276	17502.35
2734.65644	17522.65
2737.24852	17529.75
2739.83899	17470.95
2742.42786	17488.85
2745.01513	17431.25
2747.60079	17426.95
2750.18486	17371.35
2752.76733	17368.25
2755.3482	17321.45
2757.92747	17320.95
2760.50515	17314.45
2763.08123	17312.15
2765.65573	17287.15
2768.22863	17282.15
2770.79994	17253.95
2773.36967	17286.35
2775.9378	17307.35
2778.50435	17283.75
2781.06932	17252.85
2783.6327	17226.55
2786.1945	17268.75
2788.75471	17205.25
2791.31335	17182.35
2793.87041	17154.25
2796.42589	17104.15
2798.97979	17066.95
2801.53212	17063.35
2804.08288	16998.95
2806.63206	16974.25
2809.17967	16934.95
2811.72571	16946.25
2814.27018	16883.05
2816.81308	16815.85
2819.35442	16799.85
2821.89419	16755.15
2824.43239	16777.75
2826.96904	16757.55
2829.50412	16779.45
2832.03763	16730.65
2834.56959	16642.75
2837.1	16661.05
2839.62884	16654.95
2842.15613	16637.35
2844.68186	16669.35
2847.20604	16645.45
2849.72867	16679.75
2852.24974	16679.15
2854.76927	16663.65
2857.28724	16649.65
2859.80367	16619.65
2862.31855	16587.55
2864.83189	16586.35
2867.34368	16529.25
2869.85393	16489.35
2872.36264	16454.05
2874.8698	16436.05
2877.37543	16412.95
2879.87952	16434.45
2882.38207	16411.25
2884.88308	16398.95
2887.38256	16395.35
2889.88051	16358.25
2892.37692	16406.05
2894.8718	16390.85
2897.36515	16398.25
2899.85698	16390.65
2902.34727	16436.15
2904.83604	16429.35
2907.32328	16426.75
2909.809	16417.35
2912.29319	16416.65
2914.77587	16422.95
2917.25702	16380.05
2919.73665	16418.85
2922.21476	16377.95
2924.69136	16333.65
2927.16644	16381.75
2929.64	16343.25
2932.11205	16337.45
2934.58258	16286.55
2937.05161	16295.55
2939.51912	16292.25
2941.98513	16232.15
2944.44962	16216.95
2946.91261	16152.05
2949.37409	16148.85
2951.83407	16131.05
2954.29254	16083.75
2956.74951	16068.25
2959.20498	16072.25
2961.65895	16017.55
2964.11142	16040.85
2966.56239	15976.65
2969.01186	15994.35
2971.45984	15962.65
2973.90632	15971.95
2976.35131	15922.95
2978.7948	15857.85
2981.23681	15808.15
2983.67732	15806.65
2986.11635	15755.35
2988.55388	15736.65
2990.98993	15670.05
2993.4245	15578.75
2995.85758	15566.65
2998.28917	15485.65
3000.71928	15444.45
3003.14791	15385.45
3005.57506	15418.85
3008.00073	15350.45
3010.42493	15341.65
3012.84764	15298.45
3015.26888	15284.15
3017.68865	15216.95
3020.10694	15194.65
3022.52376	15166.35
3024.9391	15109.85
3027.35298	15121.15
3029.76539	15133.85
3032.17632	15045.45
3034.5858	15064.45
3036.9938	15011.55
3039.40034	15015.85
3041.80542	15005.25
3044.20903	14949.45
3046.61118	14942.05
3049.01187	14902.75
3051.4111	14942.55
3053.80888	14839.25
3056.20519	14832.65
3058.60005	14782.45
3060.99345	14752.85
3063.3854	14672.95
3065.7759	14605.85
3068.16494	14574.05
3070.55254	14509.15
3072.93868	14452.55
3075.32338	14443.45
3077.70662	14404.85
3080.08842	14313.55
3082.46878	14334.95
3084.84769	14287.95
3087.22515	14288.35
3089.60118	14273.55
3091.97576	14283.85
3094.3489	14250.75
3096.72061	14262.95
3099.09087	14238.55
3101.4597	14222.55
3103.82709	14223.65
3106.19305	14197.25
3108.55757	14151.55
3110.92066	14112.25
3113.28232	14107.85
3115.64255	14029.55
3118.00134	14001.95
3120.35871	14008.15
3122.71466	13936.25
3125.06917	13904.85
3127.42226	13848.35
3129.77393	13847.65
3132.12417	13781.45
3134.47299	13801.15
3136.82039	13763.35
3139.16636	13786.05
3141.51092	13765.05
3143.85406	13754.25
3146.19579	13750.65
3148.53609	13694.95
3150.87499	13732.95
3153.21246	13709.55
3155.54853	13708.75
3157.88318	13698.05
3160.21642	13734.85
3162.54826	13689.65
3164.87868	13681.85
3167.2077	13639.65
3169.5353	13671.05
3171.86151	13635.65
3174.18631	13632.75
3176.5097	13621.65
3178.83169	13613.45
3181.15228	13573.75
3183.47147	13517.65
3185.78926	13523.15
3188.10565	13462.55
3190.42065	13439.05
3192.73424	13446.65
3195.04645	13423.15
3197.35725	13411.45
3199.66667	13385.15
3201.97469	13378.65
3204.28132	13348.45
3206.58656	13338.05
3208.8904	13323.75
3211.19287	13320.85
3213.49394	13312.35
3215.79363	13314.05
3218.09193	13316.05
3220.38884	13312.45
3222.68438	13321.75
3224.97853	13282.05
3227.2713	13254.05
3229.56269	13254.05
3231.8527	13237.45
3234.14133	13207.85
3236.42858	13166.65
3238.71446	13189.65
3240.99896	13146.55
3243.28209	13139.75
3245.56384	13100.05
3247.84423	13094.95
3250.12324	13071.85
3252.40088	13030.65
3254.67715	12991.95
3256.95205	12985.05
3259.22558	12982.35
3261.49775	12912.35
3263.76855	12926.55
3266.03799	12888.75
3268.30606	12847.25
3270.57277	12830.25
3272.83812	12782.05
3275.10211	12774.45
3277.36474	12760.95
3279.62601	12729.85
3281.88593	12707.05
3284.14448	12719.45
3286.40168	12739.95
3288.65753	12704.05
3290.91202	12706.25
3293.16516	12678.25
3295.41695	12657.95
3297.66738	12590.55
3299.91647	12480.85
3302.16421	12411.75
3304.4106	12314.15
3306.65564	12223.45
3308.89933	12112.15
3311.14169	12044.15
3313.38269	11911.75
3315.62236	11842.85
3317.86068	11705.45
3320.09766	11634.15
3322.3333	11540.85
3324.5676	11487.15
3326.80056	11291.05
3329.03219	11210.25
3331.26248	3.05
3333.49143	-1.15
3335.71905	-1.15
