Data from AgNPs_FTO_APTES_UA_5uM_CRN_500uM_R6G_10uM_NaF_0.1M_Addition_RamanShift__5__16-46-31-815.txt Node

Date: Mon Feb 07 16:46:31 GMT 2022
User: TCL
Spectrometer: QEP01345
Trigger mode: 4
Integration Time (sec): 7.000000E0
Scans to average: 10
Electric dark correction enabled: true
Nonlinearity correction enabled: false
Boxcar width: 0
XAxis mode: Raman Shifts
Number of Pixels in Spectrum: 1044
>>>>>Begin Spectral Data<<<<<
46.04893	-0.95
50.45542	-0.95
54.85868	0.15
59.25871	-0.35
63.6555	70.95
68.04907	75.35
72.43941	78.55
76.82654	78.15
81.21044	82.05
85.59113	82.45
89.96862	88.65
94.34289	91.65
98.71396	89.35
103.08183	96.85
107.4465	100.65
111.80798	102.95
116.16626	103.85
120.52136	111.85
124.87327	113.45
129.222	122.25
133.56755	127.45
137.90993	141.15
142.24913	159.15
146.58517	181.55
150.91804	211.05
155.24774	262.85
159.57429	322.95
163.89768	419.25
168.21792	565.35
172.53501	767.25
176.84895	1075.85
181.15975	1524.45
185.46741	2141.05
189.77193	2960.65
194.07331	3945.85
198.37157	5083.35
202.6667	6264.65
206.9587	7443.15
211.24758	8607.65
215.53334	9774.95
219.81599	11024.35
224.09553	12388.25
228.37195	13876.65
232.64527	15488.65
236.91549	17162.95
241.18261	18856.05
245.44663	20456.65
249.70755	21847.75
253.96539	23156.85
258.22014	24188.25
262.4718	25035.55
266.72039	25679.65
270.96589	26053.25
275.20832	26164.75
279.44768	26059.85
283.68397	25868.05
287.91719	25749.45
292.14735	25706.85
296.37445	25786.65
300.59849	25944.65
304.81948	26106.75
309.03742	26017.75
313.25231	25747.95
317.46415	25164.25
321.67296	24450.25
325.87872	23873.65
330.08145	23569.55
334.28114	23485.65
338.47781	23559.75
342.67145	23743.25
346.86207	24052.75
351.04966	24457.25
355.23424	24883.25
359.4158	25178.25
363.59435	25460.85
367.76989	25600.05
371.94243	25774.55
376.11196	25879.25
380.27849	25975.25
384.44203	26127.15
388.60257	26386.65
392.76012	26685.45
396.91468	27024.85
401.06626	27384.65
405.21485	27636.95
409.36047	27476.75
413.50311	27134.75
417.64277	26932.55
421.77947	26953.25
425.9132	27059.15
430.04396	27274.95
434.17176	27469.95
438.2966	27678.85
442.41849	28206.15
446.53742	29061.95
450.6534	30010.95
454.76644	30655.25
458.87653	30797.25
462.98368	30652.75
467.08789	30342.55
471.18916	29958.15
475.2875	29754.05
479.38291	29793.35
483.4754	29753.75
487.56496	29330.65
491.6516	28596.65
495.73531	27793.25
499.81612	27305.75
503.89401	27261.15
507.96899	27326.35
512.04106	27235.15
516.11023	27030.75
520.1765	26678.25
524.23987	26342.85
528.30034	26114.45
532.35792	25836.05
536.41261	25558.95
540.46441	25304.95
544.51333	25348.45
548.55936	25709.75
552.60252	26407.45
556.64279	27263.65
560.6802	27991.85
564.71473	28500.35
568.7464	29188.25
572.7752	30236.55
576.80114	31276.85
580.82422	32118.35
584.84444	33095.35
588.86181	34438.15
592.87633	35488.85
596.888	34982.85
600.89682	33177.55
604.9028	32288.05
608.90594	33448.25
612.90624	34993.85
616.90371	32770.55
620.89834	27884.95
624.89015	25680.75
628.87913	25519.55
632.86528	25684.15
636.84862	25676.45
640.82913	25274.35
644.80683	24705.95
648.78172	24315.75
652.75379	24281.25
656.72306	24433.15
660.68952	24707.15
664.65319	24480.95
668.61405	24068.45
672.57211	23982.05
676.52738	24045.75
680.47986	24077.25
684.42955	23968.15
688.37646	23856.85
692.32058	23980.85
696.26192	24216.95
700.20048	24575.75
704.13626	24788.15
708.06928	24878.75
711.99952	24833.35
715.927	24848.45
719.85171	24900.05
723.77365	24786.55
727.69284	24418.25
731.60928	24134.25
735.52295	24036.25
739.43388	24017.55
743.34206	24056.25
747.24749	24242.85
751.15017	24514.85
755.05012	24977.55
758.94733	25770.55
762.8418	27093.75
766.73354	28936.05
770.62254	30570.65
774.50882	30754.35
778.39237	29267.05
782.27321	27152.85
786.15132	25458.05
790.02671	24420.65
793.89938	23935.05
797.76935	23777.55
801.6366	23669.15
805.50115	23636.35
809.36299	23512.05
813.22213	23355.35
817.07857	23308.65
820.93231	23221.05
824.78336	23020.35
828.63172	22838.45
832.47738	22750.35
836.32036	22696.25
840.16066	22713.85
843.99827	22754.65
847.8332	22701.75
851.66546	22690.25
855.49504	22655.45
859.32195	22665.95
863.1462	22574.35
866.96777	22479.85
870.78668	22439.05
874.60293	22486.65
878.41652	22432.35
882.22745	22535.35
886.03573	22564.95
889.84136	22543.75
893.64433	22466.85
897.44466	22394.75
901.24235	22304.75
905.0374	22238.75
908.8298	22193.75
912.61957	22250.65
916.40671	22526.75
920.19121	22909.65
923.97308	23163.05
927.75233	23080.65
931.52895	22757.05
935.30295	22323.85
939.07433	21884.05
942.84309	21547.35
946.60924	21352.35
950.37278	21263.55
954.13371	21271.05
957.89203	21267.95
961.64774	21306.45
965.40086	21256.95
969.15137	21182.65
972.89929	20999.95
976.64461	20831.55
980.38733	20746.75
984.12747	20744.75
987.86502	20830.35
991.59999	20966.35
995.33237	21178.45
999.06217	21541.55
1002.78939	22026.75
1006.51404	22397.15
1010.23611	22799.85
1013.95561	23058.15
1017.67255	23197.65
1021.38692	23014.15
1025.09872	22530.95
1028.80796	22237.25
1032.51465	22286.75
1036.21877	22515.05
1039.92035	22606.95
1043.61937	22623.05
1047.31584	22533.45
1051.00976	22454.05
1054.70114	22459.55
1058.38998	22585.05
1062.07627	22859.65
1065.76003	23110.95
1069.44126	23387.35
1073.11995	23668.05
1076.79611	23944.25
1080.46974	24071.05
1084.14085	24186.25
1087.80943	24440.55
1091.47549	24699.85
1095.13903	24811.35
1098.80005	24577.05
1102.45857	23974.25
1106.11456	23497.05
1109.76805	23255.65
1113.41903	23290.75
1117.06751	23504.45
1120.71348	23828.95
1124.35696	24116.75
1127.99793	24525.35
1131.63641	24758.75
1135.2724	24651.75
1138.90589	24511.65
1142.5369	24634.55
1146.16542	24936.65
1149.79145	25375.85
1153.415	25841.35
1157.03607	26428.55
1160.65467	27473.15
1164.27079	29084.25
1167.88443	30892.75
1171.49561	32844.25
1175.10432	35114.55
1178.71056	38062.35
1182.31434	40746.25
1185.91565	41951.15
1189.51451	41506.35
1193.11091	40258.55
1196.70485	38786.25
1200.29634	37332.05
1203.88538	36463.15
1207.47197	36101.85
1211.05612	35787.55
1214.63782	35080.05
1218.21708	33863.05
1221.79391	32631.35
1225.36829	31771.65
1228.94024	31104.25
1232.50976	30395.15
1236.07685	29807.25
1239.6415	29411.35
1243.20374	29384.15
1246.76355	29651.05
1250.32093	30061.05
1253.8759	30697.05
1257.42845	31513.15
1260.97859	32428.85
1264.52631	33355.45
1268.07163	34326.55
1271.61453	35360.35
1275.15503	36589.95
1278.69312	37896.45
1282.22882	39371.15
1285.76211	41284.85
1289.29301	43569.55
1292.82151	46524.05
1296.34761	49910.85
1299.87133	53702.65
1303.39266	57283.25
1306.9116	60179.85
1310.42815	62234.65
1313.94233	63154.45
1317.45412	62799.65
1320.96354	61784.15
1324.47058	60890.05
1327.97525	60148.55
1331.47754	59619.85
1334.97747	58998.45
1338.47502	58094.55
1341.97022	56869.05
1345.46305	55675.65
1348.95352	54557.45
1352.44163	54178.65
1355.92738	55002.45
1359.41078	56835.25
1362.89183	58285.75
1366.37053	57045.55
1369.84688	52471.65
1373.32088	46734.55
1376.79254	42991.05
1380.26186	42050.95
1383.72883	42678.55
1387.19347	43252.45
1390.65578	43400.55
1394.11575	43728.15
1397.57339	44520.75
1401.0287	45727.95
1404.48168	46418.75
1407.93234	46034.15
1411.38068	44568.45
1414.82669	42247.95
1418.27039	39650.25
1421.71177	37217.95
1425.15083	35238.15
1428.58758	34335.45
1432.02203	34583.55
1435.45416	35750.95
1438.88399	37280.15
1442.31151	38426.45
1445.73673	39169.05
1449.15965	39787.75
1452.58027	40184.15
1455.9986	40350.15
1459.41463	40578.95
1462.82837	41107.95
1466.23982	41635.65
1469.64898	42215.55
1473.05586	42476.75
1476.46045	42307.85
1479.86276	41752.35
1483.26279	40954.35
1486.66054	40362.85
1490.05602	40270.75
1493.44922	40469.55
1496.84016	40723.85
1500.22882	41347.85
1503.61521	42284.55
1506.99934	43586.85
1510.38121	44732.45
1513.76081	45083.45
1517.13816	44421.85
1520.51324	43357.25
1523.88607	42843.25
1527.25665	42885.45
1530.62498	43367.35
1533.99105	43410.85
1537.35488	42968.35
1540.71647	41943.75
1544.07581	40407.15
1547.4329	38856.45
1550.78776	37490.55
1554.14038	36488.35
1557.49077	35891.75
1560.83892	35532.85
1564.18484	35490.05
1567.52853	35700.65
1570.86999	36218.95
1574.20922	37295.65
1577.54624	38442.95
1580.88103	39189.05
1584.2136	40092.45
1587.54395	41677.75
1590.87208	43945.75
1594.19801	46706.35
1597.52172	49044.95
1600.84321	49426.75
1604.16251	46803.65
1607.47959	42267.65
1610.79447	37670.85
1614.10715	33697.05
1617.41763	30649.65
1620.7259	28653.25
1624.03199	27770.95
1627.33587	27816.35
1630.63757	29032.95
1633.93707	31400.95
1637.23439	35338.35
1640.52951	41106.25
1643.82246	47891.85
1647.11321	53284.45
1650.40179	54073.55
1653.68819	49389.25
1656.97241	41688.55
1660.25446	34362.05
1663.53433	28921.85
1666.81203	25424.35
1670.08756	23211.25
1673.36092	21864.15
1676.63211	21024.05
1679.90115	20426.35
1683.16801	19968.85
1686.43272	19591.85
1689.69527	19370.95
1692.95567	19182.25
1696.2139	18993.65
1699.46999	18867.65
1702.72392	18744.05
1705.97571	18674.65
1709.22535	18603.45
1712.47284	18536.55
1715.71819	18474.45
1718.96139	18454.45
1722.20246	18372.55
1725.44139	18258.45
1728.67818	18118.35
1731.91284	17962.25
1735.14537	17844.75
1738.37576	17746.95
1741.60403	17684.95
1744.83017	17595.05
1748.05418	17520.35
1751.27607	17480.45
1754.49584	17460.05
1757.71349	17459.85
1760.92903	17415.05
1764.14244	17383.95
1767.35375	17357.15
1770.56294	17321.15
1773.77002	17233.55
1776.97499	17198.15
1780.17785	17130.95
1783.37861	17098.15
1786.57727	17084.85
1789.77382	17055.05
1792.96828	17001.75
1796.16064	16945.35
1799.3509	16888.15
1802.53907	16855.65
1805.72514	16793.25
1808.90913	16732.45
1812.09102	16703.35
1815.27083	16623.85
1818.44856	16599.15
1821.6242	16559.45
1824.79776	16541.85
1827.96924	16512.95
1831.13864	16501.45
1834.30597	16517.45
1837.47122	16486.25
1840.6344	16472.55
1843.7955	16491.25
1846.95454	16461.25
1850.11151	16417.75
1853.26642	16383.65
1856.41926	16406.85
1859.57004	16378.45
1862.71876	16361.85
1865.86542	16314.25
1869.01003	16310.35
1872.15258	16251.95
1875.29308	16235.35
1878.43152	16218.35
1881.56792	16225.05
1884.70227	16209.05
1887.83457	16166.75
1890.96482	16093.05
1894.09304	16087.75
1897.21921	16089.75
1900.34335	16058.35
1903.46544	16021.15
1906.58551	15996.35
1909.70353	15981.05
1912.81953	15922.95
1915.93349	15925.35
1919.04543	15824.25
1922.15534	15812.65
1925.26322	15798.25
1928.36908	15715.45
1931.47292	15709.05
1934.57473	15665.25
1937.67453	15651.55
1940.77232	15539.55
1943.86808	15481.65
1946.96184	15461.35
1950.05358	15418.75
1953.14331	15355.05
1956.23103	15275.65
1959.31675	15215.95
1962.40046	15202.55
1965.48217	15139.55
1968.56188	15061.85
1971.63959	15024.25
1974.7153	14984.75
1977.78901	14946.65
1980.86073	14891.95
1983.93046	14850.25
1986.99819	14764.25
1990.06394	14749.95
1993.1277	14724.85
1996.18947	14631.65
1999.24925	14575.65
2002.30706	14551.65
2005.36288	14508.55
2008.41672	14452.95
2011.46859	14412.35
2014.51848	14363.85
2017.56639	14319.95
2020.61233	14303.55
2023.6563	14222.05
2026.6983	14181.45
2029.73833	14158.45
2032.7764	14133.05
2035.8125	14078.55
2038.84664	14058.25
2041.87881	14050.55
2044.90903	13996.25
2047.93729	13954.55
2050.96359	13933.35
2053.98794	13932.45
2057.01034	13920.65
2060.03078	13925.55
2063.04927	13916.15
2066.06582	13900.05
2069.08042	13879.95
2072.09307	13846.45
2075.10378	13850.85
2078.11255	13808.45
2081.11938	13814.65
2084.12426	13772.95
2087.12722	13796.75
2090.12824	13802.85
2093.12732	13793.55
2096.12447	13764.45
2099.11969	13762.45
2102.11299	13730.95
2105.10435	13722.05
2108.09379	13745.55
2111.08131	13730.85
2114.0669	13737.15
2117.05057	13740.35
2120.03233	13749.15
2123.01216	13750.75
2125.99008	13763.85
2128.96609	13748.75
2131.94018	13740.15
2134.91236	13752.25
2137.88263	13768.15
2140.851	13745.85
2143.81746	13745.25
2146.78201	13692.75
2149.74466	13727.25
2152.7054	13716.65
2155.66425	13673.65
2158.6212	13687.85
2161.57625	13663.45
2164.52941	13683.65
2167.48067	13638.35
2170.43004	13660.75
2173.37752	13644.85
2176.32311	13659.95
2179.26681	13660.65
2182.20863	13634.75
2185.14856	13618.35
2188.08661	13650.65
2191.02278	13670.25
2193.95707	13596.05
2196.88948	13558.35
2199.82001	13555.75
2202.74867	13524.95
2205.67545	13506.55
2208.60037	13479.85
2211.52341	13459.95
2214.44458	13418.65
2217.36388	13373.85
2220.28132	13355.35
2223.1969	13324.65
2226.11061	13333.25
2229.02246	13306.85
2231.93245	13278.75
2234.84058	13267.25
2237.74686	13245.95
2240.65128	13217.25
2243.55385	13172.75
2246.45456	13183.75
2249.35343	13118.75
2252.25044	13123.75
2255.14561	13070.05
2258.03893	13000.35
2260.93041	13011.95
2263.82004	12937.55
2266.70783	12909.75
2269.59378	12867.05
2272.4779	12832.25
2275.36017	12800.55
2278.24061	12770.15
2281.11922	12749.75
2283.996	12731.95
2286.87094	12717.85
2289.74405	12683.75
2292.61534	12665.45
2295.4848	12626.85
2298.35243	12629.65
2301.21824	12647.85
2304.08223	12645.55
2306.94439	12664.95
2309.80474	12655.05
2312.66327	12651.25
2315.51999	12601.95
2318.37489	12610.45
2321.22797	12564.05
2324.07925	12552.85
2326.92871	12541.55
2329.77637	12511.55
2332.62222	12484.85
2335.46626	12495.95
2338.3085	12478.45
2341.14893	12460.35
2343.98756	12472.55
2346.8244	12453.35
2349.65943	12447.95
2352.49267	12422.35
2355.32411	12434.65
2358.15376	12431.25
2360.98161	12424.45
2363.80768	12430.55
2366.63195	12440.55
2369.45444	12394.15
2372.27514	12383.55
2375.09405	12367.05
2377.91118	12314.95
2380.72652	12276.85
2383.54009	12261.45
2386.35187	12267.15
2389.16188	12214.65
2391.97011	12179.65
2394.77657	12156.05
2397.58125	12118.95
2400.38416	12117.65
2403.18529	12086.65
2405.98466	12072.95
2408.78226	12059.65
2411.57809	12071.15
2414.37216	12018.35
2417.16446	12021.05
2419.955	12026.35
2422.74378	11996.95
2425.5308	12008.15
2428.31606	11977.75
2431.09956	11974.95
2433.88131	11936.75
2436.6613	11961.55
2439.43954	11966.35
2442.21603	11947.15
2444.99077	11900.05
2447.76377	11926.05
2450.53501	11885.25
2453.30451	11897.75
2456.07226	11907.85
2458.83827	11876.85
2461.60254	11884.75
2464.36507	11876.15
2467.12586	11879.65
2469.88492	11875.05
2472.64224	11844.05
2475.39782	11863.45
2478.15167	11876.65
2480.90379	11867.05
2483.65417	11871.35
2486.40283	11883.15
2489.14976	11880.85
2491.89497	11855.15
2494.63845	11885.95
2497.3802	11889.55
2500.12024	11858.45
2502.85855	11849.45
2505.59514	11863.55
2508.33002	11847.05
2511.06318	11828.95
2513.79462	11796.15
2516.52435	11814.95
2519.25237	11811.65
2521.97867	11749.25
2524.70327	11769.45
2527.42616	11747.25
2530.14734	11756.95
2532.86681	11767.75
2535.58458	11744.25
2538.30065	11722.65
2541.01501	11737.25
2543.72768	11694.55
2546.43864	11699.55
2549.14791	11660.25
2551.85548	11672.25
2554.56136	11676.15
2557.26554	11645.95
2559.96803	11634.15
2562.66883	11597.25
2565.36794	11606.55
2568.06536	11592.55
2570.7611	11606.65
2573.45514	11569.55
2576.14751	11554.85
2578.83819	11549.05
2581.52719	11575.15
2584.21451	11576.65
2586.90015	11535.15
2589.58411	11545.45
2592.2664	11570.15
2594.94701	11517.35
2597.62594	11512.75
2600.30321	11503.45
2602.9788	11507.45
2605.65273	11530.45
2608.32498	11516.25
2610.99557	11545.15
2613.66449	11513.05
2616.33175	11516.95
2618.99734	11536.05
2621.66128	11501.65
2624.32355	11498.45
2626.98416	11500.65
2629.64311	11461.05
2632.30041	11493.85
2634.95605	11474.15
2637.61004	11459.75
2640.26238	11453.85
2642.91306	11415.35
2645.56209	11422.55
2648.20948	11451.85
2650.85521	11463.45
2653.4993	11476.95
2656.14175	11430.15
2658.78255	11501.95
2661.42171	11489.75
2664.05923	11476.55
2666.6951	11507.65
2669.32934	11488.65
2671.96194	11492.55
2674.59291	11467.05
2677.22224	11458.45
2679.84993	11475.05
2682.476	11431.85
2685.10043	11439.05
2687.72324	11444.75
2690.34441	11453.05
2692.96396	11420.55
2695.58188	11441.75
2698.19818	11439.65
2700.81285	11467.15
2703.4259	11447.45
2706.03733	11445.45
2708.64714	11435.65
2711.25533	11501.65
2713.86191	11474.45
2716.46687	11489.45
2719.07021	11510.35
2721.67194	11513.45
2724.27206	11502.75
2726.87057	11542.95
2729.46747	11550.05
2732.06276	11534.95
2734.65644	11515.15
2737.24852	11528.45
2739.83899	11511.95
2742.42786	11512.75
2745.01513	11519.35
2747.60079	11493.25
2750.18486	11492.45
2752.76733	11510.35
2755.3482	11479.45
2757.92747	11466.85
2760.50515	11458.15
2763.08123	11471.05
2765.65573	11461.85
2768.22863	11461.55
2770.79994	11442.25
2773.36967	11463.55
2775.9378	11477.75
2778.50435	11455.85
2781.06932	11466.85
2783.6327	11467.05
2786.1945	11464.15
2788.75471	11441.25
2791.31335	11469.35
2793.87041	11455.55
2796.42589	11404.25
2798.97979	11405.95
2801.53212	11384.55
2804.08288	11370.35
2806.63206	11330.15
2809.17967	11331.55
2811.72571	11310.75
2814.27018	11303.55
2816.81308	11266.85
2819.35442	11230.55
2821.89419	11199.75
2824.43239	11211.65
2826.96904	11206.45
2829.50412	11216.15
2832.03763	11203.75
2834.56959	11167.95
2837.1	11173.95
2839.62884	11202.95
2842.15613	11214.35
2844.68186	11270.75
2847.20604	11305.35
2849.72867	11325.15
2852.24974	11299.75
2854.76927	11292.75
2857.28724	11277.15
2859.80367	11262.65
2862.31855	11223.85
2864.83189	11218.35
2867.34368	11194.05
2869.85393	11198.75
2872.36264	11189.45
2874.8698	11204.45
2877.37543	11175.25
2879.87952	11183.65
2882.38207	11143.55
2884.88308	11151.55
2887.38256	11149.75
2889.88051	11147.95
2892.37692	11140.05
2894.8718	11172.75
2897.36515	11185.25
2899.85698	11189.85
2902.34727	11195.75
2904.83604	11212.85
2907.32328	11265.45
2909.809	11239.85
2912.29319	11224.85
2914.77587	11209.75
2917.25702	11209.25
2919.73665	11201.35
2922.21476	11229.95
2924.69136	11210.85
2927.16644	11223.25
2929.64	11224.45
2932.11205	11180.55
2934.58258	11160.35
2937.05161	11172.35
2939.51912	11153.55
2941.98513	11123.55
2944.44962	11098.85
2946.91261	11037.35
2949.37409	11084.45
2951.83407	11034.65
2954.29254	11012.45
2956.74951	11006.25
2959.20498	10985.75
2961.65895	10979.95
2964.11142	10934.65
2966.56239	10935.35
2969.01186	10932.75
2971.45984	10891.35
2973.90632	10888.85
2976.35131	10821.45
2978.7948	10809.85
2981.23681	10782.55
2983.67732	10770.25
2986.11635	10730.85
2988.55388	10705.75
2990.98993	10679.15
2993.4245	10618.85
2995.85758	10576.35
2998.28917	10564.25
3000.71928	10542.55
3003.14791	10533.05
3005.57506	10507.45
3008.00073	10473.25
3010.42493	10441.85
3012.84764	10432.15
3015.26888	10422.35
3017.68865	10367.65
3020.10694	10341.25
3022.52376	10312.75
3024.9391	10329.75
3027.35298	10287.65
3029.76539	10290.55
3032.17632	10309.15
3034.5858	10279.75
3036.9938	10288.15
3039.40034	10287.05
3041.80542	10266.35
3044.20903	10232.15
3046.61118	10249.35
3049.01187	10225.45
3051.4111	10199.35
3053.80888	10183.95
3056.20519	10168.45
3058.60005	10117.75
3060.99345	10103.85
3063.3854	10081.75
3065.7759	10035.45
3068.16494	9981.35
3070.55254	9942.65
3072.93868	9914.35
3075.32338	9889.65
3077.70662	9849.25
3080.08842	9830.55
3082.46878	9813.85
3084.84769	9801.55
3087.22515	9796.25
3089.60118	9795.65
3091.97576	9765.85
3094.3489	9788.45
3096.72061	9781.25
3099.09087	9779.25
3101.4597	9773.35
3103.82709	9763.15
3106.19305	9713.95
3108.55757	9699.55
3110.92066	9687.85
3113.28232	9681.65
3115.64255	9636.95
3118.00134	9629.65
3120.35871	9603.05
3122.71466	9598.65
3125.06917	9556.35
3127.42226	9525.55
3129.77393	9548.45
3132.12417	9519.95
3134.47299	9526.95
3136.82039	9501.55
3139.16636	9504.95
3141.51092	9493.35
3143.85406	9497.05
3146.19579	9494.25
3148.53609	9471.15
3150.87499	9470.45
3153.21246	9453.25
3155.54853	9512.25
3157.88318	9497.85
3160.21642	9502.45
3162.54826	9510.65
3164.87868	9499.85
3167.2077	9480.45
3169.5353	9496.45
3171.86151	9489.25
3174.18631	9481.55
3176.5097	9490.85
3178.83169	9445.45
3181.15228	9484.25
3183.47147	9451.35
3185.78926	9412.45
3188.10565	9412.25
3190.42065	9424.15
3192.73424	9397.95
3195.04645	9378.35
3197.35725	9345.85
3199.66667	9345.85
3201.97469	9351.05
3204.28132	9322.85
3206.58656	9348.55
3208.8904	9359.85
3211.19287	9340.95
3213.49394	9354.75
3215.79363	9372.75
3218.09193	9337.85
3220.38884	9354.25
3222.68438	9324.05
3224.97853	9335.85
3227.2713	9332.15
3229.56269	9301.95
3231.8527	9319.95
3234.14133	9309.45
3236.42858	9251.15
3238.71446	9270.45
3240.99896	9246.95
3243.28209	9231.15
3245.56384	9224.95
3247.84423	9204.65
3250.12324	9189.05
3252.40088	9164.65
3254.67715	9141.65
3256.95205	9133.75
3259.22558	9118.05
3261.49775	9073.25
3263.76855	9069.45
3266.03799	9059.85
3268.30606	9063.75
3270.57277	9027.35
3272.83812	8986.95
3275.10211	8985.35
3277.36474	8984.05
3279.62601	8995.15
3281.88593	8954.15
3284.14448	8993.15
3286.40168	8981.35
3288.65753	8972.45
3290.91202	8983.45
3293.16516	8964.85
3295.41695	8935.25
3297.66738	8885.45
3299.91647	8795.55
3302.16421	8759.25
3304.4106	8719.45
3306.65564	8643.15
3308.89933	8583.05
3311.14169	8514.35
3313.38269	8429.95
3315.62236	8383.55
3317.86068	8303.15
3320.09766	8224.35
3322.3333	8177.75
3324.5676	8113.55
3326.80056	8006.95
3329.03219	7949.65
3331.26248	2.75
3333.49143	-0.15
3335.71905	-1.15
