Data from AgNPs_FTO_APTES_UA_5uM_CRN_20uM_R6G_10uM_NaF_0.1M_Addition_RamanShift__3__13-06-26-760.txt Node

Date: Mon Feb 07 13:06:26 GMT 2022
User: TCL
Spectrometer: QEP01345
Trigger mode: 4
Integration Time (sec): 7.000000E0
Scans to average: 10
Electric dark correction enabled: true
Nonlinearity correction enabled: false
Boxcar width: 0
XAxis mode: Raman Shifts
Number of Pixels in Spectrum: 1044
>>>>>Begin Spectral Data<<<<<
46.04893	-0.95
50.45542	-1.75
54.85868	0.85
59.25871	-1.65
63.6555	88.55
68.04907	90.75
72.43941	99.15
76.82654	98.15
81.21044	102.35
85.59113	103.65
89.96862	114.15
94.34289	111.05
98.71396	118.65
103.08183	123.75
107.4465	123.45
111.80798	125.95
116.16626	130.55
120.52136	136.85
124.87327	148.75
129.222	154.75
133.56755	164.35
137.90993	182.15
142.24913	200.45
146.58517	227.85
150.91804	269.75
155.24774	326.75
159.57429	421.55
163.89768	539.05
168.21792	730.25
172.53501	997.25
176.84895	1390.95
181.15975	1975.15
185.46741	2748.65
189.77193	3781.65
194.07331	5027.35
198.37157	6474.65
202.6667	7998.65
206.9587	9482.55
211.24758	10969.25
215.53334	12448.95
219.81599	14058.85
224.09553	15813.65
228.37195	17775.15
232.64527	19867.05
236.91549	22006.45
241.18261	24160.15
245.44663	26134.15
249.70755	27901.95
253.96539	29441.45
258.22014	30714.55
262.4718	31858.65
266.72039	32542.95
270.96589	33013.65
275.20832	33072.15
279.44768	32927.45
283.68397	32652.25
287.91719	32499.55
292.14735	32398.75
296.37445	32504.35
300.59849	32711.55
304.81948	32896.75
309.03742	32879.15
313.25231	32643.35
317.46415	31995.35
321.67296	31185.75
325.87872	30469.95
330.08145	30027.55
334.28114	29901.15
338.47781	30069.35
342.67145	30344.45
346.86207	30834.75
351.04966	31402.55
355.23424	32041.05
359.4158	32593.75
363.59435	32991.95
367.76989	33227.05
371.94243	33445.15
376.11196	33512.15
380.27849	33659.95
384.44203	33892.95
388.60257	34143.15
392.76012	34600.65
396.91468	35118.95
401.06626	35686.65
405.21485	36003.05
409.36047	35855.95
413.50311	35450.85
417.64277	35375.65
421.77947	35488.05
425.9132	35654.25
430.04396	35901.65
434.17176	36038.55
438.2966	36295.25
442.41849	36985.05
446.53742	38250.05
450.6534	39730.15
454.76644	40675.65
458.87653	40887.55
462.98368	40531.75
467.08789	39692.25
471.18916	38882.45
475.2875	38302.15
479.38291	38032.55
483.4754	37941.35
487.56496	37563.55
491.6516	36823.75
495.73531	35984.95
499.81612	35447.75
503.89401	35459.45
507.96899	35538.45
512.04106	35452.45
516.11023	35008.25
520.1765	34482.95
524.23987	33994.15
528.30034	33709.25
532.35792	33398.25
536.41261	32897.65
540.46441	32433.05
544.51333	32362.15
548.55936	32823.75
552.60252	33753.65
556.64279	34850.85
560.6802	35814.45
564.71473	36478.45
568.7464	37329.15
572.7752	38739.05
576.80114	40233.45
580.82422	41608.65
584.84444	43473.85
588.86181	45741.35
592.87633	47449.85
596.888	46858.95
600.89682	44111.55
604.9028	42895.45
608.90594	45054.35
612.90624	47606.25
616.90371	44330.45
620.89834	37173.45
624.89015	34005.85
628.87913	33648.85
632.86528	33674.15
636.84862	33373.35
640.82913	32591.75
644.80683	31699.95
648.78172	31141.45
652.75379	31159.45
656.72306	31530.95
660.68952	31977.05
664.65319	31731.55
668.61405	31063.15
672.57211	30947.05
676.52738	31140.75
680.47986	31066.25
684.42955	30793.45
688.37646	30619.35
692.32058	30929.25
696.26192	31498.05
700.20048	32124.65
704.13626	32464.75
708.06928	32454.45
711.99952	32274.55
715.927	32327.75
719.85171	32559.65
723.77365	32450.15
727.69284	31865.95
731.60928	31300.75
735.52295	31100.75
739.43388	31135.95
743.34206	31247.25
747.24749	31507.05
751.15017	31948.35
755.05012	32644.55
758.94733	33769.95
762.8418	35557.75
766.73354	38133.35
770.62254	40281.45
774.50882	40293.25
778.39237	38214.05
782.27321	35474.25
786.15132	33265.95
790.02671	31944.85
793.89938	31304.15
797.76935	31045.15
801.6366	31043.45
805.50115	31024.25
809.36299	30838.15
813.22213	30598.05
817.07857	30376.55
820.93231	30200.35
824.78336	29987.05
828.63172	29805.65
832.47738	29706.05
836.32036	29807.45
840.16066	29966.75
843.99827	30151.65
847.8332	30055.25
851.66546	29885.95
855.49504	29742.45
859.32195	29727.05
863.1462	29599.15
866.96777	29484.75
870.78668	29351.05
874.60293	29311.05
878.41652	29325.35
882.22745	29433.25
886.03573	29544.25
889.84136	29518.65
893.64433	29363.05
897.44466	29221.25
901.24235	29097.85
905.0374	29027.15
908.8298	29039.85
912.61957	29173.75
916.40671	29546.15
920.19121	30162.85
923.97308	30701.05
927.75233	30743.95
931.52895	30404.15
935.30295	29733.35
939.07433	29111.25
942.84309	28632.05
946.60924	28450.55
950.37278	28360.25
954.13371	28375.95
957.89203	28232.45
961.64774	28249.35
965.40086	28244.35
969.15137	28205.25
972.89929	28023.05
976.64461	27927.05
980.38733	27937.25
984.12747	28057.55
987.86502	28302.15
991.59999	28638.15
995.33237	29166.75
999.06217	30129.55
1002.78939	31268.65
1006.51404	32058.75
1010.23611	32541.65
1013.95561	32898.15
1017.67255	32911.05
1021.38692	32425.85
1025.09872	31802.05
1028.80796	31838.15
1032.51465	32781.85
1036.21877	33843.95
1039.92035	34172.15
1043.61937	33850.25
1047.31584	32959.85
1051.00976	32038.35
1054.70114	31513.45
1058.38998	31436.95
1062.07627	31611.15
1065.76003	31798.85
1069.44126	32215.85
1073.11995	32714.65
1076.79611	33189.65
1080.46974	33427.85
1084.14085	33776.15
1087.80943	34213.55
1091.47549	34597.25
1095.13903	34682.85
1098.80005	34179.45
1102.45857	33301.55
1106.11456	32571.15
1109.76805	32202.85
1113.41903	32253.35
1117.06751	32424.75
1120.71348	32770.15
1124.35696	33068.05
1127.99793	33445.15
1131.63641	33803.05
1135.2724	33794.55
1138.90589	33805.75
1142.5369	34019.15
1146.16542	34381.65
1149.79145	34928.85
1153.415	35518.85
1157.03607	36423.25
1160.65467	38095.25
1164.27079	40523.55
1167.88443	43374.55
1171.49561	46141.65
1175.10432	49511.05
1178.71056	53865.25
1182.31434	57859.75
1185.91565	59591.45
1189.51451	58797.95
1193.11091	56691.95
1196.70485	54331.15
1200.29634	52331.75
1203.88538	51198.85
1207.47197	50880.25
1211.05612	50520.55
1214.63782	49431.45
1218.21708	47835.65
1221.79391	46306.65
1225.36829	45180.15
1228.94024	44142.15
1232.50976	42963.55
1236.07685	41926.45
1239.6415	41448.55
1243.20374	41437.25
1246.76355	41965.75
1250.32093	42800.05
1253.8759	43959.95
1257.42845	45462.05
1260.97859	46911.05
1264.52631	48450.65
1268.07163	50217.25
1271.61453	52025.25
1275.15503	54066.75
1278.69312	56210.35
1282.22882	58471.95
1285.76211	61080.55
1289.29301	64163.65
1292.82151	68031.95
1296.34761	72911.85
1299.87133	78636.75
1303.39266	84535.75
1306.9116	89469.05
1310.42815	92823.45
1313.94233	93896.05
1317.45412	92615.15
1320.96354	90504.05
1324.47058	88559.35
1327.97525	87303.65
1331.47754	86401.15
1334.97747	85511.25
1338.47502	83905.25
1341.97022	81707.35
1345.46305	79030.45
1348.95352	76970.65
1352.44163	76721.75
1355.92738	78893.45
1359.41078	82718.55
1362.89183	85580.55
1366.37053	84287.45
1369.84688	77549.05
1373.32088	68453.45
1376.79254	62078.05
1380.26186	60376.75
1383.72883	61179.15
1387.19347	61895.45
1390.65578	61570.85
1394.11575	61583.45
1397.57339	62802.35
1401.0287	64617.65
1404.48168	66058.15
1407.93234	66050.75
1411.38068	64313.45
1414.82669	61453.75
1418.27039	57995.15
1421.71177	54604.35
1425.15083	51846.25
1428.58758	50493.35
1432.02203	51085.75
1435.45416	53116.65
1438.88399	55554.95
1442.31151	57318.45
1445.73673	58439.15
1449.15965	59161.85
1452.58027	59294.05
1455.9986	58897.45
1459.41463	58695.65
1462.82837	59462.55
1466.23982	60670.05
1469.64898	61984.05
1473.05586	62792.25
1476.46045	62881.15
1479.86276	62286.95
1483.26279	61371.05
1486.66054	60622.55
1490.05602	60502.85
1493.44922	60701.65
1496.84016	60791.65
1500.22882	61051.05
1503.61521	61796.25
1506.99934	62878.25
1510.38121	64019.95
1513.76081	64325.95
1517.13816	63609.35
1520.51324	62375.15
1523.88607	61624.65
1527.25665	61915.25
1530.62498	62574.85
1533.99105	62700.35
1537.35488	62001.75
1540.71647	60500.35
1544.07581	58457.05
1547.4329	56228.25
1550.78776	54383.45
1554.14038	53011.75
1557.49077	52049.05
1560.83892	51524.85
1564.18484	51139.25
1567.52853	51190.05
1570.86999	51787.75
1574.20922	53188.55
1577.54624	54694.45
1580.88103	55884.45
1584.2136	57486.25
1587.54395	60705.95
1590.87208	65285.25
1594.19801	70497.85
1597.52172	74484.45
1600.84321	74856.65
1604.16251	70136.65
1607.47959	62410.65
1610.79447	54748.45
1614.10715	48450.75
1617.41763	43999.35
1620.7259	41245.55
1624.03199	40094.55
1627.33587	40528.45
1630.63757	42486.85
1633.93707	46346.45
1637.23439	52455.55
1640.52951	61122.95
1643.82246	71297.95
1647.11321	79017.45
1650.40179	79445.35
1653.68819	71603.75
1656.97241	59638.45
1660.25446	48745.45
1663.53433	41031.15
1666.81203	36296.55
1670.08756	33283.95
1673.36092	31461.15
1676.63211	30272.25
1679.90115	29438.45
1683.16801	28891.55
1686.43272	28406.05
1689.69527	28021.85
1692.95567	27830.75
1696.2139	27623.95
1699.46999	27460.15
1702.72392	27315.05
1705.97571	27218.05
1709.22535	27149.65
1712.47284	27059.45
1715.71819	27037.65
1718.96139	26978.15
1722.20246	26811.65
1725.44139	26673.65
1728.67818	26470.35
1731.91284	26309.85
1735.14537	26092.65
1738.37576	25946.75
1741.60403	25875.05
1744.83017	25734.15
1748.05418	25696.15
1751.27607	25586.75
1754.49584	25538.35
1757.71349	25538.35
1760.92903	25548.95
1764.14244	25479.85
1767.35375	25494.85
1770.56294	25452.35
1773.77002	25378.45
1776.97499	25277.25
1780.17785	25254.35
1783.37861	25180.05
1786.57727	25181.05
1789.77382	25088.25
1792.96828	25121.55
1796.16064	25000.65
1799.3509	24994.35
1802.53907	24903.65
1805.72514	24806.25
1808.90913	24782.15
1812.09102	24708.45
1815.27083	24655.65
1818.44856	24623.65
1821.6242	24579.55
1824.79776	24572.75
1827.96924	24564.25
1831.13864	24560.25
1834.30597	24590.05
1837.47122	24547.35
1840.6344	24531.65
1843.7955	24545.55
1846.95454	24564.45
1850.11151	24550.05
1853.26642	24523.95
1856.41926	24496.95
1859.57004	24503.35
1862.71876	24494.15
1865.86542	24465.15
1869.01003	24418.55
1872.15258	24379.05
1875.29308	24369.95
1878.43152	24344.05
1881.56792	24329.95
1884.70227	24307.75
1887.83457	24300.85
1890.96482	24246.55
1894.09304	24235.75
1897.21921	24244.15
1900.34335	24212.75
1903.46544	24179.55
1906.58551	24193.75
1909.70353	24085.15
1912.81953	24057.25
1915.93349	24051.95
1919.04543	23957.35
1922.15534	23884.45
1925.26322	23849.35
1928.36908	23786.65
1931.47292	23741.05
1934.57473	23646.75
1937.67453	23608.05
1940.77232	23510.15
1943.86808	23462.95
1946.96184	23410.65
1950.05358	23396.55
1953.14331	23315.55
1956.23103	23230.05
1959.31675	23143.95
1962.40046	23067.65
1965.48217	23012.85
1968.56188	22951.85
1971.63959	22891.65
1974.7153	22800.85
1977.78901	22762.35
1980.86073	22658.45
1983.93046	22578.85
1986.99819	22541.55
1990.06394	22478.15
1993.1277	22484.55
1996.18947	22380.55
1999.24925	22347.95
2002.30706	22245.95
2005.36288	22189.65
2008.41672	22144.45
2011.46859	22044.35
2014.51848	22020.45
2017.56639	21991.85
2020.61233	21926.95
2023.6563	21894.55
2026.6983	21807.65
2029.73833	21804.45
2032.7764	21762.15
2035.8125	21692.95
2038.84664	21682.75
2041.87881	21662.65
2044.90903	21642.85
2047.93729	21574.45
2050.96359	21610.35
2053.98794	21564.65
2057.01034	21584.55
2060.03078	21555.35
2063.04927	21484.55
2066.06582	21508.55
2069.08042	21504.75
2072.09307	21461.25
2075.10378	21425.15
2078.11255	21437.55
2081.11938	21389.65
2084.12426	21401.25
2087.12722	21395.55
2090.12824	21387.05
2093.12732	21389.35
2096.12447	21353.75
2099.11969	21408.45
2102.11299	21416.15
2105.10435	21378.95
2108.09379	21409.25
2111.08131	21402.25
2114.0669	21441.85
2117.05057	21459.25
2120.03233	21432.45
2123.01216	21478.75
2125.99008	21477.85
2128.96609	21491.05
2131.94018	21482.55
2134.91236	21504.65
2137.88263	21550.75
2140.851	21550.95
2143.81746	21574.05
2146.78201	21573.85
2149.74466	21532.95
2152.7054	21526.45
2155.66425	21507.95
2158.6212	21497.05
2161.57625	21501.65
2164.52941	21494.35
2167.48067	21471.55
2170.43004	21493.95
2173.37752	21482.55
2176.32311	21451.25
2179.26681	21495.55
2182.20863	21521.75
2185.14856	21544.85
2188.08661	21552.65
2191.02278	21558.55
2193.95707	21578.25
2196.88948	21549.65
2199.82001	21543.95
2202.74867	21485.85
2205.67545	21490.85
2208.60037	21453.35
2211.52341	21455.75
2214.44458	21457.15
2217.36388	21391.45
2220.28132	21321.45
2223.1969	21328.65
2226.11061	21271.85
2229.02246	21263.25
2231.93245	21238.95
2234.84058	21209.55
2237.74686	21173.15
2240.65128	21145.55
2243.55385	21099.25
2246.45456	21103.25
2249.35343	21050.55
2252.25044	21006.55
2255.14561	20951.75
2258.03893	20945.95
2260.93041	20889.35
2263.82004	20833.75
2266.70783	20767.35
2269.59378	20726.45
2272.4779	20653.05
2275.36017	20605.75
2278.24061	20606.55
2281.11922	20570.45
2283.996	20542.35
2286.87094	20557.45
2289.74405	20537.35
2292.61534	20528.45
2295.4848	20540.85
2298.35243	20520.95
2301.21824	20530.65
2304.08223	20575.85
2306.94439	20605.45
2309.80474	20616.85
2312.66327	20634.75
2315.51999	20620.35
2318.37489	20557.35
2321.22797	20579.15
2324.07925	20523.85
2326.92871	20533.65
2329.77637	20498.15
2332.62222	20472.05
2335.46626	20506.85
2338.3085	20492.75
2341.14893	20505.95
2343.98756	20507.15
2346.8244	20526.15
2349.65943	20534.75
2352.49267	20500.95
2355.32411	20532.35
2358.15376	20472.45
2360.98161	20480.75
2363.80768	20467.65
2366.63195	20469.75
2369.45444	20411.95
2372.27514	20394.95
2375.09405	20358.55
2377.91118	20312.35
2380.72652	20251.75
2383.54009	20231.65
2386.35187	20223.05
2389.16188	20153.55
2391.97011	20174.75
2394.77657	20143.35
2397.58125	20134.05
2400.38416	20094.65
2403.18529	20084.25
2405.98466	20083.65
2408.78226	20006.25
2411.57809	19998.95
2414.37216	19991.45
2417.16446	19989.95
2419.955	19944.85
2422.74378	19902.65
2425.5308	19867.95
2428.31606	19874.05
2431.09956	19904.65
2433.88131	19865.75
2436.6613	19882.55
2439.43954	19889.55
2442.21603	19890.35
2444.99077	19881.05
2447.76377	19908.75
2450.53501	19860.85
2453.30451	19895.25
2456.07226	19888.55
2458.83827	19865.95
2461.60254	19858.45
2464.36507	19879.85
2467.12586	19893.95
2469.88492	19879.95
2472.64224	19925.55
2475.39782	19973.05
2478.15167	20044.35
2480.90379	19975.55
2483.65417	19988.55
2486.40283	20010.45
2489.14976	20029.25
2491.89497	20018.45
2494.63845	20061.85
2497.3802	20074.35
2500.12024	20061.05
2502.85855	20056.45
2505.59514	20071.55
2508.33002	20025.85
2511.06318	20047.35
2513.79462	19990.95
2516.52435	20003.95
2519.25237	20008.45
2521.97867	19981.45
2524.70327	19971.85
2527.42616	19985.65
2530.14734	20021.75
2532.86681	20007.75
2535.58458	19997.95
2538.30065	20006.05
2541.01501	19981.25
2543.72768	19982.45
2546.43864	19959.55
2549.14791	19949.25
2551.85548	19980.95
2554.56136	19970.45
2557.26554	19919.95
2559.96803	19926.55
2562.66883	19916.75
2565.36794	19918.05
2568.06536	19911.45
2570.7611	19909.45
2573.45514	19949.65
2576.14751	19940.35
2578.83819	19907.55
2581.52719	19915.55
2584.21451	19928.95
2586.90015	19928.25
2589.58411	19950.95
2592.2664	19949.85
2594.94701	19949.05
2597.62594	19944.35
2600.30321	19920.95
2602.9788	19925.85
2605.65273	19916.85
2608.32498	19952.95
2610.99557	19995.35
2613.66449	19974.85
2616.33175	19981.65
2618.99734	19982.15
2621.66128	19966.35
2624.32355	19970.25
2626.98416	19968.25
2629.64311	19965.25
2632.30041	19996.35
2634.95605	19943.85
2637.61004	19945.55
2640.26238	19933.15
2642.91306	19900.75
2645.56209	19892.45
2648.20948	19929.85
2650.85521	19903.25
2653.4993	19934.95
2656.14175	19936.05
2658.78255	19967.65
2661.42171	19996.45
2664.05923	20019.15
2666.6951	20055.45
2669.32934	20103.95
2671.96194	20058.15
2674.59291	20124.05
2677.22224	20075.45
2679.84993	20081.55
2682.476	20061.95
2685.10043	20085.65
2687.72324	20015.15
2690.34441	20001.25
2692.96396	20019.65
2695.58188	20059.45
2698.19818	20017.25
2700.81285	20041.45
2703.4259	20050.35
2706.03733	20135.75
2708.64714	20115.95
2711.25533	20080.35
2713.86191	20103.15
2716.46687	20143.05
2719.07021	20164.75
2721.67194	20230.05
2724.27206	20216.15
2726.87057	20249.25
2729.46747	20282.95
2732.06276	20294.25
2734.65644	20316.55
2737.24852	20295.15
2739.83899	20274.45
2742.42786	20305.35
2745.01513	20256.15
2747.60079	20258.05
2750.18486	20239.85
2752.76733	20232.75
2755.3482	20242.85
2757.92747	20315.85
2760.50515	20298.85
2763.08123	20315.75
2765.65573	20303.65
2768.22863	20305.65
2770.79994	20306.05
2773.36967	20305.65
2775.9378	20312.95
2778.50435	20294.85
2781.06932	20308.85
2783.6327	20337.45
2786.1945	20343.35
2788.75471	20351.55
2791.31335	20313.55
2793.87041	20279.75
2796.42589	20242.65
2798.97979	20245.95
2801.53212	20264.35
2804.08288	20235.45
2806.63206	20150.95
2809.17967	20116.15
2811.72571	20061.45
2814.27018	20058.65
2816.81308	20050.15
2819.35442	20017.95
2821.89419	19989.45
2824.43239	19978.95
2826.96904	20009.05
2829.50412	19995.55
2832.03763	19950.35
2834.56959	19934.85
2837.1	19931.95
2839.62884	19937.25
2842.15613	19934.45
2844.68186	19980.25
2847.20604	19999.85
2849.72867	20008.35
2852.24974	19984.25
2854.76927	20006.35
2857.28724	20001.25
2859.80367	19983.65
2862.31855	19924.75
2864.83189	19898.65
2867.34368	19909.35
2869.85393	19887.85
2872.36264	19867.35
2874.8698	19849.95
2877.37543	19800.65
2879.87952	19838.65
2882.38207	19858.85
2884.88308	19836.05
2887.38256	19860.55
2889.88051	19906.95
2892.37692	19904.75
2894.8718	19896.25
2897.36515	19966.75
2899.85698	19973.35
2902.34727	20035.55
2904.83604	20055.85
2907.32328	20099.55
2909.809	20074.45
2912.29319	20102.85
2914.77587	20078.75
2917.25702	20114.15
2919.73665	20120.05
2922.21476	20104.25
2924.69136	20084.55
2927.16644	20070.75
2929.64	20035.95
2932.11205	20015.55
2934.58258	19956.95
2937.05161	19988.55
2939.51912	19971.15
2941.98513	19928.05
2944.44962	19951.35
2946.91261	19859.35
2949.37409	19906.25
2951.83407	19858.75
2954.29254	19887.45
2956.74951	19868.75
2959.20498	19849.95
2961.65895	19809.35
2964.11142	19799.65
2966.56239	19765.25
2969.01186	19791.65
2971.45984	19764.25
2973.90632	19730.15
2976.35131	19677.85
2978.7948	19669.25
2981.23681	19608.45
2983.67732	19574.05
2986.11635	19493.15
2988.55388	19507.35
2990.98993	19442.65
2993.4245	19421.05
2995.85758	19306.25
2998.28917	19263.05
3000.71928	19264.25
3003.14791	19249.25
3005.57506	19232.15
3008.00073	19145.55
3010.42493	19049.85
3012.84764	19089.05
3015.26888	19091.65
3017.68865	19041.05
3020.10694	18996.95
3022.52376	18993.95
3024.9391	18984.85
3027.35298	18954.35
3029.76539	18944.95
3032.17632	18891.35
3034.5858	18889.95
3036.9938	18865.65
3039.40034	18889.85
3041.80542	18876.95
3044.20903	18873.65
3046.61118	18844.55
3049.01187	18807.75
3051.4111	18866.55
3053.80888	18802.65
3056.20519	18784.05
3058.60005	18717.15
3060.99345	18680.65
3063.3854	18627.35
3065.7759	18556.15
3068.16494	18527.95
3070.55254	18419.75
3072.93868	18442.15
3075.32338	18347.05
3077.70662	18311.55
3080.08842	18289.65
3082.46878	18240.55
3084.84769	18201.75
3087.22515	18236.45
3089.60118	18222.85
3091.97576	18199.25
3094.3489	18195.35
3096.72061	18172.65
3099.09087	18159.25
3101.4597	18161.65
3103.82709	18147.15
3106.19305	18160.35
3108.55757	18105.95
3110.92066	18059.05
3113.28232	18035.95
3115.64255	18004.45
3118.00134	18019.85
3120.35871	17968.25
3122.71466	17903.65
3125.06917	17841.85
3127.42226	17816.65
3129.77393	17830.55
3132.12417	17782.05
3134.47299	17775.65
3136.82039	17768.55
3139.16636	17786.05
3141.51092	17766.75
3143.85406	17750.75
3146.19579	17736.85
3148.53609	17741.25
3150.87499	17772.45
3153.21246	17762.45
3155.54853	17773.15
3157.88318	17738.75
3160.21642	17763.55
3162.54826	17744.95
3164.87868	17739.05
3167.2077	17730.55
3169.5353	17783.05
3171.86151	17752.55
3174.18631	17784.85
3176.5097	17752.55
3178.83169	17703.25
3181.15228	17718.65
3183.47147	17664.15
3185.78926	17689.45
3188.10565	17626.75
3190.42065	17633.45
3192.73424	17603.35
3195.04645	17606.85
3197.35725	17544.85
3199.66667	17521.55
3201.97469	17535.05
3204.28132	17493.35
3206.58656	17553.95
3208.8904	17550.55
3211.19287	17535.05
3213.49394	17550.25
3215.79363	17550.15
3218.09193	17585.05
3220.38884	17582.65
3222.68438	17567.75
3224.97853	17522.15
3227.2713	17529.85
3229.56269	17509.95
3231.8527	17517.35
3234.14133	17480.25
3236.42858	17457.95
3238.71446	17467.75
3240.99896	17434.35
3243.28209	17426.95
3245.56384	17382.95
3247.84423	17360.85
3250.12324	17310.65
3252.40088	17308.95
3254.67715	17301.05
3256.95205	17286.25
3259.22558	17285.35
3261.49775	17257.05
3263.76855	17241.25
3266.03799	17163.15
3268.30606	17170.55
3270.57277	17113.15
3272.83812	17074.35
3275.10211	17091.45
3277.36474	17035.15
3279.62601	17113.45
3281.88593	17058.35
3284.14448	17073.35
3286.40168	17073.75
3288.65753	17084.45
3290.91202	17051.15
3293.16516	17028.05
3295.41695	17005.75
3297.66738	16902.55
3299.91647	16817.35
3302.16421	16714.05
3304.4106	16641.85
3306.65564	16508.25
3308.89933	16384.65
3311.14169	16274.45
3313.38269	16145.15
3315.62236	16087.75
3317.86068	15935.65
3320.09766	15790.25
3322.3333	15718.15
3324.5676	15627.25
3326.80056	15390.85
3329.03219	15303.55
3331.26248	3.65
3333.49143	-0.45
3335.71905	-0.55
