Data from AgNPs_FTO_APTES_UA_5uM_CRN_20uM_R6G_10uM_NaF_0.1M_Addition_RamanShift__27__13-34-26-792.txt Node

Date: Mon Feb 07 13:34:26 GMT 2022
User: TCL
Spectrometer: QEP01345
Trigger mode: 4
Integration Time (sec): 7.000000E0
Scans to average: 10
Electric dark correction enabled: true
Nonlinearity correction enabled: false
Boxcar width: 0
XAxis mode: Raman Shifts
Number of Pixels in Spectrum: 1044
>>>>>Begin Spectral Data<<<<<
46.04893	0.45
50.45542	-1.65
54.85868	-0.65
59.25871	0.05
63.6555	77.15
68.04907	81.35
72.43941	87.35
76.82654	87.55
81.21044	89.75
85.59113	92.05
89.96862	99.95
94.34289	102.55
98.71396	105.75
103.08183	106.45
107.4465	113.15
111.80798	112.45
116.16626	117.85
120.52136	123.05
124.87327	128.65
129.222	140.65
133.56755	152.55
137.90993	166.15
142.24913	179.55
146.58517	209.75
150.91804	246.85
155.24774	295.25
159.57429	368.85
163.89768	484.95
168.21792	659.35
172.53501	903.75
176.84895	1251.75
181.15975	1763.55
185.46741	2473.15
189.77193	3411.55
194.07331	4544.85
198.37157	5869.75
202.6667	7240.95
206.9587	8595.35
211.24758	9978.15
215.53334	11389.35
219.81599	12930.15
224.09553	14667.85
228.37195	16595.35
232.64527	18665.15
236.91549	20849.35
241.18261	22841.55
245.44663	24575.75
249.70755	25975.15
253.96539	27280.65
258.22014	28389.75
262.4718	29470.05
266.72039	30241.05
270.96589	30838.05
275.20832	31044.85
279.44768	31025.85
283.68397	30933.75
287.91719	30924.35
292.14735	31166.85
296.37445	31663.05
300.59849	32313.35
304.81948	32882.45
309.03742	33087.25
313.25231	32664.55
317.46415	31190.65
321.67296	29204.65
325.87872	27518.35
330.08145	26658.45
334.28114	26532.65
338.47781	26843.25
342.67145	27406.35
346.86207	28259.85
351.04966	29483.45
355.23424	30840.85
359.4158	31889.75
363.59435	32336.35
367.76989	32458.95
371.94243	32415.65
376.11196	32287.65
380.27849	32184.05
384.44203	32018.25
388.60257	31843.35
392.76012	31869.05
396.91468	32294.15
401.06626	32966.25
405.21485	33549.25
409.36047	33094.05
413.50311	31733.25
417.64277	30555.95
421.77947	29993.65
425.9132	29873.15
430.04396	30021.45
434.17176	30223.45
438.2966	30585.05
442.41849	31246.75
446.53742	32280.45
450.6534	33441.25
454.76644	34163.15
458.87653	34400.55
462.98368	34167.45
467.08789	33722.55
471.18916	33241.95
475.2875	32835.55
479.38291	32543.45
483.4754	32155.05
487.56496	31617.15
491.6516	30880.45
495.73531	30335.25
499.81612	30090.55
503.89401	30225.25
507.96899	30413.35
512.04106	30472.05
516.11023	30506.75
520.1765	30427.05
524.23987	30107.95
528.30034	29584.25
532.35792	29117.75
536.41261	28620.75
540.46441	28141.75
544.51333	28057.75
548.55936	28603.25
552.60252	29564.35
556.64279	30586.55
560.6802	31223.15
564.71473	31744.25
568.7464	32909.95
572.7752	33970.45
576.80114	33783.45
580.82422	33140.25
584.84444	32976.05
588.86181	32981.15
592.87633	33207.85
596.888	33547.65
600.89682	34129.85
604.9028	36584.05
608.90594	43516.05
612.90624	52384.15
616.90371	49812.95
620.89834	36579.45
624.89015	30488.95
628.87913	29559.85
632.86528	29694.95
636.84862	29740.65
640.82913	29065.85
644.80683	27690.65
648.78172	26767.05
652.75379	26678.85
656.72306	27469.95
660.68952	28578.75
664.65319	28520.25
668.61405	27447.85
672.57211	26892.35
676.52738	26856.45
680.47986	26845.35
684.42955	26672.15
688.37646	26534.25
692.32058	26658.45
696.26192	26968.65
700.20048	27349.85
704.13626	27691.55
708.06928	27672.35
711.99952	27460.05
715.927	27264.65
719.85171	27314.65
723.77365	27188.25
727.69284	26859.25
731.60928	26510.05
735.52295	26436.95
739.43388	26471.25
743.34206	26579.35
747.24749	26775.65
751.15017	27123.45
755.05012	27782.65
758.94733	29169.45
762.8418	32033.75
766.73354	36766.25
770.62254	41510.35
774.50882	43130.15
778.39237	40460.15
782.27321	35334.45
786.15132	30849.25
790.02671	28248.85
793.89938	26993.45
797.76935	26479.85
801.6366	26266.85
805.50115	26107.85
809.36299	25992.55
813.22213	25808.85
817.07857	25778.25
820.93231	25805.55
824.78336	25777.05
828.63172	25768.25
832.47738	25758.85
836.32036	25715.25
840.16066	25686.95
843.99827	25665.95
847.8332	25555.75
851.66546	25435.15
855.49504	25343.25
859.32195	25261.55
863.1462	25112.55
866.96777	24972.05
870.78668	24879.35
874.60293	24932.55
878.41652	24939.25
882.22745	25061.15
886.03573	25167.35
889.84136	25097.35
893.64433	24962.05
897.44466	24865.35
901.24235	24817.85
905.0374	24748.65
908.8298	24724.65
912.61957	24805.15
916.40671	25069.95
920.19121	25519.65
923.97308	25844.35
927.75233	25956.85
931.52895	25899.15
935.30295	25543.45
939.07433	24803.35
942.84309	24153.85
946.60924	23821.55
950.37278	23603.45
954.13371	23503.45
957.89203	23396.95
961.64774	23354.25
965.40086	23335.45
969.15137	23215.75
972.89929	23084.95
976.64461	22982.65
980.38733	22978.65
984.12747	23096.15
987.86502	23261.65
991.59999	23523.05
995.33237	23961.75
999.06217	24773.55
1002.78939	25788.75
1006.51404	26509.05
1010.23611	26985.55
1013.95561	27351.95
1017.67255	27317.35
1021.38692	26857.25
1025.09872	26442.75
1028.80796	26430.25
1032.51465	26952.05
1036.21877	27568.25
1039.92035	27698.35
1043.61937	27494.45
1047.31584	26932.05
1051.00976	26423.65
1054.70114	26175.45
1058.38998	26214.25
1062.07627	26480.45
1065.76003	26798.85
1069.44126	26998.15
1073.11995	27242.35
1076.79611	27524.55
1080.46974	27779.05
1084.14085	28237.05
1087.80943	28891.65
1091.47549	29282.15
1095.13903	29049.05
1098.80005	28351.75
1102.45857	27479.25
1106.11456	26925.15
1109.76805	26834.95
1113.41903	27148.55
1117.06751	27835.95
1120.71348	28668.35
1124.35696	29489.05
1127.99793	30318.05
1131.63641	30412.15
1135.2724	29581.95
1138.90589	28652.85
1142.5369	28118.25
1146.16542	27925.85
1149.79145	27906.15
1153.415	28188.95
1157.03607	28725.95
1160.65467	29531.05
1164.27079	30947.75
1167.88443	32916.25
1171.49561	35814.05
1175.10432	40151.85
1178.71056	45604.45
1182.31434	50092.65
1185.91565	51812.25
1189.51451	51451.75
1193.11091	49150.05
1196.70485	46024.15
1200.29634	43149.45
1203.88538	40908.05
1207.47197	38747.55
1211.05612	36942.65
1214.63782	35798.65
1218.21708	35242.75
1221.79391	35075.85
1225.36829	35036.65
1228.94024	34801.55
1232.50976	34431.55
1236.07685	34096.65
1239.6415	33994.65
1243.20374	33838.85
1246.76355	34019.25
1250.32093	34542.75
1253.8759	35486.15
1257.42845	36738.95
1260.97859	38017.55
1264.52631	39150.15
1268.07163	40341.15
1271.61453	41574.05
1275.15503	42843.65
1278.69312	43959.25
1282.22882	44880.35
1285.76211	46004.65
1289.29301	47553.45
1292.82151	49499.15
1296.34761	51770.45
1299.87133	54841.75
1303.39266	59074.25
1306.9116	64500.25
1310.42815	70714.75
1313.94233	75181.15
1317.45412	75747.95
1320.96354	73472.85
1324.47058	70377.45
1327.97525	67484.45
1331.47754	65215.35
1334.97747	64219.75
1338.47502	64172.05
1341.97022	64531.35
1345.46305	64622.55
1348.95352	64499.45
1352.44163	64898.25
1355.92738	67142.05
1359.41078	72606.25
1362.89183	78612.85
1366.37053	77030.05
1369.84688	67684.65
1373.32088	57738.75
1376.79254	51392.55
1380.26186	48732.15
1383.72883	47975.65
1387.19347	47554.25
1390.65578	47046.85
1394.11575	46999.25
1397.57339	47573.55
1401.0287	48758.55
1404.48168	49938.85
1407.93234	50544.85
1411.38068	50289.55
1414.82669	48763.25
1418.27039	46488.55
1421.71177	43976.95
1425.15083	41804.55
1428.58758	40585.35
1432.02203	40318.65
1435.45416	40868.75
1438.88399	41701.55
1442.31151	42429.25
1445.73673	43254.15
1449.15965	44214.45
1452.58027	44933.45
1455.9986	45237.35
1459.41463	45760.95
1462.82837	46457.25
1466.23982	47362.75
1469.64898	48195.85
1473.05586	48509.75
1476.46045	48388.75
1479.86276	48269.45
1483.26279	48173.05
1486.66054	48453.95
1490.05602	49014.05
1493.44922	49858.85
1496.84016	51172.05
1500.22882	53517.65
1503.61521	57064.95
1506.99934	61665.55
1510.38121	66498.65
1513.76081	69589.05
1517.13816	68272.25
1520.51324	63120.35
1523.88607	57323.05
1527.25665	53220.75
1530.62498	50793.75
1533.99105	49402.35
1537.35488	48600.75
1540.71647	47765.45
1544.07581	46982.25
1547.4329	46072.75
1550.78776	45273.25
1554.14038	44886.25
1557.49077	44948.25
1560.83892	45454.55
1564.18484	46054.85
1567.52853	46604.45
1570.86999	46983.05
1574.20922	47370.25
1577.54624	47571.45
1580.88103	46759.05
1584.2136	45747.75
1587.54395	46002.45
1590.87208	47962.95
1594.19801	51154.45
1597.52172	54598.05
1600.84321	55761.55
1604.16251	53327.85
1607.47959	48897.55
1610.79447	44240.55
1614.10715	39864.15
1617.41763	36410.45
1620.7259	33990.15
1624.03199	32726.35
1627.33587	32642.55
1630.63757	33685.25
1633.93707	35997.45
1637.23439	39587.75
1640.52951	44530.85
1643.82246	50349.25
1647.11321	55852.75
1650.40179	58705.55
1653.68819	56232.65
1656.97241	48674.35
1660.25446	40306.35
1663.53433	33883.55
1666.81203	29799.15
1670.08756	27283.45
1673.36092	25761.25
1676.63211	24774.95
1679.90115	24127.25
1683.16801	23618.65
1686.43272	23288.85
1689.69527	22984.35
1692.95567	22769.55
1696.2139	22637.05
1699.46999	22555.25
1702.72392	22451.95
1705.97571	22354.95
1709.22535	22328.95
1712.47284	22277.05
1715.71819	22251.85
1718.96139	22195.55
1722.20246	22160.55
1725.44139	22017.05
1728.67818	21889.05
1731.91284	21684.15
1735.14537	21522.35
1738.37576	21432.05
1741.60403	21320.05
1744.83017	21261.45
1748.05418	21175.35
1751.27607	21125.75
1754.49584	21072.85
1757.71349	21073.85
1760.92903	21037.65
1764.14244	20990.25
1767.35375	20985.65
1770.56294	20944.05
1773.77002	20905.85
1776.97499	20823.15
1780.17785	20763.55
1783.37861	20715.35
1786.57727	20699.75
1789.77382	20620.85
1792.96828	20615.05
1796.16064	20613.05
1799.3509	20560.75
1802.53907	20534.25
1805.72514	20428.55
1808.90913	20391.15
1812.09102	20323.95
1815.27083	20271.15
1818.44856	20246.35
1821.6242	20190.35
1824.79776	20166.45
1827.96924	20163.95
1831.13864	20131.45
1834.30597	20135.75
1837.47122	20119.65
1840.6344	20091.85
1843.7955	20092.25
1846.95454	20122.65
1850.11151	20107.55
1853.26642	20109.45
1856.41926	20095.65
1859.57004	20166.05
1862.71876	20140.65
1865.86542	20170.85
1869.01003	20135.05
1872.15258	20144.55
1875.29308	20198.15
1878.43152	20158.55
1881.56792	20202.85
1884.70227	20224.45
1887.83457	20216.05
1890.96482	20240.55
1894.09304	20217.45
1897.21921	20252.55
1900.34335	20269.55
1903.46544	20298.65
1906.58551	20291.55
1909.70353	20322.55
1912.81953	20297.05
1915.93349	20278.75
1919.04543	20250.25
1922.15534	20199.15
1925.26322	20127.55
1928.36908	20064.85
1931.47292	19966.15
1934.57473	19868.15
1937.67453	19774.55
1940.77232	19645.85
1943.86808	19535.95
1946.96184	19433.75
1950.05358	19359.25
1953.14331	19291.55
1956.23103	19167.65
1959.31675	19109.15
1962.40046	19053.65
1965.48217	18994.35
1968.56188	18928.15
1971.63959	18870.25
1974.7153	18831.15
1977.78901	18771.85
1980.86073	18678.65
1983.93046	18639.45
1986.99819	18576.35
1990.06394	18492.65
1993.1277	18454.05
1996.18947	18364.25
1999.24925	18325.25
2002.30706	18277.15
2005.36288	18240.35
2008.41672	18181.65
2011.46859	18168.95
2014.51848	18091.35
2017.56639	18031.45
2020.61233	17964.55
2023.6563	17942.95
2026.6983	17890.95
2029.73833	17836.85
2032.7764	17787.25
2035.8125	17763.45
2038.84664	17723.85
2041.87881	17704.35
2044.90903	17684.35
2047.93729	17655.95
2050.96359	17641.45
2053.98794	17599.35
2057.01034	17629.05
2060.03078	17572.55
2063.04927	17554.25
2066.06582	17559.25
2069.08042	17534.65
2072.09307	17494.45
2075.10378	17465.15
2078.11255	17469.15
2081.11938	17429.35
2084.12426	17421.65
2087.12722	17391.55
2090.12824	17398.95
2093.12732	17403.75
2096.12447	17399.45
2099.11969	17380.85
2102.11299	17376.05
2105.10435	17401.85
2108.09379	17370.95
2111.08131	17389.05
2114.0669	17385.15
2117.05057	17421.35
2120.03233	17442.15
2123.01216	17425.05
2125.99008	17454.65
2128.96609	17484.65
2131.94018	17492.35
2134.91236	17510.55
2137.88263	17496.25
2140.851	17485.75
2143.81746	17528.15
2146.78201	17483.95
2149.74466	17494.45
2152.7054	17476.85
2155.66425	17460.55
2158.6212	17460.35
2161.57625	17468.55
2164.52941	17435.55
2167.48067	17420.95
2170.43004	17419.95
2173.37752	17412.65
2176.32311	17421.35
2179.26681	17420.85
2182.20863	17430.25
2185.14856	17404.35
2188.08661	17428.35
2191.02278	17466.85
2193.95707	17414.15
2196.88948	17400.85
2199.82001	17362.25
2202.74867	17363.45
2205.67545	17336.65
2208.60037	17359.95
2211.52341	17314.65
2214.44458	17345.65
2217.36388	17309.05
2220.28132	17263.45
2223.1969	17235.65
2226.11061	17188.75
2229.02246	17140.25
2231.93245	17090.15
2234.84058	17069.45
2237.74686	17014.15
2240.65128	17006.55
2243.55385	16947.05
2246.45456	16960.45
2249.35343	16941.15
2252.25044	16913.05
2255.14561	16905.45
2258.03893	16886.65
2260.93041	16873.85
2263.82004	16825.75
2266.70783	16801.95
2269.59378	16723.35
2272.4779	16726.35
2275.36017	16680.35
2278.24061	16632.55
2281.11922	16551.65
2283.996	16553.45
2286.87094	16549.75
2289.74405	16518.25
2292.61534	16508.05
2295.4848	16466.15
2298.35243	16492.65
2301.21824	16478.35
2304.08223	16479.55
2306.94439	16475.15
2309.80474	16527.45
2312.66327	16535.55
2315.51999	16515.05
2318.37489	16504.95
2321.22797	16493.25
2324.07925	16457.15
2326.92871	16461.55
2329.77637	16437.85
2332.62222	16412.55
2335.46626	16420.95
2338.3085	16444.55
2341.14893	16443.15
2343.98756	16462.75
2346.8244	16451.85
2349.65943	16491.95
2352.49267	16465.55
2355.32411	16524.75
2358.15376	16509.45
2360.98161	16504.15
2363.80768	16491.75
2366.63195	16488.55
2369.45444	16455.55
2372.27514	16443.45
2375.09405	16407.05
2377.91118	16356.55
2380.72652	16318.65
2383.54009	16222.15
2386.35187	16196.35
2389.16188	16133.85
2391.97011	16130.85
2394.77657	16091.65
2397.58125	16075.45
2400.38416	16030.65
2403.18529	16005.75
2405.98466	15968.95
2408.78226	15941.15
2411.57809	15906.05
2414.37216	15881.05
2417.16446	15873.85
2419.955	15847.15
2422.74378	15825.35
2425.5308	15774.05
2428.31606	15803.65
2431.09956	15807.05
2433.88131	15769.55
2436.6613	15796.55
2439.43954	15824.65
2442.21603	15790.55
2444.99077	15795.95
2447.76377	15803.75
2450.53501	15763.35
2453.30451	15786.55
2456.07226	15780.05
2458.83827	15775.25
2461.60254	15764.45
2464.36507	15770.55
2467.12586	15723.25
2469.88492	15772.75
2472.64224	15775.55
2475.39782	15811.55
2478.15167	15839.65
2480.90379	15834.95
2483.65417	15847.25
2486.40283	15872.05
2489.14976	15945.45
2491.89497	15941.75
2494.63845	15946.25
2497.3802	15940.25
2500.12024	15946.85
2502.85855	15932.95
2505.59514	15906.05
2508.33002	15858.15
2511.06318	15858.85
2513.79462	15814.25
2516.52435	15767.95
2519.25237	15770.85
2521.97867	15726.15
2524.70327	15729.75
2527.42616	15700.05
2530.14734	15712.85
2532.86681	15692.95
2535.58458	15693.85
2538.30065	15684.85
2541.01501	15709.35
2543.72768	15665.25
2546.43864	15643.15
2549.14791	15686.05
2551.85548	15655.75
2554.56136	15647.95
2557.26554	15582.15
2559.96803	15573.35
2562.66883	15571.95
2565.36794	15538.15
2568.06536	15543.25
2570.7611	15522.25
2573.45514	15521.85
2576.14751	15532.75
2578.83819	15492.05
2581.52719	15500.75
2584.21451	15519.35
2586.90015	15510.55
2589.58411	15494.35
2592.2664	15517.05
2594.94701	15506.65
2597.62594	15500.45
2600.30321	15486.55
2602.9788	15470.15
2605.65273	15510.65
2608.32498	15502.95
2610.99557	15507.15
2613.66449	15502.25
2616.33175	15512.15
2618.99734	15526.45
2621.66128	15538.15
2624.32355	15502.65
2626.98416	15519.15
2629.64311	15536.95
2632.30041	15528.55
2634.95605	15519.75
2637.61004	15483.85
2640.26238	15475.25
2642.91306	15448.05
2645.56209	15389.65
2648.20948	15429.05
2650.85521	15435.05
2653.4993	15452.15
2656.14175	15421.15
2658.78255	15434.65
2661.42171	15457.15
2664.05923	15460.35
2666.6951	15489.35
2669.32934	15503.95
2671.96194	15507.35
2674.59291	15533.45
2677.22224	15534.75
2679.84993	15523.95
2682.476	15509.25
2685.10043	15507.25
2687.72324	15454.65
2690.34441	15459.05
2692.96396	15466.05
2695.58188	15473.85
2698.19818	15438.75
2700.81285	15454.15
2703.4259	15473.55
2706.03733	15502.55
2708.64714	15481.55
2711.25533	15488.95
2713.86191	15482.85
2716.46687	15513.65
2719.07021	15504.75
2721.67194	15547.05
2724.27206	15524.85
2726.87057	15557.75
2729.46747	15561.95
2732.06276	15570.25
2734.65644	15532.85
2737.24852	15551.55
2739.83899	15530.55
2742.42786	15515.35
2745.01513	15489.95
2747.60079	15481.95
2750.18486	15484.05
2752.76733	15491.05
2755.3482	15435.15
2757.92747	15479.75
2760.50515	15460.55
2763.08123	15472.45
2765.65573	15464.55
2768.22863	15445.55
2770.79994	15453.65
2773.36967	15437.45
2775.9378	15428.65
2778.50435	15439.45
2781.06932	15415.55
2783.6327	15454.55
2786.1945	15443.75
2788.75471	15463.35
2791.31335	15418.45
2793.87041	15405.05
2796.42589	15357.15
2798.97979	15356.15
2801.53212	15340.55
2804.08288	15315.55
2806.63206	15268.35
2809.17967	15231.05
2811.72571	15244.45
2814.27018	15224.65
2816.81308	15207.45
2819.35442	15194.35
2821.89419	15172.15
2824.43239	15211.95
2826.96904	15201.75
2829.50412	15197.45
2832.03763	15177.75
2834.56959	15157.25
2837.1	15141.35
2839.62884	15161.75
2842.15613	15171.95
2844.68186	15205.55
2847.20604	15238.45
2849.72867	15282.65
2852.24974	15243.95
2854.76927	15271.25
2857.28724	15257.05
2859.80367	15252.95
2862.31855	15206.35
2864.83189	15201.45
2867.34368	15165.35
2869.85393	15188.95
2872.36264	15168.95
2874.8698	15149.25
2877.37543	15134.35
2879.87952	15143.55
2882.38207	15118.35
2884.88308	15116.75
2887.38256	15133.15
2889.88051	15088.65
2892.37692	15097.95
2894.8718	15136.15
2897.36515	15168.95
2899.85698	15141.85
2902.34727	15172.35
2904.83604	15185.25
2907.32328	15221.35
2909.809	15246.45
2912.29319	15213.95
2914.77587	15251.15
2917.25702	15241.75
2919.73665	15248.95
2922.21476	15234.45
2924.69136	15197.45
2927.16644	15161.45
2929.64	15138.85
2932.11205	15107.35
2934.58258	15022.25
2937.05161	15056.95
2939.51912	15042.55
2941.98513	14980.85
2944.44962	14951.05
2946.91261	14892.75
2949.37409	14870.35
2951.83407	14888.45
2954.29254	14839.15
2956.74951	14833.65
2959.20498	14828.75
2961.65895	14795.85
2964.11142	14797.85
2966.56239	14739.65
2969.01186	14721.55
2971.45984	14678.15
2973.90632	14685.15
2976.35131	14668.95
2978.7948	14637.25
2981.23681	14568.75
2983.67732	14549.65
2986.11635	14485.15
2988.55388	14459.65
2990.98993	14460.45
2993.4245	14416.15
2995.85758	14388.65
2998.28917	14337.05
3000.71928	14337.75
3003.14791	14286.65
3005.57506	14273.45
3008.00073	14231.95
3010.42493	14124.25
3012.84764	14166.45
3015.26888	14129.85
3017.68865	14115.45
3020.10694	14135.95
3022.52376	14097.65
3024.9391	14058.35
3027.35298	14026.65
3029.76539	14028.25
3032.17632	13993.75
3034.5858	13939.85
3036.9938	13950.75
3039.40034	13955.35
3041.80542	13963.95
3044.20903	13955.65
3046.61118	13914.15
3049.01187	13882.25
3051.4111	13846.15
3053.80888	13845.55
3056.20519	13772.15
3058.60005	13758.65
3060.99345	13728.25
3063.3854	13672.35
3065.7759	13621.35
3068.16494	13582.95
3070.55254	13519.95
3072.93868	13484.15
3075.32338	13411.95
3077.70662	13390.35
3080.08842	13336.35
3082.46878	13324.75
3084.84769	13318.55
3087.22515	13288.15
3089.60118	13307.85
3091.97576	13252.05
3094.3489	13241.85
3096.72061	13241.65
3099.09087	13241.75
3101.4597	13242.85
3103.82709	13236.75
3106.19305	13194.25
3108.55757	13183.35
3110.92066	13155.75
3113.28232	13134.05
3115.64255	13104.45
3118.00134	13091.75
3120.35871	13072.05
3122.71466	13038.15
3125.06917	12982.05
3127.42226	12961.05
3129.77393	12962.65
3132.12417	12940.65
3134.47299	12905.05
3136.82039	12861.55
3139.16636	12889.45
3141.51092	12855.95
3143.85406	12866.55
3146.19579	12867.85
3148.53609	12876.35
3150.87499	12862.85
3153.21246	12879.05
3155.54853	12875.55
3157.88318	12876.25
3160.21642	12866.35
3162.54826	12866.55
3164.87868	12879.35
3167.2077	12873.45
3169.5353	12886.15
3171.86151	12887.25
3174.18631	12862.15
3176.5097	12862.65
3178.83169	12816.55
3181.15228	12806.55
3183.47147	12797.95
3185.78926	12784.35
3188.10565	12742.05
3190.42065	12769.65
3192.73424	12747.55
3195.04645	12757.25
3197.35725	12729.05
3199.66667	12730.75
3201.97469	12726.75
3204.28132	12716.95
3206.58656	12734.25
3208.8904	12733.95
3211.19287	12727.35
3213.49394	12738.25
3215.79363	12755.95
3218.09193	12750.25
3220.38884	12740.55
3222.68438	12734.95
3224.97853	12722.95
3227.2713	12729.05
3229.56269	12685.25
3231.8527	12703.25
3234.14133	12641.75
3236.42858	12648.55
3238.71446	12616.25
3240.99896	12595.05
3243.28209	12562.25
3245.56384	12556.85
3247.84423	12534.65
3250.12324	12505.55
3252.40088	12494.65
3254.67715	12511.75
3256.95205	12509.85
3259.22558	12502.25
3261.49775	12478.65
3263.76855	12471.75
3266.03799	12426.75
3268.30606	12414.05
3270.57277	12382.45
3272.83812	12359.25
3275.10211	12308.15
3277.36474	12303.95
3279.62601	12335.35
3281.88593	12293.25
3284.14448	12284.65
3286.40168	12291.35
3288.65753	12286.55
3290.91202	12291.55
3293.16516	12253.95
3295.41695	12231.35
3297.66738	12186.15
3299.91647	12098.65
3302.16421	11995.35
3304.4106	11959.35
3306.65564	11845.15
3308.89933	11781.15
3311.14169	11708.05
3313.38269	11604.05
3315.62236	11534.65
3317.86068	11441.05
3320.09766	11330.45
3322.3333	11268.25
3324.5676	11228.75
3326.80056	11030.55
3329.03219	10948.75
3331.26248	2.85
3333.49143	-1.65
3335.71905	-0.35
