Data from AgNPs_FTO_APTES_UA_5uM_CRN_5uM_R6G_10uM_NaF_0.1M_Addition_RamanShift__24__12-12-46-698.txt Node

Date: Mon Feb 07 12:12:46 GMT 2022
User: TCL
Spectrometer: QEP01345
Trigger mode: 4
Integration Time (sec): 7.000000E0
Scans to average: 10
Electric dark correction enabled: true
Nonlinearity correction enabled: false
Boxcar width: 0
XAxis mode: Raman Shifts
Number of Pixels in Spectrum: 1044
>>>>>Begin Spectral Data<<<<<
46.04893	-0.65
50.45542	-1.75
54.85868	-0.65
59.25871	-0.15
63.6555	97.55
68.04907	102.35
72.43941	109.05
76.82654	114.15
81.21044	119.35
85.59113	122.45
89.96862	124.65
94.34289	129.55
98.71396	132.15
103.08183	138.65
107.4465	137.45
111.80798	144.75
116.16626	149.85
120.52136	154.95
124.87327	164.85
129.222	175.05
133.56755	186.55
137.90993	209.95
142.24913	225.15
146.58517	262.25
150.91804	302.05
155.24774	364.35
159.57429	457.75
163.89768	601.05
168.21792	805.05
172.53501	1093.15
176.84895	1525.25
181.15975	2146.05
185.46741	3013.35
189.77193	4148.35
194.07331	5558.35
198.37157	7116.05
202.6667	8801.25
206.9587	10433.65
211.24758	12065.05
215.53334	13733.25
219.81599	15582.85
224.09553	17679.25
228.37195	19987.15
232.64527	22439.65
236.91549	25012.65
241.18261	27493.35
245.44663	29640.25
249.70755	31503.75
253.96539	33105.05
258.22014	34563.75
262.4718	35829.55
266.72039	36826.55
270.96589	37445.95
275.20832	37699.25
279.44768	37720.65
283.68397	37610.65
287.91719	37601.55
292.14735	37779.35
296.37445	38207.05
300.59849	38636.55
304.81948	39122.95
309.03742	39379.75
313.25231	38813.05
317.46415	37306.15
321.67296	35234.25
325.87872	33442.75
330.08145	32620.25
334.28114	32488.15
338.47781	32864.25
342.67145	33507.85
346.86207	34452.45
351.04966	35713.15
355.23424	37129.15
359.4158	38238.15
363.59435	38753.05
367.76989	38867.15
371.94243	38864.65
376.11196	38780.45
380.27849	38723.65
384.44203	38663.25
388.60257	38536.95
392.76012	38681.95
396.91468	39172.65
401.06626	40059.05
405.21485	40779.15
409.36047	40390.25
413.50311	39068.85
417.64277	37969.45
421.77947	37534.95
425.9132	37529.45
430.04396	37713.85
434.17176	37937.35
438.2966	38243.05
442.41849	38943.25
446.53742	40015.25
450.6534	41256.55
454.76644	42234.95
458.87653	42569.85
462.98368	42456.65
467.08789	41938.15
471.18916	41252.15
475.2875	40555.25
479.38291	40102.35
483.4754	39678.85
487.56496	39079.05
491.6516	38411.95
495.73531	37921.45
499.81612	37731.75
503.89401	37955.15
507.96899	38110.45
512.04106	38117.25
516.11023	38048.15
520.1765	37871.25
524.23987	37450.05
528.30034	36882.25
532.35792	36269.35
536.41261	35691.75
540.46441	35209.35
544.51333	35132.65
548.55936	35728.95
552.60252	36837.85
556.64279	37994.25
560.6802	38687.35
564.71473	39229.55
568.7464	40347.45
572.7752	41536.55
576.80114	41722.45
580.82422	41572.55
584.84444	41573.35
588.86181	41591.65
592.87633	41755.05
596.888	42268.25
600.89682	42961.25
604.9028	45803.75
608.90594	53092.45
612.90624	62092.55
616.90371	58740.15
620.89834	44805.25
624.89015	38506.95
628.87913	37702.25
632.86528	37797.85
636.84862	37644.45
640.82913	36762.75
644.80683	35229.15
648.78172	34183.15
652.75379	34023.85
656.72306	34875.95
660.68952	36180.55
664.65319	36084.65
668.61405	35011.75
672.57211	34432.55
676.52738	34368.15
680.47986	34351.25
684.42955	34119.25
688.37646	33968.45
692.32058	34199.55
696.26192	34574.95
700.20048	35069.25
704.13626	35461.05
708.06928	35499.55
711.99952	35190.95
715.927	35015.85
719.85171	34922.55
723.77365	34767.95
727.69284	34269.65
731.60928	33819.25
735.52295	33735.25
739.43388	33749.95
743.34206	33941.15
747.24749	34211.75
751.15017	34662.65
755.05012	35529.15
758.94733	37070.35
762.8418	40280.15
766.73354	45430.85
770.62254	50485.95
774.50882	52064.75
778.39237	48837.85
782.27321	43347.55
786.15132	38588.05
790.02671	35817.75
793.89938	34512.65
797.76935	33976.35
801.6366	33729.95
805.50115	33553.05
809.36299	33312.55
813.22213	33115.95
817.07857	33037.85
820.93231	33057.25
824.78336	32993.55
828.63172	32980.65
832.47738	32995.95
836.32036	33064.25
840.16066	33080.65
843.99827	33140.65
847.8332	33062.75
851.66546	32765.35
855.49504	32716.05
859.32195	32616.05
863.1462	32422.05
866.96777	32258.75
870.78668	32161.55
874.60293	32096.35
878.41652	32170.85
882.22745	32294.25
886.03573	32442.15
889.84136	32350.75
893.64433	32223.55
897.44466	32089.75
901.24235	32033.85
905.0374	31946.45
908.8298	31890.25
912.61957	31974.95
916.40671	32350.25
920.19121	32963.85
923.97308	33499.15
927.75233	33667.25
931.52895	33619.15
935.30295	33120.05
939.07433	32195.15
942.84309	31448.05
946.60924	31092.25
950.37278	30882.15
954.13371	30680.25
957.89203	30488.75
961.64774	30393.45
965.40086	30325.85
969.15137	30230.15
972.89929	30103.75
976.64461	29987.55
980.38733	30041.05
984.12747	30167.25
987.86502	30495.55
991.59999	30923.65
995.33237	31659.15
999.06217	32840.35
1002.78939	34295.45
1006.51404	35323.95
1010.23611	35930.05
1013.95561	36323.65
1017.67255	36290.25
1021.38692	35824.65
1025.09872	35344.25
1028.80796	35618.05
1032.51465	36725.25
1036.21877	37858.65
1039.92035	38035.55
1043.61937	37363.05
1047.31584	36304.05
1051.00976	35179.55
1054.70114	34641.05
1058.38998	34578.55
1062.07627	34838.75
1065.76003	35177.35
1069.44126	35476.95
1073.11995	35858.15
1076.79611	36171.85
1080.46974	36472.65
1084.14085	36918.75
1087.80943	37650.55
1091.47549	38094.75
1095.13903	37804.65
1098.80005	36988.15
1102.45857	35932.95
1106.11456	35145.95
1109.76805	34965.15
1113.41903	35354.75
1117.06751	35938.65
1120.71348	36804.55
1124.35696	37666.85
1127.99793	38521.45
1131.63641	38648.15
1135.2724	37904.75
1138.90589	37038.25
1142.5369	36499.85
1146.16542	36225.35
1149.79145	36235.25
1153.415	36585.55
1157.03607	37189.45
1160.65467	38245.15
1164.27079	39923.55
1167.88443	42351.05
1171.49561	45767.95
1175.10432	50736.05
1178.71056	56999.65
1182.31434	62271.15
1185.91565	64977.65
1189.51451	65069.05
1193.11091	62620.75
1196.70485	58793.75
1200.29634	55167.35
1203.88538	52250.75
1207.47197	49607.15
1211.05612	47562.15
1214.63782	46241.75
1218.21708	45603.15
1221.79391	45601.25
1225.36829	45746.75
1228.94024	45600.15
1232.50976	45233.75
1236.07685	44800.25
1239.6415	44439.75
1243.20374	44234.35
1246.76355	44316.35
1250.32093	44961.25
1253.8759	46173.25
1257.42845	47865.65
1260.97859	49469.45
1264.52631	50942.95
1268.07163	52427.25
1271.61453	54080.35
1275.15503	55905.75
1278.69312	57697.95
1282.22882	59154.85
1285.76211	60591.15
1289.29301	62299.35
1292.82151	64404.25
1296.34761	67008.45
1299.87133	70767.35
1303.39266	75822.55
1306.9116	82384.35
1310.42815	89560.45
1313.94233	94448.45
1317.45412	95052.35
1320.96354	92409.75
1324.47058	88957.75
1327.97525	85664.95
1331.47754	83348.55
1334.97747	82270.95
1338.47502	82314.15
1341.97022	82840.15
1345.46305	82805.75
1348.95352	82201.05
1352.44163	81919.25
1355.92738	83686.85
1359.41078	89213.95
1362.89183	95337.05
1366.37053	93416.65
1369.84688	83223.15
1373.32088	72441.35
1376.79254	65400.45
1380.26186	62261.35
1383.72883	61191.65
1387.19347	60502.25
1390.65578	59769.25
1394.11575	59506.85
1397.57339	60211.25
1401.0287	61564.85
1404.48168	62915.95
1407.93234	63871.15
1411.38068	63761.75
1414.82669	62285.45
1418.27039	59583.95
1421.71177	56711.75
1425.15083	54208.25
1428.58758	52772.75
1432.02203	52504.05
1435.45416	53104.85
1438.88399	54011.95
1442.31151	54834.15
1445.73673	55743.55
1449.15965	56714.05
1452.58027	57243.85
1455.9986	57575.95
1459.41463	58027.95
1462.82837	58929.05
1466.23982	60042.55
1469.64898	61072.75
1473.05586	61623.05
1476.46045	61678.55
1479.86276	61689.35
1483.26279	61697.35
1486.66054	62139.65
1490.05602	62806.05
1493.44922	63873.75
1496.84016	65368.25
1500.22882	67741.85
1503.61521	71439.95
1506.99934	76162.55
1510.38121	81030.25
1513.76081	83844.55
1517.13816	82304.85
1520.51324	77158.25
1523.88607	71448.65
1527.25665	67329.15
1530.62498	64794.75
1533.99105	63268.05
1537.35488	62349.85
1540.71647	61451.15
1544.07581	60385.55
1547.4329	59367.05
1550.78776	58393.25
1554.14038	57736.85
1557.49077	57747.15
1560.83892	58154.55
1564.18484	58679.75
1567.52853	58979.55
1570.86999	59139.85
1574.20922	59408.55
1577.54624	59661.65
1580.88103	58822.45
1584.2136	57949.65
1587.54395	58792.95
1590.87208	61589.25
1594.19801	65817.35
1597.52172	70177.75
1600.84321	71644.75
1604.16251	68520.05
1607.47959	63041.65
1610.79447	57172.15
1614.10715	51871.05
1617.41763	47505.55
1620.7259	44469.85
1624.03199	42935.45
1627.33587	42866.55
1630.63757	44245.35
1633.93707	47273.65
1637.23439	51806.05
1640.52951	57715.45
1643.82246	64206.85
1647.11321	69755.65
1650.40179	71961.45
1653.68819	68428.05
1656.97241	59653.45
1660.25446	50222.65
1663.53433	43024.15
1666.81203	38320.65
1670.08756	35461.15
1673.36092	33667.35
1676.63211	32571.75
1679.90115	31780.65
1683.16801	31193.05
1686.43272	30700.35
1689.69527	30379.45
1692.95567	30186.25
1696.2139	29974.15
1699.46999	29836.65
1702.72392	29746.75
1705.97571	29652.35
1709.22535	29588.35
1712.47284	29554.75
1715.71819	29518.05
1718.96139	29443.15
1722.20246	29355.05
1725.44139	29261.35
1728.67818	29082.15
1731.91284	28828.15
1735.14537	28693.35
1738.37576	28506.25
1741.60403	28379.75
1744.83017	28273.65
1748.05418	28203.15
1751.27607	28107.55
1754.49584	28083.15
1757.71349	28091.65
1760.92903	28009.85
1764.14244	28010.35
1767.35375	27964.25
1770.56294	27903.95
1773.77002	27837.95
1776.97499	27775.45
1780.17785	27697.95
1783.37861	27643.45
1786.57727	27639.15
1789.77382	27571.95
1792.96828	27563.35
1796.16064	27518.05
1799.3509	27496.95
1802.53907	27470.45
1805.72514	27328.65
1808.90913	27286.75
1812.09102	27252.05
1815.27083	27188.45
1818.44856	27150.05
1821.6242	27100.15
1824.79776	27037.55
1827.96924	27037.05
1831.13864	26998.55
1834.30597	27038.05
1837.47122	27000.65
1840.6344	27002.25
1843.7955	27048.35
1846.95454	27076.15
1850.11151	27084.25
1853.26642	27081.45
1856.41926	27080.05
1859.57004	27152.65
1862.71876	27122.95
1865.86542	27152.45
1869.01003	27140.75
1872.15258	27127.55
1875.29308	27180.45
1878.43152	27197.55
1881.56792	27229.55
1884.70227	27246.15
1887.83457	27257.45
1890.96482	27295.85
1894.09304	27300.25
1897.21921	27295.55
1900.34335	27331.15
1903.46544	27371.95
1906.58551	27415.75
1909.70353	27432.15
1912.81953	27359.85
1915.93349	27381.85
1919.04543	27339.25
1922.15534	27223.65
1925.26322	27187.75
1928.36908	27043.05
1931.47292	26964.25
1934.57473	26793.35
1937.67453	26616.05
1940.77232	26440.15
1943.86808	26348.45
1946.96184	26189.15
1950.05358	26099.35
1953.14331	25962.05
1956.23103	25823.25
1959.31675	25740.85
1962.40046	25684.95
1965.48217	25612.85
1968.56188	25528.45
1971.63959	25459.85
1974.7153	25337.75
1977.78901	25269.65
1980.86073	25161.45
1983.93046	25077.45
1986.99819	24999.95
1990.06394	24910.65
1993.1277	24848.05
1996.18947	24819.45
1999.24925	24756.05
2002.30706	24605.45
2005.36288	24543.95
2008.41672	24478.55
2011.46859	24457.55
2014.51848	24393.75
2017.56639	24276.45
2020.61233	24235.45
2023.6563	24151.25
2026.6983	24106.55
2029.73833	24071.25
2032.7764	24031.15
2035.8125	24023.85
2038.84664	23934.65
2041.87881	23899.35
2044.90903	23871.15
2047.93729	23832.15
2050.96359	23802.65
2053.98794	23779.15
2057.01034	23739.85
2060.03078	23766.25
2063.04927	23723.95
2066.06582	23743.05
2069.08042	23686.85
2072.09307	23668.55
2075.10378	23585.95
2078.11255	23551.35
2081.11938	23554.85
2084.12426	23556.75
2087.12722	23540.15
2090.12824	23521.15
2093.12732	23495.35
2096.12447	23525.15
2099.11969	23524.35
2102.11299	23509.95
2105.10435	23482.25
2108.09379	23496.45
2111.08131	23489.85
2114.0669	23518.75
2117.05057	23573.85
2120.03233	23529.85
2123.01216	23564.65
2125.99008	23596.95
2128.96609	23602.35
2131.94018	23593.15
2134.91236	23614.15
2137.88263	23619.85
2140.851	23602.35
2143.81746	23647.95
2146.78201	23615.65
2149.74466	23644.65
2152.7054	23677.25
2155.66425	23596.45
2158.6212	23594.45
2161.57625	23583.85
2164.52941	23560.85
2167.48067	23566.15
2170.43004	23546.65
2173.37752	23568.65
2176.32311	23574.55
2179.26681	23558.85
2182.20863	23541.15
2185.14856	23560.05
2188.08661	23584.65
2191.02278	23603.75
2193.95707	23598.75
2196.88948	23581.35
2199.82001	23577.75
2202.74867	23529.15
2205.67545	23525.55
2208.60037	23502.25
2211.52341	23525.25
2214.44458	23507.45
2217.36388	23451.55
2220.28132	23452.75
2223.1969	23363.55
2226.11061	23304.15
2229.02246	23268.35
2231.93245	23270.75
2234.84058	23190.45
2237.74686	23129.55
2240.65128	23115.15
2243.55385	23045.45
2246.45456	23046.65
2249.35343	23020.95
2252.25044	22995.85
2255.14561	22975.65
2258.03893	22921.35
2260.93041	22911.75
2263.82004	22839.85
2266.70783	22793.65
2269.59378	22710.15
2272.4779	22642.75
2275.36017	22597.05
2278.24061	22583.05
2281.11922	22524.75
2283.996	22482.05
2286.87094	22483.55
2289.74405	22424.45
2292.61534	22429.25
2295.4848	22395.75
2298.35243	22399.05
2301.21824	22443.05
2304.08223	22429.65
2306.94439	22481.85
2309.80474	22519.75
2312.66327	22497.35
2315.51999	22502.85
2318.37489	22488.05
2321.22797	22449.95
2324.07925	22491.35
2326.92871	22453.35
2329.77637	22410.95
2332.62222	22392.75
2335.46626	22394.25
2338.3085	22425.25
2341.14893	22414.85
2343.98756	22470.85
2346.8244	22523.95
2349.65943	22528.15
2352.49267	22544.65
2355.32411	22524.95
2358.15376	22536.85
2360.98161	22475.35
2363.80768	22422.65
2366.63195	22450.75
2369.45444	22439.45
2372.27514	22378.95
2375.09405	22348.15
2377.91118	22246.25
2380.72652	22169.75
2383.54009	22107.25
2386.35187	22083.75
2389.16188	22014.85
2391.97011	21977.95
2394.77657	21920.05
2397.58125	21932.35
2400.38416	21856.75
2403.18529	21832.15
2405.98466	21796.15
2408.78226	21778.85
2411.57809	21693.05
2414.37216	21633.85
2417.16446	21640.45
2419.955	21614.15
2422.74378	21566.15
2425.5308	21554.15
2428.31606	21545.55
2431.09956	21523.15
2433.88131	21533.85
2436.6613	21582.95
2439.43954	21545.05
2442.21603	21532.35
2444.99077	21519.65
2447.76377	21532.65
2450.53501	21498.25
2453.30451	21489.15
2456.07226	21491.45
2458.83827	21493.95
2461.60254	21480.05
2464.36507	21507.75
2467.12586	21450.25
2469.88492	21489.65
2472.64224	21493.75
2475.39782	21523.45
2478.15167	21575.65
2480.90379	21618.85
2483.65417	21653.95
2486.40283	21666.45
2489.14976	21715.15
2491.89497	21723.75
2494.63845	21759.45
2497.3802	21776.45
2500.12024	21782.95
2502.85855	21776.65
2505.59514	21691.65
2508.33002	21661.35
2511.06318	21651.55
2513.79462	21625.55
2516.52435	21559.15
2519.25237	21578.05
2521.97867	21518.45
2524.70327	21478.75
2527.42616	21463.45
2530.14734	21471.35
2532.86681	21494.65
2535.58458	21475.45
2538.30065	21486.15
2541.01501	21452.95
2543.72768	21430.95
2546.43864	21410.75
2549.14791	21400.25
2551.85548	21396.45
2554.56136	21349.55
2557.26554	21353.75
2559.96803	21346.55
2562.66883	21302.85
2565.36794	21238.65
2568.06536	21255.55
2570.7611	21233.95
2573.45514	21211.45
2576.14751	21224.35
2578.83819	21190.65
2581.52719	21195.35
2584.21451	21252.25
2586.90015	21289.45
2589.58411	21259.15
2592.2664	21236.85
2594.94701	21245.85
2597.62594	21257.85
2600.30321	21193.45
2602.9788	21231.35
2605.65273	21205.45
2608.32498	21251.75
2610.99557	21262.45
2613.66449	21272.95
2616.33175	21232.65
2618.99734	21274.85
2621.66128	21282.35
2624.32355	21292.85
2626.98416	21268.85
2629.64311	21298.05
2632.30041	21310.35
2634.95605	21299.15
2637.61004	21219.55
2640.26238	21229.25
2642.91306	21193.75
2645.56209	21178.65
2648.20948	21176.35
2650.85521	21163.85
2653.4993	21180.55
2656.14175	21124.05
2658.78255	21136.55
2661.42171	21162.85
2664.05923	21205.45
2666.6951	21211.35
2669.32934	21254.65
2671.96194	21269.95
2674.59291	21281.55
2677.22224	21282.95
2679.84993	21296.45
2682.476	21238.75
2685.10043	21224.75
2687.72324	21181.55
2690.34441	21191.65
2692.96396	21142.15
2695.58188	21173.15
2698.19818	21153.05
2700.81285	21160.55
2703.4259	21154.25
2706.03733	21194.55
2708.64714	21133.55
2711.25533	21154.45
2713.86191	21154.35
2716.46687	21193.15
2719.07021	21190.75
2721.67194	21218.95
2724.27206	21217.75
2726.87057	21270.95
2729.46747	21296.95
2732.06276	21282.25
2734.65644	21257.75
2737.24852	21228.25
2739.83899	21229.85
2742.42786	21260.55
2745.01513	21198.35
2747.60079	21209.05
2750.18486	21184.05
2752.76733	21180.45
2755.3482	21157.05
2757.92747	21181.45
2760.50515	21136.85
2763.08123	21139.75
2765.65573	21149.15
2768.22863	21132.05
2770.79994	21093.35
2773.36967	21127.85
2775.9378	21109.25
2778.50435	21111.55
2781.06932	21093.95
2783.6327	21129.45
2786.1945	21122.85
2788.75471	21121.95
2791.31335	21062.55
2793.87041	21030.45
2796.42589	21025.85
2798.97979	20994.55
2801.53212	20969.75
2804.08288	20926.05
2806.63206	20858.45
2809.17967	20828.15
2811.72571	20795.95
2814.27018	20813.15
2816.81308	20787.55
2819.35442	20745.55
2821.89419	20755.35
2824.43239	20781.25
2826.96904	20774.25
2829.50412	20787.45
2832.03763	20688.65
2834.56959	20722.35
2837.1	20697.35
2839.62884	20676.25
2842.15613	20669.65
2844.68186	20743.35
2847.20604	20757.15
2849.72867	20801.15
2852.24974	20732.75
2854.76927	20754.75
2857.28724	20706.15
2859.80367	20717.75
2862.31855	20687.25
2864.83189	20647.95
2867.34368	20648.45
2869.85393	20668.45
2872.36264	20614.55
2874.8698	20618.65
2877.37543	20604.55
2879.87952	20609.85
2882.38207	20597.55
2884.88308	20594.75
2887.38256	20574.65
2889.88051	20593.45
2892.37692	20613.85
2894.8718	20584.25
2897.36515	20621.75
2899.85698	20606.25
2902.34727	20715.05
2904.83604	20710.25
2907.32328	20772.75
2909.809	20778.45
2912.29319	20746.55
2914.77587	20781.15
2917.25702	20763.45
2919.73665	20737.65
2922.21476	20714.35
2924.69136	20685.85
2927.16644	20666.85
2929.64	20603.25
2932.11205	20572.85
2934.58258	20520.55
2937.05161	20497.85
2939.51912	20492.95
2941.98513	20501.25
2944.44962	20418.95
2946.91261	20330.75
2949.37409	20368.35
2951.83407	20325.55
2954.29254	20290.15
2956.74951	20309.15
2959.20498	20280.65
2961.65895	20228.65
2964.11142	20217.35
2966.56239	20159.95
2969.01186	20136.65
2971.45984	20114.95
2973.90632	20092.05
2976.35131	20022.85
2978.7948	19971.45
2981.23681	19964.25
2983.67732	19912.35
2986.11635	19882.85
2988.55388	19848.75
2990.98993	19775.75
2993.4245	19731.95
2995.85758	19663.85
2998.28917	19622.05
3000.71928	19602.75
3003.14791	19555.45
3005.57506	19539.95
3008.00073	19460.15
3010.42493	19373.25
3012.84764	19405.45
3015.26888	19402.95
3017.68865	19360.35
3020.10694	19316.15
3022.52376	19298.35
3024.9391	19242.45
3027.35298	19193.25
3029.76539	19170.35
3032.17632	19148.85
3034.5858	19145.05
3036.9938	19109.25
3039.40034	19098.25
3041.80542	19105.55
3044.20903	19083.15
3046.61118	19061.55
3049.01187	19020.05
3051.4111	19011.75
3053.80888	18980.75
3056.20519	18920.95
3058.60005	18843.65
3060.99345	18785.95
3063.3854	18741.05
3065.7759	18675.25
3068.16494	18590.35
3070.55254	18521.35
3072.93868	18468.35
3075.32338	18428.95
3077.70662	18400.25
3080.08842	18329.75
3082.46878	18283.85
3084.84769	18268.25
3087.22515	18250.55
3089.60118	18212.75
3091.97576	18216.25
3094.3489	18189.05
3096.72061	18153.95
3099.09087	18198.45
3101.4597	18137.55
3103.82709	18173.05
3106.19305	18115.35
3108.55757	18121.95
3110.92066	18066.35
3113.28232	18016.25
3115.64255	18006.05
3118.00134	17975.95
3120.35871	17915.45
3122.71466	17889.35
3125.06917	17832.05
3127.42226	17756.35
3129.77393	17766.45
3132.12417	17698.35
3134.47299	17722.35
3136.82039	17718.45
3139.16636	17697.75
3141.51092	17688.75
3143.85406	17674.15
3146.19579	17670.65
3148.53609	17686.75
3150.87499	17692.45
3153.21246	17658.35
3155.54853	17679.75
3157.88318	17631.55
3160.21642	17675.85
3162.54826	17636.85
3164.87868	17658.55
3167.2077	17649.05
3169.5353	17679.65
3171.86151	17635.45
3174.18631	17600.05
3176.5097	17609.35
3178.83169	17578.05
3181.15228	17561.55
3183.47147	17557.95
3185.78926	17497.25
3188.10565	17471.45
3190.42065	17446.05
3192.73424	17481.85
3195.04645	17451.95
3197.35725	17412.85
3199.66667	17415.05
3201.97469	17427.55
3204.28132	17425.95
3206.58656	17445.95
3208.8904	17439.95
3211.19287	17482.05
3213.49394	17441.75
3215.79363	17479.35
3218.09193	17455.55
3220.38884	17456.85
3222.68438	17475.65
3224.97853	17423.85
3227.2713	17435.35
3229.56269	17390.45
3231.8527	17411.65
3234.14133	17349.95
3236.42858	17298.15
3238.71446	17300.35
3240.99896	17268.35
3243.28209	17249.45
3245.56384	17202.15
3247.84423	17180.65
3250.12324	17173.65
3252.40088	17156.75
3254.67715	17127.15
3256.95205	17107.65
3259.22558	17124.15
3261.49775	17112.35
3263.76855	17056.15
3266.03799	17028.85
3268.30606	17001.85
3270.57277	16945.05
3272.83812	16937.45
3275.10211	16900.75
3277.36474	16885.05
3279.62601	16862.85
3281.88593	16845.65
3284.14448	16867.65
3286.40168	16860.75
3288.65753	16848.95
3290.91202	16833.75
3293.16516	16737.45
3295.41695	16738.85
3297.66738	16661.55
3299.91647	16587.05
3302.16421	16488.95
3304.4106	16395.25
3306.65564	16280.95
3308.89933	16134.55
3311.14169	16047.95
3313.38269	15921.35
3315.62236	15836.85
3317.86068	15688.95
3320.09766	15548.95
3322.3333	15461.25
3324.5676	15368.75
3326.80056	15101.55
3329.03219	15035.25
3331.26248	4.45
3333.49143	-0.75
3335.71905	-1.85
