Data from AgNPs_FTO_APTES_UA_5uM_CRN_1uM_R6G_10uM_NaF_0.1M_Addition_RamanShift__11__10-30-06-578.txt Node

Date: Mon Feb 07 10:30:06 GMT 2022
User: TCL
Spectrometer: QEP01345
Trigger mode: 4
Integration Time (sec): 7.000000E0
Scans to average: 10
Electric dark correction enabled: true
Nonlinearity correction enabled: false
Boxcar width: 0
XAxis mode: Raman Shifts
Number of Pixels in Spectrum: 1044
>>>>>Begin Spectral Data<<<<<
46.04893	-0.45
50.45542	-1.85
54.85868	-0.85
59.25871	0.05
63.6555	94.75
68.04907	100.25
72.43941	100.55
76.82654	104.15
81.21044	108.25
85.59113	111.65
89.96862	117.95
94.34289	119.45
98.71396	122.65
103.08183	125.65
107.4465	132.35
111.80798	137.15
116.16626	139.55
120.52136	146.55
124.87327	157.45
129.222	163.55
133.56755	178.05
137.90993	198.95
142.24913	215.25
146.58517	246.05
150.91804	290.45
155.24774	355.05
159.57429	444.35
163.89768	582.55
168.21792	779.55
172.53501	1078.65
176.84895	1499.95
181.15975	2104.65
185.46741	2949.75
189.77193	4088.65
194.07331	5453.25
198.37157	7028.15
202.6667	8679.55
206.9587	10319.35
211.24758	11923.45
215.53334	13569.05
219.81599	15247.65
224.09553	17089.05
228.37195	19200.05
232.64527	21439.95
236.91549	23867.75
241.18261	26225.65
245.44663	28490.45
249.70755	30492.55
253.96539	32277.95
258.22014	33676.75
262.4718	34812.95
266.72039	35574.25
270.96589	35950.95
275.20832	35990.25
279.44768	35781.55
283.68397	35389.45
287.91719	35155.05
292.14735	34953.45
296.37445	34850.85
300.59849	34839.85
304.81948	34979.15
309.03742	35069.45
313.25231	34902.25
317.46415	34475.45
321.67296	33757.85
325.87872	33093.95
330.08145	32769.95
334.28114	32600.95
338.47781	32717.65
342.67145	33007.25
346.86207	33441.15
351.04966	34008.55
355.23424	34625.85
359.4158	35217.95
363.59435	35679.45
367.76989	35930.85
371.94243	36000.25
376.11196	35952.55
380.27849	35886.05
384.44203	35861.55
388.60257	36072.55
392.76012	36530.05
396.91468	37242.65
401.06626	38033.35
405.21485	38463.85
409.36047	38323.55
413.50311	37919.55
417.64277	37937.55
421.77947	38412.75
425.9132	38625.45
430.04396	38820.55
434.17176	38826.15
438.2966	38752.75
442.41849	38925.25
446.53742	39565.95
450.6534	40417.05
454.76644	41091.35
458.87653	41278.25
462.98368	41102.95
467.08789	40765.55
471.18916	40231.95
475.2875	39704.05
479.38291	39485.35
483.4754	39514.65
487.56496	39393.65
491.6516	38988.15
495.73531	38373.95
499.81612	37955.25
503.89401	37986.25
507.96899	38242.25
512.04106	38208.35
516.11023	37909.65
520.1765	37195.05
524.23987	36515.85
528.30034	35984.05
532.35792	35482.85
536.41261	35006.75
540.46441	34586.75
544.51333	34628.05
548.55936	35034.95
552.60252	35804.05
556.64279	36697.65
560.6802	37454.55
564.71473	38129.85
568.7464	39124.55
572.7752	41035.65
576.80114	43427.35
580.82422	45861.35
584.84444	48628.45
588.86181	52269.75
592.87633	55606.85
596.888	55000.95
600.89682	50238.15
604.9028	46898.75
608.90594	47586.55
612.90624	49084.45
616.90371	45830.95
620.89834	39506.25
624.89015	36750.75
628.87913	36773.45
632.86528	37451.85
636.84862	37375.65
640.82913	36335.85
644.80683	35139.55
648.78172	34424.55
652.75379	34468.15
656.72306	34832.75
660.68952	35241.55
664.65319	35007.15
668.61405	34483.35
672.57211	34374.15
676.52738	34497.55
680.47986	34436.35
684.42955	34090.05
688.37646	33897.05
692.32058	34176.75
696.26192	34800.85
700.20048	35418.35
704.13626	35843.95
708.06928	36171.15
711.99952	36253.95
715.927	36207.75
719.85171	36139.65
723.77365	35748.05
727.69284	34881.15
731.60928	34126.45
735.52295	33816.35
739.43388	33764.45
743.34206	33897.05
747.24749	34220.95
751.15017	34783.35
755.05012	35614.25
758.94733	36755.25
762.8418	38495.55
766.73354	40975.15
770.62254	43018.35
774.50882	42887.25
778.39237	40796.95
782.27321	38278.75
786.15132	36240.25
790.02671	34975.25
793.89938	34228.75
797.76935	33877.05
801.6366	33704.25
805.50115	33617.65
809.36299	33487.25
813.22213	33316.25
817.07857	33138.55
820.93231	32989.35
824.78336	32740.05
828.63172	32464.65
832.47738	32272.55
836.32036	32264.55
840.16066	32248.25
843.99827	32274.75
847.8332	32326.35
851.66546	32372.05
855.49504	32492.05
859.32195	32521.25
863.1462	32434.85
866.96777	32376.25
870.78668	32322.35
874.60293	32300.55
878.41652	32267.85
882.22745	32348.35
886.03573	32413.25
889.84136	32379.45
893.64433	32340.85
897.44466	32239.45
901.24235	32272.95
905.0374	32221.95
908.8298	32171.55
912.61957	32309.15
916.40671	32675.05
920.19121	33408.05
923.97308	34022.45
927.75233	34212.75
931.52895	33700.55
935.30295	32753.05
939.07433	31785.45
942.84309	31133.95
946.60924	30838.15
950.37278	30751.75
954.13371	30761.55
957.89203	30768.55
961.64774	30829.15
965.40086	30872.05
969.15137	30821.25
972.89929	30604.05
976.64461	30342.15
980.38733	30265.05
984.12747	30193.35
987.86502	30261.45
991.59999	30412.65
995.33237	30580.35
999.06217	31073.05
1002.78939	31642.65
1006.51404	32357.85
1010.23611	33131.35
1013.95561	33638.45
1017.67255	33691.25
1021.38692	33253.45
1025.09872	32589.15
1028.80796	32059.95
1032.51465	31830.25
1036.21877	31883.85
1039.92035	32093.15
1043.61937	32270.65
1047.31584	32415.25
1051.00976	32482.45
1054.70114	32669.45
1058.38998	32923.75
1062.07627	33388.35
1065.76003	33935.15
1069.44126	34680.95
1073.11995	35576.35
1076.79611	36374.85
1080.46974	36589.65
1084.14085	36816.05
1087.80943	37351.75
1091.47549	37919.65
1095.13903	38213.45
1098.80005	37655.95
1102.45857	36323.55
1106.11456	35155.15
1109.76805	34415.85
1113.41903	34137.95
1117.06751	34159.75
1120.71348	34432.45
1124.35696	34796.55
1127.99793	35229.35
1131.63641	35596.25
1135.2724	35715.35
1138.90589	35768.05
1142.5369	36030.65
1146.16542	36494.45
1149.79145	37010.85
1153.415	37588.65
1157.03607	38300.75
1160.65467	39726.15
1164.27079	41980.45
1167.88443	44506.85
1171.49561	46733.25
1175.10432	49120.15
1178.71056	52308.05
1182.31434	55236.55
1185.91565	56728.55
1189.51451	56437.55
1193.11091	55161.75
1196.70485	53544.25
1200.29634	51816.85
1203.88538	50916.85
1207.47197	51094.65
1211.05612	51553.85
1214.63782	51031.85
1218.21708	49241.05
1221.79391	46833.35
1225.36829	44982.55
1228.94024	43916.85
1232.50976	43088.05
1236.07685	42508.25
1239.6415	42070.75
1243.20374	42047.15
1246.76355	42305.85
1250.32093	42987.25
1253.8759	44018.15
1257.42845	45374.85
1260.97859	47018.05
1264.52631	48741.55
1268.07163	50384.05
1271.61453	52062.15
1275.15503	53922.15
1278.69312	56033.45
1282.22882	58615.75
1285.76211	61651.75
1289.29301	64950.85
1292.82151	68506.85
1296.34761	72655.25
1299.87133	77284.85
1303.39266	81841.85
1306.9116	85063.15
1310.42815	86585.35
1313.94233	86501.75
1317.45412	85202.35
1320.96354	83845.75
1324.47058	83353.85
1327.97525	83648.45
1331.47754	83860.15
1334.97747	83153.05
1338.47502	81593.05
1341.97022	79789.95
1345.46305	78052.15
1348.95352	76466.65
1352.44163	75710.15
1355.92738	76488.55
1359.41078	78999.15
1362.89183	81594.55
1366.37053	81589.65
1369.84688	76777.75
1373.32088	68840.95
1376.79254	62418.35
1380.26186	60218.85
1383.72883	60470.85
1387.19347	60694.55
1390.65578	59970.65
1394.11575	59588.05
1397.57339	60381.35
1401.0287	61945.95
1404.48168	63254.75
1407.93234	62982.15
1411.38068	60905.55
1414.82669	57712.95
1418.27039	54405.65
1421.71177	51446.05
1425.15083	49440.25
1428.58758	48812.45
1432.02203	49624.35
1435.45416	51481.45
1438.88399	53497.45
1442.31151	54795.35
1445.73673	55566.95
1449.15965	55955.35
1452.58027	56006.45
1455.9986	55968.75
1459.41463	56290.15
1462.82837	57264.75
1466.23982	58506.75
1469.64898	59611.55
1473.05586	60143.45
1476.46045	60008.75
1479.86276	59526.55
1483.26279	58987.65
1486.66054	58683.15
1490.05602	59011.55
1493.44922	59873.25
1496.84016	60882.45
1500.22882	61903.55
1503.61521	62989.35
1506.99934	64101.15
1510.38121	64953.25
1513.76081	65283.45
1517.13816	65027.65
1520.51324	64955.25
1523.88607	65281.45
1527.25665	65987.55
1530.62498	66262.45
1533.99105	65497.65
1537.35488	63776.95
1540.71647	61261.05
1544.07581	58638.25
1547.4329	56049.85
1550.78776	53997.05
1554.14038	52580.05
1557.49077	51838.75
1560.83892	51335.95
1564.18484	51069.35
1567.52853	50974.05
1570.86999	51487.55
1574.20922	52695.05
1577.54624	54047.85
1580.88103	54937.15
1584.2136	56286.25
1587.54395	59186.35
1590.87208	63348.65
1594.19801	67824.75
1597.52172	71215.35
1600.84321	70827.45
1604.16251	65918.05
1607.47959	58979.25
1610.79447	52518.65
1614.10715	47280.65
1617.41763	43305.65
1620.7259	40800.15
1624.03199	39605.55
1627.33587	39881.35
1630.63757	41451.15
1633.93707	44954.15
1637.23439	50997.45
1640.52951	60105.65
1643.82246	71444.55
1647.11321	80944.65
1650.40179	82654.15
1653.68819	74948.65
1656.97241	62604.35
1660.25446	51157.75
1663.53433	42922.65
1666.81203	37759.45
1670.08756	34589.45
1673.36092	32680.35
1676.63211	31457.65
1679.90115	30589.15
1683.16801	29966.95
1686.43272	29542.75
1689.69527	29136.45
1692.95567	28871.95
1696.2139	28675.15
1699.46999	28544.45
1702.72392	28368.55
1705.97571	28239.85
1709.22535	28105.55
1712.47284	28002.75
1715.71819	27972.25
1718.96139	27910.55
1722.20246	27746.25
1725.44139	27611.15
1728.67818	27413.35
1731.91284	27213.85
1735.14537	26990.45
1738.37576	26839.05
1741.60403	26703.15
1744.83017	26568.15
1748.05418	26463.05
1751.27607	26389.15
1754.49584	26349.95
1757.71349	26276.75
1760.92903	26223.45
1764.14244	26235.05
1767.35375	26212.15
1770.56294	26140.95
1773.77002	26046.55
1776.97499	26016.65
1780.17785	25928.15
1783.37861	25869.85
1786.57727	25825.15
1789.77382	25747.35
1792.96828	25706.05
1796.16064	25595.05
1799.3509	25536.85
1802.53907	25542.45
1805.72514	25410.55
1808.90913	25337.05
1812.09102	25244.15
1815.27083	25216.85
1818.44856	25163.65
1821.6242	25089.35
1824.79776	25095.65
1827.96924	25061.35
1831.13864	25028.85
1834.30597	25025.05
1837.47122	24986.65
1840.6344	24972.25
1843.7955	25002.55
1846.95454	25031.55
1850.11151	25036.35
1853.26642	24953.35
1856.41926	24995.35
1859.57004	24954.75
1862.71876	24914.45
1865.86542	24833.35
1869.01003	24786.25
1872.15258	24778.45
1875.29308	24720.35
1878.43152	24638.55
1881.56792	24600.55
1884.70227	24605.35
1887.83457	24564.55
1890.96482	24527.55
1894.09304	24449.45
1897.21921	24453.65
1900.34335	24434.85
1903.46544	24342.45
1906.58551	24321.25
1909.70353	24280.15
1912.81953	24193.05
1915.93349	24138.05
1919.04543	24073.45
1922.15534	24006.15
1925.26322	23958.75
1928.36908	23865.35
1931.47292	23782.45
1934.57473	23702.75
1937.67453	23619.95
1940.77232	23585.05
1943.86808	23490.65
1946.96184	23409.35
1950.05358	23327.25
1953.14331	23304.85
1956.23103	23217.25
1959.31675	23131.95
1962.40046	23073.15
1965.48217	23028.25
1968.56188	22953.15
1971.63959	22800.85
1974.7153	22715.95
1977.78901	22667.65
1980.86073	22575.75
1983.93046	22477.65
1986.99819	22380.65
1990.06394	22344.85
1993.1277	22253.55
1996.18947	22240.05
1999.24925	22149.75
2002.30706	22073.25
2005.36288	21951.05
2008.41672	21913.55
2011.46859	21862.65
2014.51848	21804.45
2017.56639	21710.65
2020.61233	21637.15
2023.6563	21583.95
2026.6983	21493.85
2029.73833	21511.45
2032.7764	21446.25
2035.8125	21375.05
2038.84664	21272.95
2041.87881	21264.95
2044.90903	21191.45
2047.93729	21149.45
2050.96359	21108.05
2053.98794	21088.65
2057.01034	21139.35
2060.03078	21108.35
2063.04927	21079.25
2066.06582	21060.75
2069.08042	21042.05
2072.09307	21031.55
2075.10378	20980.05
2078.11255	20966.35
2081.11938	20981.25
2084.12426	20923.75
2087.12722	20934.85
2090.12824	20917.05
2093.12732	20907.35
2096.12447	20918.25
2099.11969	20881.25
2102.11299	20913.15
2105.10435	20893.05
2108.09379	20866.65
2111.08131	20851.75
2114.0669	20863.05
2117.05057	20918.45
2120.03233	20890.15
2123.01216	20892.85
2125.99008	20921.95
2128.96609	20924.85
2131.94018	20938.25
2134.91236	20910.35
2137.88263	20933.75
2140.851	20869.15
2143.81746	20880.75
2146.78201	20850.95
2149.74466	20827.25
2152.7054	20830.35
2155.66425	20786.45
2158.6212	20771.75
2161.57625	20780.45
2164.52941	20746.05
2167.48067	20752.75
2170.43004	20768.25
2173.37752	20701.75
2176.32311	20713.55
2179.26681	20697.95
2182.20863	20689.55
2185.14856	20706.05
2188.08661	20691.45
2191.02278	20678.25
2193.95707	20684.55
2196.88948	20608.15
2199.82001	20582.85
2202.74867	20529.75
2205.67545	20485.95
2208.60037	20479.55
2211.52341	20435.35
2214.44458	20430.15
2217.36388	20358.75
2220.28132	20291.85
2223.1969	20288.65
2226.11061	20264.35
2229.02246	20214.15
2231.93245	20253.35
2234.84058	20196.05
2237.74686	20203.65
2240.65128	20207.85
2243.55385	20132.35
2246.45456	20119.65
2249.35343	20001.45
2252.25044	19931.75
2255.14561	19860.85
2258.03893	19784.55
2260.93041	19715.35
2263.82004	19702.75
2266.70783	19642.15
2269.59378	19548.25
2272.4779	19511.05
2275.36017	19428.05
2278.24061	19447.75
2281.11922	19396.35
2283.996	19348.05
2286.87094	19349.05
2289.74405	19309.65
2292.61534	19261.45
2295.4848	19216.45
2298.35243	19214.75
2301.21824	19219.55
2304.08223	19198.55
2306.94439	19180.75
2309.80474	19186.35
2312.66327	19142.85
2315.51999	19118.75
2318.37489	19088.95
2321.22797	19018.75
2324.07925	19036.95
2326.92871	18996.55
2329.77637	18970.65
2332.62222	18917.45
2335.46626	18903.35
2338.3085	18924.65
2341.14893	18899.95
2343.98756	18899.55
2346.8244	18914.95
2349.65943	18863.95
2352.49267	18884.65
2355.32411	18909.95
2358.15376	18873.45
2360.98161	18835.95
2363.80768	18853.75
2366.63195	18880.65
2369.45444	18858.15
2372.27514	18806.35
2375.09405	18812.95
2377.91118	18725.05
2380.72652	18657.75
2383.54009	18588.95
2386.35187	18600.25
2389.16188	18496.05
2391.97011	18452.55
2394.77657	18441.95
2397.58125	18419.15
2400.38416	18388.75
2403.18529	18334.35
2405.98466	18368.85
2408.78226	18337.95
2411.57809	18284.05
2414.37216	18283.95
2417.16446	18277.65
2419.955	18234.95
2422.74378	18225.95
2425.5308	18186.65
2428.31606	18171.15
2431.09956	18174.95
2433.88131	18157.95
2436.6613	18185.25
2439.43954	18166.65
2442.21603	18124.15
2444.99077	18148.25
2447.76377	18144.95
2450.53501	18093.25
2453.30451	18071.15
2456.07226	18055.55
2458.83827	18042.35
2461.60254	18029.55
2464.36507	18016.25
2467.12586	18010.55
2469.88492	17977.65
2472.64224	17994.05
2475.39782	18032.25
2478.15167	18020.05
2480.90379	18017.85
2483.65417	18004.95
2486.40283	18020.15
2489.14976	18007.55
2491.89497	17989.45
2494.63845	18009.95
2497.3802	17981.55
2500.12024	17960.75
2502.85855	17937.45
2505.59514	17911.85
2508.33002	17885.75
2511.06318	17877.55
2513.79462	17849.75
2516.52435	17814.05
2519.25237	17837.15
2521.97867	17829.15
2524.70327	17819.45
2527.42616	17789.15
2530.14734	17812.05
2532.86681	17765.65
2535.58458	17773.15
2538.30065	17738.55
2541.01501	17736.35
2543.72768	17742.95
2546.43864	17682.65
2549.14791	17688.75
2551.85548	17683.15
2554.56136	17656.45
2557.26554	17584.45
2559.96803	17565.95
2562.66883	17585.05
2565.36794	17575.75
2568.06536	17581.35
2570.7611	17553.15
2573.45514	17499.65
2576.14751	17481.35
2578.83819	17437.85
2581.52719	17461.45
2584.21451	17440.35
2586.90015	17438.85
2589.58411	17426.55
2592.2664	17398.95
2594.94701	17379.95
2597.62594	17356.55
2600.30321	17309.15
2602.9788	17336.55
2605.65273	17313.15
2608.32498	17369.75
2610.99557	17365.25
2613.66449	17354.75
2616.33175	17322.35
2618.99734	17340.55
2621.66128	17303.05
2624.32355	17234.05
2626.98416	17236.05
2629.64311	17213.95
2632.30041	17220.85
2634.95605	17178.45
2637.61004	17191.35
2640.26238	17176.05
2642.91306	17164.85
2645.56209	17153.75
2648.20948	17180.65
2650.85521	17167.85
2653.4993	17220.15
2656.14175	17170.55
2658.78255	17232.35
2661.42171	17191.35
2664.05923	17242.45
2666.6951	17232.15
2669.32934	17270.65
2671.96194	17275.15
2674.59291	17240.05
2677.22224	17262.25
2679.84993	17241.75
2682.476	17240.55
2685.10043	17236.05
2687.72324	17210.05
2690.34441	17205.75
2692.96396	17215.75
2695.58188	17177.45
2698.19818	17166.25
2700.81285	17156.55
2703.4259	17189.95
2706.03733	17208.35
2708.64714	17188.35
2711.25533	17187.85
2713.86191	17182.85
2716.46687	17217.85
2719.07021	17232.45
2721.67194	17262.55
2724.27206	17263.55
2726.87057	17255.55
2729.46747	17307.35
2732.06276	17285.75
2734.65644	17299.15
2737.24852	17345.65
2739.83899	17255.25
2742.42786	17268.85
2745.01513	17190.25
2747.60079	17228.75
2750.18486	17185.85
2752.76733	17158.45
2755.3482	17147.35
2757.92747	17139.85
2760.50515	17128.35
2763.08123	17131.15
2765.65573	17127.95
2768.22863	17103.75
2770.79994	17095.95
2773.36967	17102.15
2775.9378	17142.95
2778.50435	17103.15
2781.06932	17080.75
2783.6327	17092.55
2786.1945	17079.55
2788.75471	17074.65
2791.31335	17044.05
2793.87041	17038.05
2796.42589	16981.05
2798.97979	16994.45
2801.53212	16934.65
2804.08288	16923.25
2806.63206	16871.45
2809.17967	16864.15
2811.72571	16838.95
2814.27018	16787.75
2816.81308	16744.35
2819.35442	16687.25
2821.89419	16658.05
2824.43239	16698.35
2826.96904	16657.35
2829.50412	16667.55
2832.03763	16613.05
2834.56959	16597.25
2837.1	16537.15
2839.62884	16566.45
2842.15613	16566.75
2844.68186	16598.65
2847.20604	16593.95
2849.72867	16633.05
2852.24974	16594.05
2854.76927	16604.95
2857.28724	16592.45
2859.80367	16570.85
2862.31855	16527.55
2864.83189	16480.25
2867.34368	16460.25
2869.85393	16446.35
2872.36264	16369.85
2874.8698	16357.45
2877.37543	16369.35
2879.87952	16331.25
2882.38207	16331.95
2884.88308	16353.25
2887.38256	16352.15
2889.88051	16353.45
2892.37692	16376.15
2894.8718	16341.85
2897.36515	16338.85
2899.85698	16378.85
2902.34727	16390.65
2904.83604	16386.55
2907.32328	16401.65
2909.809	16381.35
2912.29319	16404.65
2914.77587	16407.65
2917.25702	16405.25
2919.73665	16387.55
2922.21476	16363.45
2924.69136	16354.15
2927.16644	16328.65
2929.64	16325.05
2932.11205	16319.95
2934.58258	16263.65
2937.05161	16268.95
2939.51912	16267.75
2941.98513	16226.85
2944.44962	16195.55
2946.91261	16123.15
2949.37409	16178.95
2951.83407	16120.45
2954.29254	16086.45
2956.74951	16074.75
2959.20498	16053.55
2961.65895	16035.55
2964.11142	16033.85
2966.56239	15983.25
2969.01186	15966.85
2971.45984	15937.65
2973.90632	15915.45
2976.35131	15861.35
2978.7948	15824.85
2981.23681	15797.45
2983.67732	15767.55
2986.11635	15714.05
2988.55388	15630.35
2990.98993	15610.55
2993.4245	15559.75
2995.85758	15489.75
2998.28917	15451.05
3000.71928	15388.05
3003.14791	15360.55
3005.57506	15330.65
3008.00073	15290.15
3010.42493	15292.15
3012.84764	15268.05
3015.26888	15239.35
3017.68865	15149.25
3020.10694	15153.35
3022.52376	15096.35
3024.9391	15083.65
3027.35298	15065.05
3029.76539	15069.75
3032.17632	15043.95
3034.5858	15013.35
3036.9938	14970.75
3039.40034	14945.95
3041.80542	14944.85
3044.20903	14910.95
3046.61118	14923.35
3049.01187	14884.25
3051.4111	14867.25
3053.80888	14846.65
3056.20519	14810.75
3058.60005	14747.05
3060.99345	14682.35
3063.3854	14623.25
3065.7759	14561.25
3068.16494	14507.65
3070.55254	14456.75
3072.93868	14425.05
3075.32338	14363.85
3077.70662	14327.25
3080.08842	14254.05
3082.46878	14225.25
3084.84769	14223.75
3087.22515	14230.75
3089.60118	14205.95
3091.97576	14190.75
3094.3489	14179.65
3096.72061	14169.25
3099.09087	14150.05
3101.4597	14106.95
3103.82709	14124.05
3106.19305	14100.05
3108.55757	14073.75
3110.92066	14045.65
3113.28232	14004.55
3115.64255	13932.75
3118.00134	13902.85
3120.35871	13873.05
3122.71466	13837.95
3125.06917	13823.75
3127.42226	13771.55
3129.77393	13764.25
3132.12417	13738.35
3134.47299	13707.45
3136.82039	13680.85
3139.16636	13677.25
3141.51092	13694.95
3143.85406	13653.75
3146.19579	13650.95
3148.53609	13612.45
3150.87499	13604.55
3153.21246	13592.85
3155.54853	13585.85
3157.88318	13598.65
3160.21642	13600.15
3162.54826	13588.95
3164.87868	13582.45
3167.2077	13585.65
3169.5353	13540.85
3171.86151	13519.25
3174.18631	13528.95
3176.5097	13527.85
3178.83169	13487.05
3181.15228	13473.15
3183.47147	13417.35
3185.78926	13428.35
3188.10565	13394.75
3190.42065	13364.25
3192.73424	13334.25
3195.04645	13326.05
3197.35725	13310.85
3199.66667	13279.55
3201.97469	13250.05
3204.28132	13232.75
3206.58656	13223.15
3208.8904	13208.55
3211.19287	13204.05
3213.49394	13198.25
3215.79363	13211.65
3218.09193	13197.35
3220.38884	13168.75
3222.68438	13171.65
3224.97853	13158.15
3227.2713	13158.95
3229.56269	13106.55
3231.8527	13156.55
3234.14133	13100.05
3236.42858	13112.35
3238.71446	13084.05
3240.99896	13055.05
3243.28209	13054.75
3245.56384	13036.35
3247.84423	12997.05
3250.12324	12971.05
3252.40088	12922.95
3254.67715	12880.75
3256.95205	12860.95
3259.22558	12839.15
3261.49775	12836.85
3263.76855	12766.95
3266.03799	12745.55
3268.30606	12712.55
3270.57277	12717.15
3272.83812	12657.95
3275.10211	12635.55
3277.36474	12637.25
3279.62601	12620.75
3281.88593	12620.05
3284.14448	12612.15
3286.40168	12623.35
3288.65753	12619.95
3290.91202	12611.85
3293.16516	12580.15
3295.41695	12539.75
3297.66738	12480.65
3299.91647	12420.15
3302.16421	12317.35
3304.4106	12219.05
3306.65564	12101.95
3308.89933	12012.15
3311.14169	11932.75
3313.38269	11803.25
3315.62236	11728.25
3317.86068	11615.75
3320.09766	11516.55
3322.3333	11404.55
3324.5676	11346.75
3326.80056	11160.65
3329.03219	11114.55
3331.26248	3.45
3333.49143	-0.45
3335.71905	0.15
