Data from AgNPs_FTO_APTES_UA_5uM_CRN_5uM_R6G_10uM_NaF_0.1M_Addition_RamanShift__7__11-52-56-675.txt Node

Date: Mon Feb 07 11:52:56 GMT 2022
User: TCL
Spectrometer: QEP01345
Trigger mode: 4
Integration Time (sec): 7.000000E0
Scans to average: 10
Electric dark correction enabled: true
Nonlinearity correction enabled: false
Boxcar width: 0
XAxis mode: Raman Shifts
Number of Pixels in Spectrum: 1044
>>>>>Begin Spectral Data<<<<<
46.04893	-0.45
50.45542	-0.35
54.85868	-1.05
59.25871	0.05
63.6555	102.75
68.04907	108.35
72.43941	115.15
76.82654	123.85
81.21044	124.65
85.59113	125.65
89.96862	134.45
94.34289	134.35
98.71396	141.75
103.08183	144.85
107.4465	148.35
111.80798	153.05
116.16626	157.55
120.52136	167.65
124.87327	172.55
129.222	185.85
133.56755	205.15
137.90993	220.55
142.24913	243.45
146.58517	281.25
150.91804	322.45
155.24774	394.35
159.57429	496.15
163.89768	641.95
168.21792	856.15
172.53501	1178.55
176.84895	1637.45
181.15975	2311.05
185.46741	3230.25
189.77193	4459.65
194.07331	5956.75
198.37157	7662.65
202.6667	9451.65
206.9587	11235.35
211.24758	12977.25
215.53334	14713.35
219.81599	16587.85
224.09553	18633.75
228.37195	20894.25
232.64527	23333.75
236.91549	25892.75
241.18261	28431.45
245.44663	30821.55
249.70755	32916.75
253.96539	34819.65
258.22014	36408.75
262.4718	37698.25
266.72039	38512.45
270.96589	39008.35
275.20832	39110.95
279.44768	38915.85
283.68397	38707.55
287.91719	38473.25
292.14735	38316.55
296.37445	38313.95
300.59849	38405.85
304.81948	38591.15
309.03742	38599.75
313.25231	38399.25
317.46415	37757.85
321.67296	36934.35
325.87872	36068.85
330.08145	35581.15
334.28114	35506.75
338.47781	35650.05
342.67145	36042.75
346.86207	36538.95
351.04966	37126.15
355.23424	37664.45
359.4158	38269.95
363.59435	38662.65
367.76989	38941.35
371.94243	39037.85
376.11196	39105.05
380.27849	39117.25
384.44203	39174.45
388.60257	39442.25
392.76012	40017.75
396.91468	40703.05
401.06626	41468.85
405.21485	41903.55
409.36047	41720.35
413.50311	41346.25
417.64277	41348.75
421.77947	41704.55
425.9132	42097.95
430.04396	42331.65
434.17176	42377.25
438.2966	42440.65
442.41849	42869.95
446.53742	44002.25
450.6534	45247.05
454.76644	46179.55
458.87653	46524.15
462.98368	46338.55
467.08789	45653.05
471.18916	44899.75
475.2875	44193.95
479.38291	43878.65
483.4754	43776.25
487.56496	43341.35
491.6516	42649.55
495.73531	41753.15
499.81612	41189.45
503.89401	41307.55
507.96899	41554.85
512.04106	41647.05
516.11023	41241.95
520.1765	40499.05
524.23987	39682.85
528.30034	39028.45
532.35792	38509.25
536.41261	37977.65
540.46441	37549.05
544.51333	37590.75
548.55936	38116.65
552.60252	39046.65
556.64279	40192.15
560.6802	41236.75
564.71473	42048.55
568.7464	43281.15
572.7752	45411.65
576.80114	48006.95
580.82422	50588.85
584.84444	53410.65
588.86181	56868.75
592.87633	59625.45
596.888	58531.65
600.89682	54060.25
604.9028	51207.05
608.90594	51945.15
612.90624	53241.45
616.90371	49194.15
620.89834	42146.95
624.89015	39176.55
628.87913	39141.35
632.86528	39624.45
636.84862	39426.25
640.82913	38378.05
644.80683	37234.15
648.78172	36555.05
652.75379	36564.75
656.72306	37025.35
660.68952	37366.35
664.65319	37097.95
668.61405	36512.95
672.57211	36340.65
676.52738	36518.85
680.47986	36500.05
684.42955	36084.75
688.37646	35934.85
692.32058	36225.55
696.26192	36891.85
700.20048	37525.95
704.13626	37976.95
708.06928	38264.25
711.99952	38278.05
715.927	38221.85
719.85171	38303.45
723.77365	37865.75
727.69284	37093.75
731.60928	36291.25
735.52295	35934.85
739.43388	35920.15
743.34206	36022.45
747.24749	36378.75
751.15017	36956.95
755.05012	37897.55
758.94733	39225.45
762.8418	41283.05
766.73354	44095.35
770.62254	46319.45
774.50882	46004.85
778.39237	43421.05
782.27321	40494.05
786.15132	38218.45
790.02671	36791.95
793.89938	36012.15
797.76935	35689.75
801.6366	35621.85
805.50115	35541.45
809.36299	35388.25
813.22213	35134.15
817.07857	34925.75
820.93231	34700.55
824.78336	34434.65
828.63172	34083.85
832.47738	33934.15
836.32036	33881.45
840.16066	33880.55
843.99827	33895.85
847.8332	33931.95
851.66546	33946.65
855.49504	34037.25
859.32195	34021.55
863.1462	33876.65
866.96777	33820.35
870.78668	33763.15
874.60293	33699.45
878.41652	33632.85
882.22745	33714.45
886.03573	33865.55
889.84136	33819.25
893.64433	33717.05
897.44466	33578.25
901.24235	33494.35
905.0374	33451.35
908.8298	33402.65
912.61957	33544.25
916.40671	34065.55
920.19121	34887.95
923.97308	35505.45
927.75233	35409.25
931.52895	34657.95
935.30295	33813.35
939.07433	32938.05
942.84309	32367.25
946.60924	32039.85
950.37278	31989.15
954.13371	32019.55
957.89203	32075.65
961.64774	32113.25
965.40086	32162.25
969.15137	32075.25
972.89929	31883.95
976.64461	31681.25
980.38733	31565.25
984.12747	31500.55
987.86502	31668.85
991.59999	31851.35
995.33237	32209.85
999.06217	32759.75
1002.78939	33517.55
1006.51404	34452.05
1010.23611	35330.85
1013.95561	35845.15
1017.67255	35882.45
1021.38692	35333.65
1025.09872	34519.65
1028.80796	33933.35
1032.51465	33841.05
1036.21877	34027.35
1039.92035	34294.45
1043.61937	34395.55
1047.31584	34400.15
1051.00976	34328.65
1054.70114	34463.85
1058.38998	34796.55
1062.07627	35278.85
1065.76003	35897.55
1069.44126	36684.25
1073.11995	37481.35
1076.79611	38156.35
1080.46974	38336.85
1084.14085	38657.35
1087.80943	39207.05
1091.47549	39787.85
1095.13903	40072.85
1098.80005	39409.55
1102.45857	38128.05
1106.11456	36930.85
1109.76805	36315.85
1113.41903	36127.15
1117.06751	36262.85
1120.71348	36621.65
1124.35696	36902.55
1127.99793	37467.95
1131.63641	37823.55
1135.2724	38043.65
1138.90589	38192.15
1142.5369	38627.35
1146.16542	39216.15
1149.79145	39932.25
1153.415	40716.55
1157.03607	41747.25
1160.65467	43562.35
1164.27079	46430.55
1167.88443	49561.25
1171.49561	52404.95
1175.10432	55504.35
1178.71056	59445.05
1182.31434	63163.75
1185.91565	64917.45
1189.51451	64545.45
1193.11091	63021.55
1196.70485	61044.65
1200.29634	58885.45
1203.88538	57812.15
1207.47197	57974.55
1211.05612	58424.55
1214.63782	57567.05
1218.21708	55391.35
1221.79391	52737.85
1225.36829	50607.65
1228.94024	49260.25
1232.50976	48228.45
1236.07685	47379.35
1239.6415	46827.95
1243.20374	46678.75
1246.76355	47124.35
1250.32093	48027.25
1253.8759	49312.35
1257.42845	50914.05
1260.97859	52777.35
1264.52631	54754.05
1268.07163	56668.25
1271.61453	58741.95
1275.15503	60857.05
1278.69312	63390.55
1282.22882	66222.35
1285.76211	69604.55
1289.29301	73474.35
1292.82151	78000.25
1296.34761	83444.65
1299.87133	89544.15
1303.39266	95328.65
1306.9116	99536.95
1310.42815	101764.15
1313.94233	102009.85
1317.45412	100781.35
1320.96354	99460.05
1324.47058	98915.15
1327.97525	99165.05
1331.47754	99349.85
1334.97747	98783.95
1338.47502	97326.45
1341.97022	95389.35
1345.46305	92909.25
1348.95352	90442.15
1352.44163	88752.75
1355.92738	88889.35
1359.41078	91224.35
1362.89183	93396.05
1366.37053	92555.95
1369.84688	86585.05
1373.32088	77493.75
1376.79254	70816.25
1380.26186	68840.95
1383.72883	69911.45
1387.19347	70908.15
1390.65578	70572.45
1394.11575	70449.85
1397.57339	71644.85
1401.0287	73604.15
1404.48168	75076.35
1407.93234	74898.75
1411.38068	72481.55
1414.82669	68669.25
1418.27039	64508.95
1421.71177	60610.15
1425.15083	57725.35
1428.58758	56697.65
1432.02203	57617.45
1435.45416	59993.05
1438.88399	62733.95
1442.31151	64845.45
1445.73673	65939.85
1449.15965	66577.25
1452.58027	66664.05
1455.9986	66525.35
1459.41463	66873.55
1462.82837	67991.55
1466.23982	69325.25
1469.64898	70434.85
1473.05586	70915.45
1476.46045	70694.75
1479.86276	69799.65
1483.26279	68661.95
1486.66054	68001.05
1490.05602	68044.95
1493.44922	68631.05
1496.84016	69182.45
1500.22882	69716.85
1503.61521	70501.15
1506.99934	71476.75
1510.38121	72248.05
1513.76081	72360.35
1517.13816	72097.25
1520.51324	72086.55
1523.88607	72784.45
1527.25665	73978.75
1530.62498	74783.85
1533.99105	74591.15
1537.35488	73008.75
1540.71647	70646.45
1544.07581	67524.05
1547.4329	64539.65
1550.78776	62123.35
1554.14038	60485.35
1557.49077	59457.65
1560.83892	58659.65
1564.18484	58172.45
1567.52853	58120.65
1570.86999	58717.05
1574.20922	60362.35
1577.54624	62277.05
1580.88103	63691.25
1584.2136	65796.45
1587.54395	69428.45
1590.87208	74463.15
1594.19801	79798.65
1597.52172	83834.25
1600.84321	83515.55
1604.16251	77630.25
1607.47959	69427.55
1610.79447	61577.85
1614.10715	54921.75
1617.41763	49839.15
1620.7259	46501.05
1624.03199	44963.05
1627.33587	45226.65
1630.63757	47329.45
1633.93707	51970.75
1637.23439	59580.75
1640.52951	70629.15
1643.82246	83505.35
1647.11321	93221.35
1650.40179	93809.65
1653.68819	84330.65
1656.97241	70079.65
1660.25446	56865.75
1663.53433	47349.15
1666.81203	41209.55
1670.08756	37434.35
1673.36092	35076.15
1676.63211	33591.85
1679.90115	32557.15
1683.16801	31744.15
1686.43272	31154.55
1689.69527	30690.05
1692.95567	30429.35
1696.2139	30153.25
1699.46999	29899.65
1702.72392	29766.95
1705.97571	29635.95
1709.22535	29508.75
1712.47284	29385.45
1715.71819	29315.75
1718.96139	29198.35
1722.20246	29057.75
1725.44139	28887.25
1728.67818	28656.65
1731.91284	28378.95
1735.14537	28181.85
1738.37576	27989.95
1741.60403	27828.35
1744.83017	27684.35
1748.05418	27590.95
1751.27607	27496.85
1754.49584	27435.75
1757.71349	27376.35
1760.92903	27359.85
1764.14244	27308.45
1767.35375	27231.75
1770.56294	27186.75
1773.77002	27073.95
1776.97499	26975.65
1780.17785	26935.15
1783.37861	26841.65
1786.57727	26776.95
1789.77382	26761.45
1792.96828	26696.05
1796.16064	26617.85
1799.3509	26522.05
1802.53907	26485.45
1805.72514	26372.85
1808.90913	26246.65
1812.09102	26251.05
1815.27083	26171.05
1818.44856	26131.95
1821.6242	26073.05
1824.79776	26065.55
1827.96924	26073.95
1831.13864	25973.65
1834.30597	26029.25
1837.47122	26006.15
1840.6344	26007.15
1843.7955	26026.05
1846.95454	26049.35
1850.11151	26016.85
1853.26642	25999.75
1856.41926	25949.45
1859.57004	25928.35
1862.71876	25855.45
1865.86542	25812.45
1869.01003	25732.75
1872.15258	25670.55
1875.29308	25620.85
1878.43152	25614.95
1881.56792	25583.25
1884.70227	25542.95
1887.83457	25497.75
1890.96482	25433.75
1894.09304	25431.65
1897.21921	25402.55
1900.34335	25353.95
1903.46544	25284.15
1906.58551	25246.95
1909.70353	25202.45
1912.81953	25127.45
1915.93349	25003.55
1919.04543	24941.55
1922.15534	24904.15
1925.26322	24808.95
1928.36908	24759.75
1931.47292	24680.35
1934.57473	24593.25
1937.67453	24466.05
1940.77232	24404.15
1943.86808	24329.65
1946.96184	24263.15
1950.05358	24209.95
1953.14331	24190.55
1956.23103	24095.85
1959.31675	23989.35
1962.40046	23909.75
1965.48217	23829.15
1968.56188	23760.95
1971.63959	23679.45
1974.7153	23559.75
1977.78901	23469.55
1980.86073	23334.25
1983.93046	23289.55
1986.99819	23217.75
1990.06394	23187.55
1993.1277	23140.15
1996.18947	23054.55
1999.24925	22988.25
2002.30706	22862.05
2005.36288	22781.95
2008.41672	22719.45
2011.46859	22652.25
2014.51848	22611.65
2017.56639	22530.05
2020.61233	22456.85
2023.6563	22415.35
2026.6983	22310.55
2029.73833	22278.85
2032.7764	22257.65
2035.8125	22197.15
2038.84664	22128.55
2041.87881	22101.85
2044.90903	22047.85
2047.93729	21967.35
2050.96359	21961.85
2053.98794	21941.55
2057.01034	21917.75
2060.03078	21936.15
2063.04927	21912.05
2066.06582	21914.05
2069.08042	21878.65
2072.09307	21829.05
2075.10378	21817.15
2078.11255	21791.15
2081.11938	21749.15
2084.12426	21754.25
2087.12722	21722.25
2090.12824	21735.45
2093.12732	21703.15
2096.12447	21692.85
2099.11969	21725.05
2102.11299	21716.45
2105.10435	21698.25
2108.09379	21739.65
2111.08131	21711.45
2114.0669	21711.25
2117.05057	21722.85
2120.03233	21729.15
2123.01216	21698.85
2125.99008	21712.55
2128.96609	21691.25
2131.94018	21689.95
2134.91236	21668.15
2137.88263	21668.35
2140.851	21672.65
2143.81746	21652.25
2146.78201	21599.85
2149.74466	21623.65
2152.7054	21572.35
2155.66425	21545.65
2158.6212	21528.35
2161.57625	21520.45
2164.52941	21531.85
2167.48067	21512.85
2170.43004	21539.25
2173.37752	21535.25
2176.32311	21510.35
2179.26681	21500.95
2182.20863	21494.25
2185.14856	21517.35
2188.08661	21536.65
2191.02278	21513.25
2193.95707	21500.85
2196.88948	21458.15
2199.82001	21414.45
2202.74867	21334.15
2205.67545	21287.45
2208.60037	21241.35
2211.52341	21227.85
2214.44458	21209.15
2217.36388	21147.65
2220.28132	21117.75
2223.1969	21023.95
2226.11061	21029.25
2229.02246	20995.65
2231.93245	21041.85
2234.84058	20990.75
2237.74686	20977.65
2240.65128	20958.05
2243.55385	20872.65
2246.45456	20827.05
2249.35343	20765.75
2252.25044	20695.95
2255.14561	20623.85
2258.03893	20588.35
2260.93041	20508.45
2263.82004	20445.65
2266.70783	20395.05
2269.59378	20314.85
2272.4779	20255.35
2275.36017	20204.85
2278.24061	20171.15
2281.11922	20115.05
2283.996	20061.95
2286.87094	20041.35
2289.74405	20014.15
2292.61534	20008.85
2295.4848	19961.95
2298.35243	19961.55
2301.21824	19984.45
2304.08223	19978.95
2306.94439	19962.45
2309.80474	19958.55
2312.66327	19942.25
2315.51999	19874.35
2318.37489	19836.35
2321.22797	19811.65
2324.07925	19820.45
2326.92871	19774.65
2329.77637	19779.45
2332.62222	19710.05
2335.46626	19650.45
2338.3085	19736.35
2341.14893	19705.25
2343.98756	19710.55
2346.8244	19738.05
2349.65943	19691.35
2352.49267	19702.05
2355.32411	19677.75
2358.15376	19683.25
2360.98161	19632.65
2363.80768	19661.25
2366.63195	19642.35
2369.45444	19652.35
2372.27514	19602.65
2375.09405	19574.05
2377.91118	19524.55
2380.72652	19462.85
2383.54009	19407.35
2386.35187	19378.45
2389.16188	19335.15
2391.97011	19300.95
2394.77657	19235.25
2397.58125	19251.55
2400.38416	19240.05
2403.18529	19191.95
2405.98466	19156.15
2408.78226	19106.55
2411.57809	19105.55
2414.37216	19102.65
2417.16446	19121.15
2419.955	19071.55
2422.74378	19035.85
2425.5308	19008.25
2428.31606	18997.15
2431.09956	18974.65
2433.88131	18955.55
2436.6613	18984.95
2439.43954	18970.95
2442.21603	18975.95
2444.99077	18941.95
2447.76377	18960.25
2450.53501	18950.15
2453.30451	18910.65
2456.07226	18855.35
2458.83827	18903.45
2461.60254	18883.15
2464.36507	18878.75
2467.12586	18867.45
2469.88492	18865.35
2472.64224	18838.95
2475.39782	18925.75
2478.15167	18911.15
2480.90379	18898.15
2483.65417	18926.15
2486.40283	18911.65
2489.14976	18922.05
2491.89497	18936.25
2494.63845	18928.55
2497.3802	18915.15
2500.12024	18934.45
2502.85855	18888.95
2505.59514	18878.25
2508.33002	18859.95
2511.06318	18873.25
2513.79462	18827.25
2516.52435	18863.25
2519.25237	18857.05
2521.97867	18856.75
2524.70327	18840.65
2527.42616	18773.35
2530.14734	18817.65
2532.86681	18796.75
2535.58458	18849.45
2538.30065	18841.45
2541.01501	18814.55
2543.72768	18750.25
2546.43864	18779.55
2549.14791	18731.45
2551.85548	18718.35
2554.56136	18690.55
2557.26554	18699.95
2559.96803	18666.35
2562.66883	18641.85
2565.36794	18590.55
2568.06536	18611.55
2570.7611	18615.25
2573.45514	18617.45
2576.14751	18609.65
2578.83819	18602.05
2581.52719	18589.85
2584.21451	18590.95
2586.90015	18593.95
2589.58411	18566.15
2592.2664	18587.75
2594.94701	18544.95
2597.62594	18498.05
2600.30321	18492.55
2602.9788	18538.75
2605.65273	18550.65
2608.32498	18566.35
2610.99557	18569.05
2613.66449	18594.05
2616.33175	18504.85
2618.99734	18530.75
2621.66128	18533.35
2624.32355	18508.65
2626.98416	18504.85
2629.64311	18488.95
2632.30041	18488.05
2634.95605	18467.05
2637.61004	18471.25
2640.26238	18439.75
2642.91306	18470.65
2645.56209	18426.25
2648.20948	18477.75
2650.85521	18517.05
2653.4993	18530.85
2656.14175	18539.35
2658.78255	18541.25
2661.42171	18545.25
2664.05923	18576.85
2666.6951	18591.35
2669.32934	18607.15
2671.96194	18621.45
2674.59291	18589.85
2677.22224	18636.05
2679.84993	18653.35
2682.476	18598.05
2685.10043	18582.45
2687.72324	18563.55
2690.34441	18572.95
2692.96396	18527.85
2695.58188	18571.05
2698.19818	18547.15
2700.81285	18572.85
2703.4259	18554.85
2706.03733	18608.15
2708.64714	18557.55
2711.25533	18606.45
2713.86191	18573.95
2716.46687	18588.05
2719.07021	18577.75
2721.67194	18672.25
2724.27206	18690.25
2726.87057	18730.35
2729.46747	18762.15
2732.06276	18770.45
2734.65644	18741.35
2737.24852	18782.45
2739.83899	18733.55
2742.42786	18759.05
2745.01513	18737.15
2747.60079	18735.65
2750.18486	18677.95
2752.76733	18704.85
2755.3482	18651.45
2757.92747	18708.65
2760.50515	18658.15
2763.08123	18701.15
2765.65573	18670.45
2768.22863	18678.55
2770.79994	18680.05
2773.36967	18666.05
2775.9378	18657.05
2778.50435	18655.45
2781.06932	18626.45
2783.6327	18662.15
2786.1945	18655.05
2788.75471	18655.75
2791.31335	18658.55
2793.87041	18600.45
2796.42589	18559.35
2798.97979	18591.35
2801.53212	18542.85
2804.08288	18522.95
2806.63206	18464.25
2809.17967	18393.05
2811.72571	18350.35
2814.27018	18359.55
2816.81308	18332.65
2819.35442	18296.75
2821.89419	18233.45
2824.43239	18264.15
2826.96904	18226.65
2829.50412	18226.95
2832.03763	18189.65
2834.56959	18149.85
2837.1	18118.75
2839.62884	18082.15
2842.15613	18106.55
2844.68186	18136.85
2847.20604	18121.85
2849.72867	18170.45
2852.24974	18153.45
2854.76927	18148.45
2857.28724	18120.35
2859.80367	18069.05
2862.31855	18038.65
2864.83189	18035.85
2867.34368	17978.85
2869.85393	17995.75
2872.36264	17944.15
2874.8698	17904.95
2877.37543	17900.95
2879.87952	17904.25
2882.38207	17923.55
2884.88308	17859.05
2887.38256	17913.25
2889.88051	17891.35
2892.37692	17916.45
2894.8718	17935.55
2897.36515	17955.15
2899.85698	17960.05
2902.34727	17959.75
2904.83604	18000.05
2907.32328	18050.85
2909.809	18002.45
2912.29319	18006.25
2914.77587	18014.15
2917.25702	18026.75
2919.73665	18025.25
2922.21476	18004.65
2924.69136	18009.95
2927.16644	17951.15
2929.64	17942.85
2932.11205	17932.05
2934.58258	17855.75
2937.05161	17870.05
2939.51912	17888.85
2941.98513	17869.65
2944.44962	17817.05
2946.91261	17760.85
2949.37409	17769.25
2951.83407	17730.25
2954.29254	17699.65
2956.74951	17684.45
2959.20498	17686.45
2961.65895	17647.25
2964.11142	17605.35
2966.56239	17582.75
2969.01186	17537.55
2971.45984	17510.45
2973.90632	17505.35
2976.35131	17437.95
2978.7948	17391.65
2981.23681	17351.15
2983.67732	17307.45
2986.11635	17206.85
2988.55388	17228.35
2990.98993	17161.95
2993.4245	17039.95
2995.85758	17012.65
2998.28917	16931.25
3000.71928	16933.35
3003.14791	16927.25
3005.57506	16846.25
3008.00073	16790.65
3010.42493	16781.75
3012.84764	16731.25
3015.26888	16700.85
3017.68865	16633.25
3020.10694	16610.95
3022.52376	16567.95
3024.9391	16542.95
3027.35298	16530.65
3029.76539	16538.65
3032.17632	16487.45
3034.5858	16481.55
3036.9938	16476.15
3039.40034	16462.65
3041.80542	16448.35
3044.20903	16447.05
3046.61118	16420.85
3049.01187	16370.25
3051.4111	16330.85
3053.80888	16325.15
3056.20519	16295.85
3058.60005	16233.15
3060.99345	16169.35
3063.3854	16107.15
3065.7759	15999.55
3068.16494	15960.95
3070.55254	15886.25
3072.93868	15830.75
3075.32338	15778.35
3077.70662	15734.95
3080.08842	15643.15
3082.46878	15648.75
3084.84769	15619.95
3087.22515	15553.55
3089.60118	15553.25
3091.97576	15550.65
3094.3489	15519.95
3096.72061	15479.25
3099.09087	15489.85
3101.4597	15501.65
3103.82709	15482.65
3106.19305	15429.55
3108.55757	15379.95
3110.92066	15342.45
3113.28232	15357.85
3115.64255	15308.75
3118.00134	15255.45
3120.35871	15222.55
3122.71466	15200.05
3125.06917	15092.35
3127.42226	15051.75
3129.77393	15043.55
3132.12417	14989.15
3134.47299	14962.95
3136.82039	14978.95
3139.16636	14957.45
3141.51092	14927.55
3143.85406	14927.45
3146.19579	14929.55
3148.53609	14914.35
3150.87499	14902.75
3153.21246	14844.15
3155.54853	14857.75
3157.88318	14844.85
3160.21642	14894.45
3162.54826	14850.85
3164.87868	14840.55
3167.2077	14819.65
3169.5353	14823.05
3171.86151	14799.05
3174.18631	14787.05
3176.5097	14791.65
3178.83169	14769.85
3181.15228	14780.95
3183.47147	14716.15
3185.78926	14696.15
3188.10565	14657.25
3190.42065	14622.55
3192.73424	14617.05
3195.04645	14600.65
3197.35725	14517.35
3199.66667	14507.15
3201.97469	14489.55
3204.28132	14464.95
3206.58656	14481.25
3208.8904	14428.85
3211.19287	14461.45
3213.49394	14434.15
3215.79363	14455.45
3218.09193	14431.45
3220.38884	14401.25
3222.68438	14436.95
3224.97853	14395.35
3227.2713	14361.75
3229.56269	14388.75
3231.8527	14378.45
3234.14133	14334.05
3236.42858	14305.05
3238.71446	14298.35
3240.99896	14265.35
3243.28209	14228.15
3245.56384	14209.15
3247.84423	14206.05
3250.12324	14157.25
3252.40088	14109.55
3254.67715	14092.55
3256.95205	14047.45
3259.22558	14011.35
3261.49775	13993.15
3263.76855	13970.45
3266.03799	13922.35
3268.30606	13913.25
3270.57277	13865.95
3272.83812	13870.85
3275.10211	13811.75
3277.36474	13807.55
3279.62601	13803.75
3281.88593	13786.85
3284.14448	13799.95
3286.40168	13808.35
3288.65753	13796.05
3290.91202	13784.45
3293.16516	13774.25
3295.41695	13705.35
3297.66738	13629.15
3299.91647	13540.15
3302.16421	13436.35
3304.4106	13349.25
3306.65564	13250.35
3308.89933	13143.55
3311.14169	13005.95
3313.38269	12886.75
3315.62236	12812.85
3317.86068	12694.45
3320.09766	12562.85
3322.3333	12455.65
3324.5676	12414.35
3326.80056	12194.05
3329.03219	12090.55
3331.26248	4.85
3333.49143	-1.85
3335.71905	-0.75
