Data from AgNPs_FTO_APTES_UA_5uM_CRN_10uM_R6G_10uM_NaF_0.1M_Addition_RamanShift__27__12-54-46-747.txt Node

Date: Mon Feb 07 12:54:46 GMT 2022
User: TCL
Spectrometer: QEP01345
Trigger mode: 4
Integration Time (sec): 7.000000E0
Scans to average: 10
Electric dark correction enabled: true
Nonlinearity correction enabled: false
Boxcar width: 0
XAxis mode: Raman Shifts
Number of Pixels in Spectrum: 1044
>>>>>Begin Spectral Data<<<<<
46.04893	-0.75
50.45542	-0.65
54.85868	-1.45
59.25871	-0.05
63.6555	80.25
68.04907	82.05
72.43941	87.85
76.82654	90.65
81.21044	96.35
85.59113	96.85
89.96862	102.25
94.34289	100.55
98.71396	107.35
103.08183	110.65
107.4465	112.35
111.80798	116.15
116.16626	121.75
120.52136	129.25
124.87327	135.55
129.222	142.95
133.56755	153.15
137.90993	165.15
142.24913	182.65
146.58517	210.95
150.91804	248.55
155.24774	295.25
159.57429	378.05
163.89768	488.15
168.21792	654.65
172.53501	894.85
176.84895	1248.75
181.15975	1767.05
185.46741	2467.65
189.77193	3406.85
194.07331	4544.35
198.37157	5839.45
202.6667	7190.25
206.9587	8547.35
211.24758	9900.05
215.53334	11296.75
219.81599	12817.05
224.09553	14570.25
228.37195	16493.65
232.64527	18567.45
236.91549	20666.95
241.18261	22646.85
245.44663	24375.65
249.70755	25828.55
253.96539	27050.85
258.22014	28139.15
262.4718	29125.75
266.72039	29953.85
270.96589	30475.45
275.20832	30690.45
279.44768	30656.55
283.68397	30579.75
287.91719	30542.25
292.14735	30698.05
296.37445	31146.75
300.59849	31752.65
304.81948	32400.95
309.03742	32787.15
313.25231	32344.25
317.46415	30933.35
321.67296	28909.35
325.87872	27196.15
330.08145	26348.45
334.28114	26212.75
338.47781	26488.45
342.67145	27145.55
346.86207	27991.65
351.04966	29288.65
355.23424	30706.65
359.4158	31774.75
363.59435	32276.65
367.76989	32313.45
371.94243	32206.75
376.11196	32123.45
380.27849	31979.05
384.44203	31783.05
388.60257	31578.65
392.76012	31590.45
396.91468	31969.55
401.06626	32757.25
405.21485	33318.75
409.36047	32903.55
413.50311	31466.65
417.64277	30262.05
421.77947	29687.45
425.9132	29546.65
430.04396	29638.55
434.17176	29833.15
438.2966	30200.05
442.41849	30807.75
446.53742	31751.15
450.6534	32798.85
454.76644	33561.05
458.87653	33764.25
462.98368	33590.25
467.08789	33208.55
471.18916	32638.25
475.2875	32109.45
479.38291	31759.05
483.4754	31383.35
487.56496	30822.15
491.6516	30254.05
495.73531	29779.95
499.81612	29605.65
503.89401	29750.45
507.96899	29929.05
512.04106	30054.05
516.11023	30141.45
520.1765	30074.85
524.23987	29787.25
528.30034	29213.35
532.35792	28711.45
536.41261	28177.85
540.46441	27719.25
544.51333	27573.15
548.55936	28070.75
552.60252	29015.25
556.64279	30037.85
560.6802	30673.85
564.71473	31175.45
568.7464	32267.55
572.7752	33327.95
576.80114	33096.05
580.82422	32524.65
584.84444	32304.35
588.86181	32263.65
592.87633	32461.95
596.888	32787.75
600.89682	33474.85
604.9028	36118.45
608.90594	43270.65
612.90624	52523.45
616.90371	50010.45
620.89834	36418.95
624.89015	30216.85
628.87913	29191.55
632.86528	29370.65
636.84862	29463.05
640.82913	28756.15
644.80683	27407.55
648.78172	26510.75
652.75379	26411.25
656.72306	27245.25
660.68952	28422.05
664.65319	28291.55
668.61405	27223.65
672.57211	26663.45
676.52738	26557.55
680.47986	26575.55
684.42955	26352.25
688.37646	26255.55
692.32058	26389.15
696.26192	26675.55
700.20048	27069.25
704.13626	27414.35
708.06928	27463.05
711.99952	27157.95
715.927	27033.35
719.85171	27032.35
723.77365	26944.05
727.69284	26598.45
731.60928	26249.75
735.52295	26069.85
739.43388	26153.85
743.34206	26257.45
747.24749	26461.55
751.15017	26787.45
755.05012	27482.95
758.94733	28871.65
762.8418	31789.75
766.73354	36627.55
770.62254	41443.55
774.50882	43146.05
778.39237	40449.55
782.27321	35288.25
786.15132	30726.95
790.02671	28050.05
793.89938	26761.95
797.76935	26218.15
801.6366	25988.95
805.50115	25873.65
809.36299	25688.95
813.22213	25565.55
817.07857	25501.05
820.93231	25472.45
824.78336	25467.55
828.63172	25488.35
832.47738	25521.85
836.32036	25485.75
840.16066	25447.55
843.99827	25451.25
847.8332	25348.45
851.66546	25167.45
855.49504	25111.05
859.32195	25052.85
863.1462	24869.05
866.96777	24711.85
870.78668	24676.35
874.60293	24636.85
878.41652	24704.35
882.22745	24804.35
886.03573	24928.05
889.84136	24897.45
893.64433	24719.35
897.44466	24643.15
901.24235	24584.05
905.0374	24519.55
908.8298	24486.05
912.61957	24546.65
916.40671	24808.05
920.19121	25269.75
923.97308	25624.85
927.75233	25778.65
931.52895	25787.05
935.30295	25361.65
939.07433	24604.75
942.84309	23932.85
946.60924	23626.85
950.37278	23446.35
954.13371	23296.15
957.89203	23170.55
961.64774	23161.75
965.40086	23083.75
969.15137	23013.15
972.89929	22886.75
976.64461	22793.85
980.38733	22802.55
984.12747	22884.45
987.86502	23080.95
991.59999	23382.65
995.33237	23831.85
999.06217	24667.45
1002.78939	25671.75
1006.51404	26390.15
1010.23611	26980.55
1013.95561	27329.25
1017.67255	27278.35
1021.38692	26832.35
1025.09872	26389.85
1028.80796	26384.25
1032.51465	26956.25
1036.21877	27636.25
1039.92035	27733.05
1043.61937	27503.75
1047.31584	26918.25
1051.00976	26280.85
1054.70114	26032.15
1058.38998	26069.55
1062.07627	26289.15
1065.76003	26598.45
1069.44126	26795.35
1073.11995	27073.95
1076.79611	27329.95
1080.46974	27636.65
1084.14085	28113.95
1087.80943	28763.35
1091.47549	29177.55
1095.13903	28909.25
1098.80005	28156.05
1102.45857	27287.45
1106.11456	26657.55
1109.76805	26598.45
1113.41903	26982.65
1117.06751	27643.25
1120.71348	28499.55
1124.35696	29359.45
1127.99793	30210.35
1131.63641	30265.85
1135.2724	29399.35
1138.90589	28437.15
1142.5369	27892.05
1146.16542	27643.25
1149.79145	27608.65
1153.415	27885.25
1157.03607	28363.95
1160.65467	29186.25
1164.27079	30515.85
1167.88443	32496.25
1171.49561	35342.95
1175.10432	39653.55
1178.71056	45167.75
1182.31434	49601.25
1185.91565	51498.05
1189.51451	51076.45
1193.11091	48770.25
1196.70485	45516.95
1200.29634	42560.35
1203.88538	40190.65
1207.47197	37946.05
1211.05612	36134.45
1214.63782	34925.85
1218.21708	34427.65
1221.79391	34364.45
1225.36829	34425.75
1228.94024	34334.45
1232.50976	34051.55
1236.07685	33801.65
1239.6415	33610.45
1243.20374	33499.85
1246.76355	33604.85
1250.32093	34081.05
1253.8759	35074.35
1257.42845	36302.15
1260.97859	37615.75
1264.52631	38827.15
1268.07163	40030.65
1271.61453	41351.65
1275.15503	42585.25
1278.69312	43631.55
1282.22882	44513.05
1285.76211	45603.85
1289.29301	47168.65
1292.82151	48862.75
1296.34761	50972.05
1299.87133	53992.55
1303.39266	57948.25
1306.9116	63499.45
1310.42815	69925.15
1313.94233	74315.45
1317.45412	74755.15
1320.96354	72383.25
1324.47058	69121.35
1327.97525	66054.65
1331.47754	63817.55
1334.97747	62820.25
1338.47502	62712.85
1341.97022	63150.55
1345.46305	63406.25
1348.95352	63420.65
1352.44163	64049.75
1355.92738	66469.35
1359.41078	72216.05
1362.89183	78486.85
1366.37053	77076.75
1369.84688	67485.45
1373.32088	57361.95
1376.79254	50938.55
1380.26186	48225.75
1383.72883	47205.95
1387.19347	46640.35
1390.65578	45981.35
1394.11575	45712.25
1397.57339	46189.95
1401.0287	47215.75
1404.48168	48299.65
1407.93234	48913.65
1411.38068	48759.35
1414.82669	47476.75
1418.27039	45373.85
1421.71177	43077.15
1425.15083	41203.25
1428.58758	39985.75
1432.02203	39753.55
1435.45416	40254.15
1438.88399	40982.15
1442.31151	41633.55
1445.73673	42323.05
1449.15965	43115.15
1452.58027	43713.15
1455.9986	43982.75
1459.41463	44337.35
1462.82837	45063.45
1466.23982	45970.35
1469.64898	46765.35
1473.05586	47183.35
1476.46045	47139.85
1479.86276	47129.05
1483.26279	47157.65
1486.66054	47564.55
1490.05602	48197.75
1493.44922	49147.65
1496.84016	50701.75
1500.22882	53244.45
1503.61521	57000.65
1506.99934	61752.85
1510.38121	66793.65
1513.76081	69860.85
1517.13816	68448.35
1520.51324	63136.05
1523.88607	57183.45
1527.25665	52854.55
1530.62498	50361.35
1533.99105	48818.75
1537.35488	47858.85
1540.71647	46990.15
1544.07581	46199.25
1547.4329	45339.15
1550.78776	44641.85
1554.14038	44198.95
1557.49077	44365.25
1560.83892	44841.45
1564.18484	45502.85
1567.52853	46103.65
1570.86999	46458.55
1574.20922	46910.25
1577.54624	46984.95
1580.88103	45988.35
1584.2136	44780.15
1587.54395	45006.65
1590.87208	46828.85
1594.19801	49945.15
1597.52172	53335.35
1600.84321	54467.05
1604.16251	52036.35
1607.47959	47710.35
1610.79447	43260.55
1614.10715	39116.55
1617.41763	35757.65
1620.7259	33410.55
1624.03199	32250.85
1627.33587	32216.15
1630.63757	33278.45
1633.93707	35512.25
1637.23439	39093.85
1640.52951	43781.45
1643.82246	49322.15
1647.11321	54616.85
1650.40179	57433.85
1653.68819	55044.45
1656.97241	47723.05
1660.25446	39424.95
1663.53433	33189.55
1666.81203	29262.35
1670.08756	26862.55
1673.36092	25374.95
1676.63211	24409.55
1679.90115	23832.25
1683.16801	23334.35
1686.43272	22959.35
1689.69527	22690.45
1692.95567	22515.15
1696.2139	22378.05
1699.46999	22279.85
1702.72392	22159.35
1705.97571	22100.25
1709.22535	22039.35
1712.47284	22004.55
1715.71819	22003.25
1718.96139	21966.15
1722.20246	21915.15
1725.44139	21785.45
1728.67818	21673.65
1731.91284	21460.45
1735.14537	21304.65
1738.37576	21168.65
1741.60403	21090.15
1744.83017	21023.35
1748.05418	20968.55
1751.27607	20893.55
1754.49584	20859.45
1757.71349	20829.85
1760.92903	20796.75
1764.14244	20747.75
1767.35375	20769.95
1770.56294	20668.15
1773.77002	20632.45
1776.97499	20551.15
1780.17785	20521.25
1783.37861	20477.75
1786.57727	20473.05
1789.77382	20413.85
1792.96828	20392.55
1796.16064	20388.15
1799.3509	20341.05
1802.53907	20291.35
1805.72514	20255.45
1808.90913	20180.55
1812.09102	20124.65
1815.27083	20082.45
1818.44856	20010.05
1821.6242	19985.65
1824.79776	19968.75
1827.96924	19962.85
1831.13864	19946.85
1834.30597	19955.25
1837.47122	19941.35
1840.6344	19891.95
1843.7955	19894.05
1846.95454	19963.65
1850.11151	19922.55
1853.26642	19932.85
1856.41926	19953.05
1859.57004	19965.85
1862.71876	19978.35
1865.86542	19977.75
1869.01003	19981.65
1872.15258	19979.25
1875.29308	19999.95
1878.43152	20039.75
1881.56792	20052.75
1884.70227	20081.15
1887.83457	20092.95
1890.96482	20095.45
1894.09304	20108.15
1897.21921	20124.75
1900.34335	20148.65
1903.46544	20184.55
1906.58551	20189.85
1909.70353	20210.65
1912.81953	20184.45
1915.93349	20167.65
1919.04543	20156.55
1922.15534	20105.15
1925.26322	20025.15
1928.36908	19940.65
1931.47292	19868.05
1934.57473	19742.05
1937.67453	19623.15
1940.77232	19503.05
1943.86808	19389.05
1946.96184	19290.15
1950.05358	19191.55
1953.14331	19113.85
1956.23103	19010.35
1959.31675	18994.75
1962.40046	18890.65
1965.48217	18820.15
1968.56188	18771.35
1971.63959	18737.35
1974.7153	18663.75
1977.78901	18622.45
1980.86073	18493.75
1983.93046	18477.05
1986.99819	18392.55
1990.06394	18340.15
1993.1277	18241.65
1996.18947	18225.35
1999.24925	18198.45
2002.30706	18094.25
2005.36288	18052.85
2008.41672	17976.85
2011.46859	17953.05
2014.51848	17903.75
2017.56639	17832.65
2020.61233	17795.35
2023.6563	17744.45
2026.6983	17703.15
2029.73833	17679.45
2032.7764	17616.05
2035.8125	17604.05
2038.84664	17556.75
2041.87881	17546.45
2044.90903	17484.95
2047.93729	17463.15
2050.96359	17444.85
2053.98794	17398.85
2057.01034	17401.35
2060.03078	17373.85
2063.04927	17352.95
2066.06582	17356.45
2069.08042	17350.95
2072.09307	17324.15
2075.10378	17299.95
2078.11255	17256.75
2081.11938	17256.65
2084.12426	17238.05
2087.12722	17233.75
2090.12824	17208.65
2093.12732	17200.85
2096.12447	17205.15
2099.11969	17201.15
2102.11299	17218.95
2105.10435	17182.65
2108.09379	17193.65
2111.08131	17212.45
2114.0669	17214.95
2117.05057	17232.95
2120.03233	17233.15
2123.01216	17252.85
2125.99008	17237.05
2128.96609	17271.35
2131.94018	17290.25
2134.91236	17259.45
2137.88263	17303.05
2140.851	17294.95
2143.81746	17299.15
2146.78201	17258.65
2149.74466	17258.35
2152.7054	17276.85
2155.66425	17242.35
2158.6212	17236.45
2161.57625	17216.15
2164.52941	17258.55
2167.48067	17227.25
2170.43004	17215.85
2173.37752	17205.25
2176.32311	17210.85
2179.26681	17222.55
2182.20863	17213.45
2185.14856	17241.45
2188.08661	17229.65
2191.02278	17262.75
2193.95707	17259.85
2196.88948	17185.45
2199.82001	17161.85
2202.74867	17126.05
2205.67545	17122.85
2208.60037	17148.05
2211.52341	17111.95
2214.44458	17152.65
2217.36388	17108.35
2220.28132	17036.95
2223.1969	17002.55
2226.11061	17007.95
2229.02246	16938.55
2231.93245	16899.65
2234.84058	16860.05
2237.74686	16806.15
2240.65128	16825.25
2243.55385	16794.65
2246.45456	16770.25
2249.35343	16745.35
2252.25044	16731.45
2255.14561	16717.95
2258.03893	16682.05
2260.93041	16694.65
2263.82004	16665.15
2266.70783	16612.45
2269.59378	16567.05
2272.4779	16498.95
2275.36017	16470.05
2278.24061	16454.95
2281.11922	16385.95
2283.996	16390.55
2286.87094	16347.25
2289.74405	16363.35
2292.61534	16307.75
2295.4848	16284.15
2298.35243	16301.45
2301.21824	16278.95
2304.08223	16326.55
2306.94439	16314.65
2309.80474	16292.95
2312.66327	16330.75
2315.51999	16323.25
2318.37489	16305.85
2321.22797	16285.85
2324.07925	16290.35
2326.92871	16278.35
2329.77637	16253.65
2332.62222	16212.65
2335.46626	16211.55
2338.3085	16217.95
2341.14893	16277.55
2343.98756	16287.75
2346.8244	16321.75
2349.65943	16286.25
2352.49267	16306.75
2355.32411	16339.85
2358.15376	16315.45
2360.98161	16319.85
2363.80768	16339.95
2366.63195	16344.75
2369.45444	16288.85
2372.27514	16258.05
2375.09405	16262.35
2377.91118	16195.15
2380.72652	16114.15
2383.54009	16092.05
2386.35187	16032.85
2389.16188	15921.15
2391.97011	15936.55
2394.77657	15921.45
2397.58125	15865.85
2400.38416	15864.25
2403.18529	15847.95
2405.98466	15774.05
2408.78226	15753.75
2411.57809	15683.55
2414.37216	15722.75
2417.16446	15680.35
2419.955	15667.65
2422.74378	15645.95
2425.5308	15607.95
2428.31606	15623.65
2431.09956	15611.75
2433.88131	15592.45
2436.6613	15655.15
2439.43954	15599.85
2442.21603	15584.15
2444.99077	15624.75
2447.76377	15618.05
2450.53501	15581.85
2453.30451	15608.25
2456.07226	15592.65
2458.83827	15594.45
2461.60254	15593.65
2464.36507	15556.15
2467.12586	15564.45
2469.88492	15581.55
2472.64224	15596.25
2475.39782	15635.55
2478.15167	15662.45
2480.90379	15653.55
2483.65417	15665.15
2486.40283	15703.85
2489.14976	15740.25
2491.89497	15734.75
2494.63845	15808.25
2497.3802	15762.45
2500.12024	15784.55
2502.85855	15750.25
2505.59514	15746.45
2508.33002	15698.05
2511.06318	15665.15
2513.79462	15630.05
2516.52435	15601.05
2519.25237	15615.35
2521.97867	15529.65
2524.70327	15510.25
2527.42616	15501.55
2530.14734	15546.75
2532.86681	15502.15
2535.58458	15518.75
2538.30065	15525.05
2541.01501	15505.45
2543.72768	15494.75
2546.43864	15468.35
2549.14791	15442.75
2551.85548	15458.55
2554.56136	15417.05
2557.26554	15403.05
2559.96803	15422.65
2562.66883	15381.35
2565.36794	15353.45
2568.06536	15347.65
2570.7611	15343.05
2573.45514	15318.35
2576.14751	15313.55
2578.83819	15289.65
2581.52719	15280.45
2584.21451	15308.85
2586.90015	15308.75
2589.58411	15297.95
2592.2664	15305.85
2594.94701	15337.35
2597.62594	15307.15
2600.30321	15293.15
2602.9788	15311.35
2605.65273	15311.75
2608.32498	15329.95
2610.99557	15326.95
2613.66449	15359.15
2616.33175	15316.75
2618.99734	15327.55
2621.66128	15321.05
2624.32355	15326.15
2626.98416	15350.05
2629.64311	15368.05
2632.30041	15357.55
2634.95605	15308.55
2637.61004	15323.55
2640.26238	15297.65
2642.91306	15267.55
2645.56209	15209.85
2648.20948	15217.65
2650.85521	15256.25
2653.4993	15225.55
2656.14175	15222.05
2658.78255	15246.75
2661.42171	15254.05
2664.05923	15303.05
2666.6951	15285.75
2669.32934	15306.35
2671.96194	15324.35
2674.59291	15350.25
2677.22224	15358.95
2679.84993	15352.45
2682.476	15349.85
2685.10043	15325.95
2687.72324	15289.85
2690.34441	15262.35
2692.96396	15278.85
2695.58188	15283.65
2698.19818	15236.85
2700.81285	15272.75
2703.4259	15273.75
2706.03733	15332.35
2708.64714	15284.75
2711.25533	15263.95
2713.86191	15281.45
2716.46687	15266.85
2719.07021	15301.85
2721.67194	15334.35
2724.27206	15333.15
2726.87057	15356.05
2729.46747	15360.75
2732.06276	15372.15
2734.65644	15362.55
2737.24852	15333.45
2739.83899	15322.55
2742.42786	15348.45
2745.01513	15276.85
2747.60079	15325.65
2750.18486	15296.55
2752.76733	15262.35
2755.3482	15251.05
2757.92747	15243.25
2760.50515	15267.05
2763.08123	15234.95
2765.65573	15265.35
2768.22863	15249.25
2770.79994	15225.35
2773.36967	15229.65
2775.9378	15226.35
2778.50435	15223.95
2781.06932	15238.75
2783.6327	15274.95
2786.1945	15241.25
2788.75471	15277.65
2791.31335	15223.75
2793.87041	15208.25
2796.42589	15145.15
2798.97979	15134.15
2801.53212	15104.15
2804.08288	15112.25
2806.63206	15060.05
2809.17967	15040.65
2811.72571	15012.25
2814.27018	15015.45
2816.81308	14993.25
2819.35442	15006.35
2821.89419	14990.85
2824.43239	15026.45
2826.96904	15042.15
2829.50412	15021.95
2832.03763	14986.95
2834.56959	14957.65
2837.1	14966.05
2839.62884	14968.65
2842.15613	14977.95
2844.68186	15021.15
2847.20604	15040.65
2849.72867	15088.95
2852.24974	15074.85
2854.76927	15076.55
2857.28724	15037.65
2859.80367	15017.05
2862.31855	14994.85
2864.83189	14989.35
2867.34368	14950.95
2869.85393	14971.45
2872.36264	14953.85
2874.8698	14933.85
2877.37543	14931.55
2879.87952	14922.85
2882.38207	14935.75
2884.88308	14907.65
2887.38256	14920.65
2889.88051	14922.05
2892.37692	14929.95
2894.8718	14936.85
2897.36515	14957.65
2899.85698	14949.25
2902.34727	15003.75
2904.83604	15005.05
2907.32328	15040.65
2909.809	15016.55
2912.29319	15057.75
2914.77587	15066.25
2917.25702	15080.35
2919.73665	15008.75
2922.21476	15024.45
2924.69136	14992.05
2927.16644	14978.75
2929.64	14926.55
2932.11205	14890.25
2934.58258	14863.55
2937.05161	14835.65
2939.51912	14833.85
2941.98513	14818.05
2944.44962	14763.45
2946.91261	14681.15
2949.37409	14691.25
2951.83407	14709.05
2954.29254	14662.65
2956.74951	14642.15
2959.20498	14621.05
2961.65895	14593.45
2964.11142	14590.85
2966.56239	14546.85
2969.01186	14554.55
2971.45984	14487.05
2973.90632	14491.35
2976.35131	14468.15
2978.7948	14414.85
2981.23681	14382.95
2983.67732	14338.35
2986.11635	14306.95
2988.55388	14277.75
2990.98993	14269.65
2993.4245	14205.25
2995.85758	14163.15
2998.28917	14116.75
3000.71928	14108.25
3003.14791	14094.45
3005.57506	14088.85
3008.00073	14033.35
3010.42493	13903.35
3012.84764	13970.65
3015.26888	13975.95
3017.68865	13930.25
3020.10694	13923.65
3022.52376	13876.55
3024.9391	13873.55
3027.35298	13838.35
3029.76539	13830.55
3032.17632	13760.35
3034.5858	13783.35
3036.9938	13765.15
3039.40034	13738.35
3041.80542	13753.35
3044.20903	13711.85
3046.61118	13705.95
3049.01187	13660.05
3051.4111	13640.75
3053.80888	13623.45
3056.20519	13599.25
3058.60005	13547.35
3060.99345	13536.15
3063.3854	13471.25
3065.7759	13419.05
3068.16494	13359.35
3070.55254	13343.35
3072.93868	13293.75
3075.32338	13245.15
3077.70662	13210.05
3080.08842	13166.05
3082.46878	13160.45
3084.84769	13124.75
3087.22515	13120.05
3089.60118	13097.55
3091.97576	13096.65
3094.3489	13051.75
3096.72061	13059.15
3099.09087	13036.55
3101.4597	13041.05
3103.82709	13052.45
3106.19305	13018.25
3108.55757	13006.75
3110.92066	12968.35
3113.28232	12930.45
3115.64255	12878.95
3118.00134	12879.95
3120.35871	12863.95
3122.71466	12844.75
3125.06917	12788.05
3127.42226	12760.25
3129.77393	12750.25
3132.12417	12709.75
3134.47299	12694.65
3136.82039	12711.65
3139.16636	12693.75
3141.51092	12691.25
3143.85406	12662.85
3146.19579	12679.15
3148.53609	12675.45
3150.87499	12691.45
3153.21246	12691.25
3155.54853	12697.35
3157.88318	12683.15
3160.21642	12683.65
3162.54826	12687.95
3164.87868	12694.25
3167.2077	12673.55
3169.5353	12683.15
3171.86151	12691.55
3174.18631	12664.65
3176.5097	12626.95
3178.83169	12627.65
3181.15228	12648.05
3183.47147	12616.75
3185.78926	12595.95
3188.10565	12576.65
3190.42065	12562.85
3192.73424	12568.25
3195.04645	12563.15
3197.35725	12549.55
3199.66667	12507.55
3201.97469	12529.95
3204.28132	12502.95
3206.58656	12534.05
3208.8904	12537.05
3211.19287	12555.25
3213.49394	12565.45
3215.79363	12571.65
3218.09193	12560.15
3220.38884	12576.15
3222.68438	12558.95
3224.97853	12540.05
3227.2713	12534.75
3229.56269	12529.05
3231.8527	12516.55
3234.14133	12460.45
3236.42858	12457.95
3238.71446	12438.25
3240.99896	12395.55
3243.28209	12405.15
3245.56384	12364.05
3247.84423	12374.55
3250.12324	12352.65
3252.40088	12324.05
3254.67715	12312.65
3256.95205	12305.55
3259.22558	12304.05
3261.49775	12287.75
3263.76855	12259.25
3266.03799	12248.25
3268.30606	12216.05
3270.57277	12184.05
3272.83812	12184.95
3275.10211	12145.15
3277.36474	12103.05
3279.62601	12142.25
3281.88593	12117.25
3284.14448	12133.35
3286.40168	12098.25
3288.65753	12119.05
3290.91202	12101.05
3293.16516	12089.15
3295.41695	12031.45
3297.66738	11984.65
3299.91647	11920.35
3302.16421	11839.25
3304.4106	11777.25
3306.65564	11693.35
3308.89933	11612.95
3311.14169	11523.35
3313.38269	11436.35
3315.62236	11402.15
3317.86068	11255.45
3320.09766	11167.55
3322.3333	11077.35
3324.5676	11044.65
3326.80056	10852.55
3329.03219	10791.95
3331.26248	4.25
3333.49143	-1.45
3335.71905	-0.95
