Data from AgNPs_FTO_APTES_UA_5uM_CRN_100uM_R6G_10uM_NaF_0.1M_Addition_RamanShift__2__14-38-36-866.txt Node

Date: Mon Feb 07 14:38:36 GMT 2022
User: TCL
Spectrometer: QEP01345
Trigger mode: 4
Integration Time (sec): 7.000000E0
Scans to average: 10
Electric dark correction enabled: true
Nonlinearity correction enabled: false
Boxcar width: 0
XAxis mode: Raman Shifts
Number of Pixels in Spectrum: 1044
>>>>>Begin Spectral Data<<<<<
46.04893	0.15
50.45542	-1.55
54.85868	-0.55
59.25871	-0.05
63.6555	66.85
68.04907	68.75
72.43941	72.85
76.82654	75.05
81.21044	77.75
85.59113	81.85
89.96862	87.25
94.34289	84.85
98.71396	89.35
103.08183	94.25
107.4465	93.45
111.80798	98.95
116.16626	102.05
120.52136	104.35
124.87327	110.75
129.222	121.25
133.56755	125.75
137.90993	142.75
142.24913	154.95
146.58517	175.25
150.91804	205.15
155.24774	245.45
159.57429	318.35
163.89768	409.75
168.21792	558.35
172.53501	752.15
176.84895	1057.25
181.15975	1489.75
185.46741	2094.35
189.77193	2883.25
194.07331	3858.05
198.37157	4969.85
202.6667	6137.65
206.9587	7310.65
211.24758	8419.15
215.53334	9573.15
219.81599	10797.35
224.09553	12129.15
228.37195	13544.05
232.64527	15108.75
236.91549	16738.05
241.18261	18384.45
245.44663	19954.25
249.70755	21340.75
253.96539	22586.15
258.22014	23682.15
262.4718	24520.25
266.72039	25197.25
270.96589	25528.95
275.20832	25626.45
279.44768	25592.65
283.68397	25512.75
287.91719	25370.05
292.14735	25363.85
296.37445	25435.05
300.59849	25584.05
304.81948	25693.45
309.03742	25576.05
313.25231	25269.55
317.46415	24682.85
321.67296	24009.75
325.87872	23383.25
330.08145	23012.65
334.28114	22939.35
338.47781	23001.45
342.67145	23189.65
346.86207	23495.15
351.04966	23858.45
355.23424	24207.25
359.4158	24577.65
363.59435	24860.45
367.76989	25027.65
371.94243	25144.25
376.11196	25235.95
380.27849	25245.75
384.44203	25344.95
388.60257	25528.55
392.76012	25803.35
396.91468	26205.15
401.06626	26635.35
405.21485	26920.65
409.36047	26845.05
413.50311	26559.75
417.64277	26356.35
421.77947	26428.75
425.9132	26549.05
430.04396	26712.65
434.17176	26810.25
438.2966	26958.85
442.41849	27350.85
446.53742	28031.35
450.6534	28813.35
454.76644	29363.35
458.87653	29606.05
462.98368	29548.75
467.08789	29295.15
471.18916	29017.25
475.2875	28842.25
479.38291	28847.65
483.4754	28856.05
487.56496	28474.05
491.6516	27884.75
495.73531	27148.95
499.81612	26743.55
503.89401	26723.95
507.96899	26813.65
512.04106	26798.15
516.11023	26531.95
520.1765	26093.05
524.23987	25696.75
528.30034	25311.25
532.35792	25061.35
536.41261	24837.45
540.46441	24605.15
544.51333	24653.85
548.55936	25060.85
552.60252	25681.05
556.64279	26446.35
560.6802	27042.55
564.71473	27476.45
568.7464	28230.15
572.7752	29363.45
576.80114	30630.15
580.82422	31646.75
584.84444	32617.85
588.86181	33739.15
592.87633	34383.65
596.888	33745.55
600.89682	32226.05
604.9028	31655.85
608.90594	32687.15
612.90624	33980.05
616.90371	31671.05
620.89834	27128.05
624.89015	25202.05
628.87913	25082.25
632.86528	25303.65
636.84862	25294.45
640.82913	24848.75
644.80683	24316.05
648.78172	23849.85
652.75379	23799.55
656.72306	23972.65
660.68952	24191.85
664.65319	24025.45
668.61405	23667.35
672.57211	23595.85
676.52738	23672.95
680.47986	23705.95
684.42955	23539.45
688.37646	23454.25
692.32058	23588.25
696.26192	23881.35
700.20048	24201.05
704.13626	24410.25
708.06928	24582.25
711.99952	24545.45
715.927	24509.65
719.85171	24499.25
723.77365	24373.65
727.69284	23986.45
731.60928	23619.95
735.52295	23485.65
739.43388	23430.35
743.34206	23518.35
747.24749	23648.35
751.15017	23969.45
755.05012	24476.35
758.94733	25304.55
762.8418	26596.75
766.73354	28414.95
770.62254	29906.45
774.50882	29903.35
778.39237	28387.75
782.27321	26380.95
786.15132	24891.25
790.02671	23956.65
793.89938	23465.55
797.76935	23264.85
801.6366	23221.05
805.50115	23185.75
809.36299	23011.65
813.22213	22901.15
817.07857	22839.85
820.93231	22737.25
824.78336	22606.45
828.63172	22384.55
832.47738	22246.85
836.32036	22183.35
840.16066	22252.15
843.99827	22267.35
847.8332	22215.65
851.66546	22209.85
855.49504	22224.05
859.32195	22208.25
863.1462	22124.65
866.96777	22006.55
870.78668	22006.85
874.60293	21961.75
878.41652	21906.05
882.22745	21974.85
886.03573	22038.35
889.84136	22074.85
893.64433	21994.25
897.44466	21920.35
901.24235	21820.85
905.0374	21776.15
908.8298	21761.75
912.61957	21868.55
916.40671	22175.45
920.19121	22608.25
923.97308	22909.85
927.75233	22772.65
931.52895	22389.05
935.30295	21943.55
939.07433	21466.35
942.84309	21182.75
946.60924	20965.05
950.37278	20863.25
954.13371	20871.75
957.89203	20895.45
961.64774	20906.35
965.40086	20921.75
969.15137	20819.55
972.89929	20651.95
976.64461	20482.15
980.38733	20426.95
984.12747	20408.75
987.86502	20515.45
991.59999	20631.85
995.33237	20833.25
999.06217	21154.55
1002.78939	21594.45
1006.51404	21936.45
1010.23611	22208.55
1013.95561	22527.35
1017.67255	22576.35
1021.38692	22367.85
1025.09872	22072.55
1028.80796	21859.35
1032.51465	22011.25
1036.21877	22224.15
1039.92035	22386.05
1043.61937	22429.65
1047.31584	22321.95
1051.00976	22254.65
1054.70114	22223.35
1058.38998	22398.65
1062.07627	22700.85
1065.76003	23024.35
1069.44126	23318.15
1073.11995	23668.25
1076.79611	23931.85
1080.46974	24058.85
1084.14085	24161.65
1087.80943	24385.85
1091.47549	24715.25
1095.13903	24833.15
1098.80005	24624.55
1102.45857	23949.85
1106.11456	23356.85
1109.76805	23005.85
1113.41903	23001.95
1117.06751	23098.65
1120.71348	23350.85
1124.35696	23628.55
1127.99793	23936.85
1131.63641	24225.75
1135.2724	24202.75
1138.90589	24174.55
1142.5369	24321.15
1146.16542	24624.35
1149.79145	25013.75
1153.415	25465.35
1157.03607	26019.65
1160.65467	27102.05
1164.27079	28680.35
1167.88443	30531.85
1171.49561	32295.15
1175.10432	34295.75
1178.71056	36804.65
1182.31434	39004.45
1185.91565	40179.45
1189.51451	40065.55
1193.11091	39166.05
1196.70485	37941.55
1200.29634	36567.85
1203.88538	35870.55
1207.47197	35673.45
1211.05612	35579.15
1214.63782	34860.55
1218.21708	33562.45
1221.79391	32098.15
1225.36829	30914.55
1228.94024	30122.15
1232.50976	29581.65
1236.07685	29167.95
1239.6415	29013.15
1243.20374	29105.65
1246.76355	29364.65
1250.32093	29827.85
1253.8759	30467.45
1257.42845	31342.55
1260.97859	32268.25
1264.52631	33216.25
1268.07163	34172.15
1271.61453	35183.55
1275.15503	36295.45
1278.69312	37634.55
1282.22882	39140.25
1285.76211	40861.25
1289.29301	42987.05
1292.82151	45643.95
1296.34761	48942.75
1299.87133	52411.25
1303.39266	55718.85
1306.9116	58132.75
1310.42815	59651.65
1313.94233	59938.85
1317.45412	59302.45
1320.96354	58612.55
1324.47058	58346.15
1327.97525	58346.95
1331.47754	58375.45
1334.97747	58116.25
1338.47502	57522.45
1341.97022	56582.15
1345.46305	55494.65
1348.95352	54323.75
1352.44163	53513.85
1355.92738	53640.55
1359.41078	54718.05
1362.89183	55707.55
1366.37053	54734.95
1369.84688	50826.55
1373.32088	45760.95
1376.79254	42205.45
1380.26186	41222.45
1383.72883	41805.95
1387.19347	42359.15
1390.65578	42340.65
1394.11575	42418.15
1397.57339	43079.95
1401.0287	43959.15
1404.48168	44553.65
1407.93234	44297.45
1411.38068	42822.15
1414.82669	40682.75
1418.27039	38153.65
1421.71177	35912.05
1425.15083	34169.65
1428.58758	33355.15
1432.02203	33616.55
1435.45416	34742.55
1438.88399	36177.65
1442.31151	37321.15
1445.73673	38127.75
1449.15965	38779.65
1452.58027	39146.35
1455.9986	39358.15
1459.41463	39616.75
1462.82837	39997.75
1466.23982	40646.95
1469.64898	41102.45
1473.05586	41435.95
1476.46045	41339.95
1479.86276	40873.45
1483.26279	40270.75
1486.66054	39917.25
1490.05602	39906.05
1493.44922	40158.65
1496.84016	40504.35
1500.22882	41169.05
1503.61521	42066.65
1506.99934	43147.35
1510.38121	44092.45
1513.76081	44512.65
1517.13816	44122.75
1520.51324	43441.35
1523.88607	43219.15
1527.25665	43473.45
1530.62498	43762.05
1533.99105	43702.45
1537.35488	43094.65
1540.71647	41900.05
1544.07581	40385.95
1547.4329	38779.95
1550.78776	37422.15
1554.14038	36480.15
1557.49077	35881.55
1560.83892	35578.95
1564.18484	35448.85
1567.52853	35574.15
1570.86999	36090.65
1574.20922	37065.95
1577.54624	38110.15
1580.88103	38886.25
1584.2136	39759.15
1587.54395	41298.35
1590.87208	43471.75
1594.19801	45897.45
1597.52172	47840.55
1600.84321	47752.55
1604.16251	45009.25
1607.47959	40936.05
1610.79447	36876.95
1614.10715	33374.85
1617.41763	30579.65
1620.7259	28681.05
1624.03199	27750.85
1627.33587	27719.15
1630.63757	28721.75
1633.93707	30922.45
1637.23439	34589.95
1640.52951	39921.55
1643.82246	46183.95
1647.11321	51154.45
1650.40179	52108.05
1653.68819	48142.05
1656.97241	41339.65
1660.25446	34459.65
1663.53433	29115.05
1666.81203	25598.85
1670.08756	23383.25
1673.36092	21957.75
1676.63211	21018.55
1679.90115	20399.85
1683.16801	19938.05
1686.43272	19610.15
1689.69527	19343.95
1692.95567	19137.65
1696.2139	18991.45
1699.46999	18886.65
1702.72392	18770.15
1705.97571	18640.25
1709.22535	18599.15
1712.47284	18526.45
1715.71819	18454.95
1718.96139	18385.35
1722.20246	18316.25
1725.44139	18223.55
1728.67818	18038.55
1731.91284	17928.35
1735.14537	17821.35
1738.37576	17723.95
1741.60403	17634.95
1744.83017	17598.65
1748.05418	17513.25
1751.27607	17462.95
1754.49584	17427.35
1757.71349	17429.95
1760.92903	17413.25
1764.14244	17370.05
1767.35375	17342.95
1770.56294	17292.45
1773.77002	17210.95
1776.97499	17160.25
1780.17785	17140.45
1783.37861	17089.75
1786.57727	17057.45
1789.77382	17026.05
1792.96828	16996.85
1796.16064	16935.75
1799.3509	16890.85
1802.53907	16834.35
1805.72514	16752.85
1808.90913	16698.55
1812.09102	16670.85
1815.27083	16613.85
1818.44856	16567.05
1821.6242	16568.55
1824.79776	16570.65
1827.96924	16510.95
1831.13864	16476.35
1834.30597	16494.95
1837.47122	16490.25
1840.6344	16446.65
1843.7955	16451.75
1846.95454	16427.15
1850.11151	16427.75
1853.26642	16422.35
1856.41926	16425.55
1859.57004	16404.45
1862.71876	16380.75
1865.86542	16352.85
1869.01003	16308.75
1872.15258	16259.15
1875.29308	16224.25
1878.43152	16213.35
1881.56792	16211.85
1884.70227	16190.65
1887.83457	16126.95
1890.96482	16101.65
1894.09304	16090.15
1897.21921	16071.45
1900.34335	16055.45
1903.46544	16040.55
1906.58551	16014.55
1909.70353	15984.95
1912.81953	15953.75
1915.93349	15911.55
1919.04543	15895.55
1922.15534	15833.35
1925.26322	15795.95
1928.36908	15748.75
1931.47292	15695.05
1934.57473	15669.25
1937.67453	15619.05
1940.77232	15581.85
1943.86808	15528.15
1946.96184	15482.15
1950.05358	15426.75
1953.14331	15405.75
1956.23103	15354.75
1959.31675	15294.85
1962.40046	15257.95
1965.48217	15211.25
1968.56188	15141.05
1971.63959	15102.85
1974.7153	15046.95
1977.78901	14981.25
1980.86073	14906.85
1983.93046	14906.05
1986.99819	14826.15
1990.06394	14784.15
1993.1277	14756.95
1996.18947	14636.75
1999.24925	14668.35
2002.30706	14577.15
2005.36288	14565.65
2008.41672	14510.85
2011.46859	14464.45
2014.51848	14400.85
2017.56639	14373.65
2020.61233	14335.25
2023.6563	14302.75
2026.6983	14253.65
2029.73833	14232.45
2032.7764	14187.35
2035.8125	14161.15
2038.84664	14116.65
2041.87881	14113.55
2044.90903	14080.55
2047.93729	14044.95
2050.96359	14018.45
2053.98794	14007.95
2057.01034	14025.45
2060.03078	13994.75
2063.04927	13971.95
2066.06582	13989.55
2069.08042	13956.85
2072.09307	13922.15
2075.10378	13902.15
2078.11255	13893.85
2081.11938	13888.95
2084.12426	13888.75
2087.12722	13871.05
2090.12824	13822.75
2093.12732	13822.85
2096.12447	13862.25
2099.11969	13837.05
2102.11299	13835.85
2105.10435	13853.15
2108.09379	13817.45
2111.08131	13810.05
2114.0669	13830.75
2117.05057	13868.05
2120.03233	13840.75
2123.01216	13866.55
2125.99008	13879.05
2128.96609	13857.55
2131.94018	13851.95
2134.91236	13870.95
2137.88263	13879.15
2140.851	13865.05
2143.81746	13887.65
2146.78201	13853.25
2149.74466	13832.65
2152.7054	13829.75
2155.66425	13809.45
2158.6212	13818.55
2161.57625	13796.95
2164.52941	13819.95
2167.48067	13775.35
2170.43004	13770.85
2173.37752	13769.65
2176.32311	13744.35
2179.26681	13754.65
2182.20863	13742.75
2185.14856	13759.35
2188.08661	13740.15
2191.02278	13745.95
2193.95707	13752.35
2196.88948	13736.95
2199.82001	13679.45
2202.74867	13668.55
2205.67545	13645.15
2208.60037	13622.05
2211.52341	13580.45
2214.44458	13608.55
2217.36388	13568.75
2220.28132	13538.05
2223.1969	13495.55
2226.11061	13488.35
2229.02246	13459.65
2231.93245	13447.25
2234.84058	13419.15
2237.74686	13367.45
2240.65128	13395.55
2243.55385	13330.05
2246.45456	13329.25
2249.35343	13277.85
2252.25044	13269.65
2255.14561	13205.55
2258.03893	13238.75
2260.93041	13186.15
2263.82004	13156.75
2266.70783	13087.35
2269.59378	13009.45
2272.4779	13021.35
2275.36017	12964.15
2278.24061	12956.35
2281.11922	12897.75
2283.996	12898.75
2286.87094	12890.55
2289.74405	12859.95
2292.61534	12829.95
2295.4848	12821.55
2298.35243	12845.55
2301.21824	12810.05
2304.08223	12808.65
2306.94439	12791.75
2309.80474	12820.95
2312.66327	12789.75
2315.51999	12781.05
2318.37489	12776.95
2321.22797	12755.95
2324.07925	12717.55
2326.92871	12683.15
2329.77637	12693.95
2332.62222	12666.35
2335.46626	12663.05
2338.3085	12666.55
2341.14893	12644.55
2343.98756	12645.45
2346.8244	12652.75
2349.65943	12643.15
2352.49267	12641.05
2355.32411	12628.25
2358.15376	12622.25
2360.98161	12597.05
2363.80768	12628.25
2366.63195	12595.65
2369.45444	12574.65
2372.27514	12606.05
2375.09405	12565.65
2377.91118	12506.45
2380.72652	12488.85
2383.54009	12459.05
2386.35187	12445.15
2389.16188	12389.85
2391.97011	12363.95
2394.77657	12371.35
2397.58125	12332.25
2400.38416	12325.05
2403.18529	12287.35
2405.98466	12259.45
2408.78226	12242.55
2411.57809	12256.65
2414.37216	12255.15
2417.16446	12231.45
2419.955	12215.35
2422.74378	12212.55
2425.5308	12193.55
2428.31606	12171.25
2431.09956	12174.55
2433.88131	12156.05
2436.6613	12164.75
2439.43954	12153.15
2442.21603	12146.65
2444.99077	12113.75
2447.76377	12135.45
2450.53501	12110.75
2453.30451	12134.65
2456.07226	12096.15
2458.83827	12116.45
2461.60254	12114.45
2464.36507	12084.35
2467.12586	12069.75
2469.88492	12078.85
2472.64224	12087.05
2475.39782	12114.35
2478.15167	12111.85
2480.90379	12082.45
2483.65417	12100.95
2486.40283	12122.85
2489.14976	12139.15
2491.89497	12092.25
2494.63845	12110.55
2497.3802	12137.35
2500.12024	12119.25
2502.85855	12106.25
2505.59514	12104.25
2508.33002	12110.95
2511.06318	12047.05
2513.79462	12051.45
2516.52435	12042.25
2519.25237	12062.15
2521.97867	11997.25
2524.70327	12002.45
2527.42616	11997.75
2530.14734	12002.75
2532.86681	12028.15
2535.58458	11988.15
2538.30065	11957.25
2541.01501	11962.15
2543.72768	11947.75
2546.43864	11957.55
2549.14791	11930.55
2551.85548	11934.15
2554.56136	11907.65
2557.26554	11892.25
2559.96803	11878.25
2562.66883	11872.25
2565.36794	11865.85
2568.06536	11849.25
2570.7611	11839.55
2573.45514	11854.65
2576.14751	11819.25
2578.83819	11823.15
2581.52719	11819.85
2584.21451	11812.65
2586.90015	11811.35
2589.58411	11768.55
2592.2664	11774.75
2594.94701	11772.95
2597.62594	11789.65
2600.30321	11761.55
2602.9788	11786.55
2605.65273	11752.35
2608.32498	11765.05
2610.99557	11757.65
2613.66449	11763.85
2616.33175	11741.75
2618.99734	11762.65
2621.66128	11749.65
2624.32355	11731.95
2626.98416	11731.45
2629.64311	11730.55
2632.30041	11724.45
2634.95605	11713.65
2637.61004	11687.65
2640.26238	11709.65
2642.91306	11706.15
2645.56209	11637.15
2648.20948	11701.35
2650.85521	11678.15
2653.4993	11695.65
2656.14175	11708.05
2658.78255	11727.05
2661.42171	11731.65
2664.05923	11740.55
2666.6951	11743.05
2669.32934	11770.95
2671.96194	11744.45
2674.59291	11746.55
2677.22224	11746.75
2679.84993	11755.45
2682.476	11721.85
2685.10043	11716.15
2687.72324	11684.95
2690.34441	11709.95
2692.96396	11673.55
2695.58188	11697.95
2698.19818	11715.85
2700.81285	11720.25
2703.4259	11757.65
2706.03733	11810.45
2708.64714	11757.95
2711.25533	11749.25
2713.86191	11751.65
2716.46687	11778.75
2719.07021	11777.35
2721.67194	11801.05
2724.27206	11779.85
2726.87057	11785.75
2729.46747	11806.25
2732.06276	11837.05
2734.65644	11803.75
2737.24852	11783.55
2739.83899	11804.75
2742.42786	11798.55
2745.01513	11783.95
2747.60079	11768.95
2750.18486	11757.35
2752.76733	11747.85
2755.3482	11729.45
2757.92747	11751.45
2760.50515	11721.45
2763.08123	11760.55
2765.65573	11748.65
2768.22863	11754.85
2770.79994	11742.15
2773.36967	11752.85
2775.9378	11753.05
2778.50435	11736.95
2781.06932	11753.45
2783.6327	11765.65
2786.1945	11746.05
2788.75471	11762.75
2791.31335	11731.65
2793.87041	11749.55
2796.42589	11691.45
2798.97979	11704.75
2801.53212	11672.85
2804.08288	11654.95
2806.63206	11602.75
2809.17967	11575.35
2811.72571	11555.55
2814.27018	11561.55
2816.81308	11517.75
2819.35442	11510.45
2821.89419	11476.55
2824.43239	11487.95
2826.96904	11473.95
2829.50412	11474.45
2832.03763	11420.05
2834.56959	11436.85
2837.1	11449.45
2839.62884	11481.25
2842.15613	11495.75
2844.68186	11519.05
2847.20604	11517.05
2849.72867	11523.45
2852.24974	11532.55
2854.76927	11528.85
2857.28724	11516.95
2859.80367	11518.25
2862.31855	11461.45
2864.83189	11450.45
2867.34368	11435.05
2869.85393	11444.35
2872.36264	11394.25
2874.8698	11416.45
2877.37543	11370.55
2879.87952	11374.75
2882.38207	11363.25
2884.88308	11370.45
2887.38256	11380.65
2889.88051	11376.85
2892.37692	11394.65
2894.8718	11420.45
2897.36515	11413.45
2899.85698	11394.75
2902.34727	11424.95
2904.83604	11450.45
2907.32328	11451.25
2909.809	11438.65
2912.29319	11467.85
2914.77587	11436.15
2917.25702	11463.95
2919.73665	11449.65
2922.21476	11464.15
2924.69136	11447.55
2927.16644	11442.35
2929.64	11421.95
2932.11205	11388.95
2934.58258	11392.25
2937.05161	11423.05
2939.51912	11385.25
2941.98513	11369.75
2944.44962	11321.75
2946.91261	11288.45
2949.37409	11288.95
2951.83407	11259.15
2954.29254	11257.35
2956.74951	11224.15
2959.20498	11221.65
2961.65895	11209.15
2964.11142	11195.35
2966.56239	11186.45
2969.01186	11174.35
2971.45984	11147.35
2973.90632	11145.65
2976.35131	11119.35
2978.7948	11076.75
2981.23681	11074.05
2983.67732	11041.25
2986.11635	11015.15
2988.55388	10956.45
2990.98993	10947.95
2993.4245	10914.65
2995.85758	10870.05
2998.28917	10826.75
3000.71928	10815.85
3003.14791	10788.55
3005.57506	10784.95
3008.00073	10759.55
3010.42493	10627.65
3012.84764	10725.65
3015.26888	10720.25
3017.68865	10653.25
3020.10694	10643.15
3022.52376	10636.85
3024.9391	10615.75
3027.35298	10579.45
3029.76539	10572.25
3032.17632	10556.45
3034.5858	10570.65
3036.9938	10547.25
3039.40034	10554.15
3041.80542	10534.85
3044.20903	10520.35
3046.61118	10540.95
3049.01187	10507.35
3051.4111	10498.65
3053.80888	10472.55
3056.20519	10444.75
3058.60005	10407.65
3060.99345	10379.25
3063.3854	10341.65
3065.7759	10309.25
3068.16494	10287.45
3070.55254	10232.55
3072.93868	10211.05
3075.32338	10195.65
3077.70662	10149.35
3080.08842	10120.75
3082.46878	10111.65
3084.84769	10110.65
3087.22515	10077.65
3089.60118	10075.15
3091.97576	10073.05
3094.3489	10063.25
3096.72061	10058.55
3099.09087	10044.25
3101.4597	10021.25
3103.82709	10039.35
3106.19305	10038.25
3108.55757	10017.65
3110.92066	9966.15
3113.28232	9991.95
3115.64255	9948.85
3118.00134	9943.45
3120.35871	9899.65
3122.71466	9885.15
3125.06917	9874.55
3127.42226	9821.55
3129.77393	9844.25
3132.12417	9814.55
3134.47299	9816.45
3136.82039	9805.65
3139.16636	9790.15
3141.51092	9763.45
3143.85406	9767.75
3146.19579	9758.65
3148.53609	9766.25
3150.87499	9774.35
3153.21246	9751.45
3155.54853	9796.05
3157.88318	9756.15
3160.21642	9786.45
3162.54826	9761.05
3164.87868	9773.45
3167.2077	9754.95
3169.5353	9769.95
3171.86151	9770.35
3174.18631	9748.55
3176.5097	9758.65
3178.83169	9730.75
3181.15228	9739.85
3183.47147	9720.25
3185.78926	9721.65
3188.10565	9699.45
3190.42065	9690.85
3192.73424	9668.25
3195.04645	9640.25
3197.35725	9623.55
3199.66667	9616.75
3201.97469	9636.05
3204.28132	9613.55
3206.58656	9630.05
3208.8904	9615.95
3211.19287	9604.95
3213.49394	9613.65
3215.79363	9637.25
3218.09193	9615.05
3220.38884	9607.65
3222.68438	9630.95
3224.97853	9620.75
3227.2713	9598.55
3229.56269	9610.65
3231.8527	9566.45
3234.14133	9539.65
3236.42858	9521.85
3238.71446	9524.45
3240.99896	9511.55
3243.28209	9528.75
3245.56384	9489.15
3247.84423	9473.75
3250.12324	9453.65
3252.40088	9441.65
3254.67715	9421.75
3256.95205	9411.55
3259.22558	9415.25
3261.49775	9402.25
3263.76855	9368.75
3266.03799	9327.35
3268.30606	9320.25
3270.57277	9294.05
3272.83812	9282.05
3275.10211	9242.55
3277.36474	9243.25
3279.62601	9248.75
3281.88593	9214.95
3284.14448	9268.75
3286.40168	9255.75
3288.65753	9245.15
3290.91202	9259.95
3293.16516	9226.65
3295.41695	9183.95
3297.66738	9141.55
3299.91647	9071.85
3302.16421	9016.15
3304.4106	8959.15
3306.65564	8899.85
3308.89933	8855.45
3311.14169	8772.25
3313.38269	8691.75
3315.62236	8654.75
3317.86068	8578.35
3320.09766	8512.65
3322.3333	8430.25
3324.5676	8407.35
3326.80056	8291.05
3329.03219	8208.25
3331.26248	3.75
3333.49143	-1.05
3335.71905	-0.95
