Data from AgNPs_FTO_APTES_UA_5uM_CRN_10uM_R6G_10uM_NaF_0.1M_Addition_RamanShift__3__12-26-46-715.txt Node

Date: Mon Feb 07 12:26:46 GMT 2022
User: TCL
Spectrometer: QEP01345
Trigger mode: 4
Integration Time (sec): 7.000000E0
Scans to average: 10
Electric dark correction enabled: true
Nonlinearity correction enabled: false
Boxcar width: 0
XAxis mode: Raman Shifts
Number of Pixels in Spectrum: 1044
>>>>>Begin Spectral Data<<<<<
46.04893	-1.55
50.45542	-1.65
54.85868	-0.15
59.25871	-0.75
63.6555	93.75
68.04907	101.25
72.43941	102.85
76.82654	107.85
81.21044	105.75
85.59113	114.85
89.96862	116.95
94.34289	121.95
98.71396	121.75
103.08183	127.85
107.4465	130.25
111.80798	133.95
116.16626	139.45
120.52136	147.05
124.87327	153.25
129.222	163.85
133.56755	175.15
137.90993	191.05
142.24913	209.95
146.58517	243.85
150.91804	283.35
155.24774	345.55
159.57429	431.15
163.89768	556.45
168.21792	751.25
172.53501	1023.75
176.84895	1424.15
181.15975	2005.65
185.46741	2819.05
189.77193	3886.95
194.07331	5170.75
198.37157	6639.25
202.6667	8191.55
206.9587	9731.65
211.24758	11260.95
215.53334	12778.25
219.81599	14433.15
224.09553	16237.95
228.37195	18272.65
232.64527	20402.35
236.91549	22640.75
241.18261	24864.75
245.44663	26897.05
249.70755	28684.95
253.96539	30267.35
258.22014	31612.55
262.4718	32751.15
266.72039	33550.95
270.96589	33943.15
275.20832	34042.35
279.44768	33833.15
283.68397	33582.75
287.91719	33420.65
292.14735	33297.25
296.37445	33354.95
300.59849	33537.35
304.81948	33700.75
309.03742	33766.85
313.25231	33482.45
317.46415	32814.35
321.67296	32122.65
325.87872	31376.85
330.08145	31024.15
334.28114	30903.85
338.47781	31044.05
342.67145	31383.05
346.86207	31876.75
351.04966	32467.55
355.23424	33140.35
359.4158	33723.15
363.59435	34192.45
367.76989	34454.05
371.94243	34608.35
376.11196	34745.65
380.27849	34893.95
384.44203	35056.65
388.60257	35315.85
392.76012	35771.25
396.91468	36230.55
401.06626	36888.95
405.21485	37263.95
409.36047	37132.35
413.50311	36744.05
417.64277	36642.25
421.77947	36793.05
425.9132	36999.55
430.04396	37212.05
434.17176	37428.45
438.2966	37663.15
442.41849	38345.25
446.53742	39685.05
450.6534	41236.85
454.76644	42225.25
458.87653	42477.15
462.98368	41992.05
467.08789	41218.75
471.18916	40257.75
475.2875	39557.95
479.38291	39205.75
483.4754	38970.75
487.56496	38581.55
491.6516	37864.55
495.73531	37113.15
499.81612	36671.25
503.89401	36786.25
507.96899	36957.65
512.04106	36765.25
516.11023	36246.75
520.1765	35739.65
524.23987	35357.45
528.30034	34981.15
532.35792	34719.25
536.41261	34230.35
540.46441	33729.65
544.51333	33578.75
548.55936	34042.75
552.60252	34954.35
556.64279	36097.75
560.6802	37041.45
564.71473	37675.05
568.7464	38519.35
572.7752	39931.25
576.80114	41348.05
580.82422	42826.25
584.84444	44806.65
588.86181	47315.55
592.87633	49164.15
596.888	48709.45
600.89682	45986.75
604.9028	44737.85
608.90594	46972.25
612.90624	49825.75
616.90371	46480.85
620.89834	38985.15
624.89015	35644.15
628.87913	35201.75
632.86528	35201.95
636.84862	34836.15
640.82913	33972.95
644.80683	33044.85
648.78172	32505.85
652.75379	32526.65
656.72306	32953.85
660.68952	33433.95
664.65319	33166.45
668.61405	32556.15
672.57211	32375.85
676.52738	32555.55
680.47986	32464.95
684.42955	32184.45
688.37646	32025.45
692.32058	32321.85
696.26192	32963.45
700.20048	33611.05
704.13626	34008.95
708.06928	33909.15
711.99952	33727.25
715.927	33795.95
719.85171	34062.95
723.77365	33948.35
727.69284	33352.45
731.60928	32770.25
735.52295	32484.15
739.43388	32556.25
743.34206	32640.55
747.24749	32920.15
751.15017	33382.85
755.05012	34097.95
758.94733	35226.65
762.8418	37084.15
766.73354	39644.75
770.62254	41934.05
774.50882	41980.75
778.39237	39918.55
782.27321	37056.75
786.15132	34760.85
790.02671	33406.15
793.89938	32733.15
797.76935	32534.05
801.6366	32497.85
805.50115	32413.45
809.36299	32244.75
813.22213	31965.85
817.07857	31789.75
820.93231	31577.35
824.78336	31335.75
828.63172	31211.45
832.47738	31133.85
836.32036	31258.15
840.16066	31495.45
843.99827	31681.15
847.8332	31561.35
851.66546	31371.05
855.49504	31260.75
859.32195	31248.15
863.1462	31103.55
866.96777	30962.25
870.78668	30827.95
874.60293	30771.95
878.41652	30816.45
882.22745	30931.05
886.03573	31059.85
889.84136	31015.85
893.64433	30857.95
897.44466	30737.25
901.24235	30611.95
905.0374	30468.95
908.8298	30484.65
912.61957	30617.35
916.40671	30989.35
920.19121	31650.45
923.97308	32257.95
927.75233	32352.25
931.52895	31928.15
935.30295	31337.75
939.07433	30680.55
942.84309	30205.45
946.60924	29994.65
950.37278	29947.05
954.13371	29929.35
957.89203	29801.85
961.64774	29763.45
965.40086	29785.35
969.15137	29727.05
972.89929	29586.15
976.64461	29506.15
980.38733	29505.95
984.12747	29684.85
987.86502	29975.15
991.59999	30356.75
995.33237	31049.95
999.06217	32029.75
1002.78939	33206.45
1006.51404	34154.95
1010.23611	34680.95
1013.95561	35049.75
1017.67255	35043.75
1021.38692	34486.85
1025.09872	33835.75
1028.80796	33947.35
1032.51465	35014.25
1036.21877	36156.95
1039.92035	36490.85
1043.61937	36055.85
1047.31584	35048.25
1051.00976	34068.15
1054.70114	33445.85
1058.38998	33372.15
1062.07627	33410.05
1065.76003	33624.45
1069.44126	33976.05
1073.11995	34522.85
1076.79611	35038.45
1080.46974	35324.65
1084.14085	35704.65
1087.80943	36158.95
1091.47549	36550.75
1095.13903	36564.25
1098.80005	36035.15
1102.45857	35092.95
1106.11456	34354.15
1109.76805	34091.25
1113.41903	34121.05
1117.06751	34301.95
1120.71348	34582.35
1124.35696	34974.15
1127.99793	35331.85
1131.63641	35612.65
1135.2724	35653.65
1138.90589	35654.35
1142.5369	35811.95
1146.16542	36246.75
1149.79145	36664.05
1153.415	37282.25
1157.03607	38142.75
1160.65467	39778.55
1164.27079	42365.15
1167.88443	45245.75
1171.49561	48128.25
1175.10432	51577.55
1178.71056	56145.55
1182.31434	60349.35
1185.91565	62183.75
1189.51451	61311.45
1193.11091	59069.35
1196.70485	56678.35
1200.29634	54503.85
1203.88538	53321.65
1207.47197	52961.95
1211.05612	52471.65
1214.63782	51445.55
1218.21708	49885.15
1221.79391	48442.75
1225.36829	47366.45
1228.94024	46385.65
1232.50976	45140.45
1236.07685	44019.15
1239.6415	43515.25
1243.20374	43482.85
1246.76355	43973.85
1250.32093	44954.25
1253.8759	46190.05
1257.42845	47654.15
1260.97859	49283.95
1264.52631	50933.75
1268.07163	52731.65
1271.61453	54699.55
1275.15503	56850.05
1278.69312	59086.05
1282.22882	61360.75
1285.76211	63968.25
1289.29301	67029.55
1292.82151	70847.65
1296.34761	75571.55
1299.87133	81417.25
1303.39266	87386.45
1306.9116	92812.15
1310.42815	96367.55
1313.94233	97655.15
1317.45412	96445.45
1320.96354	94024.75
1324.47058	91888.15
1327.97525	90413.75
1331.47754	89327.55
1334.97747	88429.05
1338.47502	86778.75
1341.97022	84392.55
1345.46305	81640.85
1348.95352	79601.15
1352.44163	79466.35
1355.92738	81810.35
1359.41078	86167.55
1362.89183	89391.85
1366.37053	88219.45
1369.84688	81182.65
1373.32088	71536.95
1376.79254	64901.25
1380.26186	62902.35
1383.72883	63671.85
1387.19347	64168.85
1390.65578	63668.65
1394.11575	63604.15
1397.57339	64753.15
1401.0287	66643.85
1404.48168	68218.55
1407.93234	68465.15
1411.38068	67067.25
1414.82669	64208.85
1418.27039	60790.25
1421.71177	57301.85
1425.15083	54448.35
1428.58758	53154.85
1432.02203	53795.45
1435.45416	55908.95
1438.88399	58322.95
1442.31151	60234.35
1445.73673	61336.85
1449.15965	61894.75
1452.58027	61948.55
1455.9986	61405.75
1459.41463	61267.65
1462.82837	62046.15
1466.23982	63458.45
1469.64898	64902.05
1473.05586	65860.25
1476.46045	66143.15
1479.86276	65602.65
1483.26279	64604.35
1486.66054	63953.55
1490.05602	63817.05
1493.44922	64073.15
1496.84016	64031.75
1500.22882	64212.15
1503.61521	64939.85
1506.99934	66023.95
1510.38121	67029.45
1513.76081	67259.15
1517.13816	66466.45
1520.51324	64978.65
1523.88607	64081.35
1527.25665	64270.85
1530.62498	64809.25
1533.99105	64971.25
1537.35488	64330.05
1540.71647	62909.15
1544.07581	60824.15
1547.4329	58571.85
1550.78776	56665.05
1554.14038	55305.25
1557.49077	54385.05
1560.83892	53729.25
1564.18484	53406.35
1567.52853	53490.25
1570.86999	54015.65
1574.20922	55324.15
1577.54624	56734.15
1580.88103	57863.55
1584.2136	59568.75
1587.54395	62890.75
1590.87208	67829.15
1594.19801	73371.75
1597.52172	77852.25
1600.84321	78475.05
1604.16251	73555.95
1607.47959	65450.45
1610.79447	57476.75
1614.10715	50869.85
1617.41763	46146.75
1620.7259	43259.05
1624.03199	42171.55
1627.33587	42648.55
1630.63757	44677.25
1633.93707	48648.25
1637.23439	55016.75
1640.52951	63996.75
1643.82246	74482.35
1647.11321	82389.55
1650.40179	82642.95
1653.68819	74450.75
1656.97241	62107.55
1660.25446	50860.85
1663.53433	43038.85
1666.81203	38052.05
1670.08756	35027.65
1673.36092	33202.55
1676.63211	32041.55
1679.90115	31229.35
1683.16801	30575.45
1686.43272	30100.65
1689.69527	29771.65
1692.95567	29518.55
1696.2139	29282.75
1699.46999	29099.15
1702.72392	28971.95
1705.97571	28946.85
1709.22535	28835.75
1712.47284	28782.95
1715.71819	28712.95
1718.96139	28603.85
1722.20246	28503.65
1725.44139	28398.35
1728.67818	28245.35
1731.91284	27993.35
1735.14537	27822.25
1738.37576	27654.15
1741.60403	27563.05
1744.83017	27436.65
1748.05418	27350.45
1751.27607	27261.45
1754.49584	27213.75
1757.71349	27201.25
1760.92903	27195.25
1764.14244	27131.35
1767.35375	27111.55
1770.56294	27059.85
1773.77002	26975.45
1776.97499	26936.25
1780.17785	26870.45
1783.37861	26877.95
1786.57727	26818.25
1789.77382	26751.95
1792.96828	26760.45
1796.16064	26666.05
1799.3509	26634.45
1802.53907	26562.45
1805.72514	26480.45
1808.90913	26412.55
1812.09102	26361.95
1815.27083	26314.55
1818.44856	26265.25
1821.6242	26173.65
1824.79776	26194.25
1827.96924	26188.35
1831.13864	26229.45
1834.30597	26215.15
1837.47122	26190.85
1840.6344	26198.45
1843.7955	26180.45
1846.95454	26219.05
1850.11151	26228.35
1853.26642	26181.35
1856.41926	26174.55
1859.57004	26164.25
1862.71876	26105.25
1865.86542	26093.15
1869.01003	26050.05
1872.15258	25988.45
1875.29308	25994.25
1878.43152	26011.45
1881.56792	26018.15
1884.70227	25983.55
1887.83457	25957.45
1890.96482	25960.45
1894.09304	25910.15
1897.21921	25872.45
1900.34335	25820.65
1903.46544	25833.85
1906.58551	25808.45
1909.70353	25819.65
1912.81953	25689.95
1915.93349	25684.15
1919.04543	25657.55
1922.15534	25586.85
1925.26322	25487.85
1928.36908	25451.35
1931.47292	25412.45
1934.57473	25268.15
1937.67453	25218.55
1940.77232	25134.05
1943.86808	25087.25
1946.96184	25009.45
1950.05358	24950.15
1953.14331	24899.75
1956.23103	24821.25
1959.31675	24763.45
1962.40046	24653.35
1965.48217	24600.55
1968.56188	24542.55
1971.63959	24480.35
1974.7153	24393.75
1977.78901	24348.75
1980.86073	24210.65
1983.93046	24180.55
1986.99819	24094.35
1990.06394	24007.85
1993.1277	24002.45
1996.18947	23917.05
1999.24925	23906.55
2002.30706	23808.05
2005.36288	23739.85
2008.41672	23665.35
2011.46859	23609.05
2014.51848	23577.55
2017.56639	23503.55
2020.61233	23436.85
2023.6563	23369.45
2026.6983	23342.45
2029.73833	23299.55
2032.7764	23274.35
2035.8125	23272.55
2038.84664	23172.25
2041.87881	23174.95
2044.90903	23152.65
2047.93729	23138.25
2050.96359	23077.05
2053.98794	23067.75
2057.01034	23065.05
2060.03078	23073.85
2063.04927	23074.15
2066.06582	23044.35
2069.08042	23055.75
2072.09307	23031.95
2075.10378	22996.55
2078.11255	22991.35
2081.11938	22984.15
2084.12426	22928.05
2087.12722	22931.05
2090.12824	22901.15
2093.12732	22889.85
2096.12447	22931.15
2099.11969	22920.95
2102.11299	22912.35
2105.10435	22919.05
2108.09379	22919.85
2111.08131	22945.95
2114.0669	22920.45
2117.05057	23004.15
2120.03233	22987.95
2123.01216	22989.95
2125.99008	22971.55
2128.96609	23038.55
2131.94018	23051.75
2134.91236	23074.25
2137.88263	23096.45
2140.851	23128.55
2143.81746	23129.25
2146.78201	23063.35
2149.74466	23090.55
2152.7054	23077.55
2155.66425	23086.95
2158.6212	23065.75
2161.57625	23084.95
2164.52941	23038.25
2167.48067	23055.05
2170.43004	23083.65
2173.37752	23088.15
2176.32311	23050.05
2179.26681	23075.75
2182.20863	23089.75
2185.14856	23109.85
2188.08661	23103.75
2191.02278	23155.25
2193.95707	23124.95
2196.88948	23128.35
2199.82001	23071.95
2202.74867	23051.65
2205.67545	23062.15
2208.60037	23028.45
2211.52341	23012.45
2214.44458	23012.65
2217.36388	23036.05
2220.28132	22934.85
2223.1969	22896.95
2226.11061	22854.25
2229.02246	22797.95
2231.93245	22811.35
2234.84058	22792.15
2237.74686	22761.75
2240.65128	22723.25
2243.55385	22661.65
2246.45456	22658.75
2249.35343	22615.95
2252.25044	22591.85
2255.14561	22483.35
2258.03893	22471.05
2260.93041	22415.25
2263.82004	22395.55
2266.70783	22335.15
2269.59378	22296.55
2272.4779	22180.35
2275.36017	22185.35
2278.24061	22133.85
2281.11922	22114.55
2283.996	22106.95
2286.87094	22083.25
2289.74405	22058.25
2292.61534	22059.75
2295.4848	22062.55
2298.35243	22090.55
2301.21824	22133.05
2304.08223	22112.15
2306.94439	22117.45
2309.80474	22147.25
2312.66327	22170.55
2315.51999	22152.45
2318.37489	22145.95
2321.22797	22099.25
2324.07925	22143.55
2326.92871	22115.75
2329.77637	22054.45
2332.62222	22027.55
2335.46626	22035.75
2338.3085	22074.65
2341.14893	22092.15
2343.98756	22118.05
2346.8244	22116.65
2349.65943	22100.95
2352.49267	22108.05
2355.32411	22136.55
2358.15376	22065.45
2360.98161	22038.35
2363.80768	22037.95
2366.63195	22042.25
2369.45444	21989.55
2372.27514	21959.45
2375.09405	21932.25
2377.91118	21865.45
2380.72652	21847.65
2383.54009	21789.35
2386.35187	21764.95
2389.16188	21714.65
2391.97011	21703.45
2394.77657	21663.15
2397.58125	21644.35
2400.38416	21638.15
2403.18529	21602.75
2405.98466	21589.95
2408.78226	21561.95
2411.57809	21538.75
2414.37216	21476.85
2417.16446	21507.15
2419.955	21459.65
2422.74378	21445.95
2425.5308	21422.05
2428.31606	21401.15
2431.09956	21415.85
2433.88131	21385.95
2436.6613	21425.65
2439.43954	21443.45
2442.21603	21396.75
2444.99077	21382.15
2447.76377	21406.25
2450.53501	21404.65
2453.30451	21421.85
2456.07226	21430.65
2458.83827	21413.15
2461.60254	21400.15
2464.36507	21406.25
2467.12586	21454.85
2469.88492	21444.25
2472.64224	21482.05
2475.39782	21554.05
2478.15167	21567.35
2480.90379	21520.65
2483.65417	21534.95
2486.40283	21603.65
2489.14976	21609.65
2491.89497	21589.35
2494.63845	21616.45
2497.3802	21627.45
2500.12024	21638.05
2502.85855	21607.55
2505.59514	21610.15
2508.33002	21599.65
2511.06318	21604.75
2513.79462	21577.45
2516.52435	21586.95
2519.25237	21601.15
2521.97867	21584.35
2524.70327	21572.75
2527.42616	21551.55
2530.14734	21571.25
2532.86681	21598.95
2535.58458	21581.45
2538.30065	21578.15
2541.01501	21560.85
2543.72768	21522.25
2546.43864	21524.55
2549.14791	21493.05
2551.85548	21546.35
2554.56136	21489.95
2557.26554	21506.05
2559.96803	21478.15
2562.66883	21508.85
2565.36794	21480.75
2568.06536	21473.25
2570.7611	21495.05
2573.45514	21491.35
2576.14751	21491.35
2578.83819	21450.15
2581.52719	21500.35
2584.21451	21517.25
2586.90015	21500.65
2589.58411	21510.75
2592.2664	21484.65
2594.94701	21453.95
2597.62594	21475.95
2600.30321	21458.65
2602.9788	21498.85
2605.65273	21461.35
2608.32498	21517.55
2610.99557	21521.05
2613.66449	21509.05
2616.33175	21536.35
2618.99734	21544.75
2621.66128	21515.75
2624.32355	21484.35
2626.98416	21514.15
2629.64311	21533.05
2632.30041	21536.25
2634.95605	21535.95
2637.61004	21514.65
2640.26238	21479.55
2642.91306	21480.55
2645.56209	21420.45
2648.20948	21478.95
2650.85521	21490.25
2653.4993	21539.95
2656.14175	21493.95
2658.78255	21539.45
2661.42171	21559.05
2664.05923	21591.55
2666.6951	21601.15
2669.32934	21620.05
2671.96194	21657.05
2674.59291	21670.85
2677.22224	21653.15
2679.84993	21620.15
2682.476	21630.25
2685.10043	21621.15
2687.72324	21640.05
2690.34441	21619.95
2692.96396	21599.65
2695.58188	21600.65
2698.19818	21580.65
2700.81285	21611.65
2703.4259	21615.95
2706.03733	21624.95
2708.64714	21673.65
2711.25533	21656.55
2713.86191	21672.95
2716.46687	21718.45
2719.07021	21715.95
2721.67194	21778.15
2724.27206	21798.35
2726.87057	21799.05
2729.46747	21869.05
2732.06276	21888.05
2734.65644	21888.35
2737.24852	21875.25
2739.83899	21827.55
2742.42786	21895.65
2745.01513	21841.95
2747.60079	21847.55
2750.18486	21826.95
2752.76733	21839.45
2755.3482	21799.95
2757.92747	21833.35
2760.50515	21834.75
2763.08123	21885.05
2765.65573	21903.65
2768.22863	21870.25
2770.79994	21836.75
2773.36967	21890.95
2775.9378	21869.25
2778.50435	21891.15
2781.06932	21888.85
2783.6327	21921.95
2786.1945	21905.95
2788.75471	21920.25
2791.31335	21901.35
2793.87041	21887.95
2796.42589	21816.45
2798.97979	21838.35
2801.53212	21786.55
2804.08288	21786.65
2806.63206	21673.05
2809.17967	21628.35
2811.72571	21597.15
2814.27018	21644.75
2816.81308	21541.65
2819.35442	21573.35
2821.89419	21497.55
2824.43239	21529.95
2826.96904	21538.85
2829.50412	21524.35
2832.03763	21510.35
2834.56959	21458.15
2837.1	21468.15
2839.62884	21457.15
2842.15613	21464.85
2844.68186	21504.65
2847.20604	21549.45
2849.72867	21530.85
2852.24974	21486.75
2854.76927	21499.85
2857.28724	21525.05
2859.80367	21482.95
2862.31855	21437.65
2864.83189	21434.95
2867.34368	21408.85
2869.85393	21412.35
2872.36264	21385.45
2874.8698	21349.35
2877.37543	21365.75
2879.87952	21358.05
2882.38207	21422.45
2884.88308	21413.35
2887.38256	21425.75
2889.88051	21405.55
2892.37692	21449.35
2894.8718	21484.55
2897.36515	21513.65
2899.85698	21498.85
2902.34727	21560.95
2904.83604	21608.05
2907.32328	21641.15
2909.809	21625.15
2912.29319	21639.35
2914.77587	21670.25
2917.25702	21664.65
2919.73665	21613.25
2922.21476	21613.85
2924.69136	21603.45
2927.16644	21638.85
2929.64	21585.35
2932.11205	21507.25
2934.58258	21486.85
2937.05161	21487.85
2939.51912	21520.35
2941.98513	21511.05
2944.44962	21476.05
2946.91261	21402.65
2949.37409	21398.45
2951.83407	21411.25
2954.29254	21390.95
2956.74951	21384.65
2959.20498	21382.85
2961.65895	21348.35
2964.11142	21355.65
2966.56239	21313.75
2969.01186	21324.75
2971.45984	21263.65
2973.90632	21258.25
2976.35131	21226.05
2978.7948	21140.15
2981.23681	21117.85
2983.67732	21073.75
2986.11635	21017.45
2988.55388	20999.35
2990.98993	20960.75
2993.4245	20873.35
2995.85758	20847.85
2998.28917	20785.25
3000.71928	20763.15
3003.14791	20748.05
3005.57506	20739.15
3008.00073	20654.05
3010.42493	20554.25
3012.84764	20589.15
3015.26888	20585.05
3017.68865	20543.05
3020.10694	20503.75
3022.52376	20494.35
3024.9391	20456.35
3027.35298	20434.45
3029.76539	20423.05
3032.17632	20360.85
3034.5858	20354.65
3036.9938	20392.75
3039.40034	20379.05
3041.80542	20411.55
3044.20903	20356.55
3046.61118	20311.35
3049.01187	20299.45
3051.4111	20317.55
3053.80888	20324.45
3056.20519	20265.55
3058.60005	20211.45
3060.99345	20184.95
3063.3854	20111.95
3065.7759	20042.55
3068.16494	19986.15
3070.55254	19917.25
3072.93868	19879.05
3075.32338	19811.05
3077.70662	19775.05
3080.08842	19723.95
3082.46878	19702.75
3084.84769	19664.55
3087.22515	19654.25
3089.60118	19684.65
3091.97576	19661.85
3094.3489	19658.05
3096.72061	19600.15
3099.09087	19662.65
3101.4597	19662.25
3103.82709	19641.85
3106.19305	19620.85
3108.55757	19563.45
3110.92066	19514.45
3113.28232	19504.35
3115.64255	19460.85
3118.00134	19415.75
3120.35871	19405.15
3122.71466	19361.65
3125.06917	19311.45
3127.42226	19255.65
3129.77393	19300.75
3132.12417	19233.65
3134.47299	19245.05
3136.82039	19236.25
3139.16636	19244.05
3141.51092	19179.45
3143.85406	19186.35
3146.19579	19191.85
3148.53609	19178.55
3150.87499	19165.35
3153.21246	19172.05
3155.54853	19212.95
3157.88318	19150.25
3160.21642	19217.95
3162.54826	19159.55
3164.87868	19194.45
3167.2077	19191.45
3169.5353	19197.05
3171.86151	19193.95
3174.18631	19165.15
3176.5097	19174.55
3178.83169	19147.05
3181.15228	19117.25
3183.47147	19080.75
3185.78926	19078.85
3188.10565	19066.45
3190.42065	19045.15
3192.73424	19020.55
3195.04645	19017.85
3197.35725	18954.25
3199.66667	18937.25
3201.97469	18958.65
3204.28132	18955.95
3206.58656	18999.05
3208.8904	18948.45
3211.19287	18949.25
3213.49394	18954.95
3215.79363	19002.65
3218.09193	18958.65
3220.38884	18961.85
3222.68438	18969.85
3224.97853	18973.25
3227.2713	18923.75
3229.56269	18928.75
3231.8527	18938.05
3234.14133	18918.15
3236.42858	18857.95
3238.71446	18850.35
3240.99896	18822.65
3243.28209	18813.35
3245.56384	18781.15
3247.84423	18771.85
3250.12324	18737.85
3252.40088	18722.35
3254.67715	18693.85
3256.95205	18677.95
3259.22558	18674.65
3261.49775	18657.65
3263.76855	18626.75
3266.03799	18600.35
3268.30606	18570.25
3270.57277	18512.55
3272.83812	18515.65
3275.10211	18477.65
3277.36474	18418.35
3279.62601	18432.75
3281.88593	18496.05
3284.14448	18454.85
3286.40168	18463.85
3288.65753	18451.85
3290.91202	18449.95
3293.16516	18433.35
3295.41695	18374.55
3297.66738	18255.35
3299.91647	18186.05
3302.16421	18074.05
3304.4106	17980.85
3306.65564	17843.35
3308.89933	17707.45
3311.14169	17602.75
3313.38269	17488.45
3315.62236	17353.85
3317.86068	17233.65
3320.09766	17090.95
3322.3333	16976.55
3324.5676	16896.15
3326.80056	16598.45
3329.03219	16541.45
3331.26248	3.45
3333.49143	-0.45
3335.71905	-0.25
