Data from AgNPs_FTO_APTES_UA_5uM_CRN_0uM_R6G_10uM_NaF_0.1M_Addition_RamanShift__31__10-14-56-561.txt Node

Date: Mon Feb 07 10:14:56 GMT 2022
User: TCL
Spectrometer: QEP01345
Trigger mode: 4
Integration Time (sec): 7.000000E0
Scans to average: 10
Electric dark correction enabled: true
Nonlinearity correction enabled: false
Boxcar width: 0
XAxis mode: Raman Shifts
Number of Pixels in Spectrum: 1044
>>>>>Begin Spectral Data<<<<<
46.04893	-0.25
50.45542	-0.85
54.85868	-0.55
59.25871	1.55
63.6555	39.25
68.04907	44.15
72.43941	46.35
76.82654	48.35
81.21044	51.25
85.59113	55.85
89.96862	57.55
94.34289	58.05
98.71396	59.85
103.08183	61.55
107.4465	61.85
111.80798	63.45
116.16626	67.35
120.52136	65.65
124.87327	67.45
129.222	74.15
133.56755	72.65
137.90993	80.25
142.24913	83.65
146.58517	93.35
150.91804	107.05
155.24774	117.65
159.57429	151.05
163.89768	190.55
168.21792	256.75
172.53501	331.65
176.84895	463.45
181.15975	638.85
185.46741	898.05
189.77193	1225.55
194.07331	1629.15
198.37157	2104.75
202.6667	2579.65
206.9587	3073.25
211.24758	3563.45
215.53334	4083.05
219.81599	4675.75
224.09553	5365.85
228.37195	6144.15
232.64527	6948.75
236.91549	7730.95
241.18261	8453.45
245.44663	8990.05
249.70755	9393.05
253.96539	9708.45
258.22014	9953.25
262.4718	10195.65
266.72039	10361.85
270.96589	10485.15
275.20832	10476.05
279.44768	10373.85
283.68397	10263.25
287.91719	10200.75
292.14735	10314.15
296.37445	10600.25
300.59849	11126.65
304.81948	11759.45
309.03742	12263.35
313.25231	12264.95
317.46415	11472.75
321.67296	10228.05
325.87872	9123.45
330.08145	8583.15
334.28114	8500.85
338.47781	8698.15
342.67145	9022.85
346.86207	9531.25
351.04966	10347.75
355.23424	11297.45
359.4158	12033.75
363.59435	12320.65
367.76989	12311.15
371.94243	12155.55
376.11196	11947.35
380.27849	11734.75
384.44203	11472.45
388.60257	11113.95
392.76012	10969.55
396.91468	11078.05
401.06626	11492.45
405.21485	11877.85
409.36047	11612.65
413.50311	10773.65
417.64277	9947.45
421.77947	9470.15
425.9132	9236.55
430.04396	9161.25
434.17176	9094.45
438.2966	9166.35
442.41849	9387.55
446.53742	9707.05
450.6534	10030.55
454.76644	10204.15
458.87653	10221.25
462.98368	10079.85
467.08789	9893.35
471.18916	9641.05
475.2875	9349.95
479.38291	9077.05
483.4754	8888.75
487.56496	8740.35
491.6516	8693.15
495.73531	8685.65
499.81612	8780.85
503.89401	8956.35
507.96899	9104.25
512.04106	9267.55
516.11023	9408.45
520.1765	9495.65
524.23987	9388.55
528.30034	9110.55
532.35792	8738.55
536.41261	8392.45
540.46441	8041.65
544.51333	7860.85
548.55936	7923.25
552.60252	8227.05
556.64279	8629.45
560.6802	8806.75
564.71473	9054.45
568.7464	9746.25
572.7752	10295.65
576.80114	9970.75
580.82422	9499.25
584.84444	9311.65
588.86181	9129.15
592.87633	8858.95
596.888	8788.15
600.89682	9196.25
604.9028	10908.05
608.90594	15419.25
612.90624	21680.45
616.90371	21215.85
620.89834	13176.75
624.89015	9052.75
628.87913	8215.75
632.86528	8306.25
636.84862	8592.45
640.82913	8438.65
644.80683	7839.15
648.78172	7382.55
652.75379	7440.25
656.72306	8030.45
660.68952	8800.35
664.65319	8751.15
668.61405	8004.05
672.57211	7580.95
676.52738	7482.15
680.47986	7418.05
684.42955	7280.75
688.37646	7173.45
692.32058	7236.85
696.26192	7365.65
700.20048	7550.35
704.13626	7750.95
708.06928	7782.55
711.99952	7663.45
715.927	7522.05
719.85171	7503.25
723.77365	7428.35
727.69284	7289.55
731.60928	7142.55
735.52295	7096.15
739.43388	7138.45
743.34206	7207.45
747.24749	7303.85
751.15017	7434.35
755.05012	7692.75
758.94733	8302.35
762.8418	9801.05
766.73354	12497.75
770.62254	15352.85
774.50882	16773.65
778.39237	16021.95
782.27321	13280.45
786.15132	10339.25
790.02671	8572.05
793.89938	7752.55
797.76935	7431.55
801.6366	7253.45
805.50115	7154.75
809.36299	7070.45
813.22213	6999.35
817.07857	6962.55
820.93231	6937.05
824.78336	6974.15
828.63172	7055.15
832.47738	7093.55
836.32036	7046.85
840.16066	6950.35
843.99827	6895.05
847.8332	6831.65
851.66546	6834.65
855.49504	6820.55
859.32195	6786.95
863.1462	6679.75
866.96777	6624.85
870.78668	6596.95
874.60293	6590.35
878.41652	6632.75
882.22745	6699.15
886.03573	6755.45
889.84136	6728.25
893.64433	6669.05
897.44466	6657.85
901.24235	6674.35
905.0374	6656.75
908.8298	6567.15
912.61957	6556.05
916.40671	6621.35
920.19121	6771.85
923.97308	6923.05
927.75233	7058.85
931.52895	7151.05
935.30295	6994.65
939.07433	6618.45
942.84309	6274.05
946.60924	6052.55
950.37278	5959.25
954.13371	5876.85
957.89203	5845.65
961.64774	5823.45
965.40086	5781.05
969.15137	5748.15
972.89929	5744.95
976.64461	5747.85
980.38733	5734.65
984.12747	5743.95
987.86502	5756.15
991.59999	5805.05
995.33237	5871.75
999.06217	6025.45
1002.78939	6249.95
1006.51404	6529.35
1010.23611	6790.85
1013.95561	6951.05
1017.67255	6879.85
1021.38692	6722.15
1025.09872	6539.25
1028.80796	6444.45
1032.51465	6494.85
1036.21877	6653.25
1039.92035	6801.85
1043.61937	6928.85
1047.31584	6898.75
1051.00976	6829.55
1054.70114	6766.55
1058.38998	6717.35
1062.07627	6746.25
1065.76003	6843.55
1069.44126	6989.95
1073.11995	7228.35
1076.79611	7462.55
1080.46974	7653.75
1084.14085	7948.95
1087.80943	8337.55
1091.47549	8481.55
1095.13903	8273.45
1098.80005	7766.45
1102.45857	7222.15
1106.11456	6927.85
1109.76805	6876.15
1113.41903	7045.75
1117.06751	7444.65
1120.71348	7987.75
1124.35696	8664.95
1127.99793	9278.75
1131.63641	9304.95
1135.2724	8596.85
1138.90589	7899.85
1142.5369	7465.55
1146.16542	7191.35
1149.79145	7049.55
1153.415	7027.55
1157.03607	7167.45
1160.65467	7387.85
1164.27079	7815.85
1167.88443	8522.15
1171.49561	9738.55
1175.10432	11777.55
1178.71056	14368.45
1182.31434	16087.55
1185.91565	16346.85
1189.51451	15723.55
1193.11091	14421.65
1196.70485	12861.45
1200.29634	11632.45
1203.88538	10696.65
1207.47197	9626.75
1211.05612	8718.95
1214.63782	8236.55
1218.21708	8090.05
1221.79391	8093.75
1225.36829	8102.85
1228.94024	8138.95
1232.50976	8145.75
1236.07685	8144.75
1239.6415	8208.25
1243.20374	8276.95
1246.76355	8330.55
1250.32093	8424.55
1253.8759	8698.15
1257.42845	9076.65
1260.97859	9557.05
1264.52631	10059.75
1268.07163	10565.35
1271.61453	11048.35
1275.15503	11385.05
1278.69312	11489.85
1282.22882	11551.25
1285.76211	11826.95
1289.29301	12368.85
1292.82151	12966.65
1296.34761	13586.65
1299.87133	14509.05
1303.39266	16053.15
1306.9116	18435.15
1310.42815	21332.85
1313.94233	23238.65
1317.45412	22923.15
1320.96354	21162.45
1324.47058	19058.75
1327.97525	17314.45
1331.47754	16211.65
1334.97747	15681.95
1338.47502	15449.35
1341.97022	15587.85
1345.46305	16088.75
1348.95352	17082.85
1352.44163	18707.75
1355.92738	21112.75
1359.41078	24953.05
1362.89183	28992.85
1366.37053	28776.55
1369.84688	24197.95
1373.32088	19166.15
1376.79254	15658.35
1380.26186	13733.45
1383.72883	12693.25
1387.19347	12013.25
1390.65578	11328.95
1394.11575	10728.45
1397.57339	10456.75
1401.0287	10410.05
1404.48168	10538.05
1407.93234	10688.35
1411.38068	10763.75
1414.82669	10616.15
1418.27039	10319.05
1421.71177	9912.75
1425.15083	9548.95
1428.58758	9274.45
1432.02203	9232.65
1435.45416	9339.85
1438.88399	9471.65
1442.31151	9490.15
1445.73673	9589.45
1449.15965	9738.05
1452.58027	9764.95
1455.9986	9730.55
1459.41463	9747.15
1462.82837	9899.65
1466.23982	10180.95
1469.64898	10510.45
1473.05586	10764.55
1476.46045	10958.15
1479.86276	11230.05
1483.26279	11591.15
1486.66054	12051.15
1490.05602	12635.85
1493.44922	13497.85
1496.84016	14916.95
1500.22882	17154.95
1503.61521	20147.55
1506.99934	23512.85
1510.38121	26770.55
1513.76081	28611.35
1517.13816	27360.05
1520.51324	23490.75
1523.88607	19229.05
1527.25665	16211.65
1530.62498	14454.65
1533.99105	13378.45
1537.35488	12701.75
1540.71647	12265.45
1544.07581	11953.45
1547.4329	11770.05
1550.78776	11618.75
1554.14038	11520.55
1557.49077	11663.25
1560.83892	11990.45
1564.18484	12548.05
1567.52853	13214.75
1570.86999	13789.35
1574.20922	14165.25
1577.54624	14080.25
1580.88103	13078.85
1584.2136	11537.45
1587.54395	10636.95
1590.87208	10632.55
1594.19801	11407.05
1597.52172	12645.05
1600.84321	13258.85
1604.16251	12680.05
1607.47959	11543.65
1610.79447	10347.05
1614.10715	9154.05
1617.41763	8186.25
1620.7259	7605.15
1624.03199	7308.15
1627.33587	7291.55
1630.63757	7475.15
1633.93707	7927.65
1637.23439	8715.85
1640.52951	10020.25
1643.82246	11992.25
1647.11321	14583.45
1650.40179	16850.75
1653.68819	17092.55
1656.97241	14584.95
1660.25446	11277.55
1663.53433	8748.95
1666.81203	7218.55
1670.08756	6351.35
1673.36092	5829.55
1676.63211	5541.35
1679.90115	5338.15
1683.16801	5172.95
1686.43272	5063.65
1689.69527	5010.55
1692.95567	4961.65
1696.2139	4921.75
1699.46999	4893.55
1702.72392	4866.15
1705.97571	4846.05
1709.22535	4823.15
1712.47284	4807.75
1715.71819	4810.25
1718.96139	4823.35
1722.20246	4805.35
1725.44139	4777.25
1728.67818	4697.65
1731.91284	4614.55
1735.14537	4542.45
1738.37576	4482.35
1741.60403	4443.45
1744.83017	4403.85
1748.05418	4369.85
1751.27607	4358.65
1754.49584	4332.85
1757.71349	4320.55
1760.92903	4303.65
1764.14244	4300.35
1767.35375	4293.25
1770.56294	4257.25
1773.77002	4220.85
1776.97499	4192.25
1780.17785	4161.35
1783.37861	4134.75
1786.57727	4122.25
1789.77382	4104.95
1792.96828	4094.35
1796.16064	4085.55
1799.3509	4072.75
1802.53907	4041.95
1805.72514	4026.75
1808.90913	3992.65
1812.09102	3991.55
1815.27083	3957.75
1818.44856	3959.55
1821.6242	3930.25
1824.79776	3941.95
1827.96924	3908.95
1831.13864	3901.35
1834.30597	3893.65
1837.47122	3884.55
1840.6344	3900.95
1843.7955	3874.75
1846.95454	3869.75
1850.11151	3850.55
1853.26642	3842.05
1856.41926	3857.25
1859.57004	3848.35
1862.71876	3845.35
1865.86542	3840.95
1869.01003	3833.95
1872.15258	3847.15
1875.29308	3820.05
1878.43152	3821.05
1881.56792	3820.35
1884.70227	3806.95
1887.83457	3798.65
1890.96482	3819.95
1894.09304	3806.65
1897.21921	3808.15
1900.34335	3797.75
1903.46544	3798.65
1906.58551	3819.85
1909.70353	3793.45
1912.81953	3809.15
1915.93349	3810.05
1919.04543	3797.55
1922.15534	3788.35
1925.26322	3771.15
1928.36908	3756.65
1931.47292	3742.35
1934.57473	3711.95
1937.67453	3688.25
1940.77232	3672.85
1943.86808	3655.05
1946.96184	3619.85
1950.05358	3609.25
1953.14331	3599.85
1956.23103	3592.65
1959.31675	3570.95
1962.40046	3561.95
1965.48217	3549.85
1968.56188	3553.55
1971.63959	3549.25
1974.7153	3517.65
1977.78901	3527.05
1980.86073	3510.75
1983.93046	3487.45
1986.99819	3467.15
1990.06394	3453.95
1993.1277	3446.55
1996.18947	3432.35
1999.24925	3405.25
2002.30706	3381.65
2005.36288	3369.05
2008.41672	3359.15
2011.46859	3333.95
2014.51848	3326.05
2017.56639	3322.75
2020.61233	3305.65
2023.6563	3296.65
2026.6983	3292.45
2029.73833	3269.15
2032.7764	3264.35
2035.8125	3261.45
2038.84664	3254.55
2041.87881	3241.75
2044.90903	3230.55
2047.93729	3217.55
2050.96359	3219.35
2053.98794	3220.35
2057.01034	3200.95
2060.03078	3212.05
2063.04927	3213.55
2066.06582	3191.85
2069.08042	3185.65
2072.09307	3193.45
2075.10378	3182.15
2078.11255	3177.15
2081.11938	3178.85
2084.12426	3154.05
2087.12722	3169.65
2090.12824	3156.75
2093.12732	3157.35
2096.12447	3169.85
2099.11969	3147.25
2102.11299	3149.05
2105.10435	3148.95
2108.09379	3154.55
2111.08131	3151.95
2114.0669	3151.45
2117.05057	3146.05
2120.03233	3163.75
2123.01216	3148.65
2125.99008	3155.05
2128.96609	3160.15
2131.94018	3156.75
2134.91236	3159.05
2137.88263	3152.75
2140.851	3140.85
2143.81746	3157.25
2146.78201	3139.95
2149.74466	3145.05
2152.7054	3144.45
2155.66425	3127.85
2158.6212	3118.45
2161.57625	3111.45
2164.52941	3118.55
2167.48067	3105.35
2170.43004	3090.25
2173.37752	3090.45
2176.32311	3099.75
2179.26681	3106.85
2182.20863	3088.35
2185.14856	3094.75
2188.08661	3092.75
2191.02278	3107.75
2193.95707	3085.45
2196.88948	3080.55
2199.82001	3059.05
2202.74867	3050.75
2205.67545	3052.65
2208.60037	3048.85
2211.52341	3038.95
2214.44458	3042.95
2217.36388	3040.65
2220.28132	3027.15
2223.1969	3020.15
2226.11061	2996.95
2229.02246	2994.45
2231.93245	2997.55
2234.84058	2973.85
2237.74686	2962.35
2240.65128	2970.15
2243.55385	2963.05
2246.45456	2958.55
2249.35343	2965.75
2252.25044	2951.35
2255.14561	2953.35
2258.03893	2956.45
2260.93041	2964.25
2263.82004	2968.45
2266.70783	2961.85
2269.59378	2945.05
2272.4779	2930.25
2275.36017	2925.95
2278.24061	2913.15
2281.11922	2921.75
2283.996	2894.85
2286.87094	2889.15
2289.74405	2879.45
2292.61534	2868.85
2295.4848	2851.65
2298.35243	2852.35
2301.21824	2854.55
2304.08223	2845.65
2306.94439	2858.55
2309.80474	2837.05
2312.66327	2846.75
2315.51999	2830.75
2318.37489	2836.75
2321.22797	2844.15
2324.07925	2842.45
2326.92871	2831.45
2329.77637	2831.95
2332.62222	2828.25
2335.46626	2824.75
2338.3085	2815.75
2341.14893	2821.15
2343.98756	2832.65
2346.8244	2849.85
2349.65943	2849.75
2352.49267	2864.65
2355.32411	2870.65
2358.15376	2880.55
2360.98161	2877.65
2363.80768	2895.45
2366.63195	2912.55
2369.45444	2919.35
2372.27514	2909.45
2375.09405	2917.25
2377.91118	2900.65
2380.72652	2870.55
2383.54009	2839.15
2386.35187	2840.55
2389.16188	2799.95
2391.97011	2789.05
2394.77657	2766.65
2397.58125	2760.45
2400.38416	2743.15
2403.18529	2749.95
2405.98466	2730.25
2408.78226	2720.75
2411.57809	2715.65
2414.37216	2704.65
2417.16446	2718.45
2419.955	2701.05
2422.74378	2702.65
2425.5308	2693.35
2428.31606	2703.15
2431.09956	2709.65
2433.88131	2695.25
2436.6613	2706.85
2439.43954	2711.55
2442.21603	2708.35
2444.99077	2720.85
2447.76377	2720.35
2450.53501	2720.45
2453.30451	2725.05
2456.07226	2728.45
2458.83827	2731.65
2461.60254	2724.95
2464.36507	2727.25
2467.12586	2725.65
2469.88492	2713.35
2472.64224	2713.35
2475.39782	2737.95
2478.15167	2734.75
2480.90379	2743.15
2483.65417	2746.15
2486.40283	2764.45
2489.14976	2775.45
2491.89497	2793.15
2494.63845	2812.25
2497.3802	2807.45
2500.12024	2780.15
2502.85855	2777.25
2505.59514	2757.85
2508.33002	2738.65
2511.06318	2719.35
2513.79462	2704.75
2516.52435	2690.15
2519.25237	2674.05
2521.97867	2652.15
2524.70327	2649.85
2527.42616	2644.85
2530.14734	2635.15
2532.86681	2634.85
2535.58458	2641.75
2538.30065	2621.15
2541.01501	2631.95
2543.72768	2634.45
2546.43864	2636.85
2549.14791	2634.55
2551.85548	2633.65
2554.56136	2643.25
2557.26554	2634.35
2559.96803	2639.45
2562.66883	2632.15
2565.36794	2628.05
2568.06536	2620.75
2570.7611	2627.95
2573.45514	2610.05
2576.14751	2604.65
2578.83819	2595.65
2581.52719	2601.35
2584.21451	2593.75
2586.90015	2590.05
2589.58411	2592.35
2592.2664	2579.85
2594.94701	2569.55
2597.62594	2577.65
2600.30321	2573.85
2602.9788	2578.35
2605.65273	2573.25
2608.32498	2593.55
2610.99557	2579.85
2613.66449	2582.65
2616.33175	2578.75
2618.99734	2580.85
2621.66128	2593.85
2624.32355	2583.35
2626.98416	2576.45
2629.64311	2564.65
2632.30041	2566.85
2634.95605	2559.75
2637.61004	2555.35
2640.26238	2544.75
2642.91306	2541.85
2645.56209	2531.95
2648.20948	2544.45
2650.85521	2539.75
2653.4993	2551.35
2656.14175	2543.95
2658.78255	2550.45
2661.42171	2550.35
2664.05923	2559.25
2666.6951	2567.55
2669.32934	2567.95
2671.96194	2567.25
2674.59291	2591.15
2677.22224	2592.45
2679.84993	2592.45
2682.476	2586.65
2685.10043	2586.15
2687.72324	2586.05
2690.34441	2581.05
2692.96396	2591.25
2695.58188	2588.75
2698.19818	2588.55
2700.81285	2593.35
2703.4259	2603.05
2706.03733	2629.45
2708.64714	2622.25
2711.25533	2626.45
2713.86191	2611.45
2716.46687	2622.05
2719.07021	2633.35
2721.67194	2638.65
2724.27206	2624.15
2726.87057	2650.05
2729.46747	2640.55
2732.06276	2631.45
2734.65644	2621.45
2737.24852	2628.05
2739.83899	2602.95
2742.42786	2592.45
2745.01513	2587.65
2747.60079	2592.45
2750.18486	2592.05
2752.76733	2583.35
2755.3482	2577.65
2757.92747	2574.85
2760.50515	2564.65
2763.08123	2576.75
2765.65573	2566.35
2768.22863	2577.45
2770.79994	2553.45
2773.36967	2570.85
2775.9378	2569.95
2778.50435	2589.35
2781.06932	2594.75
2783.6327	2599.45
2786.1945	2609.95
2788.75471	2605.25
2791.31335	2625.05
2793.87041	2609.45
2796.42589	2625.55
2798.97979	2638.05
2801.53212	2651.95
2804.08288	2644.65
2806.63206	2659.55
2809.17967	2677.65
2811.72571	2683.65
2814.27018	2698.05
2816.81308	2722.15
2819.35442	2726.75
2821.89419	2730.05
2824.43239	2756.65
2826.96904	2761.55
2829.50412	2780.75
2832.03763	2775.55
2834.56959	2793.05
2837.1	2817.25
2839.62884	2837.05
2842.15613	2893.65
2844.68186	2966.25
2847.20604	3050.45
2849.72867	3122.75
2852.24974	3153.75
2854.76927	3165.45
2857.28724	3167.45
2859.80367	3145.55
2862.31855	3117.15
2864.83189	3109.85
2867.34368	3087.45
2869.85393	3097.85
2872.36264	3078.05
2874.8698	3067.05
2877.37543	3059.15
2879.87952	3074.05
2882.38207	3063.35
2884.88308	3057.75
2887.38256	3052.25
2889.88051	3043.25
2892.37692	3027.05
2894.8718	3037.65
2897.36515	3035.15
2899.85698	3059.25
2902.34727	3073.05
2904.83604	3067.55
2907.32328	3070.05
2909.809	3051.15
2912.29319	3045.85
2914.77587	3040.55
2917.25702	3040.35
2919.73665	3029.05
2922.21476	3019.65
2924.69136	3024.95
2927.16644	3017.35
2929.64	2995.55
2932.11205	2977.95
2934.58258	2960.85
2937.05161	2940.65
2939.51912	2911.15
2941.98513	2862.95
2944.44962	2808.65
2946.91261	2757.25
2949.37409	2708.85
2951.83407	2682.85
2954.29254	2663.65
2956.74951	2640.55
2959.20498	2623.55
2961.65895	2601.25
2964.11142	2589.85
2966.56239	2584.55
2969.01186	2571.15
2971.45984	2554.75
2973.90632	2551.25
2976.35131	2519.45
2978.7948	2518.25
2981.23681	2500.15
2983.67732	2492.35
2986.11635	2478.75
2988.55388	2460.95
2990.98993	2451.75
2993.4245	2428.95
2995.85758	2425.45
2998.28917	2406.95
3000.71928	2405.35
3003.14791	2400.15
3005.57506	2394.85
3008.00073	2385.85
3010.42493	2396.35
3012.84764	2365.95
3015.26888	2386.65
3017.68865	2372.65
3020.10694	2374.75
3022.52376	2360.15
3024.9391	2354.35
3027.35298	2351.15
3029.76539	2353.85
3032.17632	2357.15
3034.5858	2345.15
3036.9938	2334.95
3039.40034	2345.85
3041.80542	2342.25
3044.20903	2375.65
3046.61118	2344.85
3049.01187	2327.75
3051.4111	2330.25
3053.80888	2327.45
3056.20519	2318.65
3058.60005	2307.75
3060.99345	2315.85
3063.3854	2305.85
3065.7759	2304.35
3068.16494	2310.35
3070.55254	2300.75
3072.93868	2298.25
3075.32338	2279.85
3077.70662	2277.85
3080.08842	2266.25
3082.46878	2253.75
3084.84769	2246.45
3087.22515	2233.65
3089.60118	2232.55
3091.97576	2221.45
3094.3489	2227.95
3096.72061	2225.65
3099.09087	2221.75
3101.4597	2226.15
3103.82709	2235.65
3106.19305	2222.95
3108.55757	2230.35
3110.92066	2218.45
3113.28232	2225.25
3115.64255	2212.55
3118.00134	2204.85
3120.35871	2210.65
3122.71466	2203.35
3125.06917	2218.15
3127.42226	2213.65
3129.77393	2234.75
3132.12417	2222.35
3134.47299	2225.85
3136.82039	2228.35
3139.16636	2241.25
3141.51092	2246.05
3143.85406	2249.15
3146.19579	2240.35
3148.53609	2246.55
3150.87499	2244.75
3153.21246	2258.25
3155.54853	2260.45
3157.88318	2272.35
3160.21642	2278.65
3162.54826	2274.75
3164.87868	2276.85
3167.2077	2289.15
3169.5353	2297.55
3171.86151	2293.15
3174.18631	2302.55
3176.5097	2303.15
3178.83169	2306.45
3181.15228	2305.65
3183.47147	2301.55
3185.78926	2311.05
3188.10565	2310.65
3190.42065	2304.55
3192.73424	2324.65
3195.04645	2324.85
3197.35725	2320.75
3199.66667	2324.65
3201.97469	2336.95
3204.28132	2334.85
3206.58656	2328.75
3208.8904	2343.05
3211.19287	2348.05
3213.49394	2346.25
3215.79363	2353.55
3218.09193	2358.95
3220.38884	2370.95
3222.68438	2377.35
3224.97853	2379.75
3227.2713	2369.15
3229.56269	2366.15
3231.8527	2374.55
3234.14133	2360.45
3236.42858	2365.25
3238.71446	2351.45
3240.99896	2355.15
3243.28209	2351.95
3245.56384	2343.95
3247.84423	2361.05
3250.12324	2355.05
3252.40088	2341.55
3254.67715	2343.75
3256.95205	2340.55
3259.22558	2350.95
3261.49775	2337.95
3263.76855	2331.05
3266.03799	2328.25
3268.30606	2325.25
3270.57277	2325.65
3272.83812	2333.75
3275.10211	2317.35
3277.36474	2316.05
3279.62601	2311.95
3281.88593	2308.45
3284.14448	2323.55
3286.40168	2323.75
3288.65753	2308.25
3290.91202	2314.95
3293.16516	2316.85
3295.41695	2307.55
3297.66738	2284.55
3299.91647	2300.35
3302.16421	2263.75
3304.4106	2262.05
3306.65564	2237.15
3308.89933	2219.95
3311.14169	2212.75
3313.38269	2187.95
3315.62236	2183.25
3317.86068	2156.05
3320.09766	2137.65
3322.3333	2112.85
3324.5676	2119.45
3326.80056	2085.15
3329.03219	2068.05
3331.26248	2.25
3333.49143	-1.75
3335.71905	-0.65
