Data from AgNPs_FTO_APTES_UA_5uM_CRN_5uM_R6G_10uM_NaF_0.1M_Addition_RamanShift__6__11-51-46-674.txt Node

Date: Mon Feb 07 11:51:46 GMT 2022
User: TCL
Spectrometer: QEP01345
Trigger mode: 4
Integration Time (sec): 7.000000E0
Scans to average: 10
Electric dark correction enabled: true
Nonlinearity correction enabled: false
Boxcar width: 0
XAxis mode: Raman Shifts
Number of Pixels in Spectrum: 1044
>>>>>Begin Spectral Data<<<<<
46.04893	-0.05
50.45542	-1.65
54.85868	-0.65
59.25871	0.35
63.6555	113.75
68.04907	115.15
72.43941	120.95
76.82654	125.95
81.21044	132.15
85.59113	134.85
89.96862	139.75
94.34289	142.85
98.71396	148.95
103.08183	151.05
107.4465	157.65
111.80798	158.95
116.16626	165.95
120.52136	177.65
124.87327	182.15
129.222	195.05
133.56755	207.75
137.90993	225.95
142.24913	250.25
146.58517	290.65
150.91804	334.55
155.24774	409.85
159.57429	515.35
163.89768	672.65
168.21792	896.05
172.53501	1231.05
176.84895	1714.25
181.15975	2407.05
185.46741	3380.25
189.77193	4662.15
194.07331	6221.55
198.37157	7985.65
202.6667	9868.15
206.9587	11723.95
211.24758	13545.35
215.53334	15380.75
219.81599	17318.15
224.09553	19463.95
228.37195	21845.95
232.64527	24380.55
236.91549	27053.95
241.18261	29694.75
245.44663	32225.15
249.70755	34434.55
253.96539	36426.55
258.22014	38059.45
262.4718	39351.85
266.72039	40192.15
270.96589	40759.95
275.20832	40798.95
279.44768	40617.55
283.68397	40397.15
287.91719	40129.45
292.14735	39982.65
296.37445	39988.45
300.59849	40105.75
304.81948	40225.45
309.03742	40275.65
313.25231	40068.35
317.46415	39416.25
321.67296	38548.45
325.87872	37722.45
330.08145	37250.75
334.28114	37162.75
338.47781	37353.45
342.67145	37690.15
346.86207	38248.65
351.04966	38874.35
355.23424	39468.55
359.4158	40060.05
363.59435	40501.95
367.76989	40820.05
371.94243	40950.85
376.11196	41025.35
380.27849	40978.85
384.44203	41088.45
388.60257	41440.65
392.76012	41999.95
396.91468	42704.35
401.06626	43482.55
405.21485	43934.75
409.36047	43718.85
413.50311	43343.25
417.64277	43470.25
421.77947	43868.55
425.9132	44343.05
430.04396	44564.55
434.17176	44651.95
438.2966	44771.05
442.41849	45266.55
446.53742	46408.95
450.6534	47800.55
454.76644	48833.15
458.87653	49169.05
462.98368	48920.65
467.08789	48179.85
471.18916	47263.25
475.2875	46446.15
479.38291	46060.35
483.4754	45904.65
487.56496	45532.55
491.6516	44746.25
495.73531	43803.55
499.81612	43192.25
503.89401	43331.75
507.96899	43609.05
512.04106	43697.55
516.11023	43222.85
520.1765	42377.25
524.23987	41539.05
528.30034	40856.95
532.35792	40309.05
536.41261	39778.15
540.46441	39318.25
544.51333	39280.85
548.55936	39789.25
552.60252	40852.55
556.64279	42131.55
560.6802	43193.65
564.71473	44061.65
568.7464	45375.55
572.7752	47580.45
576.80114	50309.25
580.82422	53130.45
584.84444	56215.45
588.86181	60087.35
592.87633	63270.85
596.888	62035.55
600.89682	57146.35
604.9028	53877.65
608.90594	54646.65
612.90624	55997.95
616.90371	51653.15
620.89834	44220.85
624.89015	41136.95
628.87913	41093.45
632.86528	41440.05
636.84862	41220.85
640.82913	40119.05
644.80683	38942.05
648.78172	38229.05
652.75379	38263.45
656.72306	38775.15
660.68952	39205.85
664.65319	38815.95
668.61405	38141.65
672.57211	38026.15
676.52738	38155.15
680.47986	38153.05
684.42955	37782.55
688.37646	37561.35
692.32058	37849.55
696.26192	38638.25
700.20048	39398.65
704.13626	39847.85
708.06928	40092.95
711.99952	40028.45
715.927	40032.25
719.85171	40181.85
723.77365	39797.75
727.69284	38936.85
731.60928	38091.15
735.52295	37668.45
739.43388	37670.15
743.34206	37803.25
747.24749	38176.15
751.15017	38799.65
755.05012	39770.25
758.94733	41152.15
762.8418	43320.65
766.73354	46199.05
770.62254	48550.95
774.50882	48110.45
778.39237	45436.25
782.27321	42299.45
786.15132	40030.15
790.02671	38524.65
793.89938	37741.85
797.76935	37423.75
801.6366	37304.15
805.50115	37295.15
809.36299	37133.65
813.22213	36827.65
817.07857	36590.65
820.93231	36404.25
824.78336	36063.95
828.63172	35783.15
832.47738	35517.75
836.32036	35543.45
840.16066	35579.05
843.99827	35616.55
847.8332	35575.15
851.66546	35603.75
855.49504	35681.95
859.32195	35658.65
863.1462	35505.35
866.96777	35413.55
870.78668	35293.45
874.60293	35308.95
878.41652	35269.75
882.22745	35367.45
886.03573	35521.25
889.84136	35476.55
893.64433	35282.35
897.44466	35160.15
901.24235	35094.85
905.0374	34996.85
908.8298	34942.45
912.61957	35146.45
916.40671	35682.75
920.19121	36580.25
923.97308	37263.75
927.75233	37169.95
931.52895	36425.35
935.30295	35431.95
939.07433	34500.15
942.84309	33980.75
946.60924	33661.85
950.37278	33579.35
954.13371	33628.75
957.89203	33658.55
961.64774	33711.95
965.40086	33774.35
969.15137	33700.85
972.89929	33501.95
976.64461	33262.05
980.38733	33153.15
984.12747	33178.45
987.86502	33305.95
991.59999	33541.25
995.33237	33958.35
999.06217	34586.55
1002.78939	35490.35
1006.51404	36493.25
1010.23611	37451.85
1013.95561	37960.55
1017.67255	37982.95
1021.38692	37382.65
1025.09872	36485.05
1028.80796	35843.45
1032.51465	35850.35
1036.21877	36125.85
1039.92035	36405.15
1043.61937	36484.25
1047.31584	36356.15
1051.00976	36291.65
1054.70114	36318.45
1058.38998	36619.65
1062.07627	37128.25
1065.76003	37782.15
1069.44126	38484.95
1073.11995	39435.75
1076.79611	40093.35
1080.46974	40324.45
1084.14085	40692.85
1087.80943	41272.75
1091.47549	41889.35
1095.13903	42166.15
1098.80005	41433.25
1102.45857	40087.25
1106.11456	38875.05
1109.76805	38240.35
1113.41903	38066.25
1117.06751	38244.85
1120.71348	38559.05
1124.35696	39014.25
1127.99793	39444.05
1131.63641	39871.15
1135.2724	40033.95
1138.90589	40226.15
1142.5369	40656.85
1146.16542	41327.25
1149.79145	42140.05
1153.415	42915.45
1157.03607	44045.85
1160.65467	46019.35
1164.27079	49081.75
1167.88443	52527.45
1171.49561	55560.35
1175.10432	58898.95
1178.71056	63054.75
1182.31434	67012.95
1185.91565	68824.65
1189.51451	68299.95
1193.11091	66524.95
1196.70485	64371.55
1200.29634	62228.95
1203.88538	61200.35
1207.47197	61414.35
1211.05612	61834.25
1214.63782	60982.95
1218.21708	58706.35
1221.79391	55901.75
1225.36829	53728.05
1228.94024	52325.05
1232.50976	51167.15
1236.07685	50157.05
1239.6415	49468.95
1243.20374	49363.95
1246.76355	49848.95
1250.32093	50833.75
1253.8759	52207.85
1257.42845	53908.95
1260.97859	55883.05
1264.52631	57952.15
1268.07163	60051.45
1271.61453	62196.65
1275.15503	64609.85
1278.69312	67314.85
1282.22882	70351.45
1285.76211	74009.05
1289.29301	78188.85
1292.82151	83004.65
1296.34761	88886.75
1299.87133	95490.25
1303.39266	101721.25
1306.9116	106409.85
1310.42815	108901.05
1313.94233	109190.25
1317.45412	107937.25
1320.96354	106328.15
1324.47058	105565.25
1327.97525	105800.65
1331.47754	105779.45
1334.97747	105077.75
1338.47502	103400.35
1341.97022	101011.25
1345.46305	98150.75
1348.95352	95383.35
1352.44163	93702.95
1355.92738	94206.45
1359.41078	97076.75
1362.89183	99650.75
1366.37053	98835.65
1369.84688	92386.65
1373.32088	82405.85
1376.79254	75241.25
1380.26186	73046.15
1383.72883	74183.95
1387.19347	75378.65
1390.65578	75041.25
1394.11575	74933.05
1397.57339	76256.75
1401.0287	78435.05
1404.48168	80185.55
1407.93234	80114.95
1411.38068	77685.85
1414.82669	73626.55
1418.27039	69165.25
1421.71177	64928.25
1425.15083	61787.75
1428.58758	60526.45
1432.02203	61495.65
1435.45416	64185.75
1438.88399	67157.15
1442.31151	69372.45
1445.73673	70624.85
1449.15965	71251.55
1452.58027	71262.95
1455.9986	71038.55
1459.41463	71278.95
1462.82837	72391.35
1466.23982	73992.85
1469.64898	75341.15
1473.05586	75965.05
1476.46045	75766.05
1479.86276	74806.55
1483.26279	73473.95
1486.66054	72784.05
1490.05602	72778.15
1493.44922	73242.65
1496.84016	73688.35
1500.22882	74077.65
1503.61521	74650.15
1506.99934	75432.65
1510.38121	76032.25
1513.76081	76172.95
1517.13816	75828.55
1520.51324	75845.65
1523.88607	76673.75
1527.25665	78003.65
1530.62498	79046.55
1533.99105	78832.45
1537.35488	77305.95
1540.71647	74793.35
1544.07581	71528.35
1547.4329	68320.95
1550.78776	65793.45
1554.14038	64075.65
1557.49077	62870.55
1560.83892	62083.05
1564.18484	61536.95
1567.52853	61389.55
1570.86999	62101.25
1574.20922	63766.05
1577.54624	65765.45
1580.88103	67365.95
1584.2136	69578.35
1587.54395	73752.25
1590.87208	79409.35
1594.19801	85542.45
1597.52172	90025.95
1600.84321	89771.65
1604.16251	83394.95
1607.47959	74210.55
1610.79447	65534.65
1614.10715	58263.05
1617.41763	52785.35
1620.7259	49240.25
1624.03199	47653.75
1627.33587	47947.65
1630.63757	50317.25
1633.93707	55264.45
1637.23439	63574.05
1640.52951	75615.25
1643.82246	89544.45
1647.11321	100025.65
1650.40179	100512.85
1653.68819	90086.25
1656.97241	74476.05
1660.25446	60318.05
1663.53433	50142.25
1666.81203	43603.75
1670.08756	39623.85
1673.36092	37158.55
1676.63211	35603.85
1679.90115	34512.35
1683.16801	33670.35
1686.43272	33005.45
1689.69527	32585.55
1692.95567	32211.05
1696.2139	31875.05
1699.46999	31696.15
1702.72392	31500.05
1705.97571	31380.25
1709.22535	31269.15
1712.47284	31130.45
1715.71819	31117.95
1718.96139	30879.15
1722.20246	30775.25
1725.44139	30604.25
1728.67818	30331.65
1731.91284	30106.85
1735.14537	29849.35
1738.37576	29676.65
1741.60403	29541.85
1744.83017	29384.35
1748.05418	29222.85
1751.27607	29147.85
1754.49584	29072.15
1757.71349	29049.45
1760.92903	28976.25
1764.14244	28946.95
1767.35375	28881.45
1770.56294	28846.45
1773.77002	28698.95
1776.97499	28609.95
1780.17785	28555.55
1783.37861	28524.65
1786.57727	28423.65
1789.77382	28350.15
1792.96828	28306.55
1796.16064	28203.45
1799.3509	28169.45
1802.53907	28052.95
1805.72514	27992.95
1808.90913	27857.25
1812.09102	27812.65
1815.27083	27767.55
1818.44856	27721.55
1821.6242	27686.25
1824.79776	27687.25
1827.96924	27625.85
1831.13864	27582.55
1834.30597	27606.45
1837.47122	27597.25
1840.6344	27585.75
1843.7955	27624.85
1846.95454	27635.65
1850.11151	27590.45
1853.26642	27558.05
1856.41926	27542.35
1859.57004	27512.45
1862.71876	27493.85
1865.86542	27412.25
1869.01003	27343.95
1872.15258	27236.05
1875.29308	27225.85
1878.43152	27186.15
1881.56792	27168.55
1884.70227	27116.15
1887.83457	27081.35
1890.96482	27060.75
1894.09304	26990.65
1897.21921	26980.85
1900.34335	26906.05
1903.46544	26876.15
1906.58551	26822.75
1909.70353	26769.15
1912.81953	26638.95
1915.93349	26596.85
1919.04543	26538.25
1922.15534	26453.35
1925.26322	26405.65
1928.36908	26343.05
1931.47292	26269.05
1934.57473	26143.85
1937.67453	26026.45
1940.77232	25997.75
1943.86808	25865.25
1946.96184	25827.95
1950.05358	25761.55
1953.14331	25682.55
1956.23103	25645.55
1959.31675	25555.85
1962.40046	25431.55
1965.48217	25374.15
1968.56188	25250.85
1971.63959	25159.65
1974.7153	25027.75
1977.78901	24945.15
1980.86073	24880.55
1983.93046	24817.55
1986.99819	24725.35
1990.06394	24667.05
1993.1277	24640.35
1996.18947	24543.75
1999.24925	24487.55
2002.30706	24343.35
2005.36288	24244.95
2008.41672	24199.95
2011.46859	24135.35
2014.51848	24058.35
2017.56639	24010.45
2020.61233	23888.45
2023.6563	23851.85
2026.6983	23786.05
2029.73833	23725.25
2032.7764	23690.45
2035.8125	23681.05
2038.84664	23572.95
2041.87881	23569.85
2044.90903	23496.45
2047.93729	23439.05
2050.96359	23419.25
2053.98794	23371.65
2057.01034	23361.05
2060.03078	23359.95
2063.04927	23371.95
2066.06582	23357.55
2069.08042	23337.75
2072.09307	23274.55
2075.10378	23256.95
2078.11255	23195.65
2081.11938	23199.65
2084.12426	23208.05
2087.12722	23152.55
2090.12824	23118.45
2093.12732	23159.45
2096.12447	23114.45
2099.11969	23174.85
2102.11299	23151.35
2105.10435	23119.45
2108.09379	23137.65
2111.08131	23157.75
2114.0669	23135.75
2117.05057	23148.25
2120.03233	23129.75
2123.01216	23151.35
2125.99008	23130.25
2128.96609	23133.05
2131.94018	23104.35
2134.91236	23114.75
2137.88263	23116.35
2140.851	23129.95
2143.81746	23108.25
2146.78201	23062.55
2149.74466	23091.95
2152.7054	23016.05
2155.66425	22988.05
2158.6212	23001.45
2161.57625	22935.15
2164.52941	22970.15
2167.48067	22983.85
2170.43004	23021.05
2173.37752	22999.55
2176.32311	22953.15
2179.26681	22956.15
2182.20863	22914.05
2185.14856	22975.25
2188.08661	22947.25
2191.02278	22989.45
2193.95707	22981.95
2196.88948	22873.65
2199.82001	22845.65
2202.74867	22813.05
2205.67545	22742.25
2208.60037	22717.55
2211.52341	22700.45
2214.44458	22682.15
2217.36388	22632.45
2220.28132	22580.35
2223.1969	22504.85
2226.11061	22473.85
2229.02246	22472.25
2231.93245	22473.55
2234.84058	22473.25
2237.74686	22401.15
2240.65128	22382.15
2243.55385	22363.15
2246.45456	22250.75
2249.35343	22213.15
2252.25044	22136.45
2255.14561	22088.65
2258.03893	22032.45
2260.93041	21950.95
2263.82004	21889.25
2266.70783	21787.55
2269.59378	21729.35
2272.4779	21646.45
2275.36017	21581.75
2278.24061	21554.75
2281.11922	21501.55
2283.996	21478.65
2286.87094	21507.95
2289.74405	21424.95
2292.61534	21414.55
2295.4848	21393.85
2298.35243	21381.95
2301.21824	21353.35
2304.08223	21376.25
2306.94439	21384.85
2309.80474	21358.05
2312.66327	21365.75
2315.51999	21319.25
2318.37489	21286.15
2321.22797	21290.15
2324.07925	21213.45
2326.92871	21223.45
2329.77637	21166.75
2332.62222	21107.45
2335.46626	21125.55
2338.3085	21123.15
2341.14893	21114.85
2343.98756	21140.15
2346.8244	21145.85
2349.65943	21133.75
2352.49267	21141.95
2355.32411	21167.85
2358.15376	21130.85
2360.98161	21081.25
2363.80768	21086.55
2366.63195	21096.85
2369.45444	21052.85
2372.27514	21008.65
2375.09405	20972.55
2377.91118	20948.05
2380.72652	20845.15
2383.54009	20799.65
2386.35187	20807.45
2389.16188	20715.15
2391.97011	20723.75
2394.77657	20667.95
2397.58125	20622.25
2400.38416	20660.95
2403.18529	20619.65
2405.98466	20591.15
2408.78226	20534.65
2411.57809	20511.25
2414.37216	20527.85
2417.16446	20487.75
2419.955	20455.35
2422.74378	20472.45
2425.5308	20438.95
2428.31606	20430.05
2431.09956	20381.45
2433.88131	20359.35
2436.6613	20371.95
2439.43954	20374.85
2442.21603	20363.05
2444.99077	20315.05
2447.76377	20337.05
2450.53501	20328.25
2453.30451	20336.65
2456.07226	20248.95
2458.83827	20276.75
2461.60254	20314.65
2464.36507	20285.35
2467.12586	20267.95
2469.88492	20262.35
2472.64224	20294.05
2475.39782	20304.25
2478.15167	20350.05
2480.90379	20338.55
2483.65417	20317.05
2486.40283	20312.45
2489.14976	20351.35
2491.89497	20335.95
2494.63845	20344.35
2497.3802	20307.85
2500.12024	20348.25
2502.85855	20358.65
2505.59514	20295.15
2508.33002	20275.75
2511.06318	20290.15
2513.79462	20286.45
2516.52435	20278.25
2519.25237	20294.85
2521.97867	20284.55
2524.70327	20255.95
2527.42616	20219.25
2530.14734	20215.25
2532.86681	20244.35
2535.58458	20270.25
2538.30065	20216.45
2541.01501	20235.65
2543.72768	20198.15
2546.43864	20210.35
2549.14791	20167.75
2551.85548	20176.75
2554.56136	20137.55
2557.26554	20113.45
2559.96803	20131.35
2562.66883	20113.95
2565.36794	20067.85
2568.06536	20065.25
2570.7611	20052.65
2573.45514	20046.75
2576.14751	20037.35
2578.83819	20041.95
2581.52719	20059.95
2584.21451	20053.65
2586.90015	20036.65
2589.58411	20011.25
2592.2664	20007.85
2594.94701	20011.85
2597.62594	19990.05
2600.30321	20011.45
2602.9788	20001.85
2605.65273	19991.75
2608.32498	20025.35
2610.99557	20000.25
2613.66449	20041.45
2616.33175	20043.15
2618.99734	20031.25
2621.66128	19995.25
2624.32355	19962.05
2626.98416	19972.55
2629.64311	19952.55
2632.30041	19963.35
2634.95605	19955.75
2637.61004	19922.75
2640.26238	19953.55
2642.91306	19938.65
2645.56209	19919.05
2648.20948	19934.05
2650.85521	20020.95
2653.4993	20025.55
2656.14175	19988.45
2658.78255	20042.55
2661.42171	20025.35
2664.05923	20065.85
2666.6951	20036.25
2669.32934	20102.75
2671.96194	20115.45
2674.59291	20106.25
2677.22224	20140.95
2679.84993	20175.25
2682.476	20107.95
2685.10043	20083.95
2687.72324	20032.75
2690.34441	20050.25
2692.96396	20064.65
2695.58188	20105.15
2698.19818	20060.55
2700.81285	20054.25
2703.4259	20090.35
2706.03733	20073.15
2708.64714	20069.95
2711.25533	20074.25
2713.86191	20075.95
2716.46687	20118.75
2719.07021	20147.95
2721.67194	20178.05
2724.27206	20225.95
2726.87057	20233.25
2729.46747	20288.75
2732.06276	20309.65
2734.65644	20298.25
2737.24852	20302.15
2739.83899	20280.05
2742.42786	20263.55
2745.01513	20249.95
2747.60079	20265.75
2750.18486	20247.95
2752.76733	20233.15
2755.3482	20233.75
2757.92747	20217.65
2760.50515	20196.65
2763.08123	20247.15
2765.65573	20199.85
2768.22863	20203.95
2770.79994	20178.75
2773.36967	20235.05
2775.9378	20156.05
2778.50435	20210.75
2781.06932	20186.05
2783.6327	20185.95
2786.1945	20190.65
2788.75471	20229.75
2791.31335	20215.35
2793.87041	20147.75
2796.42589	20103.65
2798.97979	20129.85
2801.53212	20057.35
2804.08288	20081.35
2806.63206	20013.45
2809.17967	19957.95
2811.72571	19929.85
2814.27018	19921.95
2816.81308	19844.65
2819.35442	19815.15
2821.89419	19784.05
2824.43239	19782.85
2826.96904	19767.15
2829.50412	19751.25
2832.03763	19666.45
2834.56959	19651.05
2837.1	19649.65
2839.62884	19606.35
2842.15613	19622.05
2844.68186	19654.85
2847.20604	19687.55
2849.72867	19667.85
2852.24974	19675.15
2854.76927	19664.65
2857.28724	19643.55
2859.80367	19622.55
2862.31855	19574.35
2864.83189	19552.95
2867.34368	19533.55
2869.85393	19497.25
2872.36264	19444.95
2874.8698	19436.65
2877.37543	19425.25
2879.87952	19400.55
2882.38207	19421.35
2884.88308	19385.25
2887.38256	19434.05
2889.88051	19428.85
2892.37692	19425.85
2894.8718	19429.65
2897.36515	19451.45
2899.85698	19473.75
2902.34727	19498.85
2904.83604	19529.85
2907.32328	19566.75
2909.809	19542.55
2912.29319	19554.25
2914.77587	19560.45
2917.25702	19579.05
2919.73665	19573.35
2922.21476	19555.25
2924.69136	19536.55
2927.16644	19546.35
2929.64	19494.55
2932.11205	19442.45
2934.58258	19404.95
2937.05161	19425.15
2939.51912	19437.35
2941.98513	19408.15
2944.44962	19362.65
2946.91261	19259.85
2949.37409	19282.75
2951.83407	19224.55
2954.29254	19243.05
2956.74951	19217.55
2959.20498	19219.15
2961.65895	19167.05
2964.11142	19161.95
2966.56239	19063.15
2969.01186	19084.45
2971.45984	19062.45
2973.90632	19022.85
2976.35131	18945.05
2978.7948	18912.75
2981.23681	18843.35
2983.67732	18800.95
2986.11635	18753.55
2988.55388	18700.55
2990.98993	18630.85
2993.4245	18540.25
2995.85758	18504.35
2998.28917	18462.35
3000.71928	18451.95
3003.14791	18388.35
3005.57506	18350.35
3008.00073	18293.65
3010.42493	18270.15
3012.84764	18207.95
3015.26888	18174.45
3017.68865	18111.35
3020.10694	18085.45
3022.52376	18017.95
3024.9391	17989.95
3027.35298	17993.75
3029.76539	17986.65
3032.17632	17948.35
3034.5858	17952.15
3036.9938	17922.95
3039.40034	17945.45
3041.80542	17902.05
3044.20903	17902.15
3046.61118	17884.15
3049.01187	17825.75
3051.4111	17815.05
3053.80888	17772.35
3056.20519	17713.45
3058.60005	17660.85
3060.99345	17615.95
3063.3854	17553.25
3065.7759	17445.45
3068.16494	17438.05
3070.55254	17316.05
3072.93868	17263.65
3075.32338	17212.75
3077.70662	17133.25
3080.08842	17090.05
3082.46878	17043.75
3084.84769	16993.85
3087.22515	16973.65
3089.60118	16978.05
3091.97576	16954.25
3094.3489	16917.15
3096.72061	16908.05
3099.09087	16928.95
3101.4597	16882.35
3103.82709	16870.65
3106.19305	16820.75
3108.55757	16803.55
3110.92066	16707.95
3113.28232	16734.65
3115.64255	16672.95
3118.00134	16658.45
3120.35871	16605.85
3122.71466	16580.65
3125.06917	16476.15
3127.42226	16436.55
3129.77393	16401.05
3132.12417	16358.45
3134.47299	16355.75
3136.82039	16338.85
3139.16636	16356.05
3141.51092	16287.85
3143.85406	16267.25
3146.19579	16255.25
3148.53609	16279.65
3150.87499	16262.45
3153.21246	16215.25
3155.54853	16241.55
3157.88318	16176.25
3160.21642	16251.85
3162.54826	16202.15
3164.87868	16188.75
3167.2077	16185.45
3169.5353	16188.75
3171.86151	16144.45
3174.18631	16194.65
3176.5097	16130.45
3178.83169	16108.85
3181.15228	16122.05
3183.47147	16053.85
3185.78926	16051.85
3188.10565	15967.45
3190.42065	15973.05
3192.73424	15948.35
3195.04645	15929.05
3197.35725	15872.65
3199.66667	15817.15
3201.97469	15820.85
3204.28132	15783.05
3206.58656	15777.55
3208.8904	15780.35
3211.19287	15791.65
3213.49394	15778.85
3215.79363	15763.25
3218.09193	15745.45
3220.38884	15737.85
3222.68438	15745.85
3224.97853	15721.25
3227.2713	15717.75
3229.56269	15707.15
3231.8527	15662.15
3234.14133	15647.45
3236.42858	15597.85
3238.71446	15614.55
3240.99896	15600.25
3243.28209	15549.95
3245.56384	15546.55
3247.84423	15478.75
3250.12324	15469.25
3252.40088	15391.45
3254.67715	15389.05
3256.95205	15385.95
3259.22558	15317.95
3261.49775	15279.65
3263.76855	15258.45
3266.03799	15208.25
3268.30606	15204.95
3270.57277	15145.35
3272.83812	15120.45
3275.10211	15079.25
3277.36474	15065.55
3279.62601	15055.85
3281.88593	15067.25
3284.14448	15089.15
3286.40168	15102.85
3288.65753	15080.15
3290.91202	15067.25
3293.16516	15032.05
3295.41695	14977.55
3297.66738	14886.55
3299.91647	14794.65
3302.16421	14715.35
3304.4106	14601.45
3306.65564	14457.05
3308.89933	14358.35
3311.14169	14231.15
3313.38269	14107.45
3315.62236	14012.65
3317.86068	13890.45
3320.09766	13757.15
3322.3333	13655.95
3324.5676	13607.25
3326.80056	13356.25
3329.03219	13255.15
3331.26248	3.35
3333.49143	-0.75
3335.71905	-0.95
