Data from AgNPs_FTO_APTES_UA_5uM_CRN_50uM_R6G_10uM_NaF_0.1M_Addition_RamanShift__10__13-54-16-815.txt Node

Date: Mon Feb 07 13:54:16 GMT 2022
User: TCL
Spectrometer: QEP01345
Trigger mode: 4
Integration Time (sec): 7.000000E0
Scans to average: 10
Electric dark correction enabled: true
Nonlinearity correction enabled: false
Boxcar width: 0
XAxis mode: Raman Shifts
Number of Pixels in Spectrum: 1044
>>>>>Begin Spectral Data<<<<<
46.04893	-0.25
50.45542	-1.85
54.85868	-1.65
59.25871	0.25
63.6555	75.35
68.04907	81.65
72.43941	81.85
76.82654	82.75
81.21044	86.45
85.59113	88.55
89.96862	92.75
94.34289	95.15
98.71396	100.85
103.08183	101.85
107.4465	109.25
111.80798	106.65
116.16626	116.35
120.52136	116.95
124.87327	126.75
129.222	135.85
133.56755	142.65
137.90993	158.55
142.24913	175.45
146.58517	205.05
150.91804	240.75
155.24774	293.75
159.57429	370.95
163.89768	476.65
168.21792	644.65
172.53501	878.75
176.84895	1223.85
181.15975	1725.05
185.46741	2426.15
189.77193	3357.55
194.07331	4491.75
198.37157	5789.95
202.6667	7154.15
206.9587	8503.55
211.24758	9831.85
215.53334	11119.95
219.81599	12521.35
224.09553	14025.75
228.37195	15639.65
232.64527	17412.25
236.91549	19309.75
241.18261	21224.95
245.44663	23061.45
249.70755	24680.85
253.96539	26149.95
258.22014	27368.75
262.4718	28413.55
266.72039	29116.45
270.96589	29517.25
275.20832	29648.75
279.44768	29556.55
283.68397	29439.15
287.91719	29264.45
292.14735	29200.85
296.37445	29190.85
300.59849	29279.55
304.81948	29402.75
309.03742	29331.85
313.25231	29086.95
317.46415	28503.55
321.67296	27834.95
325.87872	27260.65
330.08145	26894.15
334.28114	26849.25
338.47781	26930.95
342.67145	27135.25
346.86207	27399.85
351.04966	27785.85
355.23424	28083.95
359.4158	28406.15
363.59435	28692.65
367.76989	28847.45
371.94243	28883.35
376.11196	28903.05
380.27849	28951.85
384.44203	28914.95
388.60257	29121.15
392.76012	29490.85
396.91468	30033.25
401.06626	30622.75
405.21485	30932.85
409.36047	30851.15
413.50311	30531.55
417.64277	30409.85
421.77947	30550.15
425.9132	30768.75
430.04396	30979.65
434.17176	31176.25
438.2966	31351.75
442.41849	31767.05
446.53742	32452.65
450.6534	33213.75
454.76644	33755.75
458.87653	34045.55
462.98368	34094.55
467.08789	33860.45
471.18916	33577.55
475.2875	33346.95
479.38291	33304.55
483.4754	33310.85
487.56496	33018.15
491.6516	32374.55
495.73531	31606.65
499.81612	31060.45
503.89401	30925.55
507.96899	31058.45
512.04106	31111.45
516.11023	30845.35
520.1765	30406.65
524.23987	29869.45
528.30034	29444.95
532.35792	29120.75
536.41261	28812.25
540.46441	28593.15
544.51333	28671.35
548.55936	29116.35
552.60252	29749.85
556.64279	30541.55
560.6802	31244.15
564.71473	31932.05
568.7464	32895.25
572.7752	34509.35
576.80114	36355.35
580.82422	37973.55
584.84444	39282.75
588.86181	40842.55
592.87633	42200.95
596.888	41760.15
600.89682	39542.85
604.9028	37860.15
608.90594	37824.65
612.90624	38051.45
616.90371	35315.95
620.89834	31207.15
624.89015	29522.75
628.87913	29621.65
632.86528	30052.95
636.84862	30007.05
640.82913	29337.15
644.80683	28603.25
648.78172	28120.45
652.75379	28008.55
656.72306	28137.85
660.68952	28336.35
664.65319	28293.25
668.61405	27971.85
672.57211	27908.15
676.52738	27952.35
680.47986	27957.45
684.42955	27806.25
688.37646	27697.85
692.32058	27819.55
696.26192	28165.95
700.20048	28541.55
704.13626	28852.15
708.06928	29152.45
711.99952	29195.25
715.927	29143.75
719.85171	29042.25
723.77365	28676.15
727.69284	28175.45
731.60928	27730.65
735.52295	27472.95
739.43388	27391.35
743.34206	27434.25
747.24749	27676.35
751.15017	28070.75
755.05012	28713.95
758.94733	29627.65
762.8418	31023.35
766.73354	32835.95
770.62254	34270.95
774.50882	34014.85
778.39237	32309.85
782.27321	30360.75
786.15132	28923.45
790.02671	27994.35
793.89938	27407.85
797.76935	27161.45
801.6366	27000.05
805.50115	26943.55
809.36299	26863.35
813.22213	26748.75
817.07857	26718.05
820.93231	26663.25
824.78336	26518.05
828.63172	26264.85
832.47738	26032.55
836.32036	25982.65
840.16066	25980.15
843.99827	26043.15
847.8332	26020.95
851.66546	25992.35
855.49504	26064.05
859.32195	26073.45
863.1462	25974.05
866.96777	25921.05
870.78668	25804.95
874.60293	25788.75
878.41652	25780.95
882.22745	25789.95
886.03573	25825.65
889.84136	25853.75
893.64433	25790.35
897.44466	25715.85
901.24235	25694.25
905.0374	25633.85
908.8298	25647.15
912.61957	25841.65
916.40671	26285.35
920.19121	26877.75
923.97308	27238.55
927.75233	26998.95
931.52895	26410.35
935.30295	25836.05
939.07433	25274.45
942.84309	24851.45
946.60924	24591.45
950.37278	24491.95
954.13371	24459.35
957.89203	24491.85
961.64774	24581.75
965.40086	24585.65
969.15137	24470.95
972.89929	24271.15
976.64461	24109.35
980.38733	23959.45
984.12747	23930.95
987.86502	24000.05
991.59999	24102.95
995.33237	24214.65
999.06217	24474.45
1002.78939	24825.65
1006.51404	25210.35
1010.23611	25648.25
1013.95561	25976.65
1017.67255	26082.55
1021.38692	25808.05
1025.09872	25453.85
1028.80796	25124.15
1032.51465	24966.65
1036.21877	25040.75
1039.92035	25202.05
1043.61937	25345.85
1047.31584	25513.05
1051.00976	25645.05
1054.70114	25818.05
1058.38998	26151.35
1062.07627	26587.85
1065.76003	27110.45
1069.44126	27579.55
1073.11995	28019.95
1076.79611	28310.45
1080.46974	28446.85
1084.14085	28510.05
1087.80943	28799.55
1091.47549	29163.85
1095.13903	29405.05
1098.80005	29119.15
1102.45857	28296.75
1106.11456	27429.75
1109.76805	26916.65
1113.41903	26785.85
1117.06751	26921.95
1120.71348	27140.05
1124.35696	27405.75
1127.99793	27712.45
1131.63641	28056.35
1135.2724	28140.35
1138.90589	28234.85
1142.5369	28544.25
1146.16542	28982.65
1149.79145	29519.15
1153.415	30087.25
1157.03607	30785.85
1160.65467	31942.45
1164.27079	33591.95
1167.88443	35510.75
1171.49561	37300.15
1175.10432	39208.75
1178.71056	41516.05
1182.31434	43672.45
1185.91565	44847.35
1189.51451	44870.35
1193.11091	44288.15
1196.70485	43259.05
1200.29634	41908.65
1203.88538	41243.85
1207.47197	41433.35
1211.05612	41739.55
1214.63782	41298.65
1218.21708	39820.25
1221.79391	37815.75
1225.36829	36192.95
1228.94024	35092.45
1232.50976	34476.85
1236.07685	34125.55
1239.6415	33926.15
1243.20374	33971.45
1246.76355	34323.55
1250.32093	34862.45
1253.8759	35566.55
1257.42845	36568.15
1260.97859	37598.75
1264.52631	38677.45
1268.07163	39900.95
1271.61453	41080.75
1275.15503	42439.65
1278.69312	44088.65
1282.22882	45979.55
1285.76211	48134.75
1289.29301	50612.15
1292.82151	53560.15
1296.34761	57065.95
1299.87133	60781.55
1303.39266	63958.25
1306.9116	65989.05
1310.42815	67023.95
1313.94233	67005.95
1317.45412	66466.45
1320.96354	66168.15
1324.47058	66243.75
1327.97525	66678.95
1331.47754	67002.85
1334.97747	67008.15
1338.47502	66520.05
1341.97022	65667.15
1345.46305	64711.05
1348.95352	63302.25
1352.44163	61905.25
1355.92738	61157.45
1359.41078	61467.95
1362.89183	61795.95
1366.37053	60814.15
1369.84688	57467.65
1373.32088	52611.45
1376.79254	49079.95
1380.26186	48173.15
1383.72883	48896.25
1387.19347	49691.45
1390.65578	49722.95
1394.11575	49598.25
1397.57339	50162.25
1401.0287	51004.45
1404.48168	51541.15
1407.93234	50974.55
1411.38068	49234.05
1414.82669	46712.85
1418.27039	43971.35
1421.71177	41425.85
1425.15083	39574.55
1428.58758	38665.75
1432.02203	38950.85
1435.45416	40169.55
1438.88399	41653.75
1442.31151	42997.95
1445.73673	43910.75
1449.15965	44781.35
1452.58027	45384.65
1455.9986	45741.15
1459.41463	46115.75
1462.82837	46637.95
1466.23982	47341.15
1469.64898	47940.75
1473.05586	48304.75
1476.46045	48181.45
1479.86276	47704.95
1483.26279	47139.85
1486.66054	46895.95
1490.05602	46952.55
1493.44922	47328.85
1496.84016	47779.75
1500.22882	48449.15
1503.61521	49086.05
1506.99934	49791.95
1510.38121	50361.75
1513.76081	50601.05
1517.13816	50718.95
1520.51324	50922.15
1523.88607	51548.85
1527.25665	52314.05
1530.62498	52737.05
1533.99105	52422.95
1537.35488	51346.95
1540.71647	49554.85
1544.07581	47536.75
1547.4329	45437.05
1550.78776	43858.15
1554.14038	42727.85
1557.49077	42090.95
1560.83892	41699.15
1564.18484	41436.65
1567.52853	41502.05
1570.86999	41978.25
1574.20922	43167.05
1577.54624	44459.65
1580.88103	45492.75
1584.2136	46540.85
1587.54395	48315.55
1590.87208	50671.15
1594.19801	53228.45
1597.52172	55154.85
1600.84321	54783.65
1604.16251	51585.65
1607.47959	47076.25
1610.79447	42722.75
1614.10715	38930.85
1617.41763	35903.85
1620.7259	33826.15
1624.03199	32718.15
1627.33587	32763.25
1630.63757	33918.15
1633.93707	36518.45
1637.23439	40905.95
1640.52951	47268.95
1643.82246	54723.35
1647.11321	60883.45
1650.40179	62387.05
1653.68819	58093.55
1656.97241	50193.85
1660.25446	41958.25
1663.53433	35570.75
1666.81203	31045.25
1670.08756	28127.95
1673.36092	26309.95
1676.63211	25162.55
1679.90115	24378.25
1683.16801	23820.25
1686.43272	23413.55
1689.69527	23100.55
1692.95567	22800.95
1696.2139	22598.15
1699.46999	22500.65
1702.72392	22314.35
1705.97571	22192.35
1709.22535	22111.55
1712.47284	22022.25
1715.71819	21982.25
1718.96139	21846.75
1722.20246	21710.85
1725.44139	21589.25
1728.67818	21483.95
1731.91284	21291.65
1735.14537	21123.85
1738.37576	21003.95
1741.60403	20892.15
1744.83017	20827.35
1748.05418	20749.35
1751.27607	20702.85
1754.49584	20671.25
1757.71349	20651.55
1760.92903	20634.65
1764.14244	20615.95
1767.35375	20544.15
1770.56294	20510.75
1773.77002	20415.05
1776.97499	20356.85
1780.17785	20310.25
1783.37861	20238.95
1786.57727	20205.65
1789.77382	20154.65
1792.96828	20068.15
1796.16064	20062.05
1799.3509	20008.85
1802.53907	19890.85
1805.72514	19834.15
1808.90913	19773.95
1812.09102	19708.85
1815.27083	19646.05
1818.44856	19620.95
1821.6242	19608.15
1824.79776	19553.15
1827.96924	19545.85
1831.13864	19500.75
1834.30597	19484.85
1837.47122	19460.55
1840.6344	19424.05
1843.7955	19450.95
1846.95454	19417.25
1850.11151	19421.55
1853.26642	19407.85
1856.41926	19374.15
1859.57004	19362.85
1862.71876	19357.45
1865.86542	19291.45
1869.01003	19208.25
1872.15258	19165.55
1875.29308	19187.25
1878.43152	19106.25
1881.56792	19099.05
1884.70227	19022.65
1887.83457	19028.45
1890.96482	19014.75
1894.09304	18944.75
1897.21921	18882.25
1900.34335	18923.95
1903.46544	18863.95
1906.58551	18827.55
1909.70353	18823.05
1912.81953	18739.25
1915.93349	18716.35
1919.04543	18648.95
1922.15534	18626.55
1925.26322	18561.85
1928.36908	18492.25
1931.47292	18454.75
1934.57473	18407.05
1937.67453	18345.45
1940.77232	18293.45
1943.86808	18273.05
1946.96184	18175.55
1950.05358	18140.25
1953.14331	18083.25
1956.23103	18044.45
1959.31675	17969.75
1962.40046	17892.45
1965.48217	17803.15
1968.56188	17750.35
1971.63959	17695.65
1974.7153	17608.05
1977.78901	17570.75
1980.86073	17479.95
1983.93046	17414.65
1986.99819	17393.15
1990.06394	17332.55
1993.1277	17262.65
1996.18947	17228.75
1999.24925	17186.65
2002.30706	17117.85
2005.36288	17045.75
2008.41672	17002.95
2011.46859	16929.75
2014.51848	16894.15
2017.56639	16812.45
2020.61233	16759.55
2023.6563	16737.85
2026.6983	16650.75
2029.73833	16597.05
2032.7764	16540.25
2035.8125	16531.65
2038.84664	16510.95
2041.87881	16465.45
2044.90903	16435.85
2047.93729	16390.35
2050.96359	16394.45
2053.98794	16309.55
2057.01034	16312.65
2060.03078	16321.55
2063.04927	16269.15
2066.06582	16266.05
2069.08042	16284.55
2072.09307	16249.15
2075.10378	16211.65
2078.11255	16190.25
2081.11938	16193.05
2084.12426	16167.95
2087.12722	16176.65
2090.12824	16126.15
2093.12732	16079.85
2096.12447	16130.35
2099.11969	16105.55
2102.11299	16093.45
2105.10435	16123.95
2108.09379	16104.25
2111.08131	16066.75
2114.0669	16113.85
2117.05057	16127.85
2120.03233	16110.95
2123.01216	16123.55
2125.99008	16093.15
2128.96609	16110.25
2131.94018	16083.15
2134.91236	16109.95
2137.88263	16090.55
2140.851	16090.95
2143.81746	16091.05
2146.78201	16066.85
2149.74466	16064.65
2152.7054	16023.25
2155.66425	16010.85
2158.6212	16028.45
2161.57625	15993.35
2164.52941	15964.65
2167.48067	15974.85
2170.43004	15964.25
2173.37752	15932.85
2176.32311	15901.05
2179.26681	15921.35
2182.20863	15941.75
2185.14856	15915.55
2188.08661	15917.05
2191.02278	15894.45
2193.95707	15885.45
2196.88948	15831.15
2199.82001	15841.45
2202.74867	15784.05
2205.67545	15755.15
2208.60037	15717.35
2211.52341	15691.25
2214.44458	15674.05
2217.36388	15649.05
2220.28132	15611.15
2223.1969	15545.65
2226.11061	15533.65
2229.02246	15512.55
2231.93245	15498.55
2234.84058	15484.25
2237.74686	15418.95
2240.65128	15419.95
2243.55385	15431.55
2246.45456	15345.05
2249.35343	15287.25
2252.25044	15264.65
2255.14561	15235.45
2258.03893	15189.45
2260.93041	15141.65
2263.82004	15094.95
2266.70783	15027.05
2269.59378	14952.85
2272.4779	14931.85
2275.36017	14884.65
2278.24061	14854.95
2281.11922	14791.35
2283.996	14791.05
2286.87094	14748.25
2289.74405	14724.05
2292.61534	14698.95
2295.4848	14682.55
2298.35243	14666.25
2301.21824	14665.65
2304.08223	14635.95
2306.94439	14639.45
2309.80474	14648.45
2312.66327	14616.35
2315.51999	14576.65
2318.37489	14568.05
2321.22797	14529.35
2324.07925	14484.35
2326.92871	14475.05
2329.77637	14433.05
2332.62222	14393.45
2335.46626	14407.85
2338.3085	14376.85
2341.14893	14370.45
2343.98756	14352.65
2346.8244	14347.65
2349.65943	14319.75
2352.49267	14327.05
2355.32411	14376.45
2358.15376	14335.85
2360.98161	14359.25
2363.80768	14336.55
2366.63195	14322.75
2369.45444	14301.15
2372.27514	14247.35
2375.09405	14229.95
2377.91118	14235.85
2380.72652	14174.45
2383.54009	14155.75
2386.35187	14147.35
2389.16188	14087.55
2391.97011	14078.55
2394.77657	14009.65
2397.58125	13983.45
2400.38416	13955.05
2403.18529	13964.05
2405.98466	13941.15
2408.78226	13921.45
2411.57809	13898.65
2414.37216	13870.55
2417.16446	13883.55
2419.955	13860.05
2422.74378	13867.35
2425.5308	13813.55
2428.31606	13798.35
2431.09956	13797.75
2433.88131	13793.75
2436.6613	13777.75
2439.43954	13765.05
2442.21603	13770.55
2444.99077	13743.55
2447.76377	13748.45
2450.53501	13707.75
2453.30451	13693.25
2456.07226	13676.25
2458.83827	13662.55
2461.60254	13684.05
2464.36507	13670.65
2467.12586	13632.45
2469.88492	13658.45
2472.64224	13674.45
2475.39782	13672.65
2478.15167	13692.15
2480.90379	13612.85
2483.65417	13641.45
2486.40283	13601.35
2489.14976	13621.15
2491.89497	13614.15
2494.63845	13633.75
2497.3802	13620.15
2500.12024	13633.25
2502.85855	13592.05
2505.59514	13577.35
2508.33002	13567.15
2511.06318	13546.65
2513.79462	13519.35
2516.52435	13540.15
2519.25237	13571.25
2521.97867	13537.55
2524.70327	13511.75
2527.42616	13474.45
2530.14734	13508.55
2532.86681	13493.35
2535.58458	13497.65
2538.30065	13460.85
2541.01501	13451.05
2543.72768	13441.45
2546.43864	13419.95
2549.14791	13423.95
2551.85548	13381.35
2554.56136	13381.85
2557.26554	13343.45
2559.96803	13325.35
2562.66883	13326.95
2565.36794	13289.05
2568.06536	13255.55
2570.7611	13260.95
2573.45514	13241.75
2576.14751	13242.15
2578.83819	13227.55
2581.52719	13205.15
2584.21451	13195.05
2586.90015	13187.65
2589.58411	13179.75
2592.2664	13182.55
2594.94701	13148.25
2597.62594	13145.45
2600.30321	13135.35
2602.9788	13141.25
2605.65273	13124.55
2608.32498	13125.15
2610.99557	13136.95
2613.66449	13145.75
2616.33175	13130.55
2618.99734	13128.55
2621.66128	13092.45
2624.32355	13066.95
2626.98416	13073.65
2629.64311	13062.65
2632.30041	13066.45
2634.95605	13065.25
2637.61004	13045.45
2640.26238	13021.95
2642.91306	13012.25
2645.56209	13007.05
2648.20948	13039.75
2650.85521	13036.25
2653.4993	13052.45
2656.14175	13015.25
2658.78255	13051.25
2661.42171	13069.15
2664.05923	13083.35
2666.6951	13058.85
2669.32934	13092.35
2671.96194	13084.25
2674.59291	13088.85
2677.22224	13072.95
2679.84993	13103.15
2682.476	13087.65
2685.10043	13083.25
2687.72324	13033.75
2690.34441	13040.55
2692.96396	13032.05
2695.58188	13059.15
2698.19818	13014.65
2700.81285	13073.65
2703.4259	13061.85
2706.03733	13098.55
2708.64714	13062.35
2711.25533	13070.85
2713.86191	13066.75
2716.46687	13098.45
2719.07021	13105.35
2721.67194	13129.35
2724.27206	13094.55
2726.87057	13122.35
2729.46747	13130.75
2732.06276	13140.35
2734.65644	13141.95
2737.24852	13126.95
2739.83899	13133.35
2742.42786	13122.65
2745.01513	13072.05
2747.60079	13078.35
2750.18486	13092.45
2752.76733	13057.05
2755.3482	13036.75
2757.92747	13055.25
2760.50515	13028.05
2763.08123	13011.35
2765.65573	13003.35
2768.22863	13032.05
2770.79994	12994.65
2773.36967	13063.65
2775.9378	13009.95
2778.50435	12977.75
2781.06932	12985.95
2783.6327	13016.15
2786.1945	13019.85
2788.75471	13036.35
2791.31335	12948.35
2793.87041	12965.95
2796.42589	12938.35
2798.97979	12944.85
2801.53212	12908.85
2804.08288	12898.85
2806.63206	12838.85
2809.17967	12820.35
2811.72571	12782.15
2814.27018	12787.75
2816.81308	12751.55
2819.35442	12713.65
2821.89419	12683.45
2824.43239	12698.45
2826.96904	12671.95
2829.50412	12667.55
2832.03763	12638.85
2834.56959	12643.05
2837.1	12609.45
2839.62884	12635.75
2842.15613	12620.05
2844.68186	12645.75
2847.20604	12651.05
2849.72867	12663.85
2852.24974	12671.25
2854.76927	12663.65
2857.28724	12656.25
2859.80367	12649.55
2862.31855	12624.35
2864.83189	12569.75
2867.34368	12539.35
2869.85393	12529.45
2872.36264	12478.75
2874.8698	12481.25
2877.37543	12448.85
2879.87952	12447.55
2882.38207	12464.55
2884.88308	12442.05
2887.38256	12424.15
2889.88051	12431.55
2892.37692	12471.85
2894.8718	12449.45
2897.36515	12437.65
2899.85698	12441.85
2902.34727	12474.75
2904.83604	12460.65
2907.32328	12484.05
2909.809	12462.05
2912.29319	12461.95
2914.77587	12489.05
2917.25702	12469.05
2919.73665	12467.55
2922.21476	12448.85
2924.69136	12460.65
2927.16644	12466.65
2929.64	12444.55
2932.11205	12431.95
2934.58258	12388.45
2937.05161	12383.45
2939.51912	12394.55
2941.98513	12383.45
2944.44962	12368.95
2946.91261	12291.95
2949.37409	12293.75
2951.83407	12289.75
2954.29254	12264.05
2956.74951	12237.35
2959.20498	12209.35
2961.65895	12226.85
2964.11142	12190.25
2966.56239	12173.05
2969.01186	12149.55
2971.45984	12142.35
2973.90632	12125.05
2976.35131	12110.55
2978.7948	12083.65
2981.23681	12039.35
2983.67732	12003.75
2986.11635	11951.75
2988.55388	11912.65
2990.98993	11908.95
2993.4245	11876.25
2995.85758	11805.25
2998.28917	11748.65
3000.71928	11739.65
3003.14791	11691.25
3005.57506	11680.75
3008.00073	11641.25
3010.42493	11523.15
3012.84764	11594.75
3015.26888	11576.85
3017.68865	11515.65
3020.10694	11493.55
3022.52376	11474.65
3024.9391	11484.75
3027.35298	11437.05
3029.76539	11446.15
3032.17632	11406.85
3034.5858	11381.65
3036.9938	11374.35
3039.40034	11397.45
3041.80542	11391.35
3044.20903	11346.85
3046.61118	11340.15
3049.01187	11306.15
3051.4111	11301.95
3053.80888	11276.15
3056.20519	11228.75
3058.60005	11213.05
3060.99345	11158.55
3063.3854	11147.05
3065.7759	11093.45
3068.16494	11055.05
3070.55254	10978.05
3072.93868	10939.95
3075.32338	10948.85
3077.70662	10902.25
3080.08842	10838.85
3082.46878	10832.75
3084.84769	10813.45
3087.22515	10795.25
3089.60118	10755.55
3091.97576	10772.75
3094.3489	10764.05
3096.72061	10732.75
3099.09087	10742.75
3101.4597	10741.35
3103.82709	10731.05
3106.19305	10719.15
3108.55757	10693.15
3110.92066	10647.15
3113.28232	10650.85
3115.64255	10605.95
3118.00134	10582.85
3120.35871	10580.55
3122.71466	10529.15
3125.06917	10518.25
3127.42226	10484.55
3129.77393	10458.05
3132.12417	10404.55
3134.47299	10427.15
3136.82039	10418.15
3139.16636	10390.85
3141.51092	10363.95
3143.85406	10356.45
3146.19579	10366.45
3148.53609	10346.85
3150.87499	10334.25
3153.21246	10354.15
3155.54853	10341.05
3157.88318	10325.45
3160.21642	10344.95
3162.54826	10349.95
3164.87868	10341.55
3167.2077	10343.35
3169.5353	10351.75
3171.86151	10313.95
3174.18631	10312.45
3176.5097	10298.85
3178.83169	10253.45
3181.15228	10268.45
3183.47147	10249.75
3185.78926	10209.75
3188.10565	10209.85
3190.42065	10184.55
3192.73424	10179.95
3195.04645	10132.95
3197.35725	10109.65
3199.66667	10060.35
3201.97469	10097.45
3204.28132	10087.05
3206.58656	10080.75
3208.8904	10056.95
3211.19287	10067.55
3213.49394	10077.95
3215.79363	10085.55
3218.09193	10040.15
3220.38884	10052.85
3222.68438	10062.15
3224.97853	10005.15
3227.2713	10020.35
3229.56269	9987.45
3231.8527	9992.55
3234.14133	9969.85
3236.42858	9952.05
3238.71446	9940.55
3240.99896	9932.15
3243.28209	9894.75
3245.56384	9879.85
3247.84423	9883.15
3250.12324	9851.65
3252.40088	9829.85
3254.67715	9814.95
3256.95205	9795.45
3259.22558	9800.55
3261.49775	9754.25
3263.76855	9751.45
3266.03799	9705.45
3268.30606	9694.25
3270.57277	9656.15
3272.83812	9631.85
3275.10211	9605.35
3277.36474	9599.65
3279.62601	9585.55
3281.88593	9572.25
3284.14448	9609.75
3286.40168	9599.55
3288.65753	9587.15
3290.91202	9565.55
3293.16516	9560.55
3295.41695	9521.35
3297.66738	9437.05
3299.91647	9405.25
3302.16421	9351.35
3304.4106	9306.35
3306.65564	9194.15
3308.89933	9127.75
3311.14169	9056.75
3313.38269	8987.25
3315.62236	8923.25
3317.86068	8849.95
3320.09766	8753.45
3322.3333	8698.05
3324.5676	8656.35
3326.80056	8505.25
3329.03219	8431.65
3331.26248	2.75
3333.49143	-1.65
3335.71905	0.55
