Data from AgNPs_FTO_APTES_UA_5uM_CRN_20uM_R6G_10uM_NaF_0.1M_Addition_RamanShift__4__13-07-36-761.txt Node

Date: Mon Feb 07 13:07:36 GMT 2022
User: TCL
Spectrometer: QEP01345
Trigger mode: 4
Integration Time (sec): 7.000000E0
Scans to average: 10
Electric dark correction enabled: true
Nonlinearity correction enabled: false
Boxcar width: 0
XAxis mode: Raman Shifts
Number of Pixels in Spectrum: 1044
>>>>>Begin Spectral Data<<<<<
46.04893	-1.45
50.45542	-1.25
54.85868	-0.95
59.25871	0.05
63.6555	85.15
68.04907	88.55
72.43941	97.75
76.82654	100.75
81.21044	104.35
85.59113	107.65
89.96862	113.35
94.34289	114.35
98.71396	115.85
103.08183	116.85
107.4465	122.45
111.80798	126.55
116.16626	131.05
120.52136	138.85
124.87327	144.75
129.222	153.15
133.56755	165.95
137.90993	183.05
142.24913	201.65
146.58517	230.65
150.91804	268.65
155.24774	328.65
159.57429	417.45
163.89768	544.05
168.21792	727.35
172.53501	995.75
176.84895	1383.85
181.15975	1958.45
185.46741	2754.55
189.77193	3779.15
194.07331	5039.25
198.37157	6478.75
202.6667	7993.95
206.9587	9477.55
211.24758	10957.05
215.53334	12445.55
219.81599	14008.35
224.09553	15787.45
228.37195	17744.25
232.64527	19830.35
236.91549	21970.15
241.18261	24085.25
245.44663	26066.05
249.70755	27787.95
253.96539	29347.95
258.22014	30638.35
262.4718	31707.65
266.72039	32469.85
270.96589	32968.25
275.20832	33030.35
279.44768	32849.45
283.68397	32662.35
287.91719	32465.75
292.14735	32428.05
296.37445	32493.45
300.59849	32693.45
304.81948	32857.15
309.03742	32828.35
313.25231	32559.85
317.46415	31908.75
321.67296	31137.45
325.87872	30376.85
330.08145	29995.75
334.28114	29843.45
338.47781	29965.75
342.67145	30275.15
346.86207	30736.15
351.04966	31296.75
355.23424	31921.95
359.4158	32420.65
363.59435	32858.45
367.76989	33149.95
371.94243	33332.35
376.11196	33407.75
380.27849	33521.25
384.44203	33696.05
388.60257	34014.15
392.76012	34433.25
396.91468	34969.95
401.06626	35523.45
405.21485	35879.85
409.36047	35720.95
413.50311	35364.05
417.64277	35287.45
421.77947	35457.85
425.9132	35637.65
430.04396	35886.55
434.17176	36010.15
438.2966	36211.95
442.41849	36937.85
446.53742	38173.75
450.6534	39604.95
454.76644	40580.65
458.87653	40834.45
462.98368	40371.55
467.08789	39694.85
471.18916	38860.85
475.2875	38262.45
479.38291	38022.25
483.4754	37936.15
487.56496	37491.75
491.6516	36787.65
495.73531	35881.35
499.81612	35339.55
503.89401	35363.45
507.96899	35508.75
512.04106	35395.75
516.11023	34951.15
520.1765	34373.15
524.23987	33880.65
528.30034	33473.65
532.35792	33199.65
536.41261	32717.75
540.46441	32311.65
544.51333	32238.25
548.55936	32663.75
552.60252	33625.35
556.64279	34779.05
560.6802	35726.95
564.71473	36325.05
568.7464	37252.55
572.7752	38768.65
576.80114	40251.15
580.82422	41765.35
584.84444	43631.55
588.86181	46032.85
592.87633	47679.15
596.888	46941.05
600.89682	44078.65
604.9028	42801.05
608.90594	44793.15
612.90624	47193.25
616.90371	43832.85
620.89834	36835.95
624.89015	33735.95
628.87913	33409.35
632.86528	33465.75
636.84862	33174.55
640.82913	32368.25
644.80683	31485.85
648.78172	30985.05
652.75379	30976.75
656.72306	31363.45
660.68952	31759.65
664.65319	31413.65
668.61405	30829.55
672.57211	30742.55
676.52738	30865.65
680.47986	30814.45
684.42955	30578.85
688.37646	30396.75
692.32058	30708.95
696.26192	31297.85
700.20048	31922.05
704.13626	32229.45
708.06928	32231.65
711.99952	32121.15
715.927	32134.65
719.85171	32374.05
723.77365	32218.45
727.69284	31623.15
731.60928	31057.25
735.52295	30848.95
739.43388	30859.25
743.34206	30980.45
747.24749	31268.45
751.15017	31691.05
755.05012	32469.45
758.94733	33553.85
762.8418	35358.45
766.73354	37905.35
770.62254	39943.65
774.50882	39908.75
778.39237	37753.35
782.27321	35032.75
786.15132	32877.55
790.02671	31658.45
793.89938	31018.35
797.76935	30778.45
801.6366	30775.85
805.50115	30682.15
809.36299	30545.95
813.22213	30272.25
817.07857	30092.75
820.93231	29919.45
824.78336	29687.05
828.63172	29438.55
832.47738	29379.15
836.32036	29382.15
840.16066	29640.45
843.99827	29775.95
847.8332	29666.75
851.66546	29487.95
855.49504	29429.45
859.32195	29369.25
863.1462	29279.25
866.96777	29117.45
870.78668	28998.05
874.60293	28934.75
878.41652	28935.45
882.22745	29095.75
886.03573	29130.75
889.84136	29122.15
893.64433	29028.35
897.44466	28856.45
901.24235	28773.45
905.0374	28655.35
908.8298	28626.75
912.61957	28775.75
916.40671	29207.15
920.19121	29860.45
923.97308	30361.15
927.75233	30415.75
931.52895	29977.15
935.30295	29334.95
939.07433	28688.75
942.84309	28197.75
946.60924	28019.35
950.37278	27967.05
954.13371	27919.45
957.89203	27845.15
961.64774	27858.25
965.40086	27858.85
969.15137	27798.35
972.89929	27618.65
976.64461	27495.85
980.38733	27467.05
984.12747	27561.25
987.86502	27789.95
991.59999	28116.35
995.33237	28670.25
999.06217	29586.85
1002.78939	30713.15
1006.51404	31476.45
1010.23611	32013.35
1013.95561	32370.65
1017.67255	32432.05
1021.38692	31852.05
1025.09872	31315.25
1028.80796	31298.55
1032.51465	32172.55
1036.21877	33157.15
1039.92035	33516.05
1043.61937	33153.55
1047.31584	32359.75
1051.00976	31435.35
1054.70114	31022.15
1058.38998	30960.75
1062.07627	31101.65
1065.76003	31418.55
1069.44126	31789.05
1073.11995	32281.15
1076.79611	32732.05
1080.46974	33005.85
1084.14085	33309.75
1087.80943	33718.25
1091.47549	34170.65
1095.13903	34278.05
1098.80005	33758.35
1102.45857	32864.75
1106.11456	32073.55
1109.76805	31733.45
1113.41903	31754.55
1117.06751	31928.75
1120.71348	32253.35
1124.35696	32550.15
1127.99793	32953.35
1131.63641	33274.35
1135.2724	33308.25
1138.90589	33357.55
1142.5369	33611.45
1146.16542	34057.45
1149.79145	34531.35
1153.415	35216.25
1157.03607	36120.25
1160.65467	37781.25
1164.27079	40341.05
1167.88443	43223.25
1171.49561	46032.05
1175.10432	49315.15
1178.71056	53574.85
1182.31434	57675.45
1185.91565	59396.65
1189.51451	58588.95
1193.11091	56534.45
1196.70485	54290.95
1200.29634	52230.15
1203.88538	51168.65
1207.47197	50897.75
1211.05612	50543.75
1214.63782	49556.95
1218.21708	47832.35
1221.79391	46140.65
1225.36829	44912.95
1228.94024	43918.15
1232.50976	42703.45
1236.07685	41704.15
1239.6415	41219.55
1243.20374	41227.45
1246.76355	41746.95
1250.32093	42583.25
1253.8759	43797.35
1257.42845	45234.45
1260.97859	46745.45
1264.52631	48340.55
1268.07163	50051.85
1271.61453	51877.55
1275.15503	53938.25
1278.69312	56213.85
1282.22882	58510.95
1285.76211	61224.65
1289.29301	64335.25
1292.82151	68383.55
1296.34761	73321.45
1299.87133	79206.75
1303.39266	84997.55
1306.9116	89948.55
1310.42815	93037.85
1313.94233	94034.65
1317.45412	92908.85
1320.96354	90813.65
1324.47058	89124.45
1327.97525	87964.35
1331.47754	87204.65
1334.97747	86330.25
1338.47502	84871.05
1341.97022	82468.65
1345.46305	79723.15
1348.95352	77564.65
1352.44163	77144.55
1355.92738	79079.75
1359.41078	82835.45
1362.89183	85385.45
1366.37053	84156.45
1369.84688	77427.35
1373.32088	68448.05
1376.79254	62197.25
1380.26186	60428.65
1383.72883	61374.95
1387.19347	62140.15
1390.65578	61808.95
1394.11575	61900.85
1397.57339	63164.05
1401.0287	65041.15
1404.48168	66490.65
1407.93234	66518.35
1411.38068	64673.45
1414.82669	61687.35
1418.27039	58157.95
1421.71177	54621.75
1425.15083	51716.75
1428.58758	50362.85
1432.02203	51017.15
1435.45416	53110.25
1438.88399	55523.75
1442.31151	57464.85
1445.73673	58606.05
1449.15965	59321.35
1452.58027	59502.65
1455.9986	59130.25
1459.41463	59014.85
1462.82837	59636.35
1466.23982	60889.55
1469.64898	62217.55
1473.05586	62984.15
1476.46045	63066.85
1479.86276	62391.45
1483.26279	61373.95
1486.66054	60640.85
1490.05602	60469.65
1493.44922	60692.85
1496.84016	60723.55
1500.22882	60971.65
1503.61521	61538.25
1506.99934	62507.95
1510.38121	63559.15
1513.76081	63848.35
1517.13816	63137.35
1520.51324	62124.25
1523.88607	61642.45
1527.25665	62158.35
1530.62498	62856.65
1533.99105	63019.35
1537.35488	62377.75
1540.71647	60843.75
1544.07581	58667.75
1547.4329	56333.05
1550.78776	54401.15
1554.14038	52991.25
1557.49077	52031.15
1560.83892	51414.65
1564.18484	51052.55
1567.52853	51031.55
1570.86999	51693.05
1574.20922	53019.95
1577.54624	54621.05
1580.88103	55940.75
1584.2136	57713.65
1587.54395	60984.25
1590.87208	65711.75
1594.19801	70950.25
1597.52172	74916.35
1600.84321	75230.55
1604.16251	70309.85
1607.47959	62445.25
1610.79447	54739.95
1614.10715	48329.35
1617.41763	43813.15
1620.7259	41022.05
1624.03199	39872.95
1627.33587	40273.95
1630.63757	42302.65
1633.93707	46177.85
1637.23439	52400.45
1640.52951	61366.65
1643.82246	71713.55
1647.11321	79453.55
1650.40179	79750.75
1653.68819	71754.05
1656.97241	59635.65
1660.25446	48641.95
1663.53433	40767.95
1666.81203	35909.15
1670.08756	32877.45
1673.36092	30965.25
1676.63211	29772.45
1679.90115	28923.75
1683.16801	28342.25
1686.43272	27864.25
1689.69527	27513.45
1692.95567	27237.25
1696.2139	27104.55
1699.46999	26914.95
1702.72392	26754.95
1705.97571	26647.75
1709.22535	26569.95
1712.47284	26513.15
1715.71819	26481.15
1718.96139	26332.15
1722.20246	26204.65
1725.44139	26088.85
1728.67818	25905.55
1731.91284	25650.65
1735.14537	25533.35
1738.37576	25374.15
1741.60403	25258.05
1744.83017	25161.65
1748.05418	25092.55
1751.27607	25012.35
1754.49584	24958.55
1757.71349	24967.65
1760.92903	24952.35
1764.14244	24932.65
1767.35375	24898.05
1770.56294	24837.55
1773.77002	24757.45
1776.97499	24705.95
1780.17785	24636.85
1783.37861	24589.65
1786.57727	24535.65
1789.77382	24488.95
1792.96828	24498.95
1796.16064	24408.15
1799.3509	24334.35
1802.53907	24262.25
1805.72514	24217.45
1808.90913	24163.35
1812.09102	24086.75
1815.27083	24037.85
1818.44856	24015.95
1821.6242	23970.65
1824.79776	23963.65
1827.96924	23925.05
1831.13864	23960.95
1834.30597	23970.55
1837.47122	23961.95
1840.6344	23987.35
1843.7955	23949.55
1846.95454	23966.55
1850.11151	23930.25
1853.26642	23939.45
1856.41926	23908.95
1859.57004	23883.45
1862.71876	23859.85
1865.86542	23849.45
1869.01003	23832.75
1872.15258	23775.05
1875.29308	23759.75
1878.43152	23739.45
1881.56792	23721.35
1884.70227	23702.15
1887.83457	23738.25
1890.96482	23686.35
1894.09304	23628.55
1897.21921	23595.95
1900.34335	23623.25
1903.46544	23605.25
1906.58551	23577.15
1909.70353	23475.95
1912.81953	23443.55
1915.93349	23414.05
1919.04543	23356.15
1922.15534	23302.85
1925.26322	23192.95
1928.36908	23176.35
1931.47292	23095.55
1934.57473	23080.15
1937.67453	22971.65
1940.77232	22922.15
1943.86808	22865.55
1946.96184	22802.75
1950.05358	22740.65
1953.14331	22687.75
1956.23103	22599.65
1959.31675	22502.65
1962.40046	22450.75
1965.48217	22404.25
1968.56188	22364.15
1971.63959	22285.65
1974.7153	22231.35
1977.78901	22157.35
1980.86073	22061.85
1983.93046	21970.45
1986.99819	21926.05
1990.06394	21880.75
1993.1277	21826.55
1996.18947	21800.05
1999.24925	21773.05
2002.30706	21643.75
2005.36288	21579.05
2008.41672	21579.35
2011.46859	21474.25
2014.51848	21411.15
2017.56639	21356.55
2020.61233	21315.45
2023.6563	21304.25
2026.6983	21241.25
2029.73833	21200.65
2032.7764	21177.45
2035.8125	21152.65
2038.84664	21062.65
2041.87881	21072.55
2044.90903	21063.05
2047.93729	21000.75
2050.96359	21031.95
2053.98794	20990.95
2057.01034	20930.35
2060.03078	20965.45
2063.04927	20916.75
2066.06582	20926.75
2069.08042	20911.85
2072.09307	20877.05
2075.10378	20851.85
2078.11255	20825.65
2081.11938	20850.55
2084.12426	20826.25
2087.12722	20815.45
2090.12824	20802.15
2093.12732	20791.25
2096.12447	20782.55
2099.11969	20818.65
2102.11299	20783.95
2105.10435	20809.55
2108.09379	20810.35
2111.08131	20822.45
2114.0669	20825.75
2117.05057	20850.45
2120.03233	20886.85
2123.01216	20875.85
2125.99008	20893.15
2128.96609	20901.15
2131.94018	20923.35
2134.91236	20888.55
2137.88263	20932.55
2140.851	20977.35
2143.81746	20992.25
2146.78201	20928.75
2149.74466	20928.45
2152.7054	20888.15
2155.66425	20862.75
2158.6212	20875.45
2161.57625	20876.05
2164.52941	20892.95
2167.48067	20907.45
2170.43004	20894.65
2173.37752	20882.95
2176.32311	20854.15
2179.26681	20913.85
2182.20863	20887.55
2185.14856	20929.05
2188.08661	20923.35
2191.02278	20940.05
2193.95707	20953.95
2196.88948	20920.55
2199.82001	20900.85
2202.74867	20841.45
2205.67545	20861.15
2208.60037	20834.55
2211.52341	20851.35
2214.44458	20851.95
2217.36388	20779.35
2220.28132	20704.45
2223.1969	20715.35
2226.11061	20676.85
2229.02246	20609.15
2231.93245	20626.25
2234.84058	20577.35
2237.74686	20579.85
2240.65128	20586.35
2243.55385	20530.65
2246.45456	20472.05
2249.35343	20418.15
2252.25044	20375.45
2255.14561	20359.85
2258.03893	20319.25
2260.93041	20241.55
2263.82004	20197.45
2266.70783	20155.55
2269.59378	20109.55
2272.4779	20051.65
2275.36017	20013.75
2278.24061	19988.55
2281.11922	19956.85
2283.996	19915.45
2286.87094	19902.45
2289.74405	19908.85
2292.61534	19910.55
2295.4848	19894.55
2298.35243	19898.65
2301.21824	19928.15
2304.08223	19946.05
2306.94439	19969.95
2309.80474	19983.15
2312.66327	19998.15
2315.51999	19964.45
2318.37489	19939.75
2321.22797	19918.15
2324.07925	19919.15
2326.92871	19908.85
2329.77637	19896.35
2332.62222	19857.15
2335.46626	19847.35
2338.3085	19903.65
2341.14893	19914.75
2343.98756	19913.75
2346.8244	19908.45
2349.65943	19907.35
2352.49267	19892.15
2355.32411	19917.15
2358.15376	19891.45
2360.98161	19856.65
2363.80768	19843.45
2366.63195	19784.25
2369.45444	19818.45
2372.27514	19759.15
2375.09405	19722.35
2377.91118	19713.15
2380.72652	19619.45
2383.54009	19623.55
2386.35187	19604.05
2389.16188	19547.45
2391.97011	19551.75
2394.77657	19524.55
2397.58125	19475.85
2400.38416	19482.85
2403.18529	19453.35
2405.98466	19464.25
2408.78226	19424.65
2411.57809	19377.15
2414.37216	19355.65
2417.16446	19347.75
2419.955	19315.65
2422.74378	19302.95
2425.5308	19274.95
2428.31606	19276.75
2431.09956	19246.75
2433.88131	19265.65
2436.6613	19321.15
2439.43954	19284.85
2442.21603	19282.35
2444.99077	19270.75
2447.76377	19313.95
2450.53501	19275.55
2453.30451	19295.85
2456.07226	19290.15
2458.83827	19281.05
2461.60254	19300.05
2464.36507	19298.75
2467.12586	19287.95
2469.88492	19300.05
2472.64224	19324.95
2475.39782	19403.75
2478.15167	19414.25
2480.90379	19389.85
2483.65417	19387.55
2486.40283	19430.55
2489.14976	19464.25
2491.89497	19430.15
2494.63845	19470.55
2497.3802	19442.85
2500.12024	19476.85
2502.85855	19452.65
2505.59514	19445.65
2508.33002	19414.55
2511.06318	19442.25
2513.79462	19413.45
2516.52435	19406.05
2519.25237	19443.35
2521.97867	19375.65
2524.70327	19393.25
2527.42616	19380.55
2530.14734	19411.85
2532.86681	19404.65
2535.58458	19436.05
2538.30065	19401.25
2541.01501	19408.95
2543.72768	19381.85
2546.43864	19407.65
2549.14791	19358.15
2551.85548	19363.95
2554.56136	19364.25
2557.26554	19332.75
2559.96803	19375.95
2562.66883	19375.85
2565.36794	19297.25
2568.06536	19323.15
2570.7611	19349.35
2573.45514	19330.35
2576.14751	19335.05
2578.83819	19312.35
2581.52719	19337.95
2584.21451	19329.25
2586.90015	19374.05
2589.58411	19358.35
2592.2664	19382.65
2594.94701	19370.95
2597.62594	19379.55
2600.30321	19335.15
2602.9788	19343.15
2605.65273	19370.45
2608.32498	19395.15
2610.99557	19444.15
2613.66449	19440.45
2616.33175	19423.75
2618.99734	19428.15
2621.66128	19414.25
2624.32355	19415.55
2626.98416	19392.75
2629.64311	19435.05
2632.30041	19400.05
2634.95605	19428.65
2637.61004	19365.85
2640.26238	19352.75
2642.91306	19374.75
2645.56209	19310.75
2648.20948	19377.35
2650.85521	19385.35
2653.4993	19429.85
2656.14175	19392.15
2658.78255	19447.35
2661.42171	19463.65
2664.05923	19480.45
2666.6951	19496.95
2669.32934	19523.65
2671.96194	19531.15
2674.59291	19535.15
2677.22224	19541.35
2679.84993	19547.35
2682.476	19535.75
2685.10043	19501.35
2687.72324	19464.95
2690.34441	19458.85
2692.96396	19470.25
2695.58188	19490.35
2698.19818	19475.45
2700.81285	19492.85
2703.4259	19515.45
2706.03733	19564.95
2708.64714	19546.45
2711.25533	19573.75
2713.86191	19573.85
2716.46687	19615.75
2719.07021	19597.95
2721.67194	19637.85
2724.27206	19680.75
2726.87057	19704.85
2729.46747	19737.05
2732.06276	19742.55
2734.65644	19721.65
2737.24852	19735.05
2739.83899	19706.05
2742.42786	19740.25
2745.01513	19701.45
2747.60079	19728.85
2750.18486	19736.65
2752.76733	19710.55
2755.3482	19704.05
2757.92747	19766.35
2760.50515	19755.45
2763.08123	19745.55
2765.65573	19749.75
2768.22863	19768.05
2770.79994	19758.15
2773.36967	19743.35
2775.9378	19749.65
2778.50435	19785.45
2781.06932	19782.15
2783.6327	19795.25
2786.1945	19811.25
2788.75471	19824.45
2791.31335	19786.85
2793.87041	19788.05
2796.42589	19720.45
2798.97979	19744.05
2801.53212	19685.55
2804.08288	19708.45
2806.63206	19609.85
2809.17967	19592.45
2811.72571	19589.25
2814.27018	19530.95
2816.81308	19533.15
2819.35442	19458.55
2821.89419	19468.45
2824.43239	19470.65
2826.96904	19465.35
2829.50412	19471.45
2832.03763	19412.75
2834.56959	19406.35
2837.1	19411.45
2839.62884	19392.75
2842.15613	19417.75
2844.68186	19475.45
2847.20604	19457.75
2849.72867	19444.25
2852.24974	19476.05
2854.76927	19492.65
2857.28724	19458.55
2859.80367	19469.15
2862.31855	19437.65
2864.83189	19409.75
2867.34368	19379.15
2869.85393	19383.45
2872.36264	19358.15
2874.8698	19330.45
2877.37543	19306.45
2879.87952	19303.35
2882.38207	19320.75
2884.88308	19362.35
2887.38256	19354.55
2889.88051	19359.45
2892.37692	19365.05
2894.8718	19397.25
2897.36515	19455.75
2899.85698	19455.25
2902.34727	19486.95
2904.83604	19520.45
2907.32328	19555.95
2909.809	19573.25
2912.29319	19589.25
2914.77587	19591.55
2917.25702	19573.25
2919.73665	19609.25
2922.21476	19560.05
2924.69136	19547.75
2927.16644	19572.45
2929.64	19501.75
2932.11205	19486.75
2934.58258	19433.95
2937.05161	19471.65
2939.51912	19480.05
2941.98513	19473.05
2944.44962	19449.75
2946.91261	19357.05
2949.37409	19372.45
2951.83407	19377.25
2954.29254	19373.45
2956.74951	19328.65
2959.20498	19322.45
2961.65895	19266.45
2964.11142	19296.35
2966.56239	19255.45
2969.01186	19266.65
2971.45984	19213.75
2973.90632	19234.35
2976.35131	19169.45
2978.7948	19133.65
2981.23681	19092.95
2983.67732	19037.95
2986.11635	18998.55
2988.55388	18957.65
2990.98993	18908.55
2993.4245	18874.35
2995.85758	18788.25
2998.28917	18757.95
3000.71928	18751.55
3003.14791	18734.55
3005.57506	18699.05
3008.00073	18632.35
3010.42493	18516.95
3012.84764	18565.85
3015.26888	18571.65
3017.68865	18524.95
3020.10694	18518.95
3022.52376	18459.25
3024.9391	18457.65
3027.35298	18441.55
3029.76539	18406.05
3032.17632	18397.45
3034.5858	18387.25
3036.9938	18376.35
3039.40034	18395.55
3041.80542	18395.25
3044.20903	18333.95
3046.61118	18351.35
3049.01187	18306.65
3051.4111	18331.45
3053.80888	18263.05
3056.20519	18236.35
3058.60005	18202.05
3060.99345	18171.15
3063.3854	18126.15
3065.7759	18035.35
3068.16494	17992.65
3070.55254	17934.55
3072.93868	17897.85
3075.32338	17816.25
3077.70662	17773.35
3080.08842	17750.35
3082.46878	17728.35
3084.84769	17688.95
3087.22515	17717.45
3089.60118	17713.75
3091.97576	17704.45
3094.3489	17684.65
3096.72061	17640.65
3099.09087	17638.55
3101.4597	17652.05
3103.82709	17631.25
3106.19305	17612.05
3108.55757	17593.55
3110.92066	17519.15
3113.28232	17548.75
3115.64255	17496.75
3118.00134	17454.85
3120.35871	17449.65
3122.71466	17411.95
3125.06917	17343.15
3127.42226	17306.05
3129.77393	17296.15
3132.12417	17261.85
3134.47299	17292.45
3136.82039	17247.75
3139.16636	17273.25
3141.51092	17231.15
3143.85406	17242.55
3146.19579	17238.85
3148.53609	17228.25
3150.87499	17243.95
3153.21246	17218.55
3155.54853	17228.05
3157.88318	17206.15
3160.21642	17244.65
3162.54826	17213.65
3164.87868	17244.35
3167.2077	17251.95
3169.5353	17246.35
3171.86151	17243.35
3174.18631	17229.45
3176.5097	17191.75
3178.83169	17178.35
3181.15228	17192.95
3183.47147	17149.15
3185.78926	17176.05
3188.10565	17166.55
3190.42065	17099.05
3192.73424	17114.05
3195.04645	17087.65
3197.35725	17071.05
3199.66667	17019.25
3201.97469	17019.95
3204.28132	16991.55
3206.58656	17027.35
3208.8904	17009.95
3211.19287	17006.95
3213.49394	17045.15
3215.79363	17076.75
3218.09193	17035.85
3220.38884	17027.95
3222.68438	17061.65
3224.97853	17054.85
3227.2713	17020.15
3229.56269	16977.55
3231.8527	17008.05
3234.14133	16981.45
3236.42858	16951.65
3238.71446	16936.65
3240.99896	16893.85
3243.28209	16926.95
3245.56384	16871.95
3247.84423	16863.75
3250.12324	16807.35
3252.40088	16773.35
3254.67715	16794.05
3256.95205	16782.55
3259.22558	16772.55
3261.49775	16748.85
3263.76855	16705.95
3266.03799	16639.45
3268.30606	16668.05
3270.57277	16613.15
3272.83812	16564.65
3275.10211	16543.05
3277.36474	16557.85
3279.62601	16562.15
3281.88593	16545.05
3284.14448	16579.05
3286.40168	16569.95
3288.65753	16554.75
3290.91202	16557.95
3293.16516	16550.65
3295.41695	16487.65
3297.66738	16396.35
3299.91647	16332.95
3302.16421	16217.25
3304.4106	16144.05
3306.65564	16024.95
3308.89933	15893.45
3311.14169	15779.65
3313.38269	15681.15
3315.62236	15569.25
3317.86068	15442.65
3320.09766	15343.65
3322.3333	15231.65
3324.5676	15151.25
3326.80056	14896.05
3329.03219	14796.35
3331.26248	4.75
3333.49143	-0.95
3335.71905	-0.45
