Data from AgNPs_FTO_APTES_UA_5uM_CRN_2uM_R6G_10uM_NaF_0.1M_Addition_RamanShift__37__11-40-06-660.txt Node

Date: Mon Feb 07 11:40:06 GMT 2022
User: TCL
Spectrometer: QEP01345
Trigger mode: 4
Integration Time (sec): 7.000000E0
Scans to average: 10
Electric dark correction enabled: true
Nonlinearity correction enabled: false
Boxcar width: 0
XAxis mode: Raman Shifts
Number of Pixels in Spectrum: 1044
>>>>>Begin Spectral Data<<<<<
46.04893	-0.95
50.45542	-1.05
54.85868	-2.05
59.25871	0.05
63.6555	99.65
68.04907	102.95
72.43941	110.25
76.82654	112.45
81.21044	116.85
85.59113	121.45
89.96862	125.95
94.34289	125.45
98.71396	130.75
103.08183	137.45
107.4465	139.75
111.80798	145.65
116.16626	149.35
120.52136	157.75
124.87327	157.95
129.222	173.15
133.56755	186.15
137.90993	204.05
142.24913	221.45
146.58517	257.05
150.91804	293.55
155.24774	356.75
159.57429	446.95
163.89768	585.55
168.21792	767.15
172.53501	1054.35
176.84895	1469.05
181.15975	2080.45
185.46741	2920.25
189.77193	4023.65
194.07331	5374.85
198.37157	6912.95
202.6667	8533.65
206.9587	10114.35
211.24758	11747.85
215.53334	13352.15
219.81599	15056.55
224.09553	16963.25
228.37195	19080.15
232.64527	21367.65
236.91549	23736.05
241.18261	26029.95
245.44663	28204.65
249.70755	30108.05
253.96539	31775.45
258.22014	33138.65
262.4718	34327.35
266.72039	35100.35
270.96589	35521.65
275.20832	35492.35
279.44768	35247.15
283.68397	34898.35
287.91719	34555.95
292.14735	34392.35
296.37445	34304.55
300.59849	34379.65
304.81948	34645.95
309.03742	34721.15
313.25231	34662.95
317.46415	34261.45
321.67296	33722.65
325.87872	33223.75
330.08145	32945.95
334.28114	32882.25
338.47781	33095.55
342.67145	33439.95
346.86207	33970.55
351.04966	34535.95
355.23424	35232.25
359.4158	35782.95
363.59435	36278.25
367.76989	36516.75
371.94243	36740.35
376.11196	36847.45
380.27849	36974.55
384.44203	37135.65
388.60257	37494.75
392.76012	37900.65
396.91468	38379.95
401.06626	38940.55
405.21485	39435.15
409.36047	39349.45
413.50311	39009.45
417.64277	39050.25
421.77947	39393.85
425.9132	39672.55
430.04396	39931.65
434.17176	40134.55
438.2966	40458.45
442.41849	41229.75
446.53742	42742.25
450.6534	44383.25
454.76644	45382.35
458.87653	45403.35
462.98368	44779.65
467.08789	43755.45
471.18916	42636.15
475.2875	41540.65
479.38291	40856.95
483.4754	40426.25
487.56496	40018.75
491.6516	39454.05
495.73531	38943.15
499.81612	38656.75
503.89401	38902.85
507.96899	39055.05
512.04106	38911.45
516.11023	38514.85
520.1765	37987.55
524.23987	37672.15
528.30034	37475.75
532.35792	37184.25
536.41261	36602.05
540.46441	35977.55
544.51333	35751.35
548.55936	36018.95
552.60252	36842.05
556.64279	38187.15
560.6802	39184.35
564.71473	39753.25
568.7464	40422.65
572.7752	41819.95
576.80114	43460.75
580.82422	45301.35
584.84444	48054.45
588.86181	51753.65
592.87633	55144.15
596.888	55174.35
600.89682	51237.95
604.9028	48544.35
608.90594	50149.75
612.90624	52566.55
616.90371	49227.35
620.89834	41734.35
624.89015	38323.45
628.87913	37880.25
632.86528	37900.65
636.84862	37429.55
640.82913	36487.05
644.80683	35407.35
648.78172	34844.25
652.75379	34979.05
656.72306	35561.25
660.68952	36076.85
664.65319	35791.65
668.61405	35123.35
672.57211	35014.25
676.52738	35223.75
680.47986	35208.55
684.42955	34741.95
688.37646	34580.95
692.32058	34899.15
696.26192	35684.05
700.20048	36504.65
704.13626	36855.25
708.06928	36760.05
711.99952	36573.15
715.927	36580.55
719.85171	36909.25
723.77365	36741.15
727.69284	35969.35
731.60928	35263.55
735.52295	35101.55
739.43388	35123.85
743.34206	35348.25
747.24749	35620.85
751.15017	36064.55
755.05012	36770.95
758.94733	37873.25
762.8418	39616.15
766.73354	42215.75
770.62254	44542.45
774.50882	44625.35
778.39237	42594.15
782.27321	39760.65
786.15132	37548.55
790.02671	36063.35
793.89938	35436.05
797.76935	35268.05
801.6366	35161.45
805.50115	35133.35
809.36299	34933.35
813.22213	34615.55
817.07857	34408.25
820.93231	34146.25
824.78336	33935.45
828.63172	33839.25
832.47738	33868.85
836.32036	33983.05
840.16066	34179.75
843.99827	34363.65
847.8332	34245.15
851.66546	34150.75
855.49504	34068.85
859.32195	34073.65
863.1462	33908.55
866.96777	33713.75
870.78668	33632.55
874.60293	33590.55
878.41652	33621.35
882.22745	33772.85
886.03573	33944.55
889.84136	33888.45
893.64433	33591.85
897.44466	33428.55
901.24235	33345.15
905.0374	33262.95
908.8298	33147.65
912.61957	33304.75
916.40671	33656.25
920.19121	34328.25
923.97308	35041.85
927.75233	35343.05
931.52895	34974.85
935.30295	34284.65
939.07433	33515.95
942.84309	33073.15
946.60924	32972.75
950.37278	32895.25
954.13371	32860.75
957.89203	32724.45
961.64774	32663.45
965.40086	32681.55
969.15137	32702.75
972.89929	32636.05
976.64461	32707.35
980.38733	32819.15
984.12747	33038.95
987.86502	33290.95
991.59999	33663.45
995.33237	34223.35
999.06217	35301.05
1002.78939	36777.65
1006.51404	37850.35
1010.23611	38666.25
1013.95561	39093.75
1017.67255	39014.15
1021.38692	38185.05
1025.09872	37319.15
1028.80796	37326.85
1032.51465	38468.25
1036.21877	39740.85
1039.92035	40023.45
1043.61937	39611.35
1047.31584	38583.55
1051.00976	37564.05
1054.70114	36985.95
1058.38998	36824.75
1062.07627	36871.85
1065.76003	37060.35
1069.44126	37473.35
1073.11995	38134.95
1076.79611	38790.35
1080.46974	39164.95
1084.14085	39484.35
1087.80943	39957.85
1091.47549	40349.75
1095.13903	40356.55
1098.80005	39653.75
1102.45857	38520.25
1106.11456	37750.05
1109.76805	37451.85
1113.41903	37368.05
1117.06751	37515.25
1120.71348	37785.45
1124.35696	38192.15
1127.99793	38559.85
1131.63641	38906.35
1135.2724	38917.45
1138.90589	38955.05
1142.5369	39184.15
1146.16542	39614.95
1149.79145	40142.85
1153.415	40650.15
1157.03607	41436.05
1160.65467	42987.75
1164.27079	45494.85
1167.88443	48442.15
1171.49561	51326.05
1175.10432	54801.25
1178.71056	59419.55
1182.31434	63779.55
1185.91565	65560.45
1189.51451	64464.55
1193.11091	61820.85
1196.70485	59376.35
1200.29634	57440.15
1203.88538	56349.35
1207.47197	56103.35
1211.05612	55788.95
1214.63782	54666.95
1218.21708	53252.95
1221.79391	51922.75
1225.36829	51062.45
1228.94024	50191.05
1232.50976	48872.45
1236.07685	47506.35
1239.6415	46670.85
1243.20374	46474.45
1246.76355	46994.15
1250.32093	48088.45
1253.8759	49463.45
1257.42845	51054.15
1260.97859	52847.45
1264.52631	54661.15
1268.07163	56673.25
1271.61453	58745.05
1275.15503	60953.15
1278.69312	63344.35
1282.22882	65713.65
1285.76211	68566.15
1289.29301	71914.15
1292.82151	75716.75
1296.34761	80488.05
1299.87133	86497.55
1303.39266	92868.75
1306.9116	98441.45
1310.42815	102260.55
1313.94233	103559.35
1317.45412	101957.75
1320.96354	98631.75
1324.47058	95555.55
1327.97525	93262.75
1331.47754	91902.65
1334.97747	90656.65
1338.47502	88917.55
1341.97022	86254.75
1345.46305	83053.95
1348.95352	81103.05
1352.44163	81563.65
1355.92738	85227.15
1359.41078	91107.45
1362.89183	95538.65
1366.37053	94637.85
1369.84688	87290.75
1373.32088	76672.45
1376.79254	69161.35
1380.26186	66734.35
1383.72883	67241.35
1387.19347	67558.85
1390.65578	66758.45
1394.11575	66394.85
1397.57339	67455.25
1401.0287	69264.55
1404.48168	70821.15
1407.93234	71187.65
1411.38068	69832.25
1414.82669	67283.45
1418.27039	64056.75
1421.71177	60849.35
1425.15083	58124.45
1428.58758	57070.15
1432.02203	57921.35
1435.45416	60278.65
1438.88399	62776.35
1442.31151	64456.75
1445.73673	65269.85
1449.15965	65597.15
1452.58027	65194.65
1455.9986	64410.35
1459.41463	64224.65
1462.82837	65218.65
1466.23982	66875.45
1469.64898	68656.95
1473.05586	69733.05
1476.46045	70135.65
1479.86276	69679.95
1483.26279	68869.15
1486.66054	68263.35
1490.05602	68271.15
1493.44922	68449.25
1496.84016	68416.65
1500.22882	68303.45
1503.61521	68578.35
1506.99934	69283.25
1510.38121	70021.35
1513.76081	70132.95
1517.13816	69167.85
1520.51324	67920.15
1523.88607	67253.75
1527.25665	67711.85
1530.62498	68409.85
1533.99105	68457.75
1537.35488	67582.05
1540.71647	65943.85
1544.07581	63768.65
1547.4329	61683.55
1550.78776	59744.25
1554.14038	58300.05
1557.49077	57296.35
1560.83892	56583.55
1564.18484	56138.55
1567.52853	56102.25
1570.86999	56560.15
1574.20922	57912.75
1577.54624	59123.45
1580.88103	60045.15
1584.2136	61679.45
1587.54395	65298.95
1590.87208	70909.25
1594.19801	77371.15
1597.52172	82742.75
1600.84321	83720.15
1604.16251	78444.45
1607.47959	69649.25
1610.79447	60592.55
1614.10715	53399.05
1617.41763	48549.75
1620.7259	45777.55
1624.03199	44757.95
1627.33587	45301.25
1630.63757	47450.25
1633.93707	51593.75
1637.23439	58287.05
1640.52951	68181.35
1643.82246	79894.75
1647.11321	88937.65
1650.40179	89045.25
1653.68819	79409.25
1656.97241	65765.45
1660.25446	53791.05
1663.53433	45727.35
1666.81203	40782.15
1670.08756	37817.15
1673.36092	35906.95
1676.63211	34735.45
1679.90115	33966.35
1683.16801	33380.45
1686.43272	32896.45
1689.69527	32538.35
1692.95567	32260.55
1696.2139	32087.35
1699.46999	31927.25
1702.72392	31808.65
1705.97571	31740.65
1709.22535	31651.05
1712.47284	31587.05
1715.71819	31531.05
1718.96139	31445.15
1722.20246	31335.45
1725.44139	31221.05
1728.67818	30971.95
1731.91284	30762.05
1735.14537	30584.35
1738.37576	30453.05
1741.60403	30326.25
1744.83017	30242.55
1748.05418	30091.45
1751.27607	30001.95
1754.49584	29948.15
1757.71349	29918.15
1760.92903	29929.05
1764.14244	29920.65
1767.35375	29893.65
1770.56294	29801.85
1773.77002	29751.05
1776.97499	29708.95
1780.17785	29602.15
1783.37861	29565.15
1786.57727	29499.75
1789.77382	29467.65
1792.96828	29446.65
1796.16064	29365.25
1799.3509	29338.15
1802.53907	29314.25
1805.72514	29173.85
1808.90913	29095.85
1812.09102	29059.85
1815.27083	28999.65
1818.44856	28967.55
1821.6242	28909.05
1824.79776	28877.05
1827.96924	28866.75
1831.13864	28803.45
1834.30597	28806.85
1837.47122	28787.85
1840.6344	28750.95
1843.7955	28767.85
1846.95454	28823.35
1850.11151	28776.25
1853.26642	28732.55
1856.41926	28758.45
1859.57004	28739.55
1862.71876	28751.55
1865.86542	28708.45
1869.01003	28657.45
1872.15258	28635.05
1875.29308	28628.95
1878.43152	28571.05
1881.56792	28584.35
1884.70227	28617.75
1887.83457	28574.35
1890.96482	28566.85
1894.09304	28550.85
1897.21921	28498.35
1900.34335	28451.75
1903.46544	28401.75
1906.58551	28459.65
1909.70353	28392.55
1912.81953	28303.65
1915.93349	28261.55
1919.04543	28219.95
1922.15534	28203.45
1925.26322	28114.05
1928.36908	28019.95
1931.47292	27974.15
1934.57473	27889.75
1937.67453	27782.25
1940.77232	27702.95
1943.86808	27652.65
1946.96184	27576.95
1950.05358	27512.15
1953.14331	27493.65
1956.23103	27393.65
1959.31675	27279.15
1962.40046	27221.45
1965.48217	27156.45
1968.56188	27084.95
1971.63959	27003.15
1974.7153	26911.75
1977.78901	26816.45
1980.86073	26693.65
1983.93046	26643.45
1986.99819	26565.05
1990.06394	26506.85
1993.1277	26470.85
1996.18947	26358.05
1999.24925	26256.25
2002.30706	26227.35
2005.36288	26138.05
2008.41672	26049.65
2011.46859	26024.05
2014.51848	25946.25
2017.56639	25926.25
2020.61233	25870.55
2023.6563	25810.65
2026.6983	25747.85
2029.73833	25714.05
2032.7764	25685.55
2035.8125	25692.45
2038.84664	25621.65
2041.87881	25608.15
2044.90903	25586.45
2047.93729	25485.95
2050.96359	25510.35
2053.98794	25472.85
2057.01034	25471.45
2060.03078	25444.75
2063.04927	25406.75
2066.06582	25439.85
2069.08042	25405.05
2072.09307	25362.05
2075.10378	25304.45
2078.11255	25302.15
2081.11938	25331.95
2084.12426	25281.55
2087.12722	25264.55
2090.12824	25240.55
2093.12732	25275.75
2096.12447	25315.55
2099.11969	25325.95
2102.11299	25313.25
2105.10435	25264.55
2108.09379	25286.75
2111.08131	25311.25
2114.0669	25318.85
2117.05057	25325.35
2120.03233	25316.35
2123.01216	25335.45
2125.99008	25382.35
2128.96609	25446.35
2131.94018	25387.55
2134.91236	25418.45
2137.88263	25397.45
2140.851	25449.15
2143.81746	25462.65
2146.78201	25459.65
2149.74466	25475.85
2152.7054	25421.95
2155.66425	25442.55
2158.6212	25422.05
2161.57625	25374.75
2164.52941	25370.55
2167.48067	25370.35
2170.43004	25387.75
2173.37752	25390.15
2176.32311	25384.85
2179.26681	25422.65
2182.20863	25383.75
2185.14856	25417.15
2188.08661	25461.95
2191.02278	25480.45
2193.95707	25475.75
2196.88948	25481.55
2199.82001	25480.05
2202.74867	25364.15
2205.67545	25385.55
2208.60037	25365.25
2211.52341	25345.45
2214.44458	25338.55
2217.36388	25294.05
2220.28132	25219.15
2223.1969	25208.75
2226.11061	25169.05
2229.02246	25128.95
2231.93245	25114.85
2234.84058	25095.75
2237.74686	25094.95
2240.65128	25080.15
2243.55385	25019.45
2246.45456	24983.95
2249.35343	24954.15
2252.25044	24874.75
2255.14561	24806.25
2258.03893	24810.35
2260.93041	24714.05
2263.82004	24622.05
2266.70783	24595.45
2269.59378	24477.15
2272.4779	24431.45
2275.36017	24335.35
2278.24061	24349.95
2281.11922	24311.85
2283.996	24273.25
2286.87094	24309.85
2289.74405	24310.95
2292.61534	24266.95
2295.4848	24318.15
2298.35243	24319.45
2301.21824	24316.75
2304.08223	24350.55
2306.94439	24398.35
2309.80474	24420.35
2312.66327	24450.85
2315.51999	24397.65
2318.37489	24337.75
2321.22797	24333.65
2324.07925	24347.85
2326.92871	24304.15
2329.77637	24306.25
2332.62222	24269.15
2335.46626	24256.45
2338.3085	24270.05
2341.14893	24233.05
2343.98756	24300.95
2346.8244	24330.75
2349.65943	24307.45
2352.49267	24300.75
2355.32411	24292.85
2358.15376	24263.95
2360.98161	24212.15
2363.80768	24173.65
2366.63195	24158.35
2369.45444	24165.55
2372.27514	24083.65
2375.09405	24095.85
2377.91118	24023.95
2380.72652	23997.15
2383.54009	23928.15
2386.35187	23896.15
2389.16188	23859.95
2391.97011	23864.75
2394.77657	23816.65
2397.58125	23758.65
2400.38416	23749.45
2403.18529	23746.85
2405.98466	23668.95
2408.78226	23663.85
2411.57809	23652.15
2414.37216	23644.15
2417.16446	23643.05
2419.955	23613.95
2422.74378	23556.35
2425.5308	23473.15
2428.31606	23517.15
2431.09956	23510.55
2433.88131	23506.55
2436.6613	23560.85
2439.43954	23545.75
2442.21603	23533.25
2444.99077	23488.45
2447.76377	23494.75
2450.53501	23505.45
2453.30451	23432.75
2456.07226	23461.85
2458.83827	23489.95
2461.60254	23528.55
2464.36507	23523.55
2467.12586	23463.05
2469.88492	23491.05
2472.64224	23515.95
2475.39782	23560.45
2478.15167	23589.65
2480.90379	23558.75
2483.65417	23631.25
2486.40283	23648.65
2489.14976	23624.85
2491.89497	23648.85
2494.63845	23684.95
2497.3802	23655.85
2500.12024	23685.65
2502.85855	23682.65
2505.59514	23684.85
2508.33002	23664.05
2511.06318	23617.75
2513.79462	23580.75
2516.52435	23568.45
2519.25237	23596.35
2521.97867	23590.65
2524.70327	23581.95
2527.42616	23548.75
2530.14734	23612.15
2532.86681	23593.35
2535.58458	23626.25
2538.30065	23624.15
2541.01501	23594.25
2543.72768	23584.45
2546.43864	23542.95
2549.14791	23536.75
2551.85548	23572.85
2554.56136	23538.55
2557.26554	23510.45
2559.96803	23501.95
2562.66883	23514.65
2565.36794	23493.45
2568.06536	23458.25
2570.7611	23467.45
2573.45514	23473.05
2576.14751	23466.45
2578.83819	23452.85
2581.52719	23464.65
2584.21451	23489.15
2586.90015	23497.45
2589.58411	23531.65
2592.2664	23464.65
2594.94701	23481.85
2597.62594	23461.85
2600.30321	23429.45
2602.9788	23402.15
2605.65273	23433.25
2608.32498	23472.95
2610.99557	23471.85
2613.66449	23512.75
2616.33175	23469.45
2618.99734	23475.35
2621.66128	23450.35
2624.32355	23465.35
2626.98416	23439.35
2629.64311	23440.55
2632.30041	23432.05
2634.95605	23431.85
2637.61004	23378.15
2640.26238	23360.95
2642.91306	23330.85
2645.56209	23347.45
2648.20948	23361.05
2650.85521	23376.75
2653.4993	23428.85
2656.14175	23358.45
2658.78255	23383.95
2661.42171	23436.45
2664.05923	23454.15
2666.6951	23507.15
2669.32934	23536.95
2671.96194	23551.35
2674.59291	23585.55
2677.22224	23534.25
2679.84993	23531.65
2682.476	23514.25
2685.10043	23489.65
2687.72324	23457.95
2690.34441	23444.65
2692.96396	23473.15
2695.58188	23462.75
2698.19818	23447.45
2700.81285	23466.25
2703.4259	23489.65
2706.03733	23523.45
2708.64714	23497.25
2711.25533	23509.55
2713.86191	23518.75
2716.46687	23551.65
2719.07021	23586.05
2721.67194	23603.25
2724.27206	23645.75
2726.87057	23666.65
2729.46747	23674.25
2732.06276	23688.65
2734.65644	23711.95
2737.24852	23726.35
2739.83899	23643.05
2742.42786	23656.45
2745.01513	23655.65
2747.60079	23636.15
2750.18486	23641.25
2752.76733	23660.65
2755.3482	23640.35
2757.92747	23635.15
2760.50515	23624.95
2763.08123	23654.75
2765.65573	23627.85
2768.22863	23648.65
2770.79994	23637.55
2773.36967	23633.75
2775.9378	23667.25
2778.50435	23651.65
2781.06932	23630.35
2783.6327	23645.15
2786.1945	23665.15
2788.75471	23675.65
2791.31335	23678.85
2793.87041	23612.85
2796.42589	23582.15
2798.97979	23550.75
2801.53212	23554.95
2804.08288	23479.25
2806.63206	23389.65
2809.17967	23362.65
2811.72571	23336.55
2814.27018	23314.85
2816.81308	23225.85
2819.35442	23237.95
2821.89419	23203.85
2824.43239	23197.35
2826.96904	23187.65
2829.50412	23222.35
2832.03763	23118.05
2834.56959	23100.05
2837.1	23080.05
2839.62884	23089.05
2842.15613	23067.75
2844.68186	23137.95
2847.20604	23128.95
2849.72867	23166.45
2852.24974	23155.15
2854.76927	23168.85
2857.28724	23142.95
2859.80367	23067.85
2862.31855	23076.95
2864.83189	23068.05
2867.34368	23040.15
2869.85393	22992.05
2872.36264	22903.35
2874.8698	22940.35
2877.37543	22968.85
2879.87952	22988.25
2882.38207	22975.15
2884.88308	22963.85
2887.38256	23007.25
2889.88051	23003.35
2892.37692	23038.25
2894.8718	23033.05
2897.36515	23111.95
2899.85698	23082.35
2902.34727	23144.25
2904.83604	23122.75
2907.32328	23207.45
2909.809	23164.55
2912.29319	23171.45
2914.77587	23179.25
2917.25702	23164.95
2919.73665	23185.25
2922.21476	23135.95
2924.69136	23184.85
2927.16644	23146.25
2929.64	23075.15
2932.11205	23112.55
2934.58258	23054.65
2937.05161	23041.45
2939.51912	23062.65
2941.98513	23072.85
2944.44962	22970.55
2946.91261	22908.55
2949.37409	22925.05
2951.83407	22899.35
2954.29254	22891.15
2956.74951	22885.85
2959.20498	22864.25
2961.65895	22815.95
2964.11142	22800.85
2966.56239	22743.95
2969.01186	22783.95
2971.45984	22755.25
2973.90632	22722.85
2976.35131	22665.65
2978.7948	22576.25
2981.23681	22509.85
2983.67732	22487.75
2986.11635	22420.25
2988.55388	22372.95
2990.98993	22327.55
2993.4245	22255.65
2995.85758	22149.75
2998.28917	22202.75
3000.71928	22140.25
3003.14791	22145.05
3005.57506	22077.95
3008.00073	22015.15
3010.42493	22052.35
3012.84764	21976.45
3015.26888	21973.15
3017.68865	21879.85
3020.10694	21836.25
3022.52376	21811.85
3024.9391	21781.85
3027.35298	21749.05
3029.76539	21765.85
3032.17632	21717.75
3034.5858	21678.35
3036.9938	21689.55
3039.40034	21706.65
3041.80542	21722.75
3044.20903	21652.95
3046.61118	21643.75
3049.01187	21621.65
3051.4111	21580.55
3053.80888	21581.65
3056.20519	21540.25
3058.60005	21499.45
3060.99345	21413.25
3063.3854	21354.55
3065.7759	21272.85
3068.16494	21242.65
3070.55254	21164.85
3072.93868	21103.75
3075.32338	21077.55
3077.70662	21007.45
3080.08842	20959.05
3082.46878	20931.15
3084.84769	20818.95
3087.22515	20860.25
3089.60118	20887.75
3091.97576	20884.25
3094.3489	20807.75
3096.72061	20822.75
3099.09087	20801.05
3101.4597	20772.15
3103.82709	20808.85
3106.19305	20762.95
3108.55757	20727.05
3110.92066	20677.25
3113.28232	20728.85
3115.64255	20655.55
3118.00134	20592.95
3120.35871	20563.95
3122.71466	20529.35
3125.06917	20457.05
3127.42226	20387.45
3129.77393	20353.55
3132.12417	20328.25
3134.47299	20367.45
3136.82039	20342.15
3139.16636	20348.45
3141.51092	20306.75
3143.85406	20326.65
3146.19579	20291.55
3148.53609	20295.55
3150.87499	20283.25
3153.21246	20256.95
3155.54853	20289.75
3157.88318	20259.95
3160.21642	20261.75
3162.54826	20273.65
3164.87868	20228.05
3167.2077	20235.55
3169.5353	20207.15
3171.86151	20260.15
3174.18631	20227.75
3176.5097	20218.25
3178.83169	20190.35
3181.15228	20183.85
3183.47147	20135.95
3185.78926	20097.75
3188.10565	20067.15
3190.42065	20042.65
3192.73424	20080.85
3195.04645	20026.15
3197.35725	20011.95
3199.66667	19984.85
3201.97469	19963.25
3204.28132	19962.35
3206.58656	19986.45
3208.8904	19944.95
3211.19287	19924.85
3213.49394	19966.05
3215.79363	19974.95
3218.09193	19956.45
3220.38884	19934.05
3222.68438	19976.65
3224.97853	19962.35
3227.2713	19940.95
3229.56269	19909.85
3231.8527	19945.15
3234.14133	19855.65
3236.42858	19844.65
3238.71446	19825.25
3240.99896	19764.65
3243.28209	19793.75
3245.56384	19755.55
3247.84423	19721.85
3250.12324	19710.55
3252.40088	19676.35
3254.67715	19634.85
3256.95205	19603.15
3259.22558	19587.25
3261.49775	19551.35
3263.76855	19546.45
3266.03799	19478.55
3268.30606	19499.35
3270.57277	19447.95
3272.83812	19421.15
3275.10211	19359.25
3277.36474	19325.95
3279.62601	19326.65
3281.88593	19304.95
3284.14448	19318.15
3286.40168	19337.05
3288.65753	19353.25
3290.91202	19308.95
3293.16516	19255.65
3295.41695	19212.95
3297.66738	19094.15
3299.91647	19031.75
3302.16421	18908.65
3304.4106	18792.35
3306.65564	18682.25
3308.89933	18564.55
3311.14169	18373.05
3313.38269	18243.45
3315.62236	18163.55
3317.86068	17978.75
3320.09766	17830.15
3322.3333	17725.95
3324.5676	17620.95
3326.80056	17356.65
3329.03219	17266.35
3331.26248	5.25
3333.49143	-1.35
3335.71905	-0.65
