Data from AgNPs_FTO_APTES_UA_5uM_CRN_0uM_R6G_10uM_NaF_0.1M_Addition_RamanShift__11__09-51-36-533.txt Node

Date: Mon Feb 07 09:51:36 GMT 2022
User: TCL
Spectrometer: QEP01345
Trigger mode: 4
Integration Time (sec): 7.000000E0
Scans to average: 10
Electric dark correction enabled: true
Nonlinearity correction enabled: false
Boxcar width: 0
XAxis mode: Raman Shifts
Number of Pixels in Spectrum: 1044
>>>>>Begin Spectral Data<<<<<
46.04893	-0.95
50.45542	-1.25
54.85868	-0.35
59.25871	0.75
63.6555	80.85
68.04907	81.55
72.43941	85.25
76.82654	89.05
81.21044	95.35
85.59113	94.85
89.96862	103.35
94.34289	103.55
98.71396	103.55
103.08183	108.05
107.4465	113.65
111.80798	113.65
116.16626	121.45
120.52136	124.75
124.87327	136.15
129.222	143.15
133.56755	155.95
137.90993	171.85
142.24913	190.95
146.58517	223.35
150.91804	254.45
155.24774	312.55
159.57429	398.95
163.89768	528.15
168.21792	711.15
172.53501	974.45
176.84895	1358.45
181.15975	1909.35
185.46741	2691.65
189.77193	3712.35
194.07331	4953.35
198.37157	6400.25
202.6667	7915.45
206.9587	9423.25
211.24758	10901.75
215.53334	12366.25
219.81599	13978.35
224.09553	15725.45
228.37195	17632.85
232.64527	19776.75
236.91549	22038.75
241.18261	24331.45
245.44663	26422.95
249.70755	28317.35
253.96539	30048.65
258.22014	31453.65
262.4718	32561.65
266.72039	33221.35
270.96589	33596.95
275.20832	33609.65
279.44768	33403.55
283.68397	33126.25
287.91719	32904.35
292.14735	32664.15
296.37445	32601.65
300.59849	32493.65
304.81948	32506.75
309.03742	32530.85
313.25231	32325.55
317.46415	31716.05
321.67296	30690.15
325.87872	29683.55
330.08145	29007.75
334.28114	28811.45
338.47781	28913.95
342.67145	29183.05
346.86207	29474.35
351.04966	29911.45
355.23424	30338.15
359.4158	30790.95
363.59435	31153.85
367.76989	31283.25
371.94243	31340.05
376.11196	31228.85
380.27849	31067.65
384.44203	30900.85
388.60257	30963.85
392.76012	31351.75
396.91468	31999.35
401.06626	32716.55
405.21485	33209.45
409.36047	33001.85
413.50311	32416.55
417.64277	32037.75
421.77947	32002.25
425.9132	32070.85
430.04396	32227.05
434.17176	32146.95
438.2966	31981.75
442.41849	32050.05
446.53742	32524.25
450.6534	33148.45
454.76644	33712.75
458.87653	34111.95
462.98368	34260.35
467.08789	34282.45
471.18916	34105.95
475.2875	33966.95
479.38291	34085.45
483.4754	34404.85
487.56496	34592.95
491.6516	34404.85
495.73531	33846.05
499.81612	33429.55
503.89401	33299.55
507.96899	33240.35
512.04106	33061.15
516.11023	32647.75
520.1765	31897.85
524.23987	31218.65
528.30034	30603.95
532.35792	30158.35
536.41261	29718.25
540.46441	29444.55
544.51333	29565.05
548.55936	30070.05
552.60252	31003.35
556.64279	31945.55
560.6802	32494.75
564.71473	33016.85
568.7464	34017.35
572.7752	35780.85
576.80114	38025.55
580.82422	40057.25
584.84444	41613.55
588.86181	43147.25
592.87633	44242.05
596.888	43550.85
600.89682	41031.55
604.9028	39801.75
608.90594	41398.35
612.90624	43334.65
616.90371	40290.75
620.89834	33945.05
624.89015	31091.65
628.87913	31069.35
632.86528	31838.95
636.84862	32116.55
640.82913	31431.35
644.80683	30173.05
648.78172	29261.55
652.75379	29033.35
656.72306	29268.05
660.68952	29703.55
664.65319	29654.75
668.61405	29298.25
672.57211	29169.95
676.52738	29141.55
680.47986	29060.85
684.42955	28752.25
688.37646	28598.95
692.32058	28728.25
696.26192	29140.05
700.20048	29594.05
704.13626	30028.95
708.06928	30467.85
711.99952	30597.65
715.927	30418.45
719.85171	30203.15
723.77365	29807.35
727.69284	29175.45
731.60928	28585.45
735.52295	28219.75
739.43388	28080.65
743.34206	28200.45
747.24749	28437.95
751.15017	28980.45
755.05012	29763.95
758.94733	30976.25
762.8418	32846.75
766.73354	35621.75
770.62254	37956.05
774.50882	37787.45
778.39237	35359.35
782.27321	32730.05
786.15132	30700.95
790.02671	29331.65
793.89938	28520.05
797.76935	28062.15
801.6366	27911.65
805.50115	27739.25
809.36299	27579.75
813.22213	27542.45
817.07857	27515.75
820.93231	27472.25
824.78336	27388.65
828.63172	27177.65
832.47738	26955.15
836.32036	26887.55
840.16066	26923.35
843.99827	26896.55
847.8332	26879.35
851.66546	26933.05
855.49504	26980.45
859.32195	27035.05
863.1462	26965.85
866.96777	26886.55
870.78668	26818.05
874.60293	26781.85
878.41652	26715.95
882.22745	26759.55
886.03573	26804.55
889.84136	26850.75
893.64433	26831.45
897.44466	26896.75
901.24235	27028.35
905.0374	27031.45
908.8298	26984.15
912.61957	27029.65
916.40671	27442.75
920.19121	28104.65
923.97308	28772.45
927.75233	28897.25
931.52895	28428.15
935.30295	27582.35
939.07433	26670.75
942.84309	26000.55
946.60924	25596.65
950.37278	25386.15
954.13371	25382.55
957.89203	25400.25
961.64774	25450.95
965.40086	25455.95
969.15137	25472.75
972.89929	25301.75
976.64461	25005.65
980.38733	24768.55
984.12747	24669.05
987.86502	24674.35
991.59999	24732.85
995.33237	24830.05
999.06217	25041.85
1002.78939	25375.95
1006.51404	25766.45
1010.23611	26236.15
1013.95561	26557.65
1017.67255	26657.05
1021.38692	26521.05
1025.09872	26164.05
1028.80796	25818.35
1032.51465	25678.45
1036.21877	25695.75
1039.92035	25849.55
1043.61937	26147.15
1047.31584	26329.35
1051.00976	26585.65
1054.70114	26794.25
1058.38998	27113.25
1062.07627	27437.25
1065.76003	28006.35
1069.44126	28751.85
1073.11995	29658.95
1076.79611	30516.95
1080.46974	30817.05
1084.14085	30763.15
1087.80943	31112.15
1091.47549	31617.65
1095.13903	32073.75
1098.80005	31741.55
1102.45857	30461.25
1106.11456	29018.85
1109.76805	27957.55
1113.41903	27432.55
1117.06751	27320.65
1120.71348	27531.45
1124.35696	27870.65
1127.99793	28313.65
1131.63641	28738.75
1135.2724	28963.55
1138.90589	28959.85
1142.5369	29065.35
1146.16542	29259.85
1149.79145	29683.35
1153.415	30221.45
1157.03607	30924.35
1160.65467	31902.75
1164.27079	33423.05
1167.88443	35387.55
1171.49561	37645.75
1175.10432	40290.25
1178.71056	43373.55
1182.31434	46257.95
1185.91565	47950.15
1189.51451	48286.95
1193.11091	47459.45
1196.70485	45745.55
1200.29634	43438.35
1203.88538	41923.35
1207.47197	41352.15
1211.05612	41220.65
1214.63782	40796.65
1218.21708	39482.45
1221.79391	37695.15
1225.36829	36096.15
1228.94024	35105.35
1232.50976	34496.55
1236.07685	34130.95
1239.6415	33919.65
1243.20374	33828.05
1246.76355	34016.75
1250.32093	34390.55
1253.8759	35168.45
1257.42845	36463.25
1260.97859	38026.55
1264.52631	39543.75
1268.07163	41011.75
1271.61453	42495.35
1275.15503	44119.65
1278.69312	46077.55
1282.22882	48259.95
1285.76211	50608.45
1289.29301	53123.45
1292.82151	55736.25
1296.34761	58666.75
1299.87133	61962.05
1303.39266	64957.55
1306.9116	67334.85
1310.42815	68676.25
1313.94233	69058.85
1317.45412	68696.05
1320.96354	68625.05
1324.47058	69247.65
1327.97525	70131.05
1331.47754	70592.25
1334.97747	70169.55
1338.47502	68946.95
1341.97022	67652.05
1345.46305	66446.05
1348.95352	64950.45
1352.44163	63043.65
1355.92738	61761.15
1359.41078	62063.55
1362.89183	63621.85
1366.37053	64130.55
1369.84688	61588.25
1373.32088	56561.65
1376.79254	51838.55
1380.26186	49227.15
1383.72883	48448.65
1387.19347	48239.05
1390.65578	48028.15
1394.11575	47888.55
1397.57339	48198.75
1401.0287	48821.75
1404.48168	48972.45
1407.93234	47966.25
1411.38068	45949.85
1414.82669	43296.55
1418.27039	40702.75
1421.71177	38453.05
1425.15083	36846.25
1428.58758	36103.05
1432.02203	36346.35
1435.45416	37336.95
1438.88399	38549.75
1442.31151	39552.65
1445.73673	40482.45
1449.15965	41450.15
1452.58027	42229.95
1455.9986	42725.65
1459.41463	43213.75
1462.82837	43984.55
1466.23982	44829.65
1469.64898	45461.25
1473.05586	45613.15
1476.46045	45494.95
1479.86276	45175.05
1483.26279	45155.75
1486.66054	45538.55
1490.05602	46223.15
1493.44922	47514.95
1496.84016	49175.45
1500.22882	51193.85
1503.61521	53318.55
1506.99934	55376.25
1510.38121	57042.95
1513.76081	57835.85
1517.13816	57738.35
1520.51324	57084.25
1523.88607	56469.05
1527.25665	55985.65
1530.62498	55277.25
1533.99105	54228.05
1537.35488	52608.75
1540.71647	50330.95
1544.07581	47878.45
1547.4329	45598.95
1550.78776	43925.65
1554.14038	42855.75
1557.49077	42464.75
1560.83892	42432.85
1564.18484	42511.75
1567.52853	42564.45
1570.86999	42672.55
1574.20922	43353.05
1577.54624	44178.85
1580.88103	44571.45
1584.2136	45076.95
1587.54395	46395.15
1590.87208	48568.25
1594.19801	50761.75
1597.52172	52160.45
1600.84321	51202.55
1604.16251	47805.25
1607.47959	43642.45
1610.79447	39821.55
1614.10715	36367.05
1617.41763	33419.25
1620.7259	31395.15
1624.03199	30358.45
1627.33587	30294.55
1630.63757	31320.15
1633.93707	33731.95
1637.23439	37858.75
1640.52951	44239.95
1643.82246	52351.65
1647.11321	59808.55
1650.40179	63027.45
1653.68819	59940.05
1656.97241	52105.85
1660.25446	43037.45
1663.53433	35629.55
1666.81203	30514.35
1670.08756	27452.25
1673.36092	25585.25
1676.63211	24374.25
1679.90115	23580.25
1683.16801	23003.85
1686.43272	22536.05
1689.69527	22217.35
1692.95567	21979.55
1696.2139	21798.05
1699.46999	21656.55
1702.72392	21497.95
1705.97571	21376.55
1709.22535	21274.65
1712.47284	21177.85
1715.71819	21064.65
1718.96139	20941.95
1722.20246	20825.05
1725.44139	20718.05
1728.67818	20569.95
1731.91284	20382.95
1735.14537	20207.25
1738.37576	20124.75
1741.60403	20029.65
1744.83017	19902.45
1748.05418	19829.55
1751.27607	19737.25
1754.49584	19686.75
1757.71349	19676.85
1760.92903	19581.15
1764.14244	19564.75
1767.35375	19584.05
1770.56294	19508.65
1773.77002	19428.95
1776.97499	19388.05
1780.17785	19335.75
1783.37861	19278.35
1786.57727	19207.15
1789.77382	19135.15
1792.96828	19134.65
1796.16064	19072.55
1799.3509	18987.15
1802.53907	18912.25
1805.72514	18859.75
1808.90913	18751.55
1812.09102	18688.55
1815.27083	18651.65
1818.44856	18612.35
1821.6242	18550.05
1824.79776	18498.05
1827.96924	18495.95
1831.13864	18448.65
1834.30597	18421.75
1837.47122	18419.95
1840.6344	18405.45
1843.7955	18405.05
1846.95454	18393.75
1850.11151	18382.55
1853.26642	18351.15
1856.41926	18321.65
1859.57004	18330.65
1862.71876	18276.55
1865.86542	18260.35
1869.01003	18187.95
1872.15258	18160.55
1875.29308	18101.75
1878.43152	17997.45
1881.56792	17966.95
1884.70227	17920.65
1887.83457	17916.25
1890.96482	17901.35
1894.09304	17804.95
1897.21921	17801.85
1900.34335	17761.45
1903.46544	17700.85
1906.58551	17662.75
1909.70353	17637.55
1912.81953	17589.45
1915.93349	17585.05
1919.04543	17533.95
1922.15534	17466.85
1925.26322	17418.85
1928.36908	17367.05
1931.47292	17283.55
1934.57473	17232.65
1937.67453	17188.65
1940.77232	17093.35
1943.86808	17054.45
1946.96184	16968.45
1950.05358	16884.25
1953.14331	16882.05
1956.23103	16861.45
1959.31675	16791.55
1962.40046	16692.05
1965.48217	16657.25
1968.56188	16589.15
1971.63959	16547.05
1974.7153	16472.95
1977.78901	16407.65
1980.86073	16328.45
1983.93046	16239.55
1986.99819	16177.05
1990.06394	16127.45
1993.1277	16068.65
1996.18947	15985.95
1999.24925	15947.45
2002.30706	15886.85
2005.36288	15821.35
2008.41672	15781.45
2011.46859	15716.65
2014.51848	15638.15
2017.56639	15590.15
2020.61233	15539.95
2023.6563	15484.95
2026.6983	15467.65
2029.73833	15407.95
2032.7764	15353.65
2035.8125	15338.25
2038.84664	15296.85
2041.87881	15241.95
2044.90903	15217.05
2047.93729	15163.95
2050.96359	15135.45
2053.98794	15124.25
2057.01034	15135.55
2060.03078	15124.15
2063.04927	15096.25
2066.06582	15088.25
2069.08042	15095.35
2072.09307	15042.45
2075.10378	15063.15
2078.11255	15037.85
2081.11938	15051.25
2084.12426	15000.95
2087.12722	14994.15
2090.12824	14971.75
2093.12732	15010.35
2096.12447	14966.15
2099.11969	14951.75
2102.11299	14951.35
2105.10435	14926.75
2108.09379	14912.75
2111.08131	14918.65
2114.0669	14895.45
2117.05057	14927.25
2120.03233	14919.15
2123.01216	14934.55
2125.99008	14962.15
2128.96609	14957.05
2131.94018	14923.95
2134.91236	14881.15
2137.88263	14885.75
2140.851	14846.85
2143.81746	14869.85
2146.78201	14840.85
2149.74466	14821.55
2152.7054	14822.05
2155.66425	14779.75
2158.6212	14760.75
2161.57625	14758.35
2164.52941	14693.75
2167.48067	14682.55
2170.43004	14674.15
2173.37752	14639.45
2176.32311	14638.55
2179.26681	14622.75
2182.20863	14628.85
2185.14856	14648.95
2188.08661	14602.95
2191.02278	14592.75
2193.95707	14554.25
2196.88948	14511.05
2199.82001	14482.45
2202.74867	14445.75
2205.67545	14430.85
2208.60037	14392.75
2211.52341	14373.25
2214.44458	14380.85
2217.36388	14328.95
2220.28132	14264.65
2223.1969	14257.65
2226.11061	14267.35
2229.02246	14235.35
2231.93245	14241.95
2234.84058	14224.45
2237.74686	14157.85
2240.65128	14134.75
2243.55385	14072.05
2246.45456	14056.55
2249.35343	14004.25
2252.25044	13946.45
2255.14561	13921.55
2258.03893	13893.55
2260.93041	13823.65
2263.82004	13829.45
2266.70783	13766.05
2269.59378	13697.65
2272.4779	13668.95
2275.36017	13618.65
2278.24061	13620.35
2281.11922	13574.35
2283.996	13551.55
2286.87094	13541.95
2289.74405	13480.35
2292.61534	13452.15
2295.4848	13418.95
2298.35243	13388.85
2301.21824	13396.55
2304.08223	13387.65
2306.94439	13369.55
2309.80474	13325.25
2312.66327	13331.75
2315.51999	13280.85
2318.37489	13275.45
2321.22797	13266.05
2324.07925	13200.45
2326.92871	13200.75
2329.77637	13174.85
2332.62222	13137.35
2335.46626	13142.45
2338.3085	13127.95
2341.14893	13110.35
2343.98756	13087.65
2346.8244	13105.25
2349.65943	13102.15
2352.49267	13102.55
2355.32411	13115.05
2358.15376	13126.85
2360.98161	13105.65
2363.80768	13105.25
2366.63195	13080.45
2369.45444	13092.15
2372.27514	13025.85
2375.09405	12982.25
2377.91118	13001.05
2380.72652	12931.15
2383.54009	12899.05
2386.35187	12917.95
2389.16188	12822.15
2391.97011	12789.45
2394.77657	12729.95
2397.58125	12707.35
2400.38416	12688.95
2403.18529	12665.55
2405.98466	12641.85
2408.78226	12592.35
2411.57809	12598.35
2414.37216	12596.55
2417.16446	12595.95
2419.955	12540.75
2422.74378	12552.15
2425.5308	12505.15
2428.31606	12531.05
2431.09956	12510.85
2433.88131	12494.25
2436.6613	12504.95
2439.43954	12495.55
2442.21603	12492.95
2444.99077	12473.45
2447.76377	12475.45
2450.53501	12455.35
2453.30451	12410.75
2456.07226	12410.35
2458.83827	12399.75
2461.60254	12410.05
2464.36507	12400.55
2467.12586	12387.65
2469.88492	12355.05
2472.64224	12332.15
2475.39782	12360.95
2478.15167	12353.05
2480.90379	12315.85
2483.65417	12313.15
2486.40283	12311.65
2489.14976	12312.35
2491.89497	12314.95
2494.63845	12331.75
2497.3802	12314.35
2500.12024	12288.15
2502.85855	12266.65
2505.59514	12261.45
2508.33002	12211.95
2511.06318	12205.25
2513.79462	12179.55
2516.52435	12157.75
2519.25237	12155.55
2521.97867	12145.55
2524.70327	12123.35
2527.42616	12083.45
2530.14734	12085.25
2532.86681	12064.95
2535.58458	12083.65
2538.30065	12038.45
2541.01501	12019.15
2543.72768	12038.35
2546.43864	12008.15
2549.14791	11957.35
2551.85548	11962.05
2554.56136	11915.05
2557.26554	11926.25
2559.96803	11912.05
2562.66883	11915.55
2565.36794	11872.95
2568.06536	11840.65
2570.7611	11808.75
2573.45514	11818.55
2576.14751	11792.05
2578.83819	11769.85
2581.52719	11761.75
2584.21451	11744.95
2586.90015	11748.75
2589.58411	11708.45
2592.2664	11723.25
2594.94701	11677.85
2597.62594	11694.45
2600.30321	11666.35
2602.9788	11654.35
2605.65273	11658.45
2608.32498	11654.05
2610.99557	11679.35
2613.66449	11630.85
2616.33175	11619.45
2618.99734	11617.15
2621.66128	11579.65
2624.32355	11550.15
2626.98416	11565.85
2629.64311	11526.25
2632.30041	11527.35
2634.95605	11505.05
2637.61004	11511.15
2640.26238	11478.05
2642.91306	11471.45
2645.56209	11491.35
2648.20948	11501.05
2650.85521	11500.35
2653.4993	11489.05
2656.14175	11454.85
2658.78255	11461.45
2661.42171	11442.35
2664.05923	11445.75
2666.6951	11454.45
2669.32934	11487.95
2671.96194	11451.85
2674.59291	11448.85
2677.22224	11474.05
2679.84993	11486.85
2682.476	11459.15
2685.10043	11443.25
2687.72324	11426.85
2690.34441	11403.75
2692.96396	11384.35
2695.58188	11428.95
2698.19818	11371.65
2700.81285	11396.05
2703.4259	11405.05
2706.03733	11414.55
2708.64714	11407.65
2711.25533	11397.45
2713.86191	11375.25
2716.46687	11407.15
2719.07021	11373.55
2721.67194	11396.75
2724.27206	11396.95
2726.87057	11412.55
2729.46747	11401.15
2732.06276	11442.05
2734.65644	11414.45
2737.24852	11399.75
2739.83899	11379.45
2742.42786	11382.85
2745.01513	11350.45
2747.60079	11376.75
2750.18486	11325.25
2752.76733	11293.35
2755.3482	11289.95
2757.92747	11280.15
2760.50515	11240.75
2763.08123	11254.35
2765.65573	11233.95
2768.22863	11245.45
2770.79994	11220.55
2773.36967	11231.35
2775.9378	11198.85
2778.50435	11219.75
2781.06932	11214.95
2783.6327	11182.25
2786.1945	11189.85
2788.75471	11161.65
2791.31335	11153.65
2793.87041	11133.95
2796.42589	11130.85
2798.97979	11121.25
2801.53212	11111.85
2804.08288	11082.75
2806.63206	11061.05
2809.17967	11035.45
2811.72571	11011.35
2814.27018	11015.55
2816.81308	10961.35
2819.35442	10962.25
2821.89419	10935.75
2824.43239	10955.85
2826.96904	10914.35
2829.50412	10922.05
2832.03763	10893.25
2834.56959	10893.35
2837.1	10868.05
2839.62884	10886.75
2842.15613	10895.05
2844.68186	10924.25
2847.20604	10899.25
2849.72867	10912.55
2852.24974	10893.75
2854.76927	10891.05
2857.28724	10897.35
2859.80367	10865.45
2862.31855	10861.55
2864.83189	10844.95
2867.34368	10842.55
2869.85393	10821.65
2872.36264	10786.85
2874.8698	10750.05
2877.37543	10775.05
2879.87952	10735.35
2882.38207	10744.65
2884.88308	10741.55
2887.38256	10725.95
2889.88051	10730.85
2892.37692	10770.35
2894.8718	10739.35
2897.36515	10758.55
2899.85698	10752.95
2902.34727	10791.55
2904.83604	10767.05
2907.32328	10785.45
2909.809	10760.65
2912.29319	10783.35
2914.77587	10823.75
2917.25702	10777.75
2919.73665	10771.35
2922.21476	10739.55
2924.69136	10739.75
2927.16644	10747.85
2929.64	10741.75
2932.11205	10698.05
2934.58258	10677.85
2937.05161	10680.45
2939.51912	10661.75
2941.98513	10623.65
2944.44962	10619.85
2946.91261	10561.35
2949.37409	10565.85
2951.83407	10518.45
2954.29254	10508.85
2956.74951	10472.25
2959.20498	10463.25
2961.65895	10459.65
2964.11142	10439.65
2966.56239	10406.25
2969.01186	10422.15
2971.45984	10357.05
2973.90632	10340.85
2976.35131	10332.15
2978.7948	10331.25
2981.23681	10299.95
2983.67732	10270.05
2986.11635	10238.75
2988.55388	10184.85
2990.98993	10151.55
2993.4245	10119.45
2995.85758	10086.95
2998.28917	10036.05
3000.71928	10027.25
3003.14791	9975.15
3005.57506	9959.75
3008.00073	9935.85
3010.42493	9913.35
3012.84764	9874.05
3015.26888	9871.35
3017.68865	9848.65
3020.10694	9837.05
3022.52376	9783.55
3024.9391	9758.95
3027.35298	9743.35
3029.76539	9725.15
3032.17632	9728.15
3034.5858	9735.65
3036.9938	9721.95
3039.40034	9735.65
3041.80542	9690.55
3044.20903	9677.05
3046.61118	9662.45
3049.01187	9636.65
3051.4111	9603.25
3053.80888	9586.75
3056.20519	9576.85
3058.60005	9535.55
3060.99345	9500.15
3063.3854	9460.15
3065.7759	9426.45
3068.16494	9410.15
3070.55254	9368.25
3072.93868	9298.25
3075.32338	9286.25
3077.70662	9254.05
3080.08842	9207.45
3082.46878	9210.85
3084.84769	9215.45
3087.22515	9198.25
3089.60118	9160.15
3091.97576	9184.15
3094.3489	9165.85
3096.72061	9169.65
3099.09087	9142.05
3101.4597	9107.05
3103.82709	9124.25
3106.19305	9130.75
3108.55757	9122.15
3110.92066	9063.55
3113.28232	9067.45
3115.64255	9030.35
3118.00134	9007.65
3120.35871	8994.05
3122.71466	8985.05
3125.06917	8956.05
3127.42226	8953.85
3129.77393	8950.15
3132.12417	8899.35
3134.47299	8906.95
3136.82039	8880.05
3139.16636	8888.85
3141.51092	8894.55
3143.85406	8877.45
3146.19579	8842.25
3148.53609	8849.45
3150.87499	8868.05
3153.21246	8834.85
3155.54853	8832.15
3157.88318	8844.45
3160.21642	8867.65
3162.54826	8838.55
3164.87868	8883.15
3167.2077	8858.05
3169.5353	8856.55
3171.86151	8849.85
3174.18631	8846.05
3176.5097	8842.25
3178.83169	8853.25
3181.15228	8816.55
3183.47147	8813.25
3185.78926	8777.25
3188.10565	8763.25
3190.42065	8738.45
3192.73424	8744.35
3195.04645	8704.55
3197.35725	8711.35
3199.66667	8650.25
3201.97469	8665.45
3204.28132	8642.15
3206.58656	8659.35
3208.8904	8658.95
3211.19287	8655.85
3213.49394	8646.45
3215.79363	8651.15
3218.09193	8655.65
3220.38884	8631.35
3222.68438	8676.55
3224.97853	8651.25
3227.2713	8627.75
3229.56269	8586.35
3231.8527	8617.75
3234.14133	8622.35
3236.42858	8587.55
3238.71446	8588.15
3240.99896	8540.85
3243.28209	8542.15
3245.56384	8513.05
3247.84423	8513.95
3250.12324	8484.95
3252.40088	8460.95
3254.67715	8440.65
3256.95205	8419.65
3259.22558	8432.85
3261.49775	8407.35
3263.76855	8409.35
3266.03799	8369.15
3268.30606	8363.65
3270.57277	8336.45
3272.83812	8318.45
3275.10211	8310.95
3277.36474	8307.95
3279.62601	8290.95
3281.88593	8280.85
3284.14448	8290.95
3286.40168	8270.95
3288.65753	8286.25
3290.91202	8284.25
3293.16516	8252.35
3295.41695	8228.75
3297.66738	8162.45
3299.91647	8130.55
3302.16421	8076.25
3304.4106	8021.85
3306.65564	7962.35
3308.89933	7905.55
3311.14169	7844.75
3313.38269	7740.45
3315.62236	7674.75
3317.86068	7609.45
3320.09766	7532.45
3322.3333	7476.25
3324.5676	7442.35
3326.80056	7306.95
3329.03219	7282.95
3331.26248	3.15
3333.49143	-0.65
3335.71905	-0.85
