Data from AgNP_FTO_APTES_UA_100uM_CRN_20uM_R6G_10uM_NaF_0.1M_Addition_RamanShift__16__16-44-30-493.txt Node

Date: Thu Mar 24 16:44:30 GMT 2022
User: TCL
Spectrometer: QEP01345
Trigger mode: 4
Integration Time (sec): 7.000000E0
Scans to average: 10
Electric dark correction enabled: true
Nonlinearity correction enabled: false
Boxcar width: 0
XAxis mode: Raman Shifts
Number of Pixels in Spectrum: 1044
>>>>>Begin Spectral Data<<<<<
46.04893	-2.95
50.45542	-1.55
54.85868	0.55
59.25871	0.55
63.6555	42.55
68.04907	48.05
72.43941	45.55
76.82654	46.65
81.21044	49.25
85.59113	52.85
89.96862	53.75
94.34289	50.25
98.71396	57.75
103.08183	54.95
107.4465	57.75
111.80798	64.35
116.16626	60.45
120.52136	63.55
124.87327	63.85
129.222	71.45
133.56755	78.95
137.90993	79.55
142.24913	93.65
146.58517	103.35
150.91804	116.55
155.24774	143.25
159.57429	178.95
163.89768	234.25
168.21792	315.95
172.53501	428.15
176.84895	605.95
181.15975	862.15
185.46741	1202.15
189.77193	1676.75
194.07331	2250.95
198.37157	2920.95
202.6667	3625.35
206.9587	4314.35
211.24758	5040.35
215.53334	5758.35
219.81599	6495.45
224.09553	7332.75
228.37195	8293.55
232.64527	9338.05
236.91549	10411.65
241.18261	11440.75
245.44663	12339.75
249.70755	13112.95
253.96539	13752.15
258.22014	14327.95
262.4718	14763.95
266.72039	15112.95
270.96589	15308.15
275.20832	15319.45
279.44768	15189.95
283.68397	14975.75
287.91719	14838.35
292.14735	14808.35
296.37445	14898.15
300.59849	15164.55
304.81948	15515.85
309.03742	15718.35
313.25231	15685.05
317.46415	15331.05
321.67296	14742.65
325.87872	14205.95
330.08145	13930.45
334.28114	13912.45
338.47781	14043.85
342.67145	14302.15
346.86207	14642.45
351.04966	15080.25
355.23424	15520.25
359.4158	15923.85
363.59435	16134.85
367.76989	16264.95
371.94243	16299.85
376.11196	16292.65
380.27849	16295.25
384.44203	16265.45
388.60257	16306.75
392.76012	16357.15
396.91468	16505.55
401.06626	16783.25
405.21485	16969.95
409.36047	16763.15
413.50311	16249.35
417.64277	15792.55
421.77947	15514.85
425.9132	15401.45
430.04396	15415.25
434.17176	15525.55
438.2966	15627.15
442.41849	15800.35
446.53742	16108.25
450.6534	16394.75
454.76644	16605.85
458.87653	16684.35
462.98368	16653.05
467.08789	16561.05
471.18916	16382.05
475.2875	16176.05
479.38291	15963.15
483.4754	15809.95
487.56496	15670.25
491.6516	15596.55
495.73531	15572.75
499.81612	15598.05
503.89401	15678.15
507.96899	15791.35
512.04106	15836.35
516.11023	15941.75
520.1765	16040.45
524.23987	15977.55
528.30034	15913.35
532.35792	15824.35
536.41261	15659.55
540.46441	15521.85
544.51333	15421.55
548.55936	15568.05
552.60252	15829.05
556.64279	16085.85
560.6802	16213.35
564.71473	16264.05
568.7464	16462.15
572.7752	16711.15
576.80114	16714.25
580.82422	16684.35
584.84444	16777.85
588.86181	16830.15
592.87633	16849.05
596.888	16915.45
600.89682	17201.25
604.9028	18334.15
608.90594	21387.25
612.90624	25082.65
616.90371	23944.35
620.89834	18835.05
624.89015	16337.15
628.87913	15963.25
632.86528	16181.15
636.84862	16487.85
640.82913	16355.95
644.80683	15837.05
648.78172	15461.25
652.75379	15404.75
656.72306	15713.25
660.68952	16167.75
664.65319	16095.05
668.61405	15611.05
672.57211	15444.15
676.52738	15514.55
680.47986	15487.25
684.42955	15338.35
688.37646	15242.45
692.32058	15238.05
696.26192	15406.65
700.20048	15563.45
704.13626	15684.75
708.06928	15669.45
711.99952	15576.35
715.927	15542.75
719.85171	15597.25
723.77365	15609.95
727.69284	15546.85
731.60928	15410.75
735.52295	15386.25
739.43388	15390.85
743.34206	15423.85
747.24749	15440.55
751.15017	15495.95
755.05012	15668.65
758.94733	16140.65
762.8418	17266.25
766.73354	19274.15
770.62254	21278.25
774.50882	22062.85
778.39237	21116.45
782.27321	19214.95
786.15132	17351.65
790.02671	16220.15
793.89938	15667.25
797.76935	15403.35
801.6366	15256.55
805.50115	15196.15
809.36299	15143.75
813.22213	15102.65
817.07857	15044.55
820.93231	15041.15
824.78336	15020.65
828.63172	15038.85
832.47738	15030.85
836.32036	14959.45
840.16066	14955.95
843.99827	14938.55
847.8332	14915.25
851.66546	14909.75
855.49504	14963.05
859.32195	14994.55
863.1462	14956.65
866.96777	14978.85
870.78668	14946.45
874.60293	14976.75
878.41652	15014.25
882.22745	15068.65
886.03573	15139.55
889.84136	15141.95
893.64433	15099.65
897.44466	15034.35
901.24235	15008.45
905.0374	14933.15
908.8298	14858.25
912.61957	14840.75
916.40671	14841.95
920.19121	14936.85
923.97308	15031.15
927.75233	15117.35
931.52895	15115.95
935.30295	14997.55
939.07433	14740.45
942.84309	14514.35
946.60924	14391.75
950.37278	14315.45
954.13371	14273.65
957.89203	14264.05
961.64774	14286.15
965.40086	14248.25
969.15137	14225.15
972.89929	14211.15
976.64461	14165.75
980.38733	14192.25
984.12747	14189.85
987.86502	14224.45
991.59999	14325.35
995.33237	14379.65
999.06217	14515.65
1002.78939	14709.55
1006.51404	14940.95
1010.23611	15200.85
1013.95561	15292.65
1017.67255	15305.95
1021.38692	15182.25
1025.09872	15025.25
1028.80796	14878.35
1032.51465	14802.55
1036.21877	14827.55
1039.92035	14921.15
1043.61937	14963.45
1047.31584	15048.85
1051.00976	15100.65
1054.70114	15132.35
1058.38998	15140.95
1062.07627	15211.45
1065.76003	15339.65
1069.44126	15466.95
1073.11995	15676.45
1076.79611	15921.45
1080.46974	16158.05
1084.14085	16341.75
1087.80943	16554.55
1091.47549	16657.65
1095.13903	16542.05
1098.80005	16287.25
1102.45857	16024.15
1106.11456	15880.55
1109.76805	15844.85
1113.41903	15977.85
1117.06751	16216.85
1120.71348	16582.55
1124.35696	16984.65
1127.99793	17337.65
1131.63641	17332.65
1135.2724	16916.55
1138.90589	16576.65
1142.5369	16290.95
1146.16542	16061.85
1149.79145	15944.05
1153.415	15862.05
1157.03607	15892.45
1160.65467	16149.35
1164.27079	16572.15
1167.88443	17200.45
1171.49561	18162.35
1175.10432	19581.05
1178.71056	21415.85
1182.31434	23079.35
1185.91565	23751.65
1189.51451	23462.65
1193.11091	22771.85
1196.70485	21718.75
1200.29634	20720.75
1203.88538	19857.45
1207.47197	18938.45
1211.05612	18071.45
1214.63782	17514.45
1218.21708	17155.55
1221.79391	17021.25
1225.36829	16935.95
1228.94024	16902.65
1232.50976	16809.75
1236.07685	16790.35
1239.6415	16757.05
1243.20374	16789.15
1246.76355	16877.45
1250.32093	16950.35
1253.8759	17194.15
1257.42845	17534.45
1260.97859	17964.75
1264.52631	18450.35
1268.07163	18950.55
1271.61453	19326.55
1275.15503	19632.15
1278.69312	19841.05
1282.22882	20003.05
1285.76211	20327.45
1289.29301	20793.55
1292.82151	21325.05
1296.34761	21948.65
1299.87133	22829.85
1303.39266	24220.95
1306.9116	26068.35
1310.42815	28025.45
1313.94233	28862.25
1317.45412	28180.25
1320.96354	26818.15
1324.47058	25474.85
1327.97525	24289.45
1331.47754	23400.65
1334.97747	23085.45
1338.47502	23182.05
1341.97022	23678.15
1345.46305	24605.75
1348.95352	25850.05
1352.44163	27289.65
1355.92738	29094.95
1359.41078	31691.35
1362.89183	34086.45
1366.37053	33260.35
1369.84688	29205.85
1373.32088	25028.35
1376.79254	22336.55
1380.26186	20902.25
1383.72883	20206.15
1387.19347	19631.55
1390.65578	19070.85
1394.11575	18579.25
1397.57339	18186.05
1401.0287	17948.55
1404.48168	17866.15
1407.93234	17832.85
1411.38068	17797.35
1414.82669	17745.75
1418.27039	17583.75
1421.71177	17383.85
1425.15083	17109.45
1428.58758	16936.65
1432.02203	16988.85
1435.45416	17134.15
1438.88399	17268.05
1442.31151	17332.45
1445.73673	17471.55
1449.15965	17558.85
1452.58027	17598.15
1455.9986	17555.65
1459.41463	17625.35
1462.82837	17882.45
1466.23982	18278.25
1469.64898	18703.55
1473.05586	19025.85
1476.46045	19319.05
1479.86276	19542.35
1483.26279	19769.95
1486.66054	20127.05
1490.05602	20716.85
1493.44922	21628.35
1496.84016	23022.65
1500.22882	25138.45
1503.61521	27978.95
1506.99934	30814.85
1510.38121	32618.05
1513.76081	32372.65
1517.13816	30034.25
1520.51324	26790.45
1523.88607	24088.55
1527.25665	22411.65
1530.62498	21512.75
1533.99105	20927.55
1537.35488	20503.35
1540.71647	20110.05
1544.07581	19715.65
1547.4329	19360.95
1550.78776	19200.85
1554.14038	19084.35
1557.49077	19175.85
1560.83892	19467.75
1564.18484	19890.25
1567.52853	20514.05
1570.86999	20978.45
1574.20922	21303.25
1577.54624	21161.05
1580.88103	20310.65
1584.2136	19161.75
1587.54395	18513.05
1590.87208	18492.35
1594.19801	19070.85
1597.52172	19950.55
1600.84321	20357.05
1604.16251	19921.05
1607.47959	19193.95
1610.79447	18441.95
1614.10715	17545.85
1617.41763	16667.45
1620.7259	15972.75
1624.03199	15595.35
1627.33587	15526.15
1630.63757	15675.05
1633.93707	16172.65
1637.23439	17114.85
1640.52951	18691.65
1643.82246	20890.75
1647.11321	23368.65
1650.40179	24836.15
1653.68819	24107.35
1656.97241	21483.95
1660.25446	18647.85
1663.53433	16509.55
1666.81203	15265.35
1670.08756	14504.05
1673.36092	13992.55
1676.63211	13651.25
1679.90115	13430.55
1683.16801	13265.55
1686.43272	13125.35
1689.69527	13026.25
1692.95567	12965.55
1696.2139	12896.95
1699.46999	12833.35
1702.72392	12780.35
1705.97571	12764.75
1709.22535	12733.45
1712.47284	12751.35
1715.71819	12717.35
1718.96139	12663.15
1722.20246	12650.85
1725.44139	12586.65
1728.67818	12496.25
1731.91284	12437.95
1735.14537	12372.05
1738.37576	12315.65
1741.60403	12283.05
1744.83017	12240.65
1748.05418	12215.65
1751.27607	12146.75
1754.49584	12133.35
1757.71349	12117.25
1760.92903	12108.35
1764.14244	12093.05
1767.35375	12093.45
1770.56294	12030.85
1773.77002	11997.95
1776.97499	11970.85
1780.17785	11939.75
1783.37861	11926.85
1786.57727	11862.55
1789.77382	11862.25
1792.96828	11883.05
1796.16064	11815.95
1799.3509	11811.85
1802.53907	11752.65
1805.72514	11740.55
1808.90913	11693.65
1812.09102	11661.25
1815.27083	11640.35
1818.44856	11623.15
1821.6242	11606.65
1824.79776	11576.85
1827.96924	11562.45
1831.13864	11526.65
1834.30597	11494.55
1837.47122	11502.35
1840.6344	11499.55
1843.7955	11465.15
1846.95454	11431.95
1850.11151	11416.45
1853.26642	11430.55
1856.41926	11407.75
1859.57004	11413.75
1862.71876	11382.35
1865.86542	11401.65
1869.01003	11370.35
1872.15258	11346.55
1875.29308	11328.95
1878.43152	11328.25
1881.56792	11308.05
1884.70227	11325.25
1887.83457	11318.05
1890.96482	11289.65
1894.09304	11249.25
1897.21921	11239.35
1900.34335	11217.05
1903.46544	11223.95
1906.58551	11225.35
1909.70353	11199.45
1912.81953	11159.95
1915.93349	11161.25
1919.04543	11117.55
1922.15534	11091.75
1925.26322	11065.05
1928.36908	11038.25
1931.47292	11014.65
1934.57473	10989.25
1937.67453	10977.75
1940.77232	10968.55
1943.86808	10927.05
1946.96184	10899.45
1950.05358	10845.75
1953.14331	10795.65
1956.23103	10756.55
1959.31675	10740.85
1962.40046	10712.55
1965.48217	10674.05
1968.56188	10643.65
1971.63959	10635.15
1974.7153	10607.25
1977.78901	10605.45
1980.86073	10524.65
1983.93046	10514.85
1986.99819	10448.35
1990.06394	10417.25
1993.1277	10402.85
1996.18947	10368.35
1999.24925	10331.35
2002.30706	10298.75
2005.36288	10251.35
2008.41672	10199.15
2011.46859	10182.65
2014.51848	10138.85
2017.56639	10129.25
2020.61233	10079.75
2023.6563	10083.15
2026.6983	10020.45
2029.73833	10008.15
2032.7764	9958.45
2035.8125	9938.95
2038.84664	9931.05
2041.87881	9911.75
2044.90903	9886.25
2047.93729	9876.75
2050.96359	9845.65
2053.98794	9820.05
2057.01034	9797.25
2060.03078	9782.55
2063.04927	9747.35
2066.06582	9751.05
2069.08042	9773.35
2072.09307	9791.05
2075.10378	9755.05
2078.11255	9751.25
2081.11938	9769.25
2084.12426	9741.65
2087.12722	9719.85
2090.12824	9743.95
2093.12732	9728.15
2096.12447	9747.55
2099.11969	9746.15
2102.11299	9745.75
2105.10435	9750.55
2108.09379	9730.55
2111.08131	9757.35
2114.0669	9759.75
2117.05057	9770.45
2120.03233	9776.25
2123.01216	9756.05
2125.99008	9814.55
2128.96609	9804.65
2131.94018	9795.15
2134.91236	9787.75
2137.88263	9785.85
2140.851	9790.55
2143.81746	9822.35
2146.78201	9787.45
2149.74466	9774.35
2152.7054	9749.15
2155.66425	9759.05
2158.6212	9774.25
2161.57625	9735.75
2164.52941	9737.05
2167.48067	9721.25
2170.43004	9734.85
2173.37752	9737.65
2176.32311	9727.45
2179.26681	9711.15
2182.20863	9710.55
2185.14856	9713.45
2188.08661	9699.35
2191.02278	9700.85
2193.95707	9683.25
2196.88948	9694.15
2199.82001	9687.45
2202.74867	9661.45
2205.67545	9653.55
2208.60037	9647.05
2211.52341	9623.45
2214.44458	9611.95
2217.36388	9576.65
2220.28132	9586.05
2223.1969	9541.35
2226.11061	9501.05
2229.02246	9488.95
2231.93245	9457.75
2234.84058	9439.75
2237.74686	9440.95
2240.65128	9433.65
2243.55385	9433.95
2246.45456	9423.85
2249.35343	9389.95
2252.25044	9382.45
2255.14561	9376.55
2258.03893	9408.25
2260.93041	9355.15
2263.82004	9329.75
2266.70783	9330.05
2269.59378	9292.95
2272.4779	9270.95
2275.36017	9275.05
2278.24061	9218.45
2281.11922	9224.05
2283.996	9220.75
2286.87094	9183.25
2289.74405	9165.35
2292.61534	9126.15
2295.4848	9145.05
2298.35243	9092.75
2301.21824	9107.35
2304.08223	9088.55
2306.94439	9108.85
2309.80474	9082.95
2312.66327	9071.15
2315.51999	9060.75
2318.37489	9062.15
2321.22797	9027.65
2324.07925	9023.75
2326.92871	9001.95
2329.77637	9003.25
2332.62222	8978.05
2335.46626	8940.95
2338.3085	8943.75
2341.14893	8951.35
2343.98756	8947.85
2346.8244	8948.75
2349.65943	8954.05
2352.49267	8930.95
2355.32411	8940.95
2358.15376	8935.45
2360.98161	8922.75
2363.80768	8951.85
2366.63195	8955.15
2369.45444	8954.55
2372.27514	8931.55
2375.09405	8918.15
2377.91118	8887.75
2380.72652	8893.65
2383.54009	8853.05
2386.35187	8853.15
2389.16188	8813.05
2391.97011	8787.05
2394.77657	8740.95
2397.58125	8722.55
2400.38416	8712.35
2403.18529	8703.55
2405.98466	8682.05
2408.78226	8667.15
2411.57809	8648.45
2414.37216	8645.75
2417.16446	8641.45
2419.955	8644.05
2422.74378	8609.65
2425.5308	8591.25
2428.31606	8598.55
2431.09956	8591.95
2433.88131	8592.65
2436.6613	8589.15
2439.43954	8549.25
2442.21603	8560.55
2444.99077	8529.75
2447.76377	8546.25
2450.53501	8549.85
2453.30451	8556.55
2456.07226	8522.45
2458.83827	8533.95
2461.60254	8530.15
2464.36507	8526.95
2467.12586	8515.75
2469.88492	8509.15
2472.64224	8499.95
2475.39782	8505.95
2478.15167	8511.05
2480.90379	8523.35
2483.65417	8531.65
2486.40283	8533.85
2489.14976	8546.65
2491.89497	8529.15
2494.63845	8522.95
2497.3802	8496.95
2500.12024	8506.85
2502.85855	8475.55
2505.59514	8466.95
2508.33002	8443.75
2511.06318	8401.85
2513.79462	8396.75
2516.52435	8381.55
2519.25237	8385.85
2521.97867	8357.15
2524.70327	8342.45
2527.42616	8329.35
2530.14734	8331.95
2532.86681	8315.15
2535.58458	8310.85
2538.30065	8265.35
2541.01501	8277.55
2543.72768	8251.15
2546.43864	8253.15
2549.14791	8249.25
2551.85548	8240.75
2554.56136	8218.55
2557.26554	8183.35
2559.96803	8177.25
2562.66883	8177.15
2565.36794	8154.65
2568.06536	8155.45
2570.7611	8133.15
2573.45514	8094.75
2576.14751	8089.65
2578.83819	8080.35
2581.52719	8083.05
2584.21451	8047.65
2586.90015	8060.85
2589.58411	8037.55
2592.2664	8048.25
2594.94701	8025.55
2597.62594	8004.95
2600.30321	7978.65
2602.9788	7992.25
2605.65273	7962.75
2608.32498	7971.35
2610.99557	7935.55
2613.66449	7924.75
2616.33175	7928.35
2618.99734	7931.65
2621.66128	7906.55
2624.32355	7897.95
2626.98416	7878.75
2629.64311	7862.05
2632.30041	7857.75
2634.95605	7844.75
2637.61004	7835.85
2640.26238	7828.15
2642.91306	7836.85
2645.56209	7829.25
2648.20948	7828.95
2650.85521	7831.05
2653.4993	7821.15
2656.14175	7827.35
2658.78255	7816.55
2661.42171	7810.95
2664.05923	7815.25
2666.6951	7817.55
2669.32934	7840.15
2671.96194	7831.15
2674.59291	7847.55
2677.22224	7815.95
2679.84993	7809.45
2682.476	7800.05
2685.10043	7783.55
2687.72324	7794.05
2690.34441	7789.05
2692.96396	7791.75
2695.58188	7811.45
2698.19818	7790.95
2700.81285	7777.85
2703.4259	7792.95
2706.03733	7780.15
2708.64714	7776.65
2711.25533	7784.75
2713.86191	7787.35
2716.46687	7804.55
2719.07021	7804.25
2721.67194	7785.15
2724.27206	7809.75
2726.87057	7772.45
2729.46747	7788.55
2732.06276	7807.65
2734.65644	7755.85
2737.24852	7753.05
2739.83899	7758.55
2742.42786	7744.05
2745.01513	7712.75
2747.60079	7706.25
2750.18486	7693.35
2752.76733	7692.05
2755.3482	7674.95
2757.92747	7683.05
2760.50515	7654.65
2763.08123	7651.35
2765.65573	7637.25
2768.22863	7632.45
2770.79994	7644.35
2773.36967	7625.45
2775.9378	7643.45
2778.50435	7596.85
2781.06932	7595.25
2783.6327	7577.15
2786.1945	7593.65
2788.75471	7586.65
2791.31335	7559.25
2793.87041	7549.95
2796.42589	7528.15
2798.97979	7513.65
2801.53212	7516.05
2804.08288	7495.95
2806.63206	7485.45
2809.17967	7492.05
2811.72571	7478.95
2814.27018	7454.95
2816.81308	7439.55
2819.35442	7435.35
2821.89419	7424.75
2824.43239	7415.85
2826.96904	7408.15
2829.50412	7406.75
2832.03763	7386.55
2834.56959	7391.95
2837.1	7369.25
2839.62884	7378.45
2842.15613	7385.65
2844.68186	7388.85
2847.20604	7394.05
2849.72867	7393.95
2852.24974	7400.15
2854.76927	7392.15
2857.28724	7362.65
2859.80367	7383.45
2862.31855	7366.15
2864.83189	7359.55
2867.34368	7359.55
2869.85393	7359.35
2872.36264	7337.15
2874.8698	7351.45
2877.37543	7346.55
2879.87952	7340.75
2882.38207	7347.65
2884.88308	7321.75
2887.38256	7312.05
2889.88051	7310.25
2892.37692	7312.55
2894.8718	7304.75
2897.36515	7304.55
2899.85698	7315.35
2902.34727	7317.05
2904.83604	7319.05
2907.32328	7326.05
2909.809	7335.95
2912.29319	7322.85
2914.77587	7323.25
2917.25702	7351.55
2919.73665	7321.55
2922.21476	7322.15
2924.69136	7305.95
2927.16644	7301.55
2929.64	7291.45
2932.11205	7290.25
2934.58258	7264.85
2937.05161	7240.55
2939.51912	7232.45
2941.98513	7209.45
2944.44962	7183.45
2946.91261	7171.05
2949.37409	7168.95
2951.83407	7193.25
2954.29254	7180.95
2956.74951	7177.95
2959.20498	7203.45
2961.65895	7193.25
2964.11142	7168.65
2966.56239	7148.95
2969.01186	7148.45
2971.45984	7153.05
2973.90632	7124.45
2976.35131	7126.55
2978.7948	7105.75
2981.23681	7092.25
2983.67732	7078.25
2986.11635	7076.45
2988.55388	7062.75
2990.98993	7025.35
2993.4245	7008.75
2995.85758	7024.25
2998.28917	7019.95
3000.71928	6982.75
3003.14791	6975.35
3005.57506	6969.45
3008.00073	6970.65
3010.42493	6942.15
3012.84764	6961.95
3015.26888	6936.05
3017.68865	6910.05
3020.10694	6949.65
3022.52376	6903.25
3024.9391	6887.85
3027.35298	6860.35
3029.76539	6853.45
3032.17632	6847.85
3034.5858	6833.15
3036.9938	6828.65
3039.40034	6828.15
3041.80542	6824.45
3044.20903	6800.95
3046.61118	6774.85
3049.01187	6768.65
3051.4111	6778.05
3053.80888	6758.75
3056.20519	6759.05
3058.60005	6733.95
3060.99345	6740.85
3063.3854	6695.75
3065.7759	6698.75
3068.16494	6710.65
3070.55254	6679.15
3072.93868	6677.15
3075.32338	6660.25
3077.70662	6637.05
3080.08842	6623.05
3082.46878	6609.55
3084.84769	6615.25
3087.22515	6625.15
3089.60118	6637.65
3091.97576	6618.85
3094.3489	6615.05
3096.72061	6584.05
3099.09087	6598.75
3101.4597	6594.75
3103.82709	6605.65
3106.19305	6576.75
3108.55757	6584.35
3110.92066	6582.45
3113.28232	6553.75
3115.64255	6561.45
3118.00134	6561.35
3120.35871	6525.15
3122.71466	6530.05
3125.06917	6505.85
3127.42226	6494.95
3129.77393	6508.05
3132.12417	6475.15
3134.47299	6500.25
3136.82039	6489.35
3139.16636	6486.65
3141.51092	6496.05
3143.85406	6480.85
3146.19579	6479.45
3148.53609	6501.55
3150.87499	6493.55
3153.21246	6498.25
3155.54853	6511.45
3157.88318	6512.65
3160.21642	6512.45
3162.54826	6513.75
3164.87868	6510.25
3167.2077	6504.85
3169.5353	6498.35
3171.86151	6505.05
3174.18631	6485.35
3176.5097	6499.15
3178.83169	6469.15
3181.15228	6476.85
3183.47147	6454.75
3185.78926	6457.55
3188.10565	6464.55
3190.42065	6440.45
3192.73424	6444.45
3195.04645	6442.05
3197.35725	6452.15
3199.66667	6433.45
3201.97469	6464.65
3204.28132	6448.15
3206.58656	6459.95
3208.8904	6475.75
3211.19287	6461.65
3213.49394	6482.85
3215.79363	6474.65
3218.09193	6473.95
3220.38884	6479.15
3222.68438	6481.45
3224.97853	6480.85
3227.2713	6474.05
3229.56269	6473.75
3231.8527	6472.95
3234.14133	6455.85
3236.42858	6428.75
3238.71446	6423.75
3240.99896	6408.15
3243.28209	6415.55
3245.56384	6393.15
3247.84423	6401.25
3250.12324	6383.35
3252.40088	6374.55
3254.67715	6377.55
3256.95205	6373.25
3259.22558	6383.15
3261.49775	6376.85
3263.76855	6362.85
3266.03799	6336.15
3268.30606	6360.65
3270.57277	6321.45
3272.83812	6320.85
3275.10211	6294.55
3277.36474	6308.15
3279.62601	6283.15
3281.88593	6287.15
3284.14448	6295.75
3286.40168	6297.85
3288.65753	6281.35
3290.91202	6302.75
3293.16516	6280.65
3295.41695	6266.05
3297.66738	6236.15
3299.91647	6207.55
3302.16421	6155.35
3304.4106	6148.45
3306.65564	6126.25
3308.89933	6096.05
3311.14169	6051.65
3313.38269	6005.45
3315.62236	5977.45
3317.86068	5922.75
3320.09766	5880.75
3322.3333	5820.45
3324.5676	5822.65
3326.80056	5738.55
3329.03219	5719.25
3331.26248	3.45
3333.49143	-0.25
3335.71905	0.45
