Data from AgNP_FTO_APTES_UA_100uM_CRN_100uM_R6G_10uM_NaF_0.1M_Addition_RamanShift__9__17-58-00-574.txt Node

Date: Thu Mar 24 17:58:00 GMT 2022
User: TCL
Spectrometer: QEP01345
Trigger mode: 4
Integration Time (sec): 7.000000E0
Scans to average: 10
Electric dark correction enabled: true
Nonlinearity correction enabled: false
Boxcar width: 0
XAxis mode: Raman Shifts
Number of Pixels in Spectrum: 1044
>>>>>Begin Spectral Data<<<<<
46.04893	-1.75
50.45542	1.05
54.85868	-0.05
59.25871	-0.05
63.6555	32.95
68.04907	35.05
72.43941	32.65
76.82654	36.85
81.21044	39.95
85.59113	37.75
89.96862	43.85
94.34289	42.65
98.71396	45.65
103.08183	44.05
107.4465	46.35
111.80798	48.15
116.16626	46.35
120.52136	49.35
124.87327	45.65
129.222	50.35
133.56755	55.35
137.90993	55.05
142.24913	61.35
146.58517	69.15
150.91804	77.65
155.24774	92.65
159.57429	113.95
163.89768	141.05
168.21792	187.25
172.53501	253.95
176.84895	354.45
181.15975	496.45
185.46741	691.85
189.77193	959.85
194.07331	1284.45
198.37157	1656.95
202.6667	2065.75
206.9587	2451.45
211.24758	2846.85
215.53334	3261.25
219.81599	3707.25
224.09553	4193.55
228.37195	4721.95
232.64527	5333.05
236.91549	5942.25
241.18261	6523.85
245.44663	7022.25
249.70755	7452.65
253.96539	7793.25
258.22014	8087.75
262.4718	8351.05
266.72039	8533.85
270.96589	8601.05
275.20832	8588.65
279.44768	8526.75
283.68397	8424.55
287.91719	8335.35
292.14735	8299.15
296.37445	8365.05
300.59849	8532.05
304.81948	8711.25
309.03742	8867.45
313.25231	8861.25
317.46415	8683.05
321.67296	8300.65
325.87872	7997.35
330.08145	7808.25
334.28114	7812.95
338.47781	7873.55
342.67145	8012.55
346.86207	8195.15
351.04966	8452.85
355.23424	8720.35
359.4158	8914.45
363.59435	9016.15
367.76989	9043.65
371.94243	9046.55
376.11196	9043.35
380.27849	9033.65
384.44203	9007.45
388.60257	9016.15
392.76012	9050.65
396.91468	9156.35
401.06626	9307.95
405.21485	9413.25
409.36047	9326.65
413.50311	9022.75
417.64277	8744.85
421.77947	8580.95
425.9132	8568.95
430.04396	8582.75
434.17176	8606.75
438.2966	8696.35
442.41849	8838.65
446.53742	9037.75
450.6534	9266.85
454.76644	9380.75
458.87653	9370.55
462.98368	9326.55
467.08789	9253.75
471.18916	9128.75
475.2875	9021.15
479.38291	8913.85
483.4754	8810.65
487.56496	8718.85
491.6516	8649.15
495.73531	8636.35
499.81612	8610.05
503.89401	8642.85
507.96899	8715.35
512.04106	8731.05
516.11023	8738.05
520.1765	8740.85
524.23987	8715.65
528.30034	8653.95
532.35792	8626.45
536.41261	8545.75
540.46441	8432.25
544.51333	8383.65
548.55936	8424.95
552.60252	8596.25
556.64279	8765.15
560.6802	8876.95
564.71473	8948.75
568.7464	9120.05
572.7752	9342.85
576.80114	9423.05
580.82422	9517.75
584.84444	9676.75
588.86181	9842.95
592.87633	10039.35
596.888	10154.15
600.89682	10143.05
604.9028	10541.05
608.90594	12056.35
612.90624	14075.35
616.90371	13299.55
620.89834	10300.25
624.89015	8844.25
628.87913	8648.15
632.86528	8813.05
636.84862	8982.75
640.82913	8905.15
644.80683	8584.15
648.78172	8308.15
652.75379	8232.85
656.72306	8394.45
660.68952	8640.95
664.65319	8556.95
668.61405	8261.95
672.57211	8145.05
676.52738	8145.85
680.47986	8164.85
684.42955	8080.65
688.37646	8041.35
692.32058	8024.95
696.26192	8103.25
700.20048	8200.75
704.13626	8278.75
708.06928	8280.15
711.99952	8246.65
715.927	8238.75
719.85171	8255.75
723.77365	8255.85
727.69284	8231.35
731.60928	8166.65
735.52295	8179.35
739.43388	8172.55
743.34206	8189.95
747.24749	8199.85
751.15017	8233.95
755.05012	8339.75
758.94733	8621.95
762.8418	9334.45
766.73354	10549.55
770.62254	11683.75
774.50882	12011.25
778.39237	11462.15
782.27321	10282.85
786.15132	9194.55
790.02671	8525.15
793.89938	8185.85
797.76935	8021.15
801.6366	7960.95
805.50115	7904.05
809.36299	7903.15
813.22213	7878.95
817.07857	7853.95
820.93231	7805.75
824.78336	7825.55
828.63172	7802.45
832.47738	7797.35
836.32036	7780.25
840.16066	7753.55
843.99827	7739.75
847.8332	7723.45
851.66546	7727.55
855.49504	7709.95
859.32195	7734.45
863.1462	7682.45
866.96777	7682.55
870.78668	7691.05
874.60293	7708.45
878.41652	7711.25
882.22745	7771.75
886.03573	7792.95
889.84136	7823.85
893.64433	7789.95
897.44466	7728.95
901.24235	7720.25
905.0374	7663.75
908.8298	7625.35
912.61957	7597.15
916.40671	7608.75
920.19121	7687.75
923.97308	7741.35
927.75233	7791.55
931.52895	7787.55
935.30295	7674.75
939.07433	7511.95
942.84309	7366.35
946.60924	7269.25
950.37278	7252.05
954.13371	7224.25
957.89203	7220.95
961.64774	7198.85
965.40086	7186.55
969.15137	7179.05
972.89929	7139.75
976.64461	7111.75
980.38733	7103.55
984.12747	7130.15
987.86502	7128.95
991.59999	7169.15
995.33237	7232.75
999.06217	7321.25
1002.78939	7468.65
1006.51404	7615.05
1010.23611	7774.85
1013.95561	7847.25
1017.67255	7802.45
1021.38692	7725.15
1025.09872	7601.45
1028.80796	7455.95
1032.51465	7403.75
1036.21877	7435.35
1039.92035	7482.25
1043.61937	7511.75
1047.31584	7546.25
1051.00976	7596.75
1054.70114	7629.95
1058.38998	7633.55
1062.07627	7677.25
1065.76003	7769.25
1069.44126	7842.55
1073.11995	7982.85
1076.79611	8136.95
1080.46974	8209.55
1084.14085	8325.85
1087.80943	8464.75
1091.47549	8525.85
1095.13903	8476.45
1098.80005	8286.55
1102.45857	8062.15
1106.11456	7950.85
1109.76805	7887.75
1113.41903	7989.95
1117.06751	8178.95
1120.71348	8416.05
1124.35696	8685.75
1127.99793	8922.95
1131.63641	8922.75
1135.2724	8688.65
1138.90589	8482.15
1142.5369	8313.95
1146.16542	8198.95
1149.79145	8156.35
1153.415	8134.55
1157.03607	8186.35
1160.65467	8316.65
1164.27079	8621.65
1167.88443	9077.85
1171.49561	9734.45
1175.10432	10688.75
1178.71056	11903.35
1182.31434	12927.65
1185.91565	13238.85
1189.51451	12946.25
1193.11091	12373.65
1196.70485	11689.45
1200.29634	11059.65
1203.88538	10527.85
1207.47197	9989.95
1211.05612	9529.85
1214.63782	9244.95
1218.21708	9067.25
1221.79391	9025.85
1225.36829	8989.45
1228.94024	8968.75
1232.50976	8869.95
1236.07685	8740.25
1239.6415	8705.55
1243.20374	8708.55
1246.76355	8719.65
1250.32093	8785.35
1253.8759	8889.25
1257.42845	9097.45
1260.97859	9407.05
1264.52631	9715.55
1268.07163	9988.65
1271.61453	10275.75
1275.15503	10511.05
1278.69312	10671.05
1282.22882	10893.05
1285.76211	11234.05
1289.29301	11660.75
1292.82151	12114.95
1296.34761	12659.35
1299.87133	13329.85
1303.39266	14317.85
1306.9116	15575.25
1310.42815	16760.25
1313.94233	17370.15
1317.45412	16951.35
1320.96354	16118.35
1324.47058	15192.45
1327.97525	14400.65
1331.47754	13804.15
1334.97747	13491.65
1338.47502	13408.85
1341.97022	13542.65
1345.46305	13845.15
1348.95352	14363.15
1352.44163	15083.25
1355.92738	16202.35
1359.41078	17874.15
1362.89183	19456.15
1366.37053	19149.95
1369.84688	16780.65
1373.32088	14188.35
1376.79254	12566.45
1380.26186	11739.65
1383.72883	11305.35
1387.19347	10928.85
1390.65578	10606.15
1394.11575	10388.75
1397.57339	10295.25
1401.0287	10290.95
1404.48168	10318.85
1407.93234	10244.35
1411.38068	10109.25
1414.82669	9934.25
1418.27039	9718.75
1421.71177	9472.45
1425.15083	9197.95
1428.58758	9064.15
1432.02203	9083.55
1435.45416	9230.15
1438.88399	9340.85
1442.31151	9443.65
1445.73673	9535.35
1449.15965	9627.15
1452.58027	9689.05
1455.9986	9677.55
1459.41463	9707.35
1462.82837	9875.25
1466.23982	10139.15
1469.64898	10451.75
1473.05586	10710.45
1476.46045	10853.55
1479.86276	10997.35
1483.26279	11153.15
1486.66054	11359.55
1490.05602	11699.25
1493.44922	12261.45
1496.84016	13030.85
1500.22882	14167.45
1503.61521	15667.45
1506.99934	17237.25
1510.38121	18264.85
1513.76081	18087.45
1517.13816	16767.15
1520.51324	14981.95
1523.88607	13410.05
1527.25665	12473.15
1530.62498	11925.15
1533.99105	11602.15
1537.35488	11292.45
1540.71647	10980.05
1544.07581	10691.85
1547.4329	10461.35
1550.78776	10241.45
1554.14038	10152.85
1557.49077	10127.35
1560.83892	10287.85
1564.18484	10561.75
1567.52853	10908.55
1570.86999	11230.95
1574.20922	11464.15
1577.54624	11463.35
1580.88103	11006.35
1584.2136	10430.85
1587.54395	10148.95
1590.87208	10287.65
1594.19801	10777.35
1597.52172	11401.15
1600.84321	11629.85
1604.16251	11207.85
1607.47959	10537.55
1610.79447	9820.85
1614.10715	9167.75
1617.41763	8603.95
1620.7259	8177.85
1624.03199	7939.25
1627.33587	7929.85
1630.63757	8085.05
1633.93707	8480.85
1637.23439	9252.85
1640.52951	10503.25
1643.82246	12179.65
1647.11321	13968.95
1650.40179	14926.65
1653.68819	14307.65
1656.97241	12420.05
1660.25446	10384.75
1663.53433	8839.15
1666.81203	7893.25
1670.08756	7324.55
1673.36092	6993.85
1676.63211	6783.15
1679.90115	6647.65
1683.16801	6518.95
1686.43272	6424.65
1689.69527	6339.05
1692.95567	6267.85
1696.2139	6212.35
1699.46999	6182.05
1702.72392	6150.45
1705.97571	6123.55
1709.22535	6108.35
1712.47284	6078.75
1715.71819	6054.65
1718.96139	6006.75
1722.20246	5973.15
1725.44139	5962.95
1728.67818	5900.15
1731.91284	5861.05
1735.14537	5822.35
1738.37576	5790.05
1741.60403	5760.75
1744.83017	5721.65
1748.05418	5709.85
1751.27607	5702.45
1754.49584	5678.95
1757.71349	5652.45
1760.92903	5647.15
1764.14244	5645.15
1767.35375	5632.75
1770.56294	5602.85
1773.77002	5579.25
1776.97499	5558.85
1780.17785	5556.55
1783.37861	5521.35
1786.57727	5503.85
1789.77382	5506.05
1792.96828	5513.75
1796.16064	5475.85
1799.3509	5453.75
1802.53907	5456.55
1805.72514	5431.15
1808.90913	5406.05
1812.09102	5386.55
1815.27083	5403.25
1818.44856	5374.05
1821.6242	5342.75
1824.79776	5340.35
1827.96924	5328.95
1831.13864	5327.85
1834.30597	5319.05
1837.47122	5307.95
1840.6344	5286.45
1843.7955	5275.15
1846.95454	5283.75
1850.11151	5257.45
1853.26642	5249.95
1856.41926	5245.25
1859.57004	5245.45
1862.71876	5235.75
1865.86542	5223.25
1869.01003	5227.25
1872.15258	5209.45
1875.29308	5196.45
1878.43152	5200.25
1881.56792	5199.25
1884.70227	5186.45
1887.83457	5184.05
1890.96482	5174.55
1894.09304	5160.05
1897.21921	5151.75
1900.34335	5142.25
1903.46544	5153.25
1906.58551	5140.15
1909.70353	5127.85
1912.81953	5119.75
1915.93349	5102.75
1919.04543	5097.65
1922.15534	5065.45
1925.26322	5059.95
1928.36908	5047.05
1931.47292	5030.55
1934.57473	5033.05
1937.67453	5012.55
1940.77232	4988.15
1943.86808	4969.85
1946.96184	4954.85
1950.05358	4942.35
1953.14331	4915.85
1956.23103	4886.75
1959.31675	4886.95
1962.40046	4869.85
1965.48217	4846.95
1968.56188	4838.85
1971.63959	4836.45
1974.7153	4818.75
1977.78901	4794.75
1980.86073	4793.75
1983.93046	4781.35
1986.99819	4755.75
1990.06394	4736.05
1993.1277	4708.55
1996.18947	4694.65
1999.24925	4679.35
2002.30706	4657.15
2005.36288	4645.55
2008.41672	4613.55
2011.46859	4604.65
2014.51848	4597.95
2017.56639	4561.55
2020.61233	4567.75
2023.6563	4561.75
2026.6983	4540.55
2029.73833	4522.95
2032.7764	4510.05
2035.8125	4492.95
2038.84664	4480.25
2041.87881	4478.05
2044.90903	4445.85
2047.93729	4458.45
2050.96359	4445.25
2053.98794	4439.95
2057.01034	4421.95
2060.03078	4422.15
2063.04927	4407.95
2066.06582	4389.85
2069.08042	4390.65
2072.09307	4390.75
2075.10378	4384.25
2078.11255	4381.55
2081.11938	4381.45
2084.12426	4379.45
2087.12722	4370.75
2090.12824	4380.15
2093.12732	4372.95
2096.12447	4383.15
2099.11969	4368.55
2102.11299	4373.15
2105.10435	4372.85
2108.09379	4363.75
2111.08131	4378.05
2114.0669	4374.95
2117.05057	4367.55
2120.03233	4375.05
2123.01216	4388.65
2125.99008	4383.25
2128.96609	4373.95
2131.94018	4361.95
2134.91236	4375.55
2137.88263	4372.15
2140.851	4361.75
2143.81746	4366.15
2146.78201	4359.55
2149.74466	4349.85
2152.7054	4368.35
2155.66425	4348.15
2158.6212	4360.65
2161.57625	4323.65
2164.52941	4325.55
2167.48067	4326.65
2170.43004	4327.85
2173.37752	4338.45
2176.32311	4323.15
2179.26681	4304.75
2182.20863	4318.85
2185.14856	4316.95
2188.08661	4318.55
2191.02278	4311.25
2193.95707	4290.65
2196.88948	4297.75
2199.82001	4297.95
2202.74867	4289.65
2205.67545	4279.35
2208.60037	4268.45
2211.52341	4254.95
2214.44458	4239.55
2217.36388	4232.95
2220.28132	4231.25
2223.1969	4217.65
2226.11061	4202.65
2229.02246	4187.35
2231.93245	4178.25
2234.84058	4188.95
2237.74686	4181.05
2240.65128	4175.25
2243.55385	4163.65
2246.45456	4164.45
2249.35343	4168.45
2252.25044	4152.75
2255.14561	4142.75
2258.03893	4144.95
2260.93041	4131.35
2263.82004	4116.95
2266.70783	4106.25
2269.59378	4103.15
2272.4779	4100.95
2275.36017	4082.35
2278.24061	4065.55
2281.11922	4062.25
2283.996	4031.35
2286.87094	4032.45
2289.74405	4032.65
2292.61534	4012.95
2295.4848	4010.65
2298.35243	4023.25
2301.21824	3993.35
2304.08223	3987.65
2306.94439	3988.85
2309.80474	3993.15
2312.66327	3979.95
2315.51999	3974.75
2318.37489	3969.05
2321.22797	3965.25
2324.07925	3952.05
2326.92871	3957.75
2329.77637	3954.85
2332.62222	3940.65
2335.46626	3933.25
2338.3085	3913.75
2341.14893	3926.65
2343.98756	3921.85
2346.8244	3921.65
2349.65943	3920.35
2352.49267	3929.55
2355.32411	3924.75
2358.15376	3933.65
2360.98161	3931.95
2363.80768	3926.45
2366.63195	3946.05
2369.45444	3930.35
2372.27514	3942.05
2375.09405	3928.35
2377.91118	3914.85
2380.72652	3901.55
2383.54009	3870.85
2386.35187	3886.65
2389.16188	3863.65
2391.97011	3855.95
2394.77657	3827.75
2397.58125	3807.65
2400.38416	3824.65
2403.18529	3819.95
2405.98466	3806.55
2408.78226	3784.45
2411.57809	3768.25
2414.37216	3775.65
2417.16446	3766.25
2419.955	3756.55
2422.74378	3761.55
2425.5308	3757.85
2428.31606	3764.55
2431.09956	3755.05
2433.88131	3759.85
2436.6613	3752.75
2439.43954	3728.85
2442.21603	3747.15
2444.99077	3721.05
2447.76377	3744.05
2450.53501	3729.05
2453.30451	3738.15
2456.07226	3735.95
2458.83827	3723.75
2461.60254	3738.85
2464.36507	3732.35
2467.12586	3715.75
2469.88492	3720.25
2472.64224	3736.65
2475.39782	3717.65
2478.15167	3719.45
2480.90379	3722.05
2483.65417	3722.95
2486.40283	3732.65
2489.14976	3743.45
2491.89497	3726.45
2494.63845	3744.05
2497.3802	3731.55
2500.12024	3730.95
2502.85855	3720.35
2505.59514	3700.85
2508.33002	3695.65
2511.06318	3662.85
2513.79462	3659.35
2516.52435	3661.55
2519.25237	3638.95
2521.97867	3636.25
2524.70327	3626.75
2527.42616	3626.45
2530.14734	3629.85
2532.86681	3618.45
2535.58458	3607.25
2538.30065	3608.05
2541.01501	3604.35
2543.72768	3617.05
2546.43864	3588.75
2549.14791	3585.75
2551.85548	3578.25
2554.56136	3590.75
2557.26554	3573.75
2559.96803	3576.85
2562.66883	3571.35
2565.36794	3555.45
2568.06536	3560.55
2570.7611	3543.75
2573.45514	3533.85
2576.14751	3525.15
2578.83819	3531.95
2581.52719	3515.25
2584.21451	3520.05
2586.90015	3528.75
2589.58411	3511.65
2592.2664	3503.95
2594.94701	3501.45
2597.62594	3498.05
2600.30321	3479.35
2602.9788	3495.65
2605.65273	3480.45
2608.32498	3480.35
2610.99557	3468.35
2613.66449	3471.65
2616.33175	3476.75
2618.99734	3471.45
2621.66128	3456.45
2624.32355	3456.35
2626.98416	3455.45
2629.64311	3443.45
2632.30041	3430.45
2634.95605	3425.75
2637.61004	3424.55
2640.26238	3428.55
2642.91306	3426.25
2645.56209	3430.85
2648.20948	3420.15
2650.85521	3426.55
2653.4993	3427.15
2656.14175	3420.05
2658.78255	3420.85
2661.42171	3421.05
2664.05923	3426.65
2666.6951	3425.55
2669.32934	3435.45
2671.96194	3439.75
2674.59291	3421.05
2677.22224	3437.65
2679.84993	3421.65
2682.476	3413.05
2685.10043	3418.65
2687.72324	3400.45
2690.34441	3428.55
2692.96396	3411.45
2695.58188	3419.35
2698.19818	3404.85
2700.81285	3402.15
2703.4259	3393.25
2706.03733	3395.35
2708.64714	3407.35
2711.25533	3411.75
2713.86191	3416.85
2716.46687	3425.75
2719.07021	3423.35
2721.67194	3423.05
2724.27206	3408.75
2726.87057	3421.45
2729.46747	3416.15
2732.06276	3412.95
2734.65644	3413.45
2737.24852	3419.15
2739.83899	3395.25
2742.42786	3391.45
2745.01513	3386.55
2747.60079	3359.05
2750.18486	3386.45
2752.76733	3387.95
2755.3482	3377.65
2757.92747	3366.75
2760.50515	3358.95
2763.08123	3352.05
2765.65573	3344.25
2768.22863	3351.25
2770.79994	3353.35
2773.36967	3355.95
2775.9378	3339.65
2778.50435	3333.15
2781.06932	3343.55
2783.6327	3338.85
2786.1945	3325.55
2788.75471	3334.85
2791.31335	3333.65
2793.87041	3322.05
2796.42589	3302.85
2798.97979	3309.95
2801.53212	3325.65
2804.08288	3303.15
2806.63206	3297.75
2809.17967	3308.15
2811.72571	3293.65
2814.27018	3294.55
2816.81308	3286.85
2819.35442	3275.25
2821.89419	3273.35
2824.43239	3277.95
2826.96904	3267.25
2829.50412	3265.05
2832.03763	3255.45
2834.56959	3275.85
2837.1	3249.55
2839.62884	3265.65
2842.15613	3255.75
2844.68186	3267.55
2847.20604	3272.45
2849.72867	3278.85
2852.24974	3278.35
2854.76927	3279.75
2857.28724	3255.05
2859.80367	3258.65
2862.31855	3275.65
2864.83189	3262.85
2867.34368	3278.45
2869.85393	3267.25
2872.36264	3266.05
2874.8698	3266.45
2877.37543	3269.55
2879.87952	3257.25
2882.38207	3259.15
2884.88308	3253.25
2887.38256	3265.35
2889.88051	3262.85
2892.37692	3236.85
2894.8718	3256.25
2897.36515	3256.25
2899.85698	3261.65
2902.34727	3248.45
2904.83604	3253.45
2907.32328	3261.15
2909.809	3267.85
2912.29319	3264.95
2914.77587	3253.95
2917.25702	3269.15
2919.73665	3244.55
2922.21476	3251.75
2924.69136	3256.05
2927.16644	3262.95
2929.64	3249.85
2932.11205	3232.55
2934.58258	3216.15
2937.05161	3219.65
2939.51912	3218.85
2941.98513	3224.45
2944.44962	3221.55
2946.91261	3203.25
2949.37409	3193.75
2951.83407	3191.85
2954.29254	3193.65
2956.74951	3191.45
2959.20498	3191.65
2961.65895	3175.25
2964.11142	3169.75
2966.56239	3171.05
2969.01186	3162.35
2971.45984	3157.55
2973.90632	3151.55
2976.35131	3140.05
2978.7948	3147.05
2981.23681	3135.25
2983.67732	3125.25
2986.11635	3103.05
2988.55388	3100.95
2990.98993	3102.95
2993.4245	3091.65
2995.85758	3104.75
2998.28917	3086.35
3000.71928	3083.05
3003.14791	3080.15
3005.57506	3078.65
3008.00073	3070.05
3010.42493	3061.55
3012.84764	3067.55
3015.26888	3064.35
3017.68865	3065.15
3020.10694	3066.15
3022.52376	3042.35
3024.9391	3031.95
3027.35298	3039.85
3029.76539	3024.35
3032.17632	3023.65
3034.5858	3017.65
3036.9938	3007.25
3039.40034	3007.75
3041.80542	3007.65
3044.20903	2997.15
3046.61118	3014.55
3049.01187	3004.15
3051.4111	3001.35
3053.80888	2998.45
3056.20519	2975.55
3058.60005	2968.15
3060.99345	2981.95
3063.3854	2967.65
3065.7759	2953.15
3068.16494	2960.45
3070.55254	2952.45
3072.93868	2955.55
3075.32338	2937.95
3077.70662	2931.05
3080.08842	2923.55
3082.46878	2928.25
3084.84769	2929.65
3087.22515	2929.05
3089.60118	2933.75
3091.97576	2934.95
3094.3489	2922.75
3096.72061	2931.75
3099.09087	2957.65
3101.4597	2940.05
3103.82709	2951.35
3106.19305	2928.85
3108.55757	2938.45
3110.92066	2933.15
3113.28232	2937.65
3115.64255	2929.05
3118.00134	2922.15
3120.35871	2920.35
3122.71466	2922.75
3125.06917	2915.55
3127.42226	2914.25
3129.77393	2913.05
3132.12417	2913.15
3134.47299	2913.85
3136.82039	2904.95
3139.16636	2910.85
3141.51092	2920.65
3143.85406	2916.85
3146.19579	2922.45
3148.53609	2926.55
3150.87499	2943.85
3153.21246	2935.95
3155.54853	2948.85
3157.88318	2956.35
3160.21642	2947.75
3162.54826	2962.15
3164.87868	2968.55
3167.2077	2952.75
3169.5353	2970.35
3171.86151	2977.65
3174.18631	2969.45
3176.5097	2953.65
3178.83169	2962.85
3181.15228	2956.05
3183.47147	2974.05
3185.78926	2965.95
3188.10565	2972.25
3190.42065	2955.95
3192.73424	2949.75
3195.04645	2970.05
3197.35725	2953.75
3199.66667	2963.55
3201.97469	2961.95
3204.28132	2959.25
3206.58656	2976.05
3208.8904	2978.85
3211.19287	2968.05
3213.49394	2992.45
3215.79363	2976.95
3218.09193	2989.05
3220.38884	3005.45
3222.68438	2993.25
3224.97853	3000.75
3227.2713	2988.05
3229.56269	2984.85
3231.8527	2986.45
3234.14133	2985.85
3236.42858	2972.85
3238.71446	2983.15
3240.99896	2958.95
3243.28209	2965.15
3245.56384	2959.25
3247.84423	2965.35
3250.12324	2957.25
3252.40088	2947.05
3254.67715	2943.15
3256.95205	2951.55
3259.22558	2939.85
3261.49775	2949.15
3263.76855	2947.55
3266.03799	2952.75
3268.30606	2941.35
3270.57277	2925.85
3272.83812	2928.15
3275.10211	2922.45
3277.36474	2925.05
3279.62601	2920.35
3281.88593	2928.45
3284.14448	2927.95
3286.40168	2924.05
3288.65753	2929.35
3290.91202	2922.35
3293.16516	2916.65
3295.41695	2897.95
3297.66738	2902.65
3299.91647	2877.65
3302.16421	2867.15
3304.4106	2855.25
3306.65564	2849.45
3308.89933	2806.95
3311.14169	2811.05
3313.38269	2785.35
3315.62236	2771.75
3317.86068	2737.95
3320.09766	2725.55
3322.3333	2706.95
3324.5676	2692.15
3326.80056	2662.35
3329.03219	2645.25
3331.26248	1.05
3333.49143	-1.15
3335.71905	0.75
