Data from AgNP_FTO_APTES_UA_100uM_CRN_5uM_R6G_10uM_NaF_0.1M_Addition_RamanShift__8__14-47-50-361.txt Node

Date: Thu Mar 24 14:47:50 GMT 2022
User: TCL
Spectrometer: QEP01345
Trigger mode: 4
Integration Time (sec): 7.000000E0
Scans to average: 10
Electric dark correction enabled: true
Nonlinearity correction enabled: false
Boxcar width: 0
XAxis mode: Raman Shifts
Number of Pixels in Spectrum: 1044
>>>>>Begin Spectral Data<<<<<
46.04893	-1.85
50.45542	-0.45
54.85868	0.35
59.25871	0.05
63.6555	23.25
68.04907	30.35
72.43941	31.55
76.82654	29.35
81.21044	35.15
85.59113	34.55
89.96862	38.85
94.34289	34.45
98.71396	40.55
103.08183	36.25
107.4465	39.15
111.80798	42.05
116.16626	38.95
120.52136	41.95
124.87327	42.75
129.222	46.05
133.56755	45.25
137.90993	50.35
142.24913	56.95
146.58517	56.85
150.91804	69.65
155.24774	88.65
159.57429	103.55
163.89768	130.85
168.21792	172.55
172.53501	241.05
176.84895	336.55
181.15975	481.45
185.46741	666.35
189.77193	927.85
194.07331	1232.75
198.37157	1604.25
202.6667	1999.25
206.9587	2384.45
211.24758	2789.25
215.53334	3183.55
219.81599	3624.55
224.09553	4122.55
228.37195	4666.15
232.64527	5279.75
236.91549	5861.05
241.18261	6419.45
245.44663	6906.05
249.70755	7279.55
253.96539	7546.95
258.22014	7814.85
262.4718	8008.95
266.72039	8162.65
270.96589	8225.45
275.20832	8176.25
279.44768	8042.85
283.68397	7919.65
287.91719	7811.25
292.14735	7771.85
296.37445	7876.65
300.59849	8089.85
304.81948	8362.55
309.03742	8578.15
313.25231	8673.65
317.46415	8505.15
321.67296	8118.15
325.87872	7758.45
330.08145	7556.65
334.28114	7549.95
338.47781	7621.55
342.67145	7792.45
346.86207	8026.15
351.04966	8310.95
355.23424	8660.85
359.4158	8906.45
363.59435	9065.55
367.76989	9052.75
371.94243	9009.65
376.11196	8954.45
380.27849	8905.85
384.44203	8846.65
388.60257	8841.65
392.76012	8838.05
396.91468	8951.55
401.06626	9160.45
405.21485	9270.85
409.36047	9133.75
413.50311	8774.65
417.64277	8424.55
421.77947	8262.95
425.9132	8189.95
430.04396	8196.15
434.17176	8223.05
438.2966	8316.65
442.41849	8525.65
446.53742	8785.05
450.6534	9034.95
454.76644	9189.05
458.87653	9171.05
462.98368	9078.95
467.08789	8922.45
471.18916	8756.85
475.2875	8531.55
479.38291	8347.35
483.4754	8175.75
487.56496	8075.75
491.6516	8015.35
495.73531	8027.75
499.81612	8031.45
503.89401	8111.75
507.96899	8191.65
512.04106	8229.85
516.11023	8298.05
520.1765	8338.05
524.23987	8362.45
528.30034	8372.35
532.35792	8320.35
536.41261	8203.05
540.46441	8057.85
544.51333	7958.15
548.55936	7993.65
552.60252	8137.15
556.64279	8347.25
560.6802	8464.35
564.71473	8518.95
568.7464	8654.35
572.7752	8821.75
576.80114	8789.35
580.82422	8862.45
584.84444	9075.85
588.86181	9433.85
592.87633	9873.85
596.888	10271.15
600.89682	10223.95
604.9028	10532.75
608.90594	12361.55
612.90624	14916.95
616.90371	14317.45
620.89834	10532.45
624.89015	8612.45
628.87913	8251.75
632.86528	8413.75
636.84862	8597.75
640.82913	8479.95
644.80683	8126.85
648.78172	7847.55
652.75379	7853.05
656.72306	8084.85
660.68952	8400.95
664.65319	8328.45
668.61405	7938.65
672.57211	7777.45
676.52738	7781.25
680.47986	7761.95
684.42955	7683.75
688.37646	7584.95
692.32058	7623.45
696.26192	7725.85
700.20048	7854.55
704.13626	7931.35
708.06928	7937.55
711.99952	7880.55
715.927	7862.35
719.85171	7923.45
723.77365	7970.15
727.69284	7898.75
731.60928	7831.45
735.52295	7824.15
739.43388	7855.15
743.34206	7861.95
747.24749	7877.95
751.15017	7896.65
755.05012	8011.25
758.94733	8326.75
762.8418	9157.55
766.73354	10586.85
770.62254	11952.15
774.50882	12446.85
778.39237	11897.45
782.27321	10644.15
786.15132	9291.75
790.02671	8425.55
793.89938	7990.75
797.76935	7791.15
801.6366	7705.45
805.50115	7657.05
809.36299	7598.45
813.22213	7575.05
817.07857	7542.75
820.93231	7507.35
824.78336	7509.35
828.63172	7539.85
832.47738	7536.05
836.32036	7523.15
840.16066	7491.65
843.99827	7470.35
847.8332	7463.45
851.66546	7473.45
855.49504	7489.35
859.32195	7505.95
863.1462	7459.25
866.96777	7444.45
870.78668	7457.55
874.60293	7465.15
878.41652	7487.05
882.22745	7567.25
886.03573	7593.45
889.84136	7596.45
893.64433	7586.55
897.44466	7577.95
901.24235	7541.35
905.0374	7501.15
908.8298	7457.55
912.61957	7409.75
916.40671	7388.15
920.19121	7472.05
923.97308	7539.85
927.75233	7664.35
931.52895	7736.75
935.30295	7629.65
939.07433	7405.05
942.84309	7221.85
946.60924	7109.55
950.37278	7068.55
954.13371	7088.15
957.89203	7058.75
961.64774	7072.45
965.40086	7071.05
969.15137	7057.95
972.89929	7034.15
976.64461	7041.25
980.38733	7028.15
984.12747	7060.95
987.86502	7066.95
991.59999	7099.65
995.33237	7193.15
999.06217	7326.55
1002.78939	7508.65
1006.51404	7714.05
1010.23611	7886.15
1013.95561	7972.95
1017.67255	7948.15
1021.38692	7846.35
1025.09872	7653.85
1028.80796	7511.75
1032.51465	7429.15
1036.21877	7466.25
1039.92035	7500.75
1043.61937	7542.95
1047.31584	7588.95
1051.00976	7595.55
1054.70114	7608.45
1058.38998	7615.25
1062.07627	7641.45
1065.76003	7711.15
1069.44126	7803.05
1073.11995	7970.15
1076.79611	8201.75
1080.46974	8358.25
1084.14085	8561.45
1087.80943	8735.45
1091.47549	8793.45
1095.13903	8706.95
1098.80005	8452.25
1102.45857	8200.95
1106.11456	8092.05
1109.76805	8079.15
1113.41903	8200.75
1117.06751	8390.75
1120.71348	8703.15
1124.35696	9086.45
1127.99793	9361.35
1131.63641	9365.95
1135.2724	9020.55
1138.90589	8726.25
1142.5369	8497.35
1146.16542	8409.15
1149.79145	8353.45
1153.415	8316.75
1157.03607	8367.75
1160.65467	8513.25
1164.27079	8853.85
1167.88443	9356.85
1171.49561	10150.95
1175.10432	11312.25
1178.71056	12839.85
1182.31434	14130.05
1185.91565	14625.35
1189.51451	14342.95
1193.11091	13634.25
1196.70485	12775.55
1200.29634	11943.25
1203.88538	11221.05
1207.47197	10439.45
1211.05612	9848.55
1214.63782	9505.05
1218.21708	9372.45
1221.79391	9343.55
1225.36829	9373.15
1228.94024	9377.55
1232.50976	9262.65
1236.07685	9136.85
1239.6415	9081.45
1243.20374	9079.85
1246.76355	9106.45
1250.32093	9133.65
1253.8759	9323.15
1257.42845	9588.75
1260.97859	9983.35
1264.52631	10383.65
1268.07163	10795.15
1271.61453	11136.05
1275.15503	11368.15
1278.69312	11557.65
1282.22882	11749.15
1285.76211	12144.35
1289.29301	12633.25
1292.82151	13124.35
1296.34761	13652.95
1299.87133	14417.55
1303.39266	15568.75
1306.9116	17181.65
1310.42815	18937.05
1313.94233	19815.25
1317.45412	19241.45
1320.96354	17904.55
1324.47058	16520.65
1327.97525	15340.65
1331.47754	14539.45
1334.97747	14123.05
1338.47502	14041.95
1341.97022	14275.05
1345.46305	14858.25
1348.95352	15707.95
1352.44163	16855.65
1355.92738	18360.55
1359.41078	20579.35
1362.89183	22728.05
1366.37053	22353.55
1369.84688	19136.25
1373.32088	15662.45
1376.79254	13538.35
1380.26186	12566.15
1383.72883	11969.55
1387.19347	11438.95
1390.65578	10912.45
1394.11575	10551.05
1397.57339	10409.55
1401.0287	10381.65
1404.48168	10386.45
1407.93234	10396.95
1411.38068	10406.15
1414.82669	10431.35
1418.27039	10365.85
1421.71177	10186.45
1425.15083	9992.55
1428.58758	9906.65
1432.02203	9989.55
1435.45416	10181.05
1438.88399	10345.55
1442.31151	10368.85
1445.73673	10442.75
1449.15965	10479.35
1452.58027	10471.85
1455.9986	10360.25
1459.41463	10330.95
1462.82837	10476.75
1466.23982	10815.45
1469.64898	11201.95
1473.05586	11538.85
1476.46045	11793.95
1479.86276	12091.45
1483.26279	12369.65
1486.66054	12703.25
1490.05602	13259.25
1493.44922	14036.55
1496.84016	15039.65
1500.22882	16379.45
1503.61521	18081.75
1506.99934	19969.05
1510.38121	21315.75
1513.76081	21260.85
1517.13816	19561.15
1520.51324	17031.55
1523.88607	14852.65
1527.25665	13468.95
1530.62498	12707.25
1533.99105	12262.95
1537.35488	11882.85
1540.71647	11552.45
1544.07581	11278.55
1547.4329	11054.55
1550.78776	10838.25
1554.14038	10765.85
1557.49077	10773.95
1560.83892	10909.05
1564.18484	11266.35
1567.52853	11739.95
1570.86999	12189.85
1574.20922	12498.45
1577.54624	12426.45
1580.88103	11834.45
1584.2136	11021.35
1587.54395	10661.85
1590.87208	10817.15
1594.19801	11513.15
1597.52172	12472.95
1600.84321	12985.25
1604.16251	12617.25
1607.47959	11795.35
1610.79447	10839.45
1614.10715	9958.75
1617.41763	9200.35
1620.7259	8701.15
1624.03199	8465.05
1627.33587	8418.35
1630.63757	8667.05
1633.93707	9166.95
1637.23439	10159.25
1640.52951	11767.65
1643.82246	13954.45
1647.11321	16244.05
1650.40179	17402.05
1653.68819	16495.35
1656.97241	14022.15
1660.25446	11425.75
1663.53433	9542.05
1666.81203	8458.45
1670.08756	7799.65
1673.36092	7433.65
1676.63211	7210.25
1679.90115	7031.95
1683.16801	6907.25
1686.43272	6795.55
1689.69527	6720.85
1692.95567	6672.75
1696.2139	6630.55
1699.46999	6612.05
1702.72392	6597.75
1705.97571	6574.55
1709.22535	6534.75
1712.47284	6529.95
1715.71819	6505.95
1718.96139	6507.75
1722.20246	6476.45
1725.44139	6447.45
1728.67818	6387.15
1731.91284	6324.65
1735.14537	6272.05
1738.37576	6247.85
1741.60403	6231.15
1744.83017	6205.95
1748.05418	6167.55
1751.27607	6175.05
1754.49584	6149.15
1757.71349	6136.15
1760.92903	6128.85
1764.14244	6125.25
1767.35375	6116.85
1770.56294	6079.75
1773.77002	6041.95
1776.97499	6035.25
1780.17785	6021.45
1783.37861	5986.35
1786.57727	5985.35
1789.77382	5966.65
1792.96828	5964.75
1796.16064	5933.35
1799.3509	5916.65
1802.53907	5896.95
1805.72514	5872.35
1808.90913	5856.75
1812.09102	5852.55
1815.27083	5842.35
1818.44856	5832.65
1821.6242	5795.45
1824.79776	5798.15
1827.96924	5809.05
1831.13864	5808.95
1834.30597	5781.65
1837.47122	5774.15
1840.6344	5771.35
1843.7955	5783.05
1846.95454	5772.25
1850.11151	5764.35
1853.26642	5763.65
1856.41926	5735.65
1859.57004	5743.45
1862.71876	5739.25
1865.86542	5732.55
1869.01003	5727.65
1872.15258	5718.85
1875.29308	5709.45
1878.43152	5686.15
1881.56792	5701.65
1884.70227	5703.75
1887.83457	5684.65
1890.96482	5690.05
1894.09304	5661.45
1897.21921	5658.45
1900.34335	5647.15
1903.46544	5658.25
1906.58551	5637.95
1909.70353	5637.75
1912.81953	5632.35
1915.93349	5611.05
1919.04543	5622.75
1922.15534	5610.05
1925.26322	5579.65
1928.36908	5555.65
1931.47292	5540.25
1934.57473	5523.95
1937.67453	5490.25
1940.77232	5490.25
1943.86808	5463.35
1946.96184	5455.35
1950.05358	5450.55
1953.14331	5418.55
1956.23103	5409.35
1959.31675	5411.25
1962.40046	5380.05
1965.48217	5366.65
1968.56188	5346.95
1971.63959	5338.55
1974.7153	5326.85
1977.78901	5290.85
1980.86073	5287.65
1983.93046	5272.35
1986.99819	5242.15
1990.06394	5233.25
1993.1277	5210.25
1996.18947	5179.35
1999.24925	5175.15
2002.30706	5159.75
2005.36288	5115.45
2008.41672	5102.15
2011.46859	5098.05
2014.51848	5079.05
2017.56639	5074.55
2020.61233	5044.65
2023.6563	5045.15
2026.6983	5032.25
2029.73833	5023.35
2032.7764	4990.05
2035.8125	4986.35
2038.84664	4999.15
2041.87881	4995.55
2044.90903	4971.45
2047.93729	4971.25
2050.96359	4963.95
2053.98794	4938.15
2057.01034	4944.85
2060.03078	4939.65
2063.04927	4909.55
2066.06582	4925.35
2069.08042	4917.45
2072.09307	4905.05
2075.10378	4909.45
2078.11255	4894.25
2081.11938	4907.35
2084.12426	4905.75
2087.12722	4897.35
2090.12824	4909.65
2093.12732	4915.25
2096.12447	4902.55
2099.11969	4910.75
2102.11299	4917.35
2105.10435	4901.85
2108.09379	4915.25
2111.08131	4894.95
2114.0669	4904.35
2117.05057	4905.65
2120.03233	4903.55
2123.01216	4902.15
2125.99008	4907.15
2128.96609	4919.35
2131.94018	4916.25
2134.91236	4917.05
2137.88263	4930.85
2140.851	4912.35
2143.81746	4929.15
2146.78201	4924.65
2149.74466	4922.85
2152.7054	4899.05
2155.66425	4886.15
2158.6212	4900.15
2161.57625	4893.85
2164.52941	4895.15
2167.48067	4888.95
2170.43004	4895.85
2173.37752	4885.75
2176.32311	4886.45
2179.26681	4882.95
2182.20863	4881.45
2185.14856	4871.95
2188.08661	4867.15
2191.02278	4880.25
2193.95707	4866.25
2196.88948	4864.45
2199.82001	4844.95
2202.74867	4845.25
2205.67545	4842.95
2208.60037	4838.45
2211.52341	4820.65
2214.44458	4820.15
2217.36388	4822.05
2220.28132	4818.25
2223.1969	4788.85
2226.11061	4773.65
2229.02246	4765.35
2231.93245	4782.75
2234.84058	4744.45
2237.74686	4756.75
2240.65128	4738.15
2243.55385	4749.75
2246.45456	4748.05
2249.35343	4736.45
2252.25044	4725.05
2255.14561	4727.15
2258.03893	4746.65
2260.93041	4717.55
2263.82004	4699.15
2266.70783	4690.55
2269.59378	4689.85
2272.4779	4678.45
2275.36017	4669.05
2278.24061	4646.75
2281.11922	4654.35
2283.996	4620.65
2286.87094	4604.55
2289.74405	4598.95
2292.61534	4608.25
2295.4848	4609.25
2298.35243	4601.95
2301.21824	4570.95
2304.08223	4575.25
2306.94439	4585.35
2309.80474	4572.25
2312.66327	4568.05
2315.51999	4559.15
2318.37489	4566.65
2321.22797	4562.95
2324.07925	4564.25
2326.92871	4543.05
2329.77637	4548.45
2332.62222	4549.35
2335.46626	4522.95
2338.3085	4520.85
2341.14893	4518.75
2343.98756	4520.95
2346.8244	4533.75
2349.65943	4536.25
2352.49267	4521.65
2355.32411	4521.35
2358.15376	4537.05
2360.98161	4538.45
2363.80768	4542.35
2366.63195	4540.35
2369.45444	4551.25
2372.27514	4559.05
2375.09405	4550.25
2377.91118	4534.15
2380.72652	4505.15
2383.54009	4503.65
2386.35187	4494.65
2389.16188	4462.95
2391.97011	4462.95
2394.77657	4446.25
2397.58125	4424.35
2400.38416	4420.05
2403.18529	4418.85
2405.98466	4413.05
2408.78226	4388.25
2411.57809	4395.45
2414.37216	4370.65
2417.16446	4370.45
2419.955	4373.25
2422.74378	4374.25
2425.5308	4351.45
2428.31606	4364.05
2431.09956	4364.45
2433.88131	4355.75
2436.6613	4354.45
2439.43954	4353.35
2442.21603	4353.95
2444.99077	4373.55
2447.76377	4371.15
2450.53501	4362.75
2453.30451	4355.05
2456.07226	4353.75
2458.83827	4347.85
2461.60254	4349.85
2464.36507	4357.55
2467.12586	4359.85
2469.88492	4348.35
2472.64224	4362.55
2475.39782	4360.65
2478.15167	4362.15
2480.90379	4349.15
2483.65417	4370.35
2486.40283	4369.85
2489.14976	4382.25
2491.89497	4377.55
2494.63845	4368.95
2497.3802	4366.25
2500.12024	4367.35
2502.85855	4352.65
2505.59514	4345.95
2508.33002	4333.85
2511.06318	4323.35
2513.79462	4308.85
2516.52435	4292.35
2519.25237	4289.45
2521.97867	4285.55
2524.70327	4279.05
2527.42616	4256.45
2530.14734	4253.15
2532.86681	4259.75
2535.58458	4237.45
2538.30065	4237.95
2541.01501	4236.55
2543.72768	4258.05
2546.43864	4240.75
2549.14791	4237.15
2551.85548	4226.05
2554.56136	4235.95
2557.26554	4236.35
2559.96803	4222.35
2562.66883	4211.55
2565.36794	4230.15
2568.06536	4213.65
2570.7611	4215.95
2573.45514	4190.25
2576.14751	4180.15
2578.83819	4184.85
2581.52719	4174.15
2584.21451	4171.15
2586.90015	4173.95
2589.58411	4158.85
2592.2664	4147.45
2594.94701	4147.45
2597.62594	4129.15
2600.30321	4121.55
2602.9788	4120.55
2605.65273	4127.25
2608.32498	4118.85
2610.99557	4119.35
2613.66449	4111.65
2616.33175	4112.45
2618.99734	4112.95
2621.66128	4113.95
2624.32355	4105.85
2626.98416	4099.75
2629.64311	4078.45
2632.30041	4093.65
2634.95605	4082.65
2637.61004	4082.55
2640.26238	4068.55
2642.91306	4068.25
2645.56209	4077.65
2648.20948	4065.15
2650.85521	4061.05
2653.4993	4063.85
2656.14175	4069.65
2658.78255	4066.55
2661.42171	4065.15
2664.05923	4084.45
2666.6951	4059.35
2669.32934	4070.95
2671.96194	4077.15
2674.59291	4077.85
2677.22224	4082.55
2679.84993	4078.15
2682.476	4077.05
2685.10043	4077.65
2687.72324	4070.55
2690.34441	4073.65
2692.96396	4079.65
2695.58188	4055.85
2698.19818	4066.65
2700.81285	4078.25
2703.4259	4064.75
2706.03733	4093.95
2708.64714	4087.55
2711.25533	4074.95
2713.86191	4077.75
2716.46687	4103.35
2719.07021	4081.85
2721.67194	4086.65
2724.27206	4084.65
2726.87057	4061.35
2729.46747	4068.25
2732.06276	4075.75
2734.65644	4068.85
2737.24852	4075.45
2739.83899	4066.35
2742.42786	4069.95
2745.01513	4026.25
2747.60079	4043.15
2750.18486	4035.95
2752.76733	4040.55
2755.3482	4032.35
2757.92747	4051.65
2760.50515	4020.95
2763.08123	4024.95
2765.65573	4023.45
2768.22863	4010.15
2770.79994	4008.45
2773.36967	3991.65
2775.9378	4004.95
2778.50435	3999.45
2781.06932	3985.05
2783.6327	3983.65
2786.1945	3976.45
2788.75471	3988.05
2791.31335	3975.95
2793.87041	3974.75
2796.42589	3965.35
2798.97979	3955.75
2801.53212	3962.85
2804.08288	3949.65
2806.63206	3964.95
2809.17967	3972.15
2811.72571	3942.15
2814.27018	3964.35
2816.81308	3949.85
2819.35442	3954.75
2821.89419	3935.05
2824.43239	3950.35
2826.96904	3950.85
2829.50412	3943.95
2832.03763	3934.45
2834.56959	3932.65
2837.1	3944.85
2839.62884	3922.95
2842.15613	3914.45
2844.68186	3940.05
2847.20604	3936.65
2849.72867	3924.55
2852.24974	3930.85
2854.76927	3941.25
2857.28724	3930.85
2859.80367	3933.25
2862.31855	3924.85
2864.83189	3925.55
2867.34368	3943.75
2869.85393	3942.35
2872.36264	3944.15
2874.8698	3939.75
2877.37543	3930.65
2879.87952	3940.75
2882.38207	3927.95
2884.88308	3918.75
2887.38256	3917.65
2889.88051	3911.25
2892.37692	3917.85
2894.8718	3912.65
2897.36515	3899.55
2899.85698	3908.75
2902.34727	3921.55
2904.83604	3918.05
2907.32328	3923.25
2909.809	3936.05
2912.29319	3931.55
2914.77587	3918.15
2917.25702	3931.45
2919.73665	3928.35
2922.21476	3911.55
2924.69136	3915.05
2927.16644	3913.45
2929.64	3900.95
2932.11205	3900.75
2934.58258	3868.75
2937.05161	3888.65
2939.51912	3873.55
2941.98513	3878.95
2944.44962	3854.95
2946.91261	3854.65
2949.37409	3861.95
2951.83407	3861.85
2954.29254	3865.25
2956.74951	3849.15
2959.20498	3852.95
2961.65895	3830.15
2964.11142	3839.75
2966.56239	3828.35
2969.01186	3827.95
2971.45984	3799.95
2973.90632	3799.85
2976.35131	3794.95
2978.7948	3782.55
2981.23681	3780.65
2983.67732	3761.65
2986.11635	3768.15
2988.55388	3754.65
2990.98993	3742.25
2993.4245	3741.95
2995.85758	3736.95
2998.28917	3724.75
3000.71928	3706.65
3003.14791	3724.85
3005.57506	3722.65
3008.00073	3707.75
3010.42493	3717.45
3012.84764	3714.05
3015.26888	3703.05
3017.68865	3689.35
3020.10694	3702.45
3022.52376	3667.35
3024.9391	3669.05
3027.35298	3669.35
3029.76539	3656.15
3032.17632	3657.55
3034.5858	3629.65
3036.9938	3639.45
3039.40034	3625.55
3041.80542	3619.45
3044.20903	3614.95
3046.61118	3612.55
3049.01187	3605.55
3051.4111	3599.15
3053.80888	3597.95
3056.20519	3600.15
3058.60005	3596.45
3060.99345	3596.95
3063.3854	3579.05
3065.7759	3580.35
3068.16494	3582.75
3070.55254	3573.15
3072.93868	3557.25
3075.32338	3538.85
3077.70662	3549.45
3080.08842	3548.35
3082.46878	3535.95
3084.84769	3534.75
3087.22515	3534.45
3089.60118	3538.65
3091.97576	3535.55
3094.3489	3537.95
3096.72061	3522.35
3099.09087	3532.15
3101.4597	3530.75
3103.82709	3534.55
3106.19305	3506.75
3108.55757	3525.85
3110.92066	3514.45
3113.28232	3518.45
3115.64255	3507.15
3118.00134	3490.75
3120.35871	3494.35
3122.71466	3498.05
3125.06917	3495.05
3127.42226	3492.85
3129.77393	3503.45
3132.12417	3498.85
3134.47299	3500.95
3136.82039	3513.75
3139.16636	3509.75
3141.51092	3504.65
3143.85406	3507.55
3146.19579	3518.55
3148.53609	3522.65
3150.87499	3521.35
3153.21246	3524.45
3155.54853	3520.25
3157.88318	3513.15
3160.21642	3517.95
3162.54826	3514.95
3164.87868	3527.75
3167.2077	3509.95
3169.5353	3521.55
3171.86151	3516.15
3174.18631	3515.65
3176.5097	3525.45
3178.83169	3511.95
3181.15228	3519.25
3183.47147	3523.15
3185.78926	3513.85
3188.10565	3501.75
3190.42065	3506.75
3192.73424	3520.65
3195.04645	3511.45
3197.35725	3504.25
3199.66667	3516.75
3201.97469	3529.55
3204.28132	3527.15
3206.58656	3537.55
3208.8904	3543.55
3211.19287	3548.95
3213.49394	3545.65
3215.79363	3539.35
3218.09193	3533.55
3220.38884	3534.75
3222.68438	3539.35
3224.97853	3547.45
3227.2713	3536.35
3229.56269	3525.55
3231.8527	3520.25
3234.14133	3525.85
3236.42858	3523.15
3238.71446	3516.65
3240.99896	3524.75
3243.28209	3516.45
3245.56384	3523.95
3247.84423	3505.15
3250.12324	3523.75
3252.40088	3509.85
3254.67715	3486.25
3256.95205	3486.95
3259.22558	3488.35
3261.49775	3467.15
3263.76855	3485.95
3266.03799	3474.65
3268.30606	3471.95
3270.57277	3460.45
3272.83812	3456.85
3275.10211	3450.35
3277.36474	3456.25
3279.62601	3452.35
3281.88593	3447.25
3284.14448	3459.15
3286.40168	3456.85
3288.65753	3459.75
3290.91202	3457.05
3293.16516	3457.05
3295.41695	3445.25
3297.66738	3424.35
3299.91647	3425.25
3302.16421	3411.75
3304.4106	3390.85
3306.65564	3383.35
3308.89933	3357.75
3311.14169	3347.05
3313.38269	3304.55
3315.62236	3294.35
3317.86068	3270.95
3320.09766	3234.65
3322.3333	3197.55
3324.5676	3216.15
3326.80056	3165.85
3329.03219	3155.85
3331.26248	1.65
3333.49143	-0.85
3335.71905	0.85
