Data from AgNP_FTO_APTES_UA_100uM_CRN_2uM_R6G_10uM_NaF_0.1M_Addition_RamanShift__10__13-56-30-301.txt Node

Date: Thu Mar 24 13:56:30 GMT 2022
User: TCL
Spectrometer: QEP01345
Trigger mode: 4
Integration Time (sec): 7.000000E0
Scans to average: 10
Electric dark correction enabled: true
Nonlinearity correction enabled: false
Boxcar width: 0
XAxis mode: Raman Shifts
Number of Pixels in Spectrum: 1044
>>>>>Begin Spectral Data<<<<<
46.04893	-0.65
50.45542	0.35
54.85868	-0.15
59.25871	-0.15
63.6555	34.35
68.04907	39.65
72.43941	40.55
76.82654	42.75
81.21044	45.55
85.59113	47.75
89.96862	47.75
94.34289	47.05
98.71396	52.55
103.08183	49.65
107.4465	50.75
111.80798	54.95
116.16626	55.05
120.52136	54.55
124.87327	56.75
129.222	57.15
133.56755	66.15
137.90993	61.85
142.24913	74.05
146.58517	78.05
150.91804	95.85
155.24774	110.35
159.57429	139.45
163.89768	175.95
168.21792	234.45
172.53501	320.85
176.84895	444.35
181.15975	629.65
185.46741	882.15
189.77193	1228.95
194.07331	1652.85
198.37157	2144.65
202.6667	2650.55
206.9587	3164.35
211.24758	3659.55
215.53334	4176.45
219.81599	4713.05
224.09553	5306.25
228.37195	5964.25
232.64527	6698.75
236.91549	7485.25
241.18261	8213.15
245.44663	8925.05
249.70755	9521.15
253.96539	10037.35
258.22014	10475.55
262.4718	10805.95
266.72039	11049.55
270.96589	11187.05
275.20832	11194.55
279.44768	11090.55
283.68397	10973.25
287.91719	10856.85
292.14735	10802.95
296.37445	10829.05
300.59849	10913.75
304.81948	11054.65
309.03742	11165.85
313.25231	11195.35
317.46415	11016.85
321.67296	10676.35
325.87872	10371.45
330.08145	10220.35
334.28114	10213.95
338.47781	10307.85
342.67145	10483.35
346.86207	10650.75
351.04966	10932.85
355.23424	11187.95
359.4158	11422.65
363.59435	11535.15
367.76989	11599.15
371.94243	11651.15
376.11196	11677.25
380.27849	11675.65
384.44203	11650.15
388.60257	11723.45
392.76012	11808.85
396.91468	11923.15
401.06626	12110.85
405.21485	12291.25
409.36047	12208.25
413.50311	11943.45
417.64277	11684.35
421.77947	11574.55
425.9132	11526.55
430.04396	11563.75
434.17176	11623.75
438.2966	11707.05
442.41849	11806.45
446.53742	11940.95
450.6534	12136.25
454.76644	12276.15
458.87653	12333.85
462.98368	12366.05
467.08789	12324.15
471.18916	12215.75
475.2875	12091.75
479.38291	11963.15
483.4754	11851.05
487.56496	11800.05
491.6516	11758.35
495.73531	11757.55
499.81612	11771.75
503.89401	11863.55
507.96899	11931.15
512.04106	11971.05
516.11023	11998.45
520.1765	11989.35
524.23987	11970.55
528.30034	11900.95
532.35792	11847.85
536.41261	11714.75
540.46441	11602.35
544.51333	11604.25
548.55936	11708.45
552.60252	11879.35
556.64279	12042.25
560.6802	12124.35
564.71473	12204.85
568.7464	12288.85
572.7752	12472.75
576.80114	12588.45
580.82422	12720.35
584.84444	12885.35
588.86181	12964.15
592.87633	12985.85
596.888	13001.85
600.89682	13123.95
604.9028	13688.25
608.90594	15330.65
612.90624	17253.35
616.90371	16638.75
620.89834	13729.65
624.89015	12265.55
628.87913	11998.55
632.86528	12142.55
636.84862	12311.15
640.82913	12254.05
644.80683	11964.55
648.78172	11786.75
652.75379	11732.65
656.72306	11924.25
660.68952	12201.75
664.65319	12171.65
668.61405	11952.55
672.57211	11864.15
676.52738	11859.05
680.47986	11804.35
684.42955	11747.75
688.37646	11723.25
692.32058	11737.85
696.26192	11829.25
700.20048	11937.75
704.13626	12044.55
708.06928	12045.05
711.99952	12007.85
715.927	11930.55
719.85171	11961.45
723.77365	11934.25
727.69284	11865.15
731.60928	11800.35
735.52295	11762.35
739.43388	11746.55
743.34206	11766.05
747.24749	11821.25
751.15017	11863.75
755.05012	12016.55
758.94733	12327.45
762.8418	13015.25
766.73354	14233.65
770.62254	15430.55
774.50882	15826.75
778.39237	15171.25
782.27321	14050.05
786.15132	13001.35
790.02671	12332.75
793.89938	11972.15
797.76935	11812.65
801.6366	11723.15
805.50115	11685.25
809.36299	11624.45
813.22213	11595.55
817.07857	11565.15
820.93231	11547.05
824.78336	11565.55
828.63172	11547.15
832.47738	11562.15
836.32036	11556.35
840.16066	11536.65
843.99827	11531.25
847.8332	11511.55
851.66546	11543.95
855.49504	11547.55
859.32195	11548.45
863.1462	11555.05
866.96777	11509.45
870.78668	11522.25
874.60293	11550.05
878.41652	11555.15
882.22745	11597.05
886.03573	11627.65
889.84136	11641.75
893.64433	11617.85
897.44466	11604.05
901.24235	11557.55
905.0374	11548.95
908.8298	11531.75
912.61957	11518.95
916.40671	11518.15
920.19121	11604.85
923.97308	11683.05
927.75233	11725.05
931.52895	11648.75
935.30295	11602.65
939.07433	11422.75
942.84309	11290.35
946.60924	11180.75
950.37278	11098.35
954.13371	11106.95
957.89203	11101.55
961.64774	11086.05
965.40086	11076.65
969.15137	11080.55
972.89929	11049.65
976.64461	11040.75
980.38733	11038.75
984.12747	11014.35
987.86502	11043.65
991.59999	11097.95
995.33237	11146.95
999.06217	11219.35
1002.78939	11340.35
1006.51404	11492.15
1010.23611	11621.05
1013.95561	11729.35
1017.67255	11782.35
1021.38692	11672.95
1025.09872	11592.25
1028.80796	11453.35
1032.51465	11390.65
1036.21877	11411.35
1039.92035	11463.45
1043.61937	11523.85
1047.31584	11565.05
1051.00976	11633.35
1054.70114	11685.65
1058.38998	11699.65
1062.07627	11778.65
1065.76003	11844.75
1069.44126	11966.15
1073.11995	12125.95
1076.79611	12342.45
1080.46974	12451.65
1084.14085	12515.95
1087.80943	12630.05
1091.47549	12738.15
1095.13903	12709.45
1098.80005	12576.35
1102.45857	12390.25
1106.11456	12211.15
1109.76805	12143.85
1113.41903	12158.95
1117.06751	12244.95
1120.71348	12446.35
1124.35696	12636.15
1127.99793	12901.45
1131.63641	12903.85
1135.2724	12693.05
1138.90589	12535.45
1142.5369	12385.05
1146.16542	12298.55
1149.79145	12255.55
1153.415	12242.05
1157.03607	12273.45
1160.65467	12409.55
1164.27079	12655.05
1167.88443	13016.15
1171.49561	13653.25
1175.10432	14511.75
1178.71056	15621.85
1182.31434	16585.75
1185.91565	16991.55
1189.51451	16977.95
1193.11091	16607.85
1196.70485	16057.15
1200.29634	15441.35
1203.88538	14904.45
1207.47197	14303.05
1211.05612	13793.05
1214.63782	13431.75
1218.21708	13178.05
1221.79391	13051.35
1225.36829	13031.05
1228.94024	13025.75
1232.50976	12979.75
1236.07685	12956.55
1239.6415	12900.95
1243.20374	12903.45
1246.76355	12948.05
1250.32093	13070.75
1253.8759	13205.15
1257.42845	13414.95
1260.97859	13706.65
1264.52631	14023.65
1268.07163	14351.15
1271.61453	14616.75
1275.15503	14827.85
1278.69312	14993.05
1282.22882	15127.25
1285.76211	15313.95
1289.29301	15599.85
1292.82151	15920.55
1296.34761	16302.95
1299.87133	16815.75
1303.39266	17596.95
1306.9116	18589.85
1310.42815	19622.85
1313.94233	20139.95
1317.45412	19886.85
1320.96354	19270.45
1324.47058	18645.55
1327.97525	18113.55
1331.47754	17772.45
1334.97747	17603.05
1338.47502	17667.05
1341.97022	18006.65
1345.46305	18487.65
1348.95352	19074.65
1352.44163	19746.55
1355.92738	20503.85
1359.41078	21637.95
1362.89183	22877.85
1366.37053	22694.35
1369.84688	20642.55
1373.32088	18239.05
1376.79254	16581.95
1380.26186	15673.35
1383.72883	15152.75
1387.19347	14765.15
1390.65578	14431.95
1394.11575	14142.35
1397.57339	13922.45
1401.0287	13767.75
1404.48168	13665.15
1407.93234	13579.15
1411.38068	13540.55
1414.82669	13456.05
1418.27039	13327.85
1421.71177	13167.25
1425.15083	12957.95
1428.58758	12815.25
1432.02203	12810.45
1435.45416	12885.75
1438.88399	12946.65
1442.31151	13006.35
1445.73673	13116.45
1449.15965	13203.95
1452.58027	13270.55
1455.9986	13279.05
1459.41463	13352.75
1462.82837	13523.95
1466.23982	13797.85
1469.64898	14078.35
1473.05586	14337.65
1476.46045	14519.35
1479.86276	14697.05
1483.26279	14878.65
1486.66054	15087.55
1490.05602	15417.35
1493.44922	15939.65
1496.84016	16794.65
1500.22882	18043.65
1503.61521	19578.45
1506.99934	21179.85
1510.38121	22169.05
1513.76081	22124.85
1517.13816	20904.85
1520.51324	19175.05
1523.88607	17745.15
1527.25665	16752.95
1530.62498	16190.85
1533.99105	15835.05
1537.35488	15548.05
1540.71647	15284.65
1544.07581	14982.65
1547.4329	14747.55
1550.78776	14525.15
1554.14038	14427.85
1557.49077	14443.45
1560.83892	14548.95
1564.18484	14824.55
1567.52853	15132.45
1570.86999	15433.55
1574.20922	15621.35
1577.54624	15536.65
1580.88103	15018.05
1584.2136	14369.05
1587.54395	13981.05
1590.87208	13973.45
1594.19801	14362.55
1597.52172	14918.15
1600.84321	15164.85
1604.16251	14864.55
1607.47959	14406.95
1610.79447	13888.25
1614.10715	13305.65
1617.41763	12765.05
1620.7259	12272.15
1624.03199	11997.85
1627.33587	11874.65
1630.63757	11938.65
1633.93707	12215.65
1637.23439	12778.85
1640.52951	13702.55
1643.82246	14995.35
1647.11321	16494.05
1650.40179	17490.55
1653.68819	17276.75
1656.97241	15863.85
1660.25446	14099.35
1663.53433	12685.45
1666.81203	11741.15
1670.08756	11167.15
1673.36092	10820.35
1676.63211	10611.45
1679.90115	10416.05
1683.16801	10326.95
1686.43272	10235.75
1689.69527	10123.55
1692.95567	10086.95
1696.2139	10023.35
1699.46999	9965.65
1702.72392	9972.65
1705.97571	9959.05
1709.22535	9916.85
1712.47284	9927.05
1715.71819	9904.85
1718.96139	9898.35
1722.20246	9830.35
1725.44139	9817.35
1728.67818	9759.95
1731.91284	9678.05
1735.14537	9641.95
1738.37576	9603.65
1741.60403	9566.45
1744.83017	9545.25
1748.05418	9528.65
1751.27607	9503.05
1754.49584	9481.65
1757.71349	9456.25
1760.92903	9445.95
1764.14244	9438.85
1767.35375	9430.95
1770.56294	9408.65
1773.77002	9390.15
1776.97499	9381.95
1780.17785	9366.95
1783.37861	9328.25
1786.57727	9289.75
1789.77382	9256.75
1792.96828	9270.35
1796.16064	9245.15
1799.3509	9217.85
1802.53907	9202.05
1805.72514	9188.55
1808.90913	9165.25
1812.09102	9138.85
1815.27083	9113.95
1818.44856	9096.95
1821.6242	9070.95
1824.79776	9060.75
1827.96924	9050.45
1831.13864	9020.35
1834.30597	9020.05
1837.47122	9004.95
1840.6344	8972.45
1843.7955	9006.45
1846.95454	8960.15
1850.11151	8988.05
1853.26642	8961.55
1856.41926	8956.65
1859.57004	8950.35
1862.71876	8930.75
1865.86542	8919.55
1869.01003	8897.55
1872.15258	8872.95
1875.29308	8873.35
1878.43152	8857.25
1881.56792	8822.95
1884.70227	8792.65
1887.83457	8816.85
1890.96482	8817.25
1894.09304	8814.95
1897.21921	8794.35
1900.34335	8781.95
1903.46544	8794.15
1906.58551	8749.65
1909.70353	8766.75
1912.81953	8743.55
1915.93349	8721.95
1919.04543	8688.65
1922.15534	8669.35
1925.26322	8662.05
1928.36908	8630.85
1931.47292	8620.55
1934.57473	8591.05
1937.67453	8576.55
1940.77232	8571.35
1943.86808	8539.65
1946.96184	8499.35
1950.05358	8482.55
1953.14331	8475.25
1956.23103	8435.15
1959.31675	8429.75
1962.40046	8403.75
1965.48217	8382.75
1968.56188	8353.55
1971.63959	8338.35
1974.7153	8313.05
1977.78901	8290.75
1980.86073	8278.25
1983.93046	8229.25
1986.99819	8174.45
1990.06394	8150.35
1993.1277	8142.15
1996.18947	8102.85
1999.24925	8089.05
2002.30706	8045.75
2005.36288	8020.45
2008.41672	7983.75
2011.46859	7967.35
2014.51848	7940.45
2017.56639	7932.45
2020.61233	7895.85
2023.6563	7848.65
2026.6983	7852.35
2029.73833	7841.65
2032.7764	7815.45
2035.8125	7789.85
2038.84664	7773.65
2041.87881	7751.65
2044.90903	7736.65
2047.93729	7734.95
2050.96359	7727.15
2053.98794	7677.15
2057.01034	7653.45
2060.03078	7648.75
2063.04927	7646.05
2066.06582	7642.95
2069.08042	7633.65
2072.09307	7624.85
2075.10378	7613.55
2078.11255	7618.65
2081.11938	7635.25
2084.12426	7620.05
2087.12722	7604.65
2090.12824	7597.75
2093.12732	7604.65
2096.12447	7614.85
2099.11969	7596.65
2102.11299	7595.35
2105.10435	7598.35
2108.09379	7608.95
2111.08131	7591.55
2114.0669	7618.25
2117.05057	7631.75
2120.03233	7621.75
2123.01216	7638.25
2125.99008	7618.65
2128.96609	7646.75
2131.94018	7631.15
2134.91236	7627.25
2137.88263	7634.55
2140.851	7628.85
2143.81746	7642.95
2146.78201	7640.65
2149.74466	7632.45
2152.7054	7639.65
2155.66425	7617.75
2158.6212	7649.25
2161.57625	7613.95
2164.52941	7607.25
2167.48067	7608.85
2170.43004	7603.45
2173.37752	7582.55
2176.32311	7588.25
2179.26681	7581.75
2182.20863	7558.75
2185.14856	7577.25
2188.08661	7554.75
2191.02278	7549.35
2193.95707	7549.15
2196.88948	7513.65
2199.82001	7522.05
2202.74867	7504.75
2205.67545	7509.65
2208.60037	7484.45
2211.52341	7474.85
2214.44458	7476.55
2217.36388	7471.55
2220.28132	7442.75
2223.1969	7431.05
2226.11061	7411.65
2229.02246	7395.65
2231.93245	7385.95
2234.84058	7357.55
2237.74686	7341.45
2240.65128	7312.45
2243.55385	7321.85
2246.45456	7312.85
2249.35343	7305.25
2252.25044	7298.55
2255.14561	7280.35
2258.03893	7264.55
2260.93041	7262.35
2263.82004	7228.05
2266.70783	7217.25
2269.59378	7217.15
2272.4779	7198.05
2275.36017	7187.75
2278.24061	7170.05
2281.11922	7179.95
2283.996	7140.75
2286.87094	7117.45
2289.74405	7114.55
2292.61534	7090.75
2295.4848	7085.15
2298.35243	7082.65
2301.21824	7068.25
2304.08223	7053.45
2306.94439	7046.55
2309.80474	7038.85
2312.66327	7023.55
2315.51999	7008.85
2318.37489	6996.65
2321.22797	7006.45
2324.07925	6973.55
2326.92871	6989.35
2329.77637	6972.45
2332.62222	6971.25
2335.46626	6942.65
2338.3085	6946.05
2341.14893	6939.95
2343.98756	6913.35
2346.8244	6903.65
2349.65943	6916.25
2352.49267	6900.95
2355.32411	6919.85
2358.15376	6908.85
2360.98161	6898.15
2363.80768	6909.95
2366.63195	6898.45
2369.45444	6881.55
2372.27514	6899.65
2375.09405	6877.25
2377.91118	6868.85
2380.72652	6836.05
2383.54009	6857.15
2386.35187	6834.75
2389.16188	6785.65
2391.97011	6793.75
2394.77657	6782.05
2397.58125	6747.35
2400.38416	6716.95
2403.18529	6728.75
2405.98466	6700.45
2408.78226	6690.45
2411.57809	6671.85
2414.37216	6646.05
2417.16446	6639.95
2419.955	6639.55
2422.74378	6636.75
2425.5308	6617.95
2428.31606	6623.35
2431.09956	6629.15
2433.88131	6620.65
2436.6613	6606.75
2439.43954	6594.15
2442.21603	6611.25
2444.99077	6591.25
2447.76377	6586.95
2450.53501	6576.35
2453.30451	6582.35
2456.07226	6575.15
2458.83827	6561.45
2461.60254	6567.85
2464.36507	6558.25
2467.12586	6540.75
2469.88492	6567.05
2472.64224	6562.35
2475.39782	6546.45
2478.15167	6533.95
2480.90379	6536.05
2483.65417	6528.75
2486.40283	6536.75
2489.14976	6542.75
2491.89497	6538.15
2494.63845	6538.85
2497.3802	6511.45
2500.12024	6531.95
2502.85855	6523.25
2505.59514	6497.15
2508.33002	6479.55
2511.06318	6472.35
2513.79462	6448.25
2516.52435	6423.55
2519.25237	6424.45
2521.97867	6442.95
2524.70327	6406.85
2527.42616	6396.85
2530.14734	6403.05
2532.86681	6378.85
2535.58458	6373.65
2538.30065	6338.75
2541.01501	6344.05
2543.72768	6338.85
2546.43864	6321.95
2549.14791	6314.15
2551.85548	6309.45
2554.56136	6310.05
2557.26554	6266.55
2559.96803	6273.15
2562.66883	6270.65
2565.36794	6255.65
2568.06536	6253.65
2570.7611	6230.65
2573.45514	6247.65
2576.14751	6228.15
2578.83819	6202.75
2581.52719	6203.15
2584.21451	6150.75
2586.90015	6161.95
2589.58411	6146.55
2592.2664	6140.35
2594.94701	6133.55
2597.62594	6120.65
2600.30321	6084.55
2602.9788	6090.25
2605.65273	6093.15
2608.32498	6081.55
2610.99557	6064.25
2613.66449	6056.75
2616.33175	6057.65
2618.99734	6026.25
2621.66128	6018.05
2624.32355	6007.15
2626.98416	5997.85
2629.64311	6001.95
2632.30041	5998.45
2634.95605	5999.95
2637.61004	5981.15
2640.26238	5950.05
2642.91306	5980.95
2645.56209	5956.85
2648.20948	5954.45
2650.85521	5955.45
2653.4993	5939.15
2656.14175	5935.95
2658.78255	5952.45
2661.42171	5943.75
2664.05923	5950.15
2666.6951	5944.75
2669.32934	5939.35
2671.96194	5935.15
2674.59291	5945.15
2677.22224	5935.55
2679.84993	5938.35
2682.476	5920.25
2685.10043	5931.45
2687.72324	5942.25
2690.34441	5923.45
2692.96396	5931.65
2695.58188	5948.75
2698.19818	5910.55
2700.81285	5911.05
2703.4259	5911.15
2706.03733	5921.05
2708.64714	5902.85
2711.25533	5924.75
2713.86191	5891.15
2716.46687	5909.45
2719.07021	5897.35
2721.67194	5900.95
2724.27206	5883.05
2726.87057	5894.25
2729.46747	5887.25
2732.06276	5861.35
2734.65644	5869.45
2737.24852	5865.85
2739.83899	5875.95
2742.42786	5857.85
2745.01513	5845.05
2747.60079	5844.05
2750.18486	5831.45
2752.76733	5822.15
2755.3482	5819.45
2757.92747	5810.65
2760.50515	5795.05
2763.08123	5771.55
2765.65573	5787.95
2768.22863	5787.45
2770.79994	5766.45
2773.36967	5779.75
2775.9378	5763.55
2778.50435	5749.05
2781.06932	5743.05
2783.6327	5721.25
2786.1945	5720.45
2788.75471	5699.75
2791.31335	5685.25
2793.87041	5692.05
2796.42589	5688.05
2798.97979	5671.45
2801.53212	5664.95
2804.08288	5649.35
2806.63206	5657.35
2809.17967	5641.15
2811.72571	5617.15
2814.27018	5635.95
2816.81308	5605.65
2819.35442	5614.25
2821.89419	5605.25
2824.43239	5592.95
2826.96904	5580.35
2829.50412	5588.55
2832.03763	5562.25
2834.56959	5552.75
2837.1	5556.55
2839.62884	5569.65
2842.15613	5519.85
2844.68186	5524.15
2847.20604	5555.05
2849.72867	5550.35
2852.24974	5534.65
2854.76927	5528.85
2857.28724	5491.95
2859.80367	5500.05
2862.31855	5504.45
2864.83189	5520.15
2867.34368	5515.75
2869.85393	5488.35
2872.36264	5495.55
2874.8698	5508.65
2877.37543	5497.65
2879.87952	5490.05
2882.38207	5494.35
2884.88308	5481.95
2887.38256	5489.35
2889.88051	5477.45
2892.37692	5475.75
2894.8718	5481.85
2897.36515	5480.35
2899.85698	5463.65
2902.34727	5490.95
2904.83604	5470.85
2907.32328	5487.45
2909.809	5483.75
2912.29319	5487.65
2914.77587	5473.05
2917.25702	5479.85
2919.73665	5481.35
2922.21476	5476.75
2924.69136	5465.55
2927.16644	5445.15
2929.64	5461.65
2932.11205	5445.05
2934.58258	5418.25
2937.05161	5424.95
2939.51912	5426.95
2941.98513	5421.65
2944.44962	5419.75
2946.91261	5383.75
2949.37409	5396.45
2951.83407	5383.45
2954.29254	5361.75
2956.74951	5368.65
2959.20498	5365.35
2961.65895	5349.35
2964.11142	5333.55
2966.56239	5337.95
2969.01186	5335.55
2971.45984	5314.95
2973.90632	5321.25
2976.35131	5296.95
2978.7948	5287.75
2981.23681	5267.05
2983.67732	5287.85
2986.11635	5258.65
2988.55388	5253.85
2990.98993	5255.75
2993.4245	5249.85
2995.85758	5226.15
2998.28917	5218.85
3000.71928	5207.05
3003.14791	5216.05
3005.57506	5202.85
3008.00073	5183.25
3010.42493	5201.65
3012.84764	5183.65
3015.26888	5164.95
3017.68865	5171.15
3020.10694	5146.25
3022.52376	5149.15
3024.9391	5117.75
3027.35298	5132.75
3029.76539	5113.35
3032.17632	5114.85
3034.5858	5105.35
3036.9938	5101.65
3039.40034	5076.45
3041.80542	5072.35
3044.20903	5047.45
3046.61118	5043.55
3049.01187	5062.35
3051.4111	5053.85
3053.80888	5025.45
3056.20519	5011.75
3058.60005	5003.65
3060.99345	5005.05
3063.3854	4988.75
3065.7759	4990.95
3068.16494	4988.75
3070.55254	4979.45
3072.93868	4981.35
3075.32338	4950.65
3077.70662	4956.55
3080.08842	4956.85
3082.46878	4939.55
3084.84769	4930.95
3087.22515	4940.25
3089.60118	4914.25
3091.97576	4913.05
3094.3489	4921.55
3096.72061	4912.55
3099.09087	4925.65
3101.4597	4911.25
3103.82709	4904.85
3106.19305	4913.45
3108.55757	4925.45
3110.92066	4877.55
3113.28232	4886.95
3115.64255	4864.85
3118.00134	4855.45
3120.35871	4872.55
3122.71466	4848.55
3125.06917	4850.65
3127.42226	4848.45
3129.77393	4856.95
3132.12417	4848.75
3134.47299	4847.55
3136.82039	4840.35
3139.16636	4834.55
3141.51092	4844.75
3143.85406	4854.05
3146.19579	4864.45
3148.53609	4855.95
3150.87499	4860.45
3153.21246	4869.45
3155.54853	4888.05
3157.88318	4880.05
3160.21642	4854.05
3162.54826	4862.15
3164.87868	4870.95
3167.2077	4858.05
3169.5353	4873.75
3171.86151	4858.15
3174.18631	4865.25
3176.5097	4857.15
3178.83169	4849.75
3181.15228	4854.15
3183.47147	4842.45
3185.78926	4838.25
3188.10565	4831.55
3190.42065	4828.55
3192.73424	4845.35
3195.04645	4828.35
3197.35725	4852.85
3199.66667	4862.65
3201.97469	4851.35
3204.28132	4857.75
3206.58656	4860.45
3208.8904	4869.15
3211.19287	4872.75
3213.49394	4871.85
3215.79363	4851.65
3218.09193	4853.85
3220.38884	4847.45
3222.68438	4842.75
3224.97853	4838.85
3227.2713	4826.15
3229.56269	4833.65
3231.8527	4809.95
3234.14133	4801.15
3236.42858	4805.55
3238.71446	4809.05
3240.99896	4786.15
3243.28209	4798.05
3245.56384	4789.55
3247.84423	4775.95
3250.12324	4771.55
3252.40088	4781.85
3254.67715	4766.75
3256.95205	4759.85
3259.22558	4757.25
3261.49775	4742.65
3263.76855	4738.05
3266.03799	4725.75
3268.30606	4737.25
3270.57277	4719.75
3272.83812	4708.25
3275.10211	4688.95
3277.36474	4693.15
3279.62601	4693.75
3281.88593	4687.15
3284.14448	4687.25
3286.40168	4678.25
3288.65753	4673.75
3290.91202	4658.25
3293.16516	4648.65
3295.41695	4626.05
3297.66738	4611.05
3299.91647	4609.45
3302.16421	4590.85
3304.4106	4574.85
3306.65564	4554.15
3308.89933	4525.45
3311.14169	4488.55
3313.38269	4473.55
3315.62236	4451.45
3317.86068	4403.85
3320.09766	4362.65
3322.3333	4314.05
3324.5676	4340.15
3326.80056	4260.55
3329.03219	4241.95
3331.26248	1.35
3333.49143	-2.35
3335.71905	0.55
