Data from AgNP_FTO_APTES_UA_100uM_CRN_1uM_R6G_10uM_NaF_0.1M_Addition_RamanShift__18__12-09-10-177.txt Node

Date: Thu Mar 24 12:09:10 GMT 2022
User: TCL
Spectrometer: QEP01345
Trigger mode: 4
Integration Time (sec): 7.000000E0
Scans to average: 10
Electric dark correction enabled: true
Nonlinearity correction enabled: false
Boxcar width: 0
XAxis mode: Raman Shifts
Number of Pixels in Spectrum: 1044
>>>>>Begin Spectral Data<<<<<
46.04893	-1.35
50.45542	0.85
54.85868	0.25
59.25871	-0.45
63.6555	50.55
68.04907	52.15
72.43941	53.85
76.82654	51.35
81.21044	56.75
85.59113	58.55
89.96862	62.25
94.34289	63.95
98.71396	66.95
103.08183	66.95
107.4465	67.35
111.80798	68.85
116.16626	70.15
120.52136	77.15
124.87327	78.15
129.222	80.25
133.56755	88.85
137.90993	93.15
142.24913	106.45
146.58517	116.65
150.91804	140.25
155.24774	170.65
159.57429	211.75
163.89768	272.45
168.21792	365.95
172.53501	507.05
176.84895	700.55
181.15975	996.15
185.46741	1393.15
189.77193	1917.05
194.07331	2563.25
198.37157	3307.65
202.6667	4085.45
206.9587	4866.35
211.24758	5669.65
215.53334	6520.85
219.81599	7458.05
224.09553	8470.65
228.37195	9634.75
232.64527	10876.45
236.91549	12160.55
241.18261	13345.75
245.44663	14328.95
249.70755	15108.35
253.96539	15726.55
258.22014	16293.55
262.4718	16789.95
266.72039	17134.65
270.96589	17291.95
275.20832	17208.65
279.44768	17040.05
283.68397	16861.15
287.91719	16762.75
292.14735	16782.45
296.37445	16987.65
300.59849	17275.75
304.81948	17767.25
309.03742	18092.85
313.25231	18113.25
317.46415	17626.75
321.67296	16788.75
325.87872	16014.95
330.08145	15612.45
334.28114	15514.45
338.47781	15690.15
342.67145	15968.15
346.86207	16410.65
351.04966	16948.95
355.23424	17603.05
359.4158	18076.95
363.59435	18269.55
367.76989	18318.05
371.94243	18278.05
376.11196	18264.45
380.27849	18205.65
384.44203	18193.15
388.60257	18161.05
392.76012	18237.45
396.91468	18375.45
401.06626	18723.25
405.21485	18895.75
409.36047	18634.45
413.50311	17967.45
417.64277	17375.75
421.77947	17149.55
425.9132	17141.35
430.04396	17268.15
434.17176	17408.25
438.2966	17657.65
442.41849	18158.45
446.53742	18955.35
450.6534	19748.85
454.76644	20203.75
458.87653	20155.45
462.98368	19832.25
467.08789	19431.65
471.18916	18990.85
475.2875	18570.95
479.38291	18301.25
483.4754	18081.25
487.56496	17794.15
491.6516	17390.15
495.73531	17029.45
499.81612	16879.05
503.89401	16970.25
507.96899	17060.35
512.04106	17058.95
516.11023	16969.85
520.1765	16845.15
524.23987	16762.75
528.30034	16656.95
532.35792	16569.95
536.41261	16263.55
540.46441	15909.15
544.51333	15756.15
548.55936	15973.55
552.60252	16511.45
556.64279	17286.25
560.6802	17832.05
564.71473	18285.45
568.7464	19031.05
572.7752	19921.95
576.80114	20272.85
580.82422	20293.25
584.84444	20564.15
588.86181	21276.05
592.87633	22198.85
596.888	22423.75
600.89682	21658.95
604.9028	21961.45
608.90594	25538.35
612.90624	29928.05
616.90371	27967.05
620.89834	20487.95
624.89015	16908.85
628.87913	16331.95
632.86528	16539.55
636.84862	16710.85
640.82913	16358.45
644.80683	15577.25
648.78172	14992.95
652.75379	14910.75
656.72306	15410.85
660.68952	16016.15
664.65319	15881.25
668.61405	15197.45
672.57211	14925.75
676.52738	15005.75
680.47986	15006.05
684.42955	14757.75
688.37646	14650.45
692.32058	14694.55
696.26192	14968.65
700.20048	15243.95
704.13626	15482.45
708.06928	15480.65
711.99952	15372.05
715.927	15309.15
719.85171	15401.95
723.77365	15365.75
727.69284	15180.35
731.60928	14972.45
735.52295	14936.95
739.43388	15028.15
743.34206	15138.85
747.24749	15205.85
751.15017	15374.65
755.05012	15749.65
758.94733	16569.25
762.8418	18427.25
766.73354	21516.75
770.62254	24447.25
774.50882	25178.75
778.39237	23560.85
782.27321	20605.15
786.15132	17953.15
790.02671	16241.15
793.89938	15396.75
797.76935	15005.55
801.6366	14847.65
805.50115	14710.95
809.36299	14582.55
813.22213	14447.65
817.07857	14353.75
820.93231	14270.75
824.78336	14240.35
828.63172	14172.35
832.47738	14146.45
836.32036	14144.15
840.16066	14132.95
843.99827	14108.15
847.8332	14088.05
851.66546	14066.65
855.49504	14106.15
859.32195	14099.95
863.1462	14020.65
866.96777	13968.35
870.78668	13922.65
874.60293	13937.15
878.41652	13996.95
882.22745	14103.45
886.03573	14202.45
889.84136	14206.95
893.64433	14119.15
897.44466	14048.35
901.24235	13947.75
905.0374	13865.45
908.8298	13733.65
912.61957	13684.45
916.40671	13810.45
920.19121	14067.35
923.97308	14352.95
927.75233	14431.75
931.52895	14338.85
935.30295	14050.15
939.07433	13588.45
942.84309	13258.65
946.60924	13076.75
950.37278	13042.95
954.13371	13039.45
957.89203	13007.25
961.64774	12968.75
965.40086	12969.75
969.15137	12958.05
972.89929	12904.15
976.64461	12828.55
980.38733	12764.35
984.12747	12806.15
987.86502	12940.55
991.59999	13095.25
995.33237	13394.45
999.06217	13826.95
1002.78939	14450.55
1006.51404	15051.85
1010.23611	15511.55
1013.95561	15792.75
1017.67255	15767.05
1021.38692	15367.95
1025.09872	14798.95
1028.80796	14437.85
1032.51465	14397.85
1036.21877	14548.35
1039.92035	14661.65
1043.61937	14695.15
1047.31584	14635.45
1051.00976	14559.25
1054.70114	14509.75
1058.38998	14579.55
1062.07627	14683.65
1065.76003	14840.15
1069.44126	15079.55
1073.11995	15415.45
1076.79611	15754.35
1080.46974	16092.65
1084.14085	16499.55
1087.80943	16941.05
1091.47549	17181.35
1095.13903	17015.95
1098.80005	16575.55
1102.45857	16010.85
1106.11456	15656.25
1109.76805	15624.25
1113.41903	15897.65
1117.06751	16258.35
1120.71348	16831.05
1124.35696	17452.35
1127.99793	17979.85
1131.63641	17969.65
1135.2724	17483.95
1138.90589	17027.75
1142.5369	16775.75
1146.16542	16687.05
1149.79145	16753.25
1153.415	16869.55
1157.03607	17191.85
1160.65467	17761.65
1164.27079	18809.95
1167.88443	20353.75
1171.49561	22544.55
1175.10432	25653.65
1178.71056	29585.15
1182.31434	32872.15
1185.91565	33984.95
1189.51451	33130.85
1193.11091	31310.65
1196.70485	29153.95
1200.29634	27144.45
1203.88538	25385.55
1207.47197	23891.55
1211.05612	22667.95
1214.63782	21938.35
1218.21708	21728.75
1221.79391	21854.85
1225.36829	22010.25
1228.94024	21675.45
1232.50976	20863.05
1236.07685	20077.25
1239.6415	19628.85
1243.20374	19465.35
1246.76355	19546.65
1250.32093	19853.05
1253.8759	20405.85
1257.42845	21177.35
1260.97859	22131.85
1264.52631	23205.25
1268.07163	24243.35
1271.61453	25181.85
1275.15503	26168.95
1278.69312	26969.45
1282.22882	27830.25
1285.76211	29053.05
1289.29301	30609.35
1292.82151	32435.05
1296.34761	34599.15
1299.87133	37381.75
1303.39266	40742.45
1306.9116	44817.35
1310.42815	48832.95
1313.94233	51013.05
1317.45412	50272.55
1320.96354	47862.75
1324.47058	45304.75
1327.97525	43005.25
1331.47754	41366.15
1334.97747	40373.45
1338.47502	39798.75
1341.97022	39738.65
1345.46305	39877.95
1348.95352	40384.55
1352.44163	41529.15
1355.92738	44014.65
1359.41078	48401.65
1362.89183	52286.75
1366.37053	51062.95
1369.84688	44356.85
1373.32088	37189.35
1376.79254	32823.55
1380.26186	30879.55
1383.72883	30162.55
1387.19347	29744.05
1390.65578	29401.35
1394.11575	29319.15
1397.57339	29731.55
1401.0287	30235.15
1404.48168	30513.55
1407.93234	30323.85
1411.38068	29605.75
1414.82669	28477.75
1418.27039	27128.85
1421.71177	25781.05
1425.15083	24705.25
1428.58758	24220.25
1432.02203	24508.15
1435.45416	25288.85
1438.88399	26004.25
1442.31151	26502.15
1445.73673	26942.75
1449.15965	27291.25
1452.58027	27518.75
1455.9986	27630.15
1459.41463	27929.85
1462.82837	28617.25
1466.23982	29392.25
1469.64898	30016.05
1473.05586	30236.15
1476.46045	30255.55
1479.86276	30076.45
1483.26279	29885.25
1486.66054	30115.65
1490.05602	30662.05
1493.44922	31626.35
1496.84016	32865.85
1500.22882	34988.25
1503.61521	37988.55
1506.99934	41339.55
1510.38121	43775.75
1513.76081	43840.85
1517.13816	41088.85
1520.51324	37033.75
1523.88607	33759.75
1527.25665	31922.05
1530.62498	31190.45
1533.99105	30827.05
1537.35488	30334.75
1540.71647	29570.65
1544.07581	28538.35
1547.4329	27577.15
1550.78776	26741.15
1554.14038	26204.35
1557.49077	26024.55
1560.83892	26220.05
1564.18484	26758.25
1567.52853	27487.25
1570.86999	28152.45
1574.20922	28736.05
1577.54624	28800.85
1580.88103	27971.65
1584.2136	26957.35
1587.54395	27050.95
1590.87208	28404.25
1594.19801	30876.65
1597.52172	33566.25
1600.84321	34483.75
1604.16251	32795.15
1607.47959	29656.15
1610.79447	26274.95
1614.10715	23316.75
1617.41763	20883.75
1620.7259	19332.95
1624.03199	18591.95
1627.33587	18563.75
1630.63757	19358.25
1633.93707	21173.65
1637.23439	24401.45
1640.52951	29340.05
1643.82246	35594.85
1647.11321	40934.45
1650.40179	42636.85
1653.68819	38974.95
1656.97241	31990.55
1660.25446	25181.65
1663.53433	20318.55
1666.81203	17361.95
1670.08756	15681.45
1673.36092	14625.05
1676.63211	14009.45
1679.90115	13513.55
1683.16801	13199.45
1686.43272	12964.45
1689.69527	12805.95
1692.95567	12656.15
1696.2139	12548.25
1699.46999	12431.55
1702.72392	12386.35
1705.97571	12341.85
1709.22535	12300.15
1712.47284	12286.45
1715.71819	12244.15
1718.96139	12181.25
1722.20246	12140.65
1725.44139	12019.65
1728.67818	11921.65
1731.91284	11799.95
1735.14537	11677.25
1738.37576	11560.75
1741.60403	11514.35
1744.83017	11466.35
1748.05418	11423.85
1751.27607	11384.55
1754.49584	11328.95
1757.71349	11309.75
1760.92903	11276.75
1764.14244	11269.45
1767.35375	11249.45
1770.56294	11211.35
1773.77002	11187.55
1776.97499	11170.05
1780.17785	11129.55
1783.37861	11073.65
1786.57727	11057.45
1789.77382	11030.25
1792.96828	11010.25
1796.16064	11005.15
1799.3509	10917.35
1802.53907	10920.05
1805.72514	10841.45
1808.90913	10829.55
1812.09102	10800.45
1815.27083	10751.15
1818.44856	10761.05
1821.6242	10698.95
1824.79776	10706.45
1827.96924	10681.75
1831.13864	10638.05
1834.30597	10651.35
1837.47122	10665.65
1840.6344	10650.75
1843.7955	10632.05
1846.95454	10622.55
1850.11151	10617.35
1853.26642	10619.95
1856.41926	10617.05
1859.57004	10589.25
1862.71876	10585.85
1865.86542	10569.55
1869.01003	10566.25
1872.15258	10528.55
1875.29308	10559.15
1878.43152	10536.05
1881.56792	10548.45
1884.70227	10532.85
1887.83457	10541.25
1890.96482	10543.65
1894.09304	10500.15
1897.21921	10518.45
1900.34335	10522.55
1903.46544	10494.85
1906.58551	10484.25
1909.70353	10487.05
1912.81953	10447.95
1915.93349	10422.05
1919.04543	10400.45
1922.15534	10333.75
1925.26322	10319.65
1928.36908	10276.25
1931.47292	10238.85
1934.57473	10215.15
1937.67453	10171.05
1940.77232	10148.55
1943.86808	10112.45
1946.96184	10089.35
1950.05358	10062.15
1953.14331	10029.25
1956.23103	10018.05
1959.31675	9980.65
1962.40046	9948.55
1965.48217	9931.85
1968.56188	9916.45
1971.63959	9901.15
1974.7153	9861.75
1977.78901	9852.75
1980.86073	9786.15
1983.93046	9761.95
1986.99819	9701.65
1990.06394	9666.15
1993.1277	9653.15
1996.18947	9613.15
1999.24925	9572.55
2002.30706	9516.25
2005.36288	9486.45
2008.41672	9478.55
2011.46859	9448.75
2014.51848	9402.75
2017.56639	9395.65
2020.61233	9329.85
2023.6563	9318.95
2026.6983	9298.15
2029.73833	9291.95
2032.7764	9251.85
2035.8125	9260.35
2038.84664	9223.45
2041.87881	9196.45
2044.90903	9165.85
2047.93729	9155.35
2050.96359	9132.55
2053.98794	9135.35
2057.01034	9110.95
2060.03078	9100.05
2063.04927	9076.25
2066.06582	9080.65
2069.08042	9049.45
2072.09307	9060.85
2075.10378	9040.95
2078.11255	9061.05
2081.11938	9039.95
2084.12426	9064.15
2087.12722	9045.05
2090.12824	9042.15
2093.12732	9042.65
2096.12447	9033.45
2099.11969	9039.05
2102.11299	9061.85
2105.10435	9047.95
2108.09379	9054.05
2111.08131	9035.95
2114.0669	9041.35
2117.05057	9052.95
2120.03233	9075.05
2123.01216	9078.15
2125.99008	9072.35
2128.96609	9081.25
2131.94018	9051.25
2134.91236	9048.25
2137.88263	9059.45
2140.851	9036.25
2143.81746	9029.75
2146.78201	9045.55
2149.74466	9026.65
2152.7054	9043.55
2155.66425	8988.15
2158.6212	9005.25
2161.57625	8986.75
2164.52941	8979.85
2167.48067	8975.55
2170.43004	8960.95
2173.37752	8983.85
2176.32311	8968.75
2179.26681	8980.65
2182.20863	8962.85
2185.14856	8976.05
2188.08661	8963.75
2191.02278	8973.85
2193.95707	8924.95
2196.88948	8919.05
2199.82001	8926.85
2202.74867	8891.85
2205.67545	8892.95
2208.60037	8858.95
2211.52341	8847.45
2214.44458	8841.15
2217.36388	8849.65
2220.28132	8834.85
2223.1969	8797.25
2226.11061	8779.65
2229.02246	8757.15
2231.93245	8766.05
2234.84058	8731.65
2237.74686	8712.75
2240.65128	8712.95
2243.55385	8682.35
2246.45456	8686.95
2249.35343	8671.45
2252.25044	8643.95
2255.14561	8654.85
2258.03893	8657.45
2260.93041	8654.45
2263.82004	8603.45
2266.70783	8570.25
2269.59378	8566.35
2272.4779	8525.65
2275.36017	8531.45
2278.24061	8486.15
2281.11922	8496.15
2283.996	8491.85
2286.87094	8453.65
2289.74405	8427.95
2292.61534	8406.25
2295.4848	8405.15
2298.35243	8435.95
2301.21824	8380.15
2304.08223	8394.45
2306.94439	8383.45
2309.80474	8412.45
2312.66327	8390.95
2315.51999	8400.25
2318.37489	8386.05
2321.22797	8382.45
2324.07925	8366.05
2326.92871	8361.55
2329.77637	8357.35
2332.62222	8337.55
2335.46626	8343.25
2338.3085	8342.55
2341.14893	8368.55
2343.98756	8388.25
2346.8244	8393.65
2349.65943	8388.65
2352.49267	8391.15
2355.32411	8376.05
2358.15376	8394.15
2360.98161	8394.45
2363.80768	8389.75
2366.63195	8391.75
2369.45444	8397.05
2372.27514	8403.95
2375.09405	8390.85
2377.91118	8368.05
2380.72652	8308.55
2383.54009	8289.65
2386.35187	8271.95
2389.16188	8240.15
2391.97011	8196.65
2394.77657	8191.65
2397.58125	8187.35
2400.38416	8171.45
2403.18529	8131.15
2405.98466	8141.75
2408.78226	8120.65
2411.57809	8105.25
2414.37216	8102.95
2417.16446	8079.15
2419.955	8063.85
2422.74378	8061.95
2425.5308	8050.95
2428.31606	8062.45
2431.09956	8045.95
2433.88131	8026.75
2436.6613	8033.65
2439.43954	8075.75
2442.21603	8076.25
2444.99077	8076.75
2447.76377	8086.95
2450.53501	8110.55
2453.30451	8089.95
2456.07226	8077.65
2458.83827	8087.35
2461.60254	8089.65
2464.36507	8102.55
2467.12586	8069.15
2469.88492	8073.25
2472.64224	8087.95
2475.39782	8096.45
2478.15167	8098.95
2480.90379	8129.25
2483.65417	8125.35
2486.40283	8157.75
2489.14976	8155.75
2491.89497	8168.65
2494.63845	8154.15
2497.3802	8171.75
2500.12024	8175.05
2502.85855	8164.85
2505.59514	8145.25
2508.33002	8128.15
2511.06318	8102.85
2513.79462	8081.95
2516.52435	8058.35
2519.25237	8041.65
2521.97867	8035.75
2524.70327	8016.15
2527.42616	8020.25
2530.14734	8018.85
2532.86681	8000.25
2535.58458	8012.75
2538.30065	8005.85
2541.01501	8016.85
2543.72768	7997.55
2546.43864	7993.75
2549.14791	7984.65
2551.85548	7970.95
2554.56136	8006.55
2557.26554	7986.75
2559.96803	7954.15
2562.66883	7960.75
2565.36794	7987.65
2568.06536	7973.45
2570.7611	7963.05
2573.45514	7952.35
2576.14751	7954.15
2578.83819	7948.05
2581.52719	7960.25
2584.21451	7934.75
2586.90015	7941.75
2589.58411	7912.75
2592.2664	7895.25
2594.94701	7909.75
2597.62594	7885.25
2600.30321	7877.15
2602.9788	7877.75
2605.65273	7891.75
2608.32498	7896.95
2610.99557	7895.35
2613.66449	7925.55
2616.33175	7915.05
2618.99734	7926.85
2621.66128	7928.25
2624.32355	7916.25
2626.98416	7920.35
2629.64311	7913.75
2632.30041	7912.45
2634.95605	7870.45
2637.61004	7899.25
2640.26238	7873.65
2642.91306	7878.35
2645.56209	7888.65
2648.20948	7889.45
2650.85521	7894.35
2653.4993	7896.05
2656.14175	7909.65
2658.78255	7919.15
2661.42171	7927.75
2664.05923	7942.95
2666.6951	7942.05
2669.32934	7941.75
2671.96194	7948.05
2674.59291	7954.05
2677.22224	7935.15
2679.84993	7951.25
2682.476	7939.05
2685.10043	7927.65
2687.72324	7914.85
2690.34441	7923.55
2692.96396	7913.45
2695.58188	7915.25
2698.19818	7914.15
2700.81285	7937.35
2703.4259	7916.75
2706.03733	7910.75
2708.64714	7925.55
2711.25533	7930.55
2713.86191	7929.25
2716.46687	7951.85
2719.07021	7940.75
2721.67194	7937.45
2724.27206	7965.65
2726.87057	7942.55
2729.46747	7940.45
2732.06276	7985.55
2734.65644	7967.05
2737.24852	7945.55
2739.83899	7960.15
2742.42786	7949.35
2745.01513	7920.25
2747.60079	7932.85
2750.18486	7922.95
2752.76733	7934.05
2755.3482	7917.15
2757.92747	7941.25
2760.50515	7927.45
2763.08123	7945.25
2765.65573	7923.65
2768.22863	7935.05
2770.79994	7932.75
2773.36967	7905.75
2775.9378	7913.35
2778.50435	7926.95
2781.06932	7925.35
2783.6327	7941.35
2786.1945	7900.55
2788.75471	7901.95
2791.31335	7879.05
2793.87041	7888.55
2796.42589	7864.05
2798.97979	7901.35
2801.53212	7858.35
2804.08288	7889.35
2806.63206	7895.45
2809.17967	7871.25
2811.72571	7861.35
2814.27018	7849.75
2816.81308	7867.05
2819.35442	7831.65
2821.89419	7826.45
2824.43239	7823.05
2826.96904	7827.85
2829.50412	7830.45
2832.03763	7795.75
2834.56959	7795.15
2837.1	7801.45
2839.62884	7789.35
2842.15613	7768.65
2844.68186	7802.25
2847.20604	7798.25
2849.72867	7817.15
2852.24974	7809.55
2854.76927	7802.45
2857.28724	7789.75
2859.80367	7816.55
2862.31855	7823.65
2864.83189	7804.95
2867.34368	7803.15
2869.85393	7817.55
2872.36264	7819.35
2874.8698	7815.35
2877.37543	7838.65
2879.87952	7820.35
2882.38207	7830.75
2884.88308	7815.45
2887.38256	7832.85
2889.88051	7824.95
2892.37692	7810.45
2894.8718	7812.25
2897.36515	7835.75
2899.85698	7833.45
2902.34727	7849.35
2904.83604	7862.65
2907.32328	7856.85
2909.809	7847.15
2912.29319	7865.55
2914.77587	7853.25
2917.25702	7841.95
2919.73665	7838.65
2922.21476	7846.95
2924.69136	7819.75
2927.16644	7823.25
2929.64	7793.45
2932.11205	7776.05
2934.58258	7743.25
2937.05161	7747.55
2939.51912	7755.45
2941.98513	7741.95
2944.44962	7718.75
2946.91261	7669.45
2949.37409	7689.25
2951.83407	7701.55
2954.29254	7678.65
2956.74951	7676.35
2959.20498	7641.55
2961.65895	7638.15
2964.11142	7625.15
2966.56239	7609.65
2969.01186	7573.95
2971.45984	7566.85
2973.90632	7543.75
2976.35131	7508.55
2978.7948	7487.05
2981.23681	7465.55
2983.67732	7451.55
2986.11635	7431.65
2988.55388	7404.95
2990.98993	7362.35
2993.4245	7372.55
2995.85758	7364.25
2998.28917	7340.35
3000.71928	7335.35
3003.14791	7326.45
3005.57506	7306.25
3008.00073	7301.75
3010.42493	7290.05
3012.84764	7285.45
3015.26888	7249.05
3017.68865	7239.65
3020.10694	7248.25
3022.52376	7185.05
3024.9391	7202.75
3027.35298	7183.95
3029.76539	7185.05
3032.17632	7166.35
3034.5858	7156.55
3036.9938	7155.75
3039.40034	7136.95
3041.80542	7129.05
3044.20903	7093.85
3046.61118	7083.65
3049.01187	7080.65
3051.4111	7066.25
3053.80888	7055.45
3056.20519	7044.15
3058.60005	6989.45
3060.99345	6989.85
3063.3854	6987.45
3065.7759	6962.15
3068.16494	6953.95
3070.55254	6922.85
3072.93868	6899.05
3075.32338	6888.75
3077.70662	6876.15
3080.08842	6834.05
3082.46878	6857.15
3084.84769	6826.95
3087.22515	6852.85
3089.60118	6826.15
3091.97576	6807.75
3094.3489	6792.35
3096.72061	6778.45
3099.09087	6777.85
3101.4597	6776.85
3103.82709	6758.25
3106.19305	6762.65
3108.55757	6741.95
3110.92066	6713.35
3113.28232	6695.95
3115.64255	6677.15
3118.00134	6668.65
3120.35871	6639.05
3122.71466	6642.15
3125.06917	6637.95
3127.42226	6628.25
3129.77393	6632.45
3132.12417	6614.95
3134.47299	6630.15
3136.82039	6624.65
3139.16636	6621.75
3141.51092	6615.45
3143.85406	6607.75
3146.19579	6599.85
3148.53609	6590.45
3150.87499	6614.05
3153.21246	6609.05
3155.54853	6582.85
3157.88318	6577.25
3160.21642	6601.15
3162.54826	6570.95
3164.87868	6562.45
3167.2077	6573.55
3169.5353	6565.05
3171.86151	6569.25
3174.18631	6570.45
3176.5097	6558.85
3178.83169	6550.85
3181.15228	6559.35
3183.47147	6562.35
3185.78926	6548.85
3188.10565	6547.95
3190.42065	6539.35
3192.73424	6542.55
3195.04645	6546.85
3197.35725	6548.95
3199.66667	6560.15
3201.97469	6547.35
3204.28132	6566.25
3206.58656	6553.95
3208.8904	6549.55
3211.19287	6539.75
3213.49394	6552.05
3215.79363	6537.55
3218.09193	6535.75
3220.38884	6515.55
3222.68438	6540.05
3224.97853	6537.65
3227.2713	6522.65
3229.56269	6529.25
3231.8527	6505.55
3234.14133	6481.35
3236.42858	6498.55
3238.71446	6490.15
3240.99896	6484.05
3243.28209	6493.15
3245.56384	6483.45
3247.84423	6472.95
3250.12324	6476.75
3252.40088	6454.75
3254.67715	6444.45
3256.95205	6430.85
3259.22558	6408.35
3261.49775	6402.35
3263.76855	6394.35
3266.03799	6356.75
3268.30606	6376.15
3270.57277	6363.95
3272.83812	6353.45
3275.10211	6348.85
3277.36474	6355.55
3279.62601	6365.45
3281.88593	6343.55
3284.14448	6382.35
3286.40168	6365.05
3288.65753	6368.05
3290.91202	6347.85
3293.16516	6348.55
3295.41695	6330.35
3297.66738	6298.05
3299.91647	6293.15
3302.16421	6256.95
3304.4106	6227.95
3306.65564	6193.25
3308.89933	6147.15
3311.14169	6119.55
3313.38269	6064.95
3315.62236	6026.75
3317.86068	5976.35
3320.09766	5904.15
3322.3333	5838.05
3324.5676	5856.05
3326.80056	5750.65
3329.03219	5723.35
3331.26248	2.05
3333.49143	-2.45
3335.71905	1.25
