Data from AgNP_FTO_APTES_UA_100uM_CRN_10uM_R6G_10uM_NaF_0.1M_Addition_RamanShift__44__16-08-20-453.txt Node

Date: Thu Mar 24 16:08:20 GMT 2022
User: TCL
Spectrometer: QEP01345
Trigger mode: 4
Integration Time (sec): 7.000000E0
Scans to average: 10
Electric dark correction enabled: true
Nonlinearity correction enabled: false
Boxcar width: 0
XAxis mode: Raman Shifts
Number of Pixels in Spectrum: 1044
>>>>>Begin Spectral Data<<<<<
46.04893	-2.15
50.45542	0.95
54.85868	-0.45
59.25871	-1.05
63.6555	29.35
68.04907	34.15
72.43941	34.45
76.82654	32.55
81.21044	34.05
85.59113	38.65
89.96862	40.85
94.34289	40.15
98.71396	41.35
103.08183	38.95
107.4465	45.25
111.80798	45.95
116.16626	44.85
120.52136	47.35
124.87327	47.05
129.222	50.85
133.56755	52.75
137.90993	56.05
142.24913	67.65
146.58517	70.65
150.91804	84.05
155.24774	102.35
159.57429	125.75
163.89768	162.35
168.21792	219.65
172.53501	296.35
176.84895	410.55
181.15975	581.75
185.46741	816.95
189.77193	1137.65
194.07331	1518.65
198.37157	1973.35
202.6667	2452.45
206.9587	2942.45
211.24758	3468.65
215.53334	4020.05
219.81599	4651.85
224.09553	5373.65
228.37195	6185.95
232.64527	7042.05
236.91549	7869.85
241.18261	8568.65
245.44663	9079.15
249.70755	9425.15
253.96539	9679.25
258.22014	9967.05
262.4718	10255.45
266.72039	10419.25
270.96589	10449.85
275.20832	10279.55
279.44768	9976.45
283.68397	9719.05
287.91719	9560.95
292.14735	9612.85
296.37445	9953.35
300.59849	10574.65
304.81948	11291.15
309.03742	11889.65
313.25231	11994.25
317.46415	11460.45
321.67296	10432.65
325.87872	9509.15
330.08145	9049.25
334.28114	8962.05
338.47781	9122.85
342.67145	9421.05
346.86207	9901.75
351.04966	10626.25
355.23424	11436.15
359.4158	12059.35
363.59435	12311.45
367.76989	12279.45
371.94243	12133.55
376.11196	11949.05
380.27849	11792.45
384.44203	11544.55
388.60257	11318.95
392.76012	11176.75
396.91468	11292.65
401.06626	11588.15
405.21485	11787.65
409.36047	11432.55
413.50311	10558.55
417.64277	9742.95
421.77947	9260.25
425.9132	9067.65
430.04396	9061.85
434.17176	9100.55
438.2966	9212.75
442.41849	9524.15
446.53742	9905.05
450.6534	10236.65
454.76644	10378.85
458.87653	10323.35
462.98368	10111.65
467.08789	9872.15
471.18916	9601.65
475.2875	9255.05
479.38291	9005.75
483.4754	8798.25
487.56496	8636.75
491.6516	8544.95
495.73531	8504.75
499.81612	8535.15
503.89401	8678.55
507.96899	8836.25
512.04106	9016.95
516.11023	9233.55
520.1765	9371.85
524.23987	9388.65
528.30034	9295.55
532.35792	9172.45
536.41261	8970.95
540.46441	8677.65
544.51333	8505.55
548.55936	8547.05
552.60252	8827.45
556.64279	9184.55
560.6802	9380.85
564.71473	9566.75
568.7464	10147.75
572.7752	10437.35
576.80114	9976.55
580.82422	9515.65
584.84444	9418.25
588.86181	9593.25
592.87633	9909.85
596.888	10149.15
600.89682	10371.85
604.9028	11836.85
608.90594	16397.55
612.90624	22622.95
616.90371	21398.55
620.89834	13415.55
624.89015	9617.25
628.87913	8936.35
632.86528	9178.55
636.84862	9470.75
640.82913	9202.65
644.80683	8521.45
648.78172	7997.45
652.75379	8016.05
656.72306	8567.75
660.68952	9216.35
664.65319	9007.35
668.61405	8258.85
672.57211	7918.65
676.52738	7924.45
680.47986	7867.95
684.42955	7709.85
688.37646	7604.05
692.32058	7597.15
696.26192	7713.45
700.20048	7894.85
704.13626	7977.35
708.06928	7948.35
711.99952	7868.85
715.927	7868.55
719.85171	7955.95
723.77365	8027.65
727.69284	7961.85
731.60928	7860.15
735.52295	7877.95
739.43388	7917.45
743.34206	7962.65
747.24749	7983.35
751.15017	7962.65
755.05012	8146.05
758.94733	8786.25
762.8418	10492.75
766.73354	13386.25
770.62254	16186.95
774.50882	17409.95
778.39237	16343.25
782.27321	13503.15
786.15132	10673.65
790.02671	8974.05
793.89938	8202.75
797.76935	7897.25
801.6366	7729.45
805.50115	7661.15
809.36299	7602.25
813.22213	7537.05
817.07857	7515.45
820.93231	7480.75
824.78336	7502.45
828.63172	7568.65
832.47738	7597.05
836.32036	7543.25
840.16066	7468.45
843.99827	7414.35
847.8332	7389.75
851.66546	7361.15
855.49504	7389.55
859.32195	7381.55
863.1462	7334.45
866.96777	7312.45
870.78668	7304.65
874.60293	7356.85
878.41652	7399.45
882.22745	7488.45
886.03573	7589.15
889.84136	7556.85
893.64433	7482.85
897.44466	7461.95
901.24235	7412.75
905.0374	7354.75
908.8298	7263.45
912.61957	7212.75
916.40671	7203.25
920.19121	7296.95
923.97308	7454.55
927.75233	7626.45
931.52895	7799.35
935.30295	7704.45
939.07433	7328.45
942.84309	7073.75
946.60924	6914.05
950.37278	6830.95
954.13371	6751.15
957.89203	6719.75
961.64774	6702.05
965.40086	6680.75
969.15137	6632.35
972.89929	6603.85
976.64461	6597.35
980.38733	6607.25
984.12747	6608.85
987.86502	6667.45
991.59999	6750.95
995.33237	6873.25
999.06217	7111.15
1002.78939	7372.55
1006.51404	7652.75
1010.23611	7892.15
1013.95561	7971.15
1017.67255	7940.65
1021.38692	7776.85
1025.09872	7552.75
1028.80796	7415.95
1032.51465	7489.85
1036.21877	7615.95
1039.92035	7724.65
1043.61937	7744.85
1047.31584	7739.25
1051.00976	7626.65
1054.70114	7551.75
1058.38998	7506.25
1062.07627	7494.25
1065.76003	7544.45
1069.44126	7594.05
1073.11995	7762.95
1076.79611	7964.15
1080.46974	8278.25
1084.14085	8697.05
1087.80943	9126.85
1091.47549	9209.85
1095.13903	8970.45
1098.80005	8493.15
1102.45857	8153.45
1106.11456	8092.15
1109.76805	8242.35
1113.41903	8657.45
1117.06751	9238.15
1120.71348	9986.55
1124.35696	10801.25
1127.99793	11348.75
1131.63641	11033.85
1135.2724	10133.45
1138.90589	9347.55
1142.5369	8893.85
1146.16542	8545.15
1149.79145	8361.85
1153.415	8337.25
1157.03607	8430.15
1160.65467	8709.05
1164.27079	9263.85
1167.88443	10102.45
1171.49561	11368.65
1175.10432	13385.45
1178.71056	16087.05
1182.31434	18296.85
1185.91565	18786.05
1189.51451	17834.75
1193.11091	16200.85
1196.70485	14458.15
1200.29634	13229.85
1203.88538	12203.75
1207.47197	11088.85
1211.05612	10106.95
1214.63782	9550.15
1218.21708	9345.85
1221.79391	9349.05
1225.36829	9432.35
1228.94024	9336.55
1232.50976	9160.85
1236.07685	9022.45
1239.6415	8965.35
1243.20374	9030.95
1246.76355	9108.55
1250.32093	9255.45
1253.8759	9501.55
1257.42845	9936.85
1260.97859	10451.45
1264.52631	11076.25
1268.07163	11677.45
1271.61453	12202.25
1275.15503	12543.05
1278.69312	12765.65
1282.22882	12978.65
1285.76211	13526.85
1289.29301	14252.45
1292.82151	14988.65
1296.34761	15844.95
1299.87133	17207.25
1303.39266	19536.35
1306.9116	22994.15
1310.42815	26542.75
1313.94233	27993.35
1317.45412	26174.95
1320.96354	22983.35
1324.47058	19946.45
1327.97525	17521.25
1331.47754	16045.85
1334.97747	15438.75
1338.47502	15471.75
1341.97022	16093.55
1345.46305	17412.15
1348.95352	19389.35
1352.44163	21940.95
1355.92738	25599.45
1359.41078	31210.55
1362.89183	35964.15
1366.37053	33693.25
1369.84688	26157.65
1373.32088	19786.75
1376.79254	16323.35
1380.26186	14591.75
1383.72883	13484.85
1387.19347	12641.25
1390.65578	11895.15
1394.11575	11374.15
1397.57339	11182.85
1401.0287	11204.85
1404.48168	11218.25
1407.93234	11207.75
1411.38068	11242.75
1414.82669	11226.35
1418.27039	11169.75
1421.71177	10929.95
1425.15083	10604.05
1428.58758	10517.45
1432.02203	10758.25
1435.45416	11060.15
1438.88399	11145.95
1442.31151	11147.85
1445.73673	11208.55
1449.15965	11317.95
1452.58027	11267.25
1455.9986	11093.85
1459.41463	11086.95
1462.82837	11351.05
1466.23982	11794.75
1469.64898	12271.95
1473.05586	12532.45
1476.46045	12674.85
1479.86276	12890.65
1483.26279	13202.95
1486.66054	13756.35
1490.05602	14591.95
1493.44922	15857.65
1496.84016	17811.95
1500.22882	20949.95
1503.61521	25388.95
1506.99934	30367.55
1510.38121	33967.75
1513.76081	33962.95
1517.13816	29841.15
1520.51324	24045.75
1523.88607	19256.55
1527.25665	16394.65
1530.62498	14894.95
1533.99105	14004.35
1537.35488	13352.15
1540.71647	12885.85
1544.07581	12623.05
1547.4329	12434.25
1550.78776	12418.65
1554.14038	12543.05
1557.49077	12770.55
1560.83892	13207.15
1564.18484	13967.65
1567.52853	14826.15
1570.86999	15505.65
1574.20922	15911.35
1577.54624	15690.45
1580.88103	14385.85
1584.2136	12734.25
1587.54395	11808.95
1590.87208	11881.45
1594.19801	12819.85
1597.52172	14157.85
1600.84321	14740.25
1604.16251	14120.05
1607.47959	13020.75
1610.79447	11819.35
1614.10715	10630.75
1617.41763	9692.55
1620.7259	9067.85
1624.03199	8801.65
1627.33587	8844.75
1630.63757	9204.75
1633.93707	9994.65
1637.23439	11361.35
1640.52951	13670.25
1643.82246	17059.15
1647.11321	20981.85
1650.40179	23385.55
1653.68819	22029.75
1656.97241	17699.15
1660.25446	13363.05
1663.53433	10516.25
1666.81203	8891.45
1670.08756	7986.35
1673.36092	7433.85
1676.63211	7096.85
1679.90115	6859.05
1683.16801	6695.15
1686.43272	6564.85
1689.69527	6468.15
1692.95567	6424.55
1696.2139	6382.85
1699.46999	6364.35
1702.72392	6314.95
1705.97571	6274.15
1709.22535	6259.85
1712.47284	6263.05
1715.71819	6253.85
1718.96139	6229.75
1722.20246	6190.55
1725.44139	6137.55
1728.67818	6040.05
1731.91284	5994.05
1735.14537	5924.85
1738.37576	5887.85
1741.60403	5859.65
1744.83017	5822.15
1748.05418	5774.15
1751.27607	5767.45
1754.49584	5762.05
1757.71349	5737.15
1760.92903	5729.65
1764.14244	5724.65
1767.35375	5700.65
1770.56294	5689.95
1773.77002	5627.75
1776.97499	5575.65
1780.17785	5552.95
1783.37861	5525.55
1786.57727	5502.15
1789.77382	5477.95
1792.96828	5462.75
1796.16064	5455.15
1799.3509	5460.05
1802.53907	5437.05
1805.72514	5404.45
1808.90913	5380.75
1812.09102	5350.45
1815.27083	5341.05
1818.44856	5311.45
1821.6242	5304.55
1824.79776	5278.95
1827.96924	5270.15
1831.13864	5294.65
1834.30597	5257.45
1837.47122	5248.35
1840.6344	5232.25
1843.7955	5227.15
1846.95454	5224.15
1850.11151	5198.45
1853.26642	5187.05
1856.41926	5199.05
1859.57004	5187.45
1862.71876	5196.85
1865.86542	5210.35
1869.01003	5204.65
1872.15258	5184.75
1875.29308	5196.85
1878.43152	5202.45
1881.56792	5199.15
1884.70227	5185.45
1887.83457	5188.75
1890.96482	5170.45
1894.09304	5167.55
1897.21921	5160.25
1900.34335	5149.45
1903.46544	5160.45
1906.58551	5152.35
1909.70353	5137.35
1912.81953	5132.65
1915.93349	5133.25
1919.04543	5116.75
1922.15534	5077.35
1925.26322	5085.05
1928.36908	5064.55
1931.47292	5033.85
1934.57473	5019.45
1937.67453	4993.25
1940.77232	4980.15
1943.86808	4945.35
1946.96184	4954.95
1950.05358	4938.25
1953.14331	4929.45
1956.23103	4903.95
1959.31675	4866.05
1962.40046	4868.25
1965.48217	4866.35
1968.56188	4878.85
1971.63959	4865.85
1974.7153	4846.85
1977.78901	4846.45
1980.86073	4823.45
1983.93046	4777.25
1986.99819	4762.35
1990.06394	4722.45
1993.1277	4706.45
1996.18947	4708.55
1999.24925	4673.45
2002.30706	4668.55
2005.36288	4649.05
2008.41672	4633.25
2011.46859	4615.65
2014.51848	4601.25
2017.56639	4578.85
2020.61233	4548.95
2023.6563	4553.25
2026.6983	4544.95
2029.73833	4536.25
2032.7764	4526.55
2035.8125	4511.65
2038.84664	4504.75
2041.87881	4507.95
2044.90903	4486.25
2047.93729	4509.95
2050.96359	4476.55
2053.98794	4470.65
2057.01034	4462.05
2060.03078	4450.95
2063.04927	4445.05
2066.06582	4434.65
2069.08042	4424.55
2072.09307	4420.95
2075.10378	4419.75
2078.11255	4404.95
2081.11938	4439.55
2084.12426	4412.15
2087.12722	4418.95
2090.12824	4411.55
2093.12732	4401.15
2096.12447	4414.65
2099.11969	4409.05
2102.11299	4403.55
2105.10435	4422.55
2108.09379	4417.95
2111.08131	4406.25
2114.0669	4416.05
2117.05057	4428.75
2120.03233	4446.05
2123.01216	4459.75
2125.99008	4446.25
2128.96609	4454.75
2131.94018	4463.05
2134.91236	4456.75
2137.88263	4440.95
2140.851	4448.45
2143.81746	4443.55
2146.78201	4420.25
2149.74466	4424.15
2152.7054	4420.15
2155.66425	4402.85
2158.6212	4416.65
2161.57625	4401.05
2164.52941	4400.95
2167.48067	4397.15
2170.43004	4383.65
2173.37752	4393.95
2176.32311	4392.85
2179.26681	4386.75
2182.20863	4392.15
2185.14856	4402.05
2188.08661	4379.25
2191.02278	4392.95
2193.95707	4373.05
2196.88948	4382.15
2199.82001	4375.45
2202.74867	4355.55
2205.67545	4360.65
2208.60037	4347.35
2211.52341	4349.85
2214.44458	4348.45
2217.36388	4344.05
2220.28132	4332.25
2223.1969	4313.85
2226.11061	4310.85
2229.02246	4295.05
2231.93245	4295.35
2234.84058	4266.25
2237.74686	4273.95
2240.65128	4261.25
2243.55385	4263.05
2246.45456	4268.45
2249.35343	4263.15
2252.25044	4276.05
2255.14561	4275.35
2258.03893	4287.15
2260.93041	4291.45
2263.82004	4281.95
2266.70783	4269.65
2269.59378	4259.45
2272.4779	4249.45
2275.36017	4256.45
2278.24061	4244.45
2281.11922	4212.15
2283.996	4204.65
2286.87094	4211.05
2289.74405	4172.75
2292.61534	4163.75
2295.4848	4155.15
2298.35243	4153.05
2301.21824	4157.35
2304.08223	4125.95
2306.94439	4140.15
2309.80474	4144.35
2312.66327	4154.35
2315.51999	4158.45
2318.37489	4155.55
2321.22797	4153.35
2324.07925	4154.65
2326.92871	4156.75
2329.77637	4142.95
2332.62222	4136.75
2335.46626	4119.55
2338.3085	4138.65
2341.14893	4155.45
2343.98756	4138.25
2346.8244	4145.05
2349.65943	4173.95
2352.49267	4198.15
2355.32411	4188.15
2358.15376	4197.75
2360.98161	4215.15
2363.80768	4204.85
2366.63195	4225.35
2369.45444	4227.35
2372.27514	4228.05
2375.09405	4221.45
2377.91118	4198.15
2380.72652	4185.35
2383.54009	4150.35
2386.35187	4131.65
2389.16188	4097.55
2391.97011	4084.75
2394.77657	4058.05
2397.58125	4061.85
2400.38416	4048.25
2403.18529	4029.05
2405.98466	4017.55
2408.78226	4010.95
2411.57809	3990.65
2414.37216	3991.55
2417.16446	3994.45
2419.955	3987.05
2422.74378	3995.65
2425.5308	3996.15
2428.31606	3977.75
2431.09956	4002.15
2433.88131	3982.55
2436.6613	4012.05
2439.43954	4012.75
2442.21603	4025.15
2444.99077	4020.85
2447.76377	4032.85
2450.53501	4024.85
2453.30451	4033.15
2456.07226	4041.85
2458.83827	4048.35
2461.60254	4030.65
2464.36507	4032.75
2467.12586	4033.15
2469.88492	4023.35
2472.64224	4036.15
2475.39782	4041.15
2478.15167	4061.05
2480.90379	4065.15
2483.65417	4103.25
2486.40283	4114.55
2489.14976	4123.95
2491.89497	4143.15
2494.63845	4129.45
2497.3802	4141.15
2500.12024	4110.65
2502.85855	4094.35
2505.59514	4071.85
2508.33002	4054.45
2511.06318	4026.35
2513.79462	4021.55
2516.52435	3981.85
2519.25237	3965.05
2521.97867	3954.05
2524.70327	3929.65
2527.42616	3925.75
2530.14734	3921.35
2532.86681	3914.15
2535.58458	3915.05
2538.30065	3924.05
2541.01501	3933.35
2543.72768	3924.15
2546.43864	3930.55
2549.14791	3932.35
2551.85548	3933.85
2554.56136	3919.95
2557.26554	3931.05
2559.96803	3918.45
2562.66883	3925.05
2565.36794	3907.95
2568.06536	3914.35
2570.7611	3905.45
2573.45514	3900.85
2576.14751	3894.65
2578.83819	3879.85
2581.52719	3880.75
2584.21451	3873.75
2586.90015	3901.05
2589.58411	3874.15
2592.2664	3862.05
2594.94701	3876.15
2597.62594	3869.25
2600.30321	3857.15
2602.9788	3865.35
2605.65273	3845.45
2608.32498	3870.95
2610.99557	3876.25
2613.66449	3870.85
2616.33175	3866.95
2618.99734	3871.05
2621.66128	3869.65
2624.32355	3866.65
2626.98416	3875.85
2629.64311	3864.85
2632.30041	3856.75
2634.95605	3837.15
2637.61004	3847.25
2640.26238	3823.95
2642.91306	3817.95
2645.56209	3820.65
2648.20948	3815.05
2650.85521	3823.05
2653.4993	3802.25
2656.14175	3828.75
2658.78255	3833.35
2661.42171	3851.35
2664.05923	3857.75
2666.6951	3859.35
2669.32934	3869.45
2671.96194	3856.35
2674.59291	3869.65
2677.22224	3853.65
2679.84993	3855.45
2682.476	3836.75
2685.10043	3843.25
2687.72324	3837.65
2690.34441	3838.05
2692.96396	3837.15
2695.58188	3841.05
2698.19818	3831.05
2700.81285	3834.95
2703.4259	3843.95
2706.03733	3869.35
2708.64714	3845.15
2711.25533	3855.65
2713.86191	3851.75
2716.46687	3859.55
2719.07021	3852.15
2721.67194	3849.55
2724.27206	3867.15
2726.87057	3850.65
2729.46747	3858.75
2732.06276	3852.45
2734.65644	3834.25
2737.24852	3844.85
2739.83899	3822.65
2742.42786	3821.65
2745.01513	3815.05
2747.60079	3808.55
2750.18486	3788.85
2752.76733	3778.75
2755.3482	3780.75
2757.92747	3788.65
2760.50515	3781.05
2763.08123	3766.65
2765.65573	3767.15
2768.22863	3762.25
2770.79994	3771.55
2773.36967	3760.55
2775.9378	3769.65
2778.50435	3759.35
2781.06932	3764.85
2783.6327	3768.95
2786.1945	3787.35
2788.75471	3773.75
2791.31335	3772.45
2793.87041	3780.25
2796.42589	3793.65
2798.97979	3774.85
2801.53212	3771.25
2804.08288	3750.75
2806.63206	3772.75
2809.17967	3779.65
2811.72571	3769.95
2814.27018	3796.75
2816.81308	3790.95
2819.35442	3796.75
2821.89419	3792.55
2824.43239	3814.05
2826.96904	3810.85
2829.50412	3820.15
2832.03763	3800.75
2834.56959	3801.15
2837.1	3809.95
2839.62884	3800.85
2842.15613	3795.15
2844.68186	3796.85
2847.20604	3799.85
2849.72867	3814.65
2852.24974	3817.95
2854.76927	3828.15
2857.28724	3833.45
2859.80367	3841.85
2862.31855	3829.85
2864.83189	3856.15
2867.34368	3847.95
2869.85393	3870.85
2872.36264	3857.45
2874.8698	3866.95
2877.37543	3879.25
2879.87952	3864.95
2882.38207	3861.05
2884.88308	3834.35
2887.38256	3868.85
2889.88051	3829.95
2892.37692	3842.85
2894.8718	3830.25
2897.36515	3837.75
2899.85698	3841.75
2902.34727	3845.15
2904.83604	3839.95
2907.32328	3860.15
2909.809	3839.95
2912.29319	3826.25
2914.77587	3845.55
2917.25702	3823.95
2919.73665	3812.45
2922.21476	3820.35
2924.69136	3801.45
2927.16644	3791.85
2929.64	3777.15
2932.11205	3772.95
2934.58258	3749.95
2937.05161	3760.55
2939.51912	3775.75
2941.98513	3755.25
2944.44962	3744.85
2946.91261	3734.55
2949.37409	3733.15
2951.83407	3745.75
2954.29254	3742.85
2956.74951	3742.25
2959.20498	3738.05
2961.65895	3716.95
2964.11142	3733.65
2966.56239	3720.75
2969.01186	3708.95
2971.45984	3708.65
2973.90632	3697.25
2976.35131	3672.75
2978.7948	3672.85
2981.23681	3657.45
2983.67732	3651.95
2986.11635	3627.45
2988.55388	3625.25
2990.98993	3627.65
2993.4245	3615.55
2995.85758	3620.25
2998.28917	3628.15
3000.71928	3608.15
3003.14791	3612.95
3005.57506	3623.35
3008.00073	3613.25
3010.42493	3614.55
3012.84764	3598.35
3015.26888	3608.75
3017.68865	3611.05
3020.10694	3594.65
3022.52376	3582.35
3024.9391	3580.95
3027.35298	3569.95
3029.76539	3565.35
3032.17632	3541.85
3034.5858	3531.35
3036.9938	3519.35
3039.40034	3515.85
3041.80542	3522.15
3044.20903	3505.85
3046.61118	3505.45
3049.01187	3509.65
3051.4111	3489.75
3053.80888	3489.45
3056.20519	3495.45
3058.60005	3480.95
3060.99345	3461.05
3063.3854	3462.15
3065.7759	3446.75
3068.16494	3454.75
3070.55254	3441.05
3072.93868	3435.75
3075.32338	3403.65
3077.70662	3406.25
3080.08842	3395.45
3082.46878	3413.05
3084.84769	3390.55
3087.22515	3401.35
3089.60118	3410.15
3091.97576	3405.25
3094.3489	3396.45
3096.72061	3403.25
3099.09087	3414.65
3101.4597	3407.85
3103.82709	3405.15
3106.19305	3410.65
3108.55757	3405.15
3110.92066	3400.65
3113.28232	3392.25
3115.64255	3377.65
3118.00134	3386.55
3120.35871	3372.25
3122.71466	3377.05
3125.06917	3372.05
3127.42226	3363.55
3129.77393	3374.45
3132.12417	3368.65
3134.47299	3385.45
3136.82039	3379.35
3139.16636	3385.45
3141.51092	3386.15
3143.85406	3382.75
3146.19579	3395.05
3148.53609	3406.45
3150.87499	3407.75
3153.21246	3422.25
3155.54853	3421.45
3157.88318	3423.85
3160.21642	3431.25
3162.54826	3427.95
3164.87868	3436.05
3167.2077	3411.95
3169.5353	3426.85
3171.86151	3413.85
3174.18631	3413.95
3176.5097	3427.65
3178.83169	3427.45
3181.15228	3414.55
3183.47147	3414.05
3185.78926	3422.35
3188.10565	3419.15
3190.42065	3429.85
3192.73424	3424.15
3195.04645	3426.65
3197.35725	3424.85
3199.66667	3436.75
3201.97469	3453.65
3204.28132	3450.05
3206.58656	3473.35
3208.8904	3461.65
3211.19287	3479.15
3213.49394	3476.45
3215.79363	3490.65
3218.09193	3496.45
3220.38884	3496.35
3222.68438	3509.35
3224.97853	3505.15
3227.2713	3504.85
3229.56269	3502.25
3231.8527	3508.55
3234.14133	3512.65
3236.42858	3496.35
3238.71446	3503.25
3240.99896	3496.45
3243.28209	3495.55
3245.56384	3484.35
3247.84423	3500.45
3250.12324	3495.65
3252.40088	3483.45
3254.67715	3486.05
3256.95205	3506.25
3259.22558	3502.05
3261.49775	3490.85
3263.76855	3501.45
3266.03799	3491.75
3268.30606	3506.95
3270.57277	3497.85
3272.83812	3485.35
3275.10211	3484.65
3277.36474	3486.65
3279.62601	3488.25
3281.88593	3501.35
3284.14448	3495.45
3286.40168	3495.15
3288.65753	3510.35
3290.91202	3513.45
3293.16516	3510.65
3295.41695	3491.65
3297.66738	3500.95
3299.91647	3477.15
3302.16421	3456.45
3304.4106	3434.75
3306.65564	3426.35
3308.89933	3394.15
3311.14169	3374.45
3313.38269	3342.75
3315.62236	3312.15
3317.86068	3276.45
3320.09766	3255.55
3322.3333	3242.25
3324.5676	3235.25
3326.80056	3171.65
3329.03219	3161.75
3331.26248	2.05
3333.49143	-0.95
3335.71905	1.15
