Data from AgNP_FTO_APTES_UA_100uM_CRN_2uM_R6G_10uM_NaF_0.1M_Addition_RamanShift__20__14-08-10-315.txt Node

Date: Thu Mar 24 14:08:10 GMT 2022
User: TCL
Spectrometer: QEP01345
Trigger mode: 4
Integration Time (sec): 7.000000E0
Scans to average: 10
Electric dark correction enabled: true
Nonlinearity correction enabled: false
Boxcar width: 0
XAxis mode: Raman Shifts
Number of Pixels in Spectrum: 1044
>>>>>Begin Spectral Data<<<<<
46.04893	-1.65
50.45542	-0.05
54.85868	-0.55
59.25871	0.45
63.6555	45.95
68.04907	45.95
72.43941	47.65
76.82654	48.15
81.21044	51.45
85.59113	52.65
89.96862	58.85
94.34289	54.95
98.71396	58.35
103.08183	56.55
107.4465	58.45
111.80798	60.45
116.16626	63.85
120.52136	62.65
124.87327	68.65
129.222	69.95
133.56755	73.35
137.90993	79.15
142.24913	92.75
146.58517	95.25
150.91804	112.95
155.24774	140.35
159.57429	172.65
163.89768	219.55
168.21792	292.55
172.53501	397.55
176.84895	556.85
181.15975	783.95
185.46741	1101.75
189.77193	1528.35
194.07331	2039.95
198.37157	2649.25
202.6667	3306.15
206.9587	3940.95
211.24758	4615.75
215.53334	5311.15
219.81599	6091.85
224.09553	6976.55
228.37195	7944.45
232.64527	9059.55
236.91549	10123.35
241.18261	11096.35
245.44663	11861.95
249.70755	12461.75
253.96539	12966.75
258.22014	13434.25
262.4718	13830.35
266.72039	14144.05
270.96589	14229.65
275.20832	14097.55
279.44768	13824.75
283.68397	13518.05
287.91719	13348.95
292.14735	13375.45
296.37445	13688.65
300.59849	14245.25
304.81948	14882.65
309.03742	15392.65
313.25231	15471.45
317.46415	14881.85
321.67296	13844.65
325.87872	12873.55
330.08145	12359.65
334.28114	12337.35
338.47781	12581.15
342.67145	12886.55
346.86207	13390.35
351.04966	14118.65
355.23424	14988.35
359.4158	15624.65
363.59435	16007.15
367.76989	16078.85
371.94243	16029.05
376.11196	15926.95
380.27849	15788.15
384.44203	15643.45
388.60257	15421.45
392.76012	15347.85
396.91468	15448.65
401.06626	15750.35
405.21485	15999.35
409.36047	15696.95
413.50311	14865.05
417.64277	14006.55
421.77947	13510.55
425.9132	13323.15
430.04396	13293.25
434.17176	13333.15
438.2966	13509.25
442.41849	13818.25
446.53742	14290.15
450.6534	14706.05
454.76644	14956.05
458.87653	14974.45
462.98368	14815.45
467.08789	14536.35
471.18916	14201.25
475.2875	13840.75
479.38291	13505.25
483.4754	13266.85
487.56496	13098.05
491.6516	12979.15
495.73531	12920.75
499.81612	12972.35
503.89401	13139.45
507.96899	13306.15
512.04106	13465.55
516.11023	13688.05
520.1765	13825.65
524.23987	13830.35
528.30034	13716.55
532.35792	13552.55
536.41261	13342.95
540.46441	13056.65
544.51333	12856.05
548.55936	12962.65
552.60252	13266.15
556.64279	13688.65
560.6802	13900.05
564.71473	14069.15
568.7464	14539.45
572.7752	14885.15
576.80114	14539.65
580.82422	14116.45
584.84444	14041.75
588.86181	14187.95
592.87633	14444.05
596.888	14665.65
600.89682	14988.85
604.9028	16684.25
608.90594	21475.45
612.90624	27667.45
616.90371	26645.15
620.89834	18408.55
624.89015	14293.75
628.87913	13543.25
632.86528	13749.75
636.84862	14048.05
640.82913	13807.55
644.80683	13065.85
648.78172	12491.05
652.75379	12457.55
656.72306	12978.25
660.68952	13726.65
664.65319	13575.85
668.61405	12833.95
672.57211	12522.25
676.52738	12545.15
680.47986	12467.35
684.42955	12303.15
688.37646	12163.15
692.32058	12205.05
696.26192	12334.35
700.20048	12539.05
704.13626	12640.05
708.06928	12596.15
711.99952	12476.35
715.927	12441.95
719.85171	12524.95
723.77365	12603.15
727.69284	12533.85
731.60928	12404.55
735.52295	12375.55
739.43388	12419.45
743.34206	12480.85
747.24749	12556.05
751.15017	12570.45
755.05012	12753.85
758.94733	13451.95
762.8418	15201.55
766.73354	18252.45
770.62254	21382.35
774.50882	22801.55
778.39237	21706.55
782.27321	18568.75
786.15132	15508.25
790.02671	13667.95
793.89938	12801.45
797.76935	12422.35
801.6366	12265.05
805.50115	12183.95
809.36299	12109.05
813.22213	12038.85
817.07857	12020.75
820.93231	11965.85
824.78336	11991.85
828.63172	12025.95
832.47738	12045.75
836.32036	12013.25
840.16066	11947.55
843.99827	11920.85
847.8332	11880.35
851.66546	11886.25
855.49504	11905.25
859.32195	11877.75
863.1462	11838.85
866.96777	11811.75
870.78668	11779.05
874.60293	11847.25
878.41652	11858.45
882.22745	11990.85
886.03573	12055.85
889.84136	11997.25
893.64433	11967.05
897.44466	11913.95
901.24235	11862.65
905.0374	11801.55
908.8298	11709.95
912.61957	11653.65
916.40671	11688.15
920.19121	11813.55
923.97308	11949.95
927.75233	12146.45
931.52895	12275.95
935.30295	12172.95
939.07433	11814.05
942.84309	11492.45
946.60924	11309.25
950.37278	11213.25
954.13371	11133.85
957.89203	11070.75
961.64774	11031.45
965.40086	11006.85
969.15137	10976.75
972.89929	10933.85
976.64461	10942.55
980.38733	10938.85
984.12747	10939.85
987.86502	11030.55
991.59999	11150.45
995.33237	11319.35
999.06217	11654.65
1002.78939	12025.05
1006.51404	12376.05
1010.23611	12627.65
1013.95561	12762.75
1017.67255	12759.95
1021.38692	12625.55
1025.09872	12380.45
1028.80796	12298.35
1032.51465	12461.25
1036.21877	12698.85
1039.92035	12789.55
1043.61937	12746.95
1047.31584	12617.45
1051.00976	12473.15
1054.70114	12339.15
1058.38998	12286.15
1062.07627	12304.95
1065.76003	12337.25
1069.44126	12434.95
1073.11995	12591.95
1076.79611	12846.95
1080.46974	13143.95
1084.14085	13545.25
1087.80943	13953.05
1091.47549	14111.05
1095.13903	13879.85
1098.80005	13429.25
1102.45857	13038.95
1106.11456	12925.35
1109.76805	13067.65
1113.41903	13465.15
1117.06751	14049.15
1120.71348	14775.35
1124.35696	15554.75
1127.99793	16173.55
1131.63641	15982.95
1135.2724	15123.65
1138.90589	14305.55
1142.5369	13804.25
1146.16542	13450.05
1149.79145	13231.75
1153.415	13208.05
1157.03607	13293.85
1160.65467	13644.35
1164.27079	14252.75
1167.88443	15187.15
1171.49561	16612.15
1175.10432	18821.65
1178.71056	21760.35
1182.31434	24361.65
1185.91565	25214.85
1189.51451	24440.55
1193.11091	22735.85
1196.70485	20791.25
1200.29634	19247.25
1203.88538	18101.75
1207.47197	16829.05
1211.05612	15742.05
1214.63782	15074.55
1218.21708	14843.55
1221.79391	14812.65
1225.36829	14920.65
1228.94024	14848.45
1232.50976	14636.35
1236.07685	14446.15
1239.6415	14366.15
1243.20374	14420.45
1246.76355	14571.45
1250.32093	14782.05
1253.8759	15082.05
1257.42845	15625.15
1260.97859	16250.35
1264.52631	16867.65
1268.07163	17595.95
1271.61453	18196.55
1275.15503	18769.95
1278.69312	19095.65
1282.22882	19405.75
1285.76211	19897.35
1289.29301	20568.25
1292.82151	21404.85
1296.34761	22396.55
1299.87133	23917.25
1303.39266	26372.85
1306.9116	29998.95
1310.42815	33771.85
1313.94233	35387.55
1317.45412	33855.55
1320.96354	30782.65
1324.47058	27755.05
1327.97525	25333.25
1331.47754	23757.25
1334.97747	23188.85
1338.47502	23255.55
1341.97022	24001.35
1345.46305	25245.05
1348.95352	27064.75
1352.44163	29452.75
1355.92738	33078.35
1359.41078	38532.05
1362.89183	43460.45
1366.37053	41807.55
1369.84688	34225.15
1373.32088	27205.15
1376.79254	23193.15
1380.26186	21111.55
1383.72883	19903.15
1387.19347	19063.55
1390.65578	18264.65
1394.11575	17684.15
1397.57339	17432.65
1401.0287	17431.55
1404.48168	17522.35
1407.93234	17600.75
1411.38068	17646.35
1414.82669	17665.75
1418.27039	17532.55
1421.71177	17162.25
1425.15083	16685.85
1428.58758	16436.55
1432.02203	16613.35
1435.45416	17001.25
1438.88399	17217.75
1442.31151	17264.45
1445.73673	17423.05
1449.15965	17534.55
1452.58027	17507.85
1455.9986	17377.65
1459.41463	17396.55
1462.82837	17665.65
1466.23982	18183.35
1469.64898	18733.95
1473.05586	19118.15
1476.46045	19313.25
1479.86276	19536.75
1483.26279	19867.45
1486.66054	20371.75
1490.05602	21166.15
1493.44922	22423.75
1496.84016	24316.05
1500.22882	27435.35
1503.61521	31852.75
1506.99934	36854.45
1510.38121	40571.05
1513.76081	40644.45
1517.13816	36801.15
1520.51324	31159.35
1523.88607	26309.05
1527.25665	23333.25
1530.62498	21733.25
1533.99105	20811.65
1537.35488	20130.05
1540.71647	19697.45
1544.07581	19394.75
1547.4329	19184.95
1550.78776	19133.25
1554.14038	19145.65
1557.49077	19335.55
1560.83892	19694.35
1564.18484	20388.95
1567.52853	21240.75
1570.86999	21884.35
1574.20922	22300.65
1577.54624	22097.25
1580.88103	20796.95
1584.2136	19094.75
1587.54395	18160.05
1590.87208	18296.25
1594.19801	19515.35
1597.52172	21207.35
1600.84321	22038.75
1604.16251	21382.65
1607.47959	19969.65
1610.79447	18444.15
1614.10715	16908.15
1617.41763	15596.85
1620.7259	14692.45
1624.03199	14241.15
1627.33587	14234.05
1630.63757	14641.55
1633.93707	15499.65
1637.23439	17068.45
1640.52951	19466.45
1643.82246	22925.65
1647.11321	26911.95
1650.40179	29351.65
1653.68819	28062.95
1656.97241	23665.75
1660.25446	18979.15
1663.53433	15799.45
1666.81203	13896.35
1670.08756	12822.05
1673.36092	12157.15
1676.63211	11708.85
1679.90115	11433.55
1683.16801	11198.95
1686.43272	11058.05
1689.69527	10916.65
1692.95567	10829.85
1696.2139	10755.95
1699.46999	10722.85
1702.72392	10700.05
1705.97571	10672.55
1709.22535	10637.35
1712.47284	10617.95
1715.71819	10621.75
1718.96139	10583.05
1722.20246	10524.05
1725.44139	10473.85
1728.67818	10362.45
1731.91284	10266.25
1735.14537	10175.95
1738.37576	10100.25
1741.60403	10091.55
1744.83017	10065.55
1748.05418	10037.75
1751.27607	9981.85
1754.49584	9983.95
1757.71349	9960.65
1760.92903	9939.55
1764.14244	9929.25
1767.35375	9909.65
1770.56294	9881.35
1773.77002	9830.55
1776.97499	9819.95
1780.17785	9770.75
1783.37861	9751.05
1786.57727	9744.75
1789.77382	9705.85
1792.96828	9678.45
1796.16064	9670.75
1799.3509	9652.35
1802.53907	9647.35
1805.72514	9621.25
1808.90913	9581.05
1812.09102	9552.35
1815.27083	9529.55
1818.44856	9514.45
1821.6242	9475.75
1824.79776	9452.05
1827.96924	9448.25
1831.13864	9437.45
1834.30597	9416.15
1837.47122	9385.15
1840.6344	9394.25
1843.7955	9406.05
1846.95454	9365.95
1850.11151	9363.75
1853.26642	9343.95
1856.41926	9323.15
1859.57004	9344.25
1862.71876	9316.25
1865.86542	9305.65
1869.01003	9312.35
1872.15258	9299.55
1875.29308	9274.95
1878.43152	9272.25
1881.56792	9301.75
1884.70227	9270.95
1887.83457	9303.25
1890.96482	9280.05
1894.09304	9260.75
1897.21921	9270.45
1900.34335	9259.25
1903.46544	9259.35
1906.58551	9272.05
1909.70353	9280.95
1912.81953	9252.15
1915.93349	9213.85
1919.04543	9230.95
1922.15534	9193.75
1925.26322	9161.05
1928.36908	9138.95
1931.47292	9152.55
1934.57473	9084.55
1937.67453	9063.25
1940.77232	9055.75
1943.86808	9037.95
1946.96184	9000.35
1950.05358	8974.55
1953.14331	8957.05
1956.23103	8947.95
1959.31675	8944.85
1962.40046	8909.25
1965.48217	8902.45
1968.56188	8890.55
1971.63959	8871.25
1974.7153	8850.35
1977.78901	8857.25
1980.86073	8804.45
1983.93046	8770.65
1986.99819	8720.75
1990.06394	8706.15
1993.1277	8659.25
1996.18947	8621.65
1999.24925	8597.35
2002.30706	8590.95
2005.36288	8524.65
2008.41672	8522.35
2011.46859	8497.85
2014.51848	8449.45
2017.56639	8443.75
2020.61233	8406.85
2023.6563	8397.25
2026.6983	8378.85
2029.73833	8362.45
2032.7764	8334.05
2035.8125	8332.05
2038.84664	8307.25
2041.87881	8292.75
2044.90903	8245.05
2047.93729	8282.65
2050.96359	8270.95
2053.98794	8229.75
2057.01034	8232.35
2060.03078	8208.85
2063.04927	8203.15
2066.06582	8188.65
2069.08042	8193.75
2072.09307	8174.65
2075.10378	8177.15
2078.11255	8171.65
2081.11938	8162.05
2084.12426	8145.35
2087.12722	8156.85
2090.12824	8170.05
2093.12732	8165.85
2096.12447	8171.75
2099.11969	8151.05
2102.11299	8182.95
2105.10435	8183.35
2108.09379	8176.35
2111.08131	8184.05
2114.0669	8197.85
2117.05057	8194.85
2120.03233	8218.25
2123.01216	8219.85
2125.99008	8233.45
2128.96609	8227.15
2131.94018	8245.25
2134.91236	8230.05
2137.88263	8238.95
2140.851	8225.05
2143.81746	8228.75
2146.78201	8218.95
2149.74466	8233.15
2152.7054	8207.75
2155.66425	8199.75
2158.6212	8220.05
2161.57625	8211.75
2164.52941	8190.75
2167.48067	8214.05
2170.43004	8215.45
2173.37752	8196.25
2176.32311	8190.95
2179.26681	8195.75
2182.20863	8203.25
2185.14856	8198.55
2188.08661	8182.25
2191.02278	8183.45
2193.95707	8173.05
2196.88948	8157.25
2199.82001	8176.35
2202.74867	8140.25
2205.67545	8158.25
2208.60037	8168.85
2211.52341	8133.95
2214.44458	8143.15
2217.36388	8129.85
2220.28132	8123.95
2223.1969	8091.95
2226.11061	8087.35
2229.02246	8067.65
2231.93245	8042.75
2234.84058	8025.45
2237.74686	8003.75
2240.65128	8009.05
2243.55385	7977.55
2246.45456	7978.35
2249.35343	7994.95
2252.25044	7995.25
2255.14561	7988.05
2258.03893	7985.85
2260.93041	7973.85
2263.82004	7953.95
2266.70783	7951.55
2269.59378	7944.65
2272.4779	7919.75
2275.36017	7897.25
2278.24061	7909.05
2281.11922	7874.05
2283.996	7871.15
2286.87094	7851.25
2289.74405	7822.65
2292.61534	7816.65
2295.4848	7802.05
2298.35243	7792.05
2301.21824	7792.45
2304.08223	7782.25
2306.94439	7781.25
2309.80474	7802.05
2312.66327	7813.55
2315.51999	7780.55
2318.37489	7793.05
2321.22797	7793.15
2324.07925	7770.25
2326.92871	7785.55
2329.77637	7778.85
2332.62222	7772.95
2335.46626	7774.55
2338.3085	7786.55
2341.14893	7804.75
2343.98756	7781.75
2346.8244	7777.55
2349.65943	7767.35
2352.49267	7799.35
2355.32411	7828.65
2358.15376	7828.95
2360.98161	7837.75
2363.80768	7814.15
2366.63195	7840.95
2369.45444	7842.25
2372.27514	7829.65
2375.09405	7813.05
2377.91118	7807.05
2380.72652	7776.75
2383.54009	7741.25
2386.35187	7708.15
2389.16188	7658.55
2391.97011	7645.75
2394.77657	7649.95
2397.58125	7636.25
2400.38416	7608.05
2403.18529	7575.85
2405.98466	7576.65
2408.78226	7565.95
2411.57809	7542.75
2414.37216	7525.15
2417.16446	7518.55
2419.955	7483.65
2422.74378	7524.65
2425.5308	7487.55
2428.31606	7486.35
2431.09956	7520.75
2433.88131	7501.05
2436.6613	7497.25
2439.43954	7513.35
2442.21603	7505.25
2444.99077	7496.95
2447.76377	7514.45
2450.53501	7517.15
2453.30451	7522.55
2456.07226	7513.65
2458.83827	7504.25
2461.60254	7508.05
2464.36507	7500.25
2467.12586	7511.65
2469.88492	7525.05
2472.64224	7529.55
2475.39782	7522.35
2478.15167	7535.35
2480.90379	7535.05
2483.65417	7565.05
2486.40283	7595.85
2489.14976	7626.55
2491.89497	7620.55
2494.63845	7617.85
2497.3802	7603.25
2500.12024	7596.25
2502.85855	7608.35
2505.59514	7564.65
2508.33002	7560.55
2511.06318	7505.75
2513.79462	7484.45
2516.52435	7471.35
2519.25237	7423.55
2521.97867	7444.65
2524.70327	7418.35
2527.42616	7419.85
2530.14734	7406.95
2532.86681	7378.95
2535.58458	7383.55
2538.30065	7380.35
2541.01501	7394.05
2543.72768	7387.85
2546.43864	7387.55
2549.14791	7372.85
2551.85548	7380.05
2554.56136	7382.55
2557.26554	7358.75
2559.96803	7351.45
2562.66883	7358.55
2565.36794	7366.35
2568.06536	7359.45
2570.7611	7343.95
2573.45514	7332.15
2576.14751	7316.35
2578.83819	7325.35
2581.52719	7311.45
2584.21451	7293.15
2586.90015	7296.85
2589.58411	7294.95
2592.2664	7286.25
2594.94701	7279.85
2597.62594	7267.65
2600.30321	7244.95
2602.9788	7232.05
2605.65273	7241.25
2608.32498	7244.65
2610.99557	7240.85
2613.66449	7244.15
2616.33175	7263.45
2618.99734	7267.85
2621.66128	7267.15
2624.32355	7247.75
2626.98416	7249.75
2629.64311	7230.65
2632.30041	7227.05
2634.95605	7237.35
2637.61004	7219.75
2640.26238	7188.65
2642.91306	7195.25
2645.56209	7186.35
2648.20948	7172.45
2650.85521	7171.75
2653.4993	7181.55
2656.14175	7189.25
2658.78255	7198.95
2661.42171	7181.35
2664.05923	7207.55
2666.6951	7198.05
2669.32934	7218.75
2671.96194	7217.15
2674.59291	7222.55
2677.22224	7236.65
2679.84993	7217.15
2682.476	7202.45
2685.10043	7226.85
2687.72324	7204.75
2690.34441	7201.55
2692.96396	7199.05
2695.58188	7191.95
2698.19818	7212.95
2700.81285	7222.65
2703.4259	7190.65
2706.03733	7191.05
2708.64714	7191.65
2711.25533	7215.85
2713.86191	7216.25
2716.46687	7211.75
2719.07021	7235.15
2721.67194	7221.75
2724.27206	7192.65
2726.87057	7213.85
2729.46747	7199.25
2732.06276	7202.25
2734.65644	7190.45
2737.24852	7194.15
2739.83899	7196.15
2742.42786	7187.95
2745.01513	7169.35
2747.60079	7147.95
2750.18486	7171.85
2752.76733	7161.65
2755.3482	7153.25
2757.92747	7142.15
2760.50515	7127.95
2763.08123	7148.05
2765.65573	7121.95
2768.22863	7118.25
2770.79994	7118.85
2773.36967	7103.35
2775.9378	7114.45
2778.50435	7121.15
2781.06932	7110.75
2783.6327	7088.35
2786.1945	7082.25
2788.75471	7087.25
2791.31335	7077.05
2793.87041	7085.05
2796.42589	7063.25
2798.97979	7076.05
2801.53212	7057.15
2804.08288	7066.95
2806.63206	7064.85
2809.17967	7065.55
2811.72571	7067.95
2814.27018	7066.15
2816.81308	7061.85
2819.35442	7076.35
2821.89419	7080.35
2824.43239	7072.25
2826.96904	7071.85
2829.50412	7082.85
2832.03763	7063.25
2834.56959	7067.75
2837.1	7047.85
2839.62884	7044.95
2842.15613	7030.65
2844.68186	7028.75
2847.20604	7030.35
2849.72867	7045.95
2852.24974	7032.85
2854.76927	7028.25
2857.28724	7012.95
2859.80367	7026.85
2862.31855	7025.35
2864.83189	7038.95
2867.34368	7047.65
2869.85393	7088.15
2872.36264	7068.35
2874.8698	7090.45
2877.37543	7077.05
2879.87952	7079.05
2882.38207	7084.75
2884.88308	7069.65
2887.38256	7074.85
2889.88051	7066.95
2892.37692	7060.45
2894.8718	7059.75
2897.36515	7062.45
2899.85698	7061.05
2902.34727	7084.25
2904.83604	7087.15
2907.32328	7079.65
2909.809	7089.65
2912.29319	7097.15
2914.77587	7059.65
2917.25702	7056.05
2919.73665	7055.85
2922.21476	7025.95
2924.69136	7036.75
2927.16644	7017.85
2929.64	7000.75
2932.11205	7007.75
2934.58258	6982.95
2937.05161	6993.15
2939.51912	6970.25
2941.98513	6965.85
2944.44962	6979.05
2946.91261	6934.15
2949.37409	6961.85
2951.83407	6939.85
2954.29254	6944.65
2956.74951	6935.05
2959.20498	6946.75
2961.65895	6917.95
2964.11142	6939.05
2966.56239	6900.05
2969.01186	6890.65
2971.45984	6864.75
2973.90632	6857.85
2976.35131	6844.65
2978.7948	6835.75
2981.23681	6821.85
2983.67732	6796.85
2986.11635	6771.55
2988.55388	6791.15
2990.98993	6752.95
2993.4245	6763.45
2995.85758	6771.85
2998.28917	6760.05
3000.71928	6740.55
3003.14791	6721.95
3005.57506	6734.65
3008.00073	6713.45
3010.42493	6726.45
3012.84764	6744.75
3015.26888	6747.05
3017.68865	6711.85
3020.10694	6681.85
3022.52376	6662.75
3024.9391	6639.65
3027.35298	6616.05
3029.76539	6626.95
3032.17632	6595.85
3034.5858	6602.25
3036.9938	6594.15
3039.40034	6582.95
3041.80542	6542.25
3044.20903	6543.85
3046.61118	6524.35
3049.01187	6529.95
3051.4111	6513.25
3053.80888	6497.55
3056.20519	6481.65
3058.60005	6471.75
3060.99345	6478.55
3063.3854	6452.15
3065.7759	6426.35
3068.16494	6438.15
3070.55254	6410.05
3072.93868	6395.35
3075.32338	6401.35
3077.70662	6357.95
3080.08842	6366.65
3082.46878	6358.85
3084.84769	6333.45
3087.22515	6343.45
3089.60118	6320.55
3091.97576	6335.85
3094.3489	6316.55
3096.72061	6321.95
3099.09087	6332.65
3101.4597	6328.15
3103.82709	6321.25
3106.19305	6305.95
3108.55757	6319.75
3110.92066	6282.85
3113.28232	6297.45
3115.64255	6278.25
3118.00134	6248.05
3120.35871	6237.05
3122.71466	6232.15
3125.06917	6222.25
3127.42226	6248.35
3129.77393	6237.55
3132.12417	6238.65
3134.47299	6235.05
3136.82039	6230.15
3139.16636	6241.95
3141.51092	6244.25
3143.85406	6266.85
3146.19579	6266.25
3148.53609	6260.85
3150.87499	6242.15
3153.21246	6258.55
3155.54853	6267.85
3157.88318	6238.15
3160.21642	6244.85
3162.54826	6234.95
3164.87868	6245.95
3167.2077	6245.95
3169.5353	6230.85
3171.86151	6231.15
3174.18631	6238.75
3176.5097	6241.25
3178.83169	6220.75
3181.15228	6225.45
3183.47147	6220.75
3185.78926	6222.35
3188.10565	6214.95
3190.42065	6227.85
3192.73424	6232.85
3195.04645	6244.85
3197.35725	6248.95
3199.66667	6271.55
3201.97469	6277.05
3204.28132	6255.25
3206.58656	6271.45
3208.8904	6272.55
3211.19287	6286.95
3213.49394	6280.85
3215.79363	6275.25
3218.09193	6294.15
3220.38884	6270.65
3222.68438	6289.95
3224.97853	6283.25
3227.2713	6271.35
3229.56269	6262.05
3231.8527	6248.35
3234.14133	6245.65
3236.42858	6224.65
3238.71446	6261.05
3240.99896	6238.65
3243.28209	6243.35
3245.56384	6243.95
3247.84423	6237.55
3250.12324	6243.25
3252.40088	6229.55
3254.67715	6230.25
3256.95205	6232.95
3259.22558	6218.45
3261.49775	6215.35
3263.76855	6198.95
3266.03799	6216.25
3268.30606	6200.35
3270.57277	6188.95
3272.83812	6177.25
3275.10211	6165.35
3277.36474	6180.55
3279.62601	6176.55
3281.88593	6179.95
3284.14448	6178.65
3286.40168	6177.95
3288.65753	6183.25
3290.91202	6175.65
3293.16516	6171.25
3295.41695	6138.95
3297.66738	6133.85
3299.91647	6098.25
3302.16421	6079.65
3304.4106	6060.65
3306.65564	6041.55
3308.89933	6002.15
3311.14169	5967.95
3313.38269	5932.15
3315.62236	5894.75
3317.86068	5842.25
3320.09766	5750.85
3322.3333	5718.35
3324.5676	5712.95
3326.80056	5625.95
3329.03219	5597.05
3331.26248	2.65
3333.49143	-1.35
3335.71905	0.35
