Data from AgNP_FTO_APTES_UA_100uM_CRN_0uM_R6G_10uM_NaF_0.1M_Addition_RamanShift__28__11-17-50-117.txt Node

Date: Thu Mar 24 11:17:50 GMT 2022
User: TCL
Spectrometer: QEP01345
Trigger mode: 4
Integration Time (sec): 7.000000E0
Scans to average: 10
Electric dark correction enabled: true
Nonlinearity correction enabled: false
Boxcar width: 0
XAxis mode: Raman Shifts
Number of Pixels in Spectrum: 1044
>>>>>Begin Spectral Data<<<<<
46.04893	-1.45
50.45542	0.15
54.85868	1.15
59.25871	-0.75
63.6555	40.05
68.04907	40.95
72.43941	40.85
76.82654	41.85
81.21044	46.95
85.59113	47.25
89.96862	53.45
94.34289	49.85
98.71396	54.85
103.08183	55.05
107.4465	57.85
111.80798	58.55
116.16626	57.15
120.52136	58.55
124.87327	61.25
129.222	64.25
133.56755	71.45
137.90993	73.05
142.24913	87.35
146.58517	91.85
150.91804	107.05
155.24774	128.55
159.57429	163.25
163.89768	205.15
168.21792	275.95
172.53501	377.65
176.84895	539.05
181.15975	743.05
185.46741	1037.95
189.77193	1452.75
194.07331	1925.45
198.37157	2496.35
202.6667	3072.95
206.9587	3639.55
211.24758	4244.45
215.53334	4887.15
219.81599	5592.95
224.09553	6402.45
228.37195	7307.85
232.64527	8245.65
236.91549	9211.55
241.18261	10086.15
245.44663	10776.65
249.70755	11333.45
253.96539	11734.05
258.22014	12094.65
262.4718	12399.25
266.72039	12665.75
270.96589	12738.55
275.20832	12655.15
279.44768	12459.45
283.68397	12263.45
287.91719	12175.65
292.14735	12132.35
296.37445	12355.45
300.59849	12749.95
304.81948	13244.95
309.03742	13649.05
313.25231	13707.65
317.46415	13332.85
321.67296	12518.85
325.87872	11770.95
330.08145	11375.25
334.28114	11286.25
338.47781	11376.85
342.67145	11667.15
346.86207	12033.55
351.04966	12580.05
355.23424	13199.45
359.4158	13686.05
363.59435	13905.55
367.76989	13940.55
371.94243	13863.45
376.11196	13740.35
380.27849	13661.95
384.44203	13629.15
388.60257	13560.85
392.76012	13541.15
396.91468	13632.55
401.06626	13888.05
405.21485	14091.75
409.36047	13811.65
413.50311	13182.55
417.64277	12594.85
421.77947	12295.95
425.9132	12209.45
430.04396	12242.65
434.17176	12310.65
438.2966	12443.75
442.41849	12819.75
446.53742	13358.75
450.6534	13864.85
454.76644	14141.55
458.87653	14062.75
462.98368	13788.55
467.08789	13516.45
471.18916	13172.75
475.2875	12835.35
479.38291	12564.35
483.4754	12378.85
487.56496	12202.95
491.6516	12000.05
495.73531	11838.55
499.81612	11795.55
503.89401	11875.55
507.96899	11992.15
512.04106	12042.55
516.11023	12077.85
520.1765	12043.55
524.23987	11974.25
528.30034	11923.95
532.35792	11779.65
536.41261	11517.95
540.46441	11196.95
544.51333	11010.85
548.55936	11079.35
552.60252	11479.05
556.64279	12018.85
560.6802	12439.95
564.71473	12715.95
568.7464	13323.35
572.7752	13968.85
576.80114	14064.65
580.82422	13951.35
584.84444	14128.45
588.86181	14691.25
592.87633	15399.05
596.888	15604.05
600.89682	15069.55
604.9028	15541.45
608.90594	18849.45
612.90624	23315.45
616.90371	22167.05
620.89834	15437.15
624.89015	12002.25
628.87913	11391.55
632.86528	11570.25
636.84862	11829.65
640.82913	11617.05
644.80683	10952.05
648.78172	10454.15
652.75379	10445.45
656.72306	10866.95
660.68952	11449.25
664.65319	11316.35
668.61405	10665.55
672.57211	10400.65
676.52738	10434.25
680.47986	10445.25
684.42955	10290.55
688.37646	10113.35
692.32058	10149.35
696.26192	10320.55
700.20048	10584.35
704.13626	10770.55
708.06928	10740.65
711.99952	10665.95
715.927	10614.35
719.85171	10669.65
723.77365	10691.05
727.69284	10543.45
731.60928	10377.85
735.52295	10354.55
739.43388	10399.95
743.34206	10515.15
747.24749	10558.75
751.15017	10654.55
755.05012	10912.95
758.94733	11516.15
762.8418	13055.75
766.73354	15662.35
770.62254	18288.35
774.50882	19172.65
778.39237	18089.65
782.27321	15636.75
786.15132	13208.85
790.02671	11621.05
793.89938	10845.95
797.76935	10518.35
801.6366	10357.05
805.50115	10217.65
809.36299	10133.35
813.22213	10021.05
817.07857	9928.65
820.93231	9860.05
824.78336	9848.75
828.63172	9847.85
832.47738	9860.05
836.32036	9815.85
840.16066	9751.25
843.99827	9736.65
847.8332	9734.65
851.66546	9730.25
855.49504	9736.15
859.32195	9748.25
863.1462	9692.15
866.96777	9646.95
870.78668	9617.65
874.60293	9640.05
878.41652	9655.15
882.22745	9778.75
886.03573	9876.95
889.84136	9875.05
893.64433	9853.75
897.44466	9829.95
901.24235	9780.75
905.0374	9670.55
908.8298	9561.75
912.61957	9497.25
916.40671	9495.15
920.19121	9680.05
923.97308	9884.45
927.75233	10046.95
931.52895	10089.95
935.30295	9855.75
939.07433	9464.95
942.84309	9158.35
946.60924	8989.55
950.37278	8904.05
954.13371	8887.65
957.89203	8878.25
961.64774	8847.55
965.40086	8835.25
969.15137	8821.45
972.89929	8759.65
976.64461	8741.05
980.38733	8717.65
984.12747	8755.85
987.86502	8801.45
991.59999	8926.15
995.33237	9090.35
999.06217	9400.75
1002.78939	9799.05
1006.51404	10181.85
1010.23611	10518.75
1013.95561	10727.95
1017.67255	10732.75
1021.38692	10499.05
1025.09872	10078.35
1028.80796	9790.35
1032.51465	9709.55
1036.21877	9808.15
1039.92035	9856.25
1043.61937	9899.55
1047.31584	9925.05
1051.00976	9920.05
1054.70114	9890.35
1058.38998	9898.95
1062.07627	9943.55
1065.76003	10043.95
1069.44126	10179.35
1073.11995	10483.05
1076.79611	10807.05
1080.46974	11064.15
1084.14085	11444.35
1087.80943	11839.75
1091.47549	12040.15
1095.13903	11899.75
1098.80005	11448.35
1102.45857	10985.65
1106.11456	10747.25
1109.76805	10720.05
1113.41903	10921.65
1117.06751	11289.65
1120.71348	11812.25
1124.35696	12433.15
1127.99793	12934.25
1131.63641	12933.95
1135.2724	12404.45
1138.90589	11936.75
1142.5369	11586.15
1146.16542	11445.35
1149.79145	11409.85
1153.415	11437.35
1157.03607	11595.25
1160.65467	11982.05
1164.27079	12704.95
1167.88443	13842.95
1171.49561	15489.55
1175.10432	17881.65
1178.71056	21015.25
1182.31434	23701.35
1185.91565	24612.85
1189.51451	23816.05
1193.11091	22310.15
1196.70485	20504.65
1200.29634	18851.05
1203.88538	17419.35
1207.47197	16150.15
1211.05612	15134.85
1214.63782	14576.15
1218.21708	14411.95
1221.79391	14534.05
1225.36829	14701.35
1228.94024	14601.05
1232.50976	14110.45
1236.07685	13585.05
1239.6415	13290.15
1243.20374	13180.35
1246.76355	13176.65
1250.32093	13356.75
1253.8759	13691.05
1257.42845	14261.35
1260.97859	15005.85
1264.52631	15832.45
1268.07163	16667.45
1271.61453	17448.85
1275.15503	18115.45
1278.69312	18635.15
1282.22882	19192.35
1285.76211	20095.45
1289.29301	21234.55
1292.82151	22473.55
1296.34761	24008.85
1299.87133	25931.75
1303.39266	28434.55
1306.9116	31710.45
1310.42815	35052.35
1313.94233	36841.55
1317.45412	35860.75
1320.96354	33472.35
1324.47058	30942.55
1327.97525	28776.05
1331.47754	27259.65
1334.97747	26439.95
1338.47502	26043.55
1341.97022	25979.35
1345.46305	26308.65
1348.95352	27229.05
1352.44163	28717.05
1355.92738	31359.15
1359.41078	35455.05
1362.89183	39479.55
1366.37053	38847.55
1369.84688	33068.25
1373.32088	26822.75
1376.79254	23023.85
1380.26186	21185.75
1383.72883	20297.55
1387.19347	19655.25
1390.65578	19151.65
1394.11575	18949.15
1397.57339	19132.25
1401.0287	19334.05
1404.48168	19471.45
1407.93234	19273.25
1411.38068	18855.75
1414.82669	18308.55
1418.27039	17624.95
1421.71177	16926.55
1425.15083	16288.05
1428.58758	16052.95
1432.02203	16225.05
1435.45416	16665.85
1438.88399	17001.65
1442.31151	17193.05
1445.73673	17348.95
1449.15965	17608.75
1452.58027	17762.25
1455.9986	17829.45
1459.41463	18028.25
1462.82837	18443.85
1466.23982	19009.85
1469.64898	19445.15
1473.05586	19647.15
1476.46045	19617.75
1479.86276	19586.75
1483.26279	19624.15
1486.66054	19927.55
1490.05602	20558.75
1493.44922	21464.75
1496.84016	22850.65
1500.22882	24936.05
1503.61521	27947.65
1506.99934	31341.05
1510.38121	34088.75
1513.76081	34576.75
1517.13816	32134.65
1520.51324	28133.85
1523.88607	24593.25
1527.25665	22417.35
1530.62498	21404.05
1533.99105	20781.05
1537.35488	20201.65
1540.71647	19531.65
1544.07581	18866.15
1547.4329	18193.65
1550.78776	17735.25
1554.14038	17463.65
1557.49077	17490.05
1560.83892	17710.15
1564.18484	18246.25
1567.52853	18979.25
1570.86999	19684.15
1574.20922	20139.15
1577.54624	20113.45
1580.88103	19243.15
1584.2136	18111.75
1587.54395	17789.15
1590.87208	18513.15
1594.19801	20149.65
1597.52172	22043.45
1600.84321	22793.35
1604.16251	21588.85
1607.47959	19403.15
1610.79447	17138.15
1614.10715	15163.75
1617.41763	13558.25
1620.7259	12584.65
1624.03199	12081.55
1627.33587	12083.95
1630.63757	12608.35
1633.93707	13816.95
1637.23439	15946.65
1640.52951	19355.95
1643.82246	23847.85
1647.11321	28128.45
1650.40179	30029.95
1653.68819	27894.55
1656.97241	22783.15
1660.25446	17542.55
1663.53433	13865.15
1666.81203	11665.55
1670.08756	10414.65
1673.36092	9683.25
1676.63211	9213.55
1679.90115	8896.25
1683.16801	8661.15
1686.43272	8506.85
1689.69527	8394.35
1692.95567	8297.65
1696.2139	8236.15
1699.46999	8202.75
1702.72392	8162.15
1705.97571	8121.45
1709.22535	8116.95
1712.47284	8085.75
1715.71819	8064.55
1718.96139	8015.05
1722.20246	7975.25
1725.44139	7910.15
1728.67818	7802.35
1731.91284	7718.75
1735.14537	7633.65
1738.37576	7587.15
1741.60403	7534.25
1744.83017	7499.95
1748.05418	7465.45
1751.27607	7424.75
1754.49584	7417.15
1757.71349	7390.85
1760.92903	7369.55
1764.14244	7347.65
1767.35375	7336.75
1770.56294	7311.65
1773.77002	7288.15
1776.97499	7262.75
1780.17785	7238.75
1783.37861	7214.85
1786.57727	7168.95
1789.77382	7150.05
1792.96828	7119.25
1796.16064	7133.45
1799.3509	7109.45
1802.53907	7078.25
1805.72514	7060.65
1808.90913	7023.55
1812.09102	7016.65
1815.27083	6980.25
1818.44856	6965.45
1821.6242	6943.55
1824.79776	6943.85
1827.96924	6923.45
1831.13864	6928.45
1834.30597	6925.35
1837.47122	6900.65
1840.6344	6902.55
1843.7955	6899.35
1846.95454	6895.65
1850.11151	6865.75
1853.26642	6883.65
1856.41926	6893.65
1859.57004	6873.65
1862.71876	6878.25
1865.86542	6871.75
1869.01003	6887.35
1872.15258	6885.15
1875.29308	6891.05
1878.43152	6909.45
1881.56792	6907.35
1884.70227	6914.45
1887.83457	6919.15
1890.96482	6898.75
1894.09304	6897.65
1897.21921	6885.85
1900.34335	6900.55
1903.46544	6900.55
1906.58551	6892.85
1909.70353	6868.25
1912.81953	6844.65
1915.93349	6830.15
1919.04543	6805.45
1922.15534	6770.95
1925.26322	6755.35
1928.36908	6711.25
1931.47292	6685.45
1934.57473	6652.85
1937.67453	6629.95
1940.77232	6604.55
1943.86808	6577.55
1946.96184	6588.65
1950.05358	6535.75
1953.14331	6525.95
1956.23103	6518.05
1959.31675	6463.25
1962.40046	6455.65
1965.48217	6449.35
1968.56188	6468.15
1971.63959	6430.25
1974.7153	6417.45
1977.78901	6421.95
1980.86073	6375.75
1983.93046	6338.05
1986.99819	6295.75
1990.06394	6279.65
1993.1277	6266.75
1996.18947	6244.35
1999.24925	6215.85
2002.30706	6189.25
2005.36288	6192.55
2008.41672	6183.75
2011.46859	6145.95
2014.51848	6137.95
2017.56639	6114.05
2020.61233	6059.05
2023.6563	6073.45
2026.6983	6032.35
2029.73833	6022.85
2032.7764	5995.85
2035.8125	5965.35
2038.84664	5948.15
2041.87881	5938.85
2044.90903	5922.85
2047.93729	5909.25
2050.96359	5925.25
2053.98794	5896.85
2057.01034	5887.25
2060.03078	5882.05
2063.04927	5888.15
2066.06582	5877.95
2069.08042	5887.65
2072.09307	5893.55
2075.10378	5899.65
2078.11255	5897.65
2081.11938	5921.15
2084.12426	5907.25
2087.12722	5910.95
2090.12824	5929.35
2093.12732	5910.15
2096.12447	5921.35
2099.11969	5915.65
2102.11299	5909.05
2105.10435	5903.25
2108.09379	5876.75
2111.08131	5869.75
2114.0669	5862.95
2117.05057	5865.85
2120.03233	5868.05
2123.01216	5847.65
2125.99008	5840.95
2128.96609	5852.95
2131.94018	5833.05
2134.91236	5823.85
2137.88263	5830.55
2140.851	5817.95
2143.81746	5820.95
2146.78201	5795.95
2149.74466	5803.45
2152.7054	5786.45
2155.66425	5778.35
2158.6212	5745.75
2161.57625	5755.85
2164.52941	5740.75
2167.48067	5741.75
2170.43004	5719.25
2173.37752	5746.65
2176.32311	5708.25
2179.26681	5706.95
2182.20863	5685.75
2185.14856	5711.25
2188.08661	5711.45
2191.02278	5701.35
2193.95707	5696.35
2196.88948	5661.85
2199.82001	5669.15
2202.74867	5639.55
2205.67545	5656.15
2208.60037	5648.55
2211.52341	5610.75
2214.44458	5620.15
2217.36388	5596.85
2220.28132	5590.45
2223.1969	5572.15
2226.11061	5576.95
2229.02246	5561.55
2231.93245	5548.15
2234.84058	5535.75
2237.74686	5534.95
2240.65128	5528.15
2243.55385	5514.25
2246.45456	5507.05
2249.35343	5504.25
2252.25044	5487.55
2255.14561	5490.65
2258.03893	5494.25
2260.93041	5477.45
2263.82004	5455.65
2266.70783	5447.45
2269.59378	5430.05
2272.4779	5423.75
2275.36017	5415.55
2278.24061	5390.35
2281.11922	5378.95
2283.996	5377.65
2286.87094	5353.95
2289.74405	5351.35
2292.61534	5342.45
2295.4848	5328.65
2298.35243	5317.75
2301.21824	5306.35
2304.08223	5328.95
2306.94439	5316.25
2309.80474	5308.25
2312.66327	5314.75
2315.51999	5301.55
2318.37489	5326.15
2321.22797	5307.05
2324.07925	5293.85
2326.92871	5288.35
2329.77637	5290.75
2332.62222	5277.95
2335.46626	5271.55
2338.3085	5261.25
2341.14893	5266.25
2343.98756	5269.05
2346.8244	5290.35
2349.65943	5287.65
2352.49267	5291.65
2355.32411	5312.35
2358.15376	5310.05
2360.98161	5321.85
2363.80768	5332.45
2366.63195	5329.45
2369.45444	5336.05
2372.27514	5329.55
2375.09405	5316.75
2377.91118	5309.35
2380.72652	5289.75
2383.54009	5252.95
2386.35187	5241.15
2389.16188	5199.95
2391.97011	5197.25
2394.77657	5186.95
2397.58125	5171.65
2400.38416	5167.55
2403.18529	5147.75
2405.98466	5138.75
2408.78226	5123.85
2411.57809	5099.75
2414.37216	5104.15
2417.16446	5099.75
2419.955	5088.95
2422.74378	5091.65
2425.5308	5095.85
2428.31606	5098.75
2431.09956	5103.35
2433.88131	5079.95
2436.6613	5072.35
2439.43954	5075.95
2442.21603	5084.15
2444.99077	5084.15
2447.76377	5102.05
2450.53501	5105.25
2453.30451	5124.15
2456.07226	5116.85
2458.83827	5137.75
2461.60254	5126.65
2464.36507	5117.45
2467.12586	5119.85
2469.88492	5111.25
2472.64224	5119.05
2475.39782	5117.55
2478.15167	5137.55
2480.90379	5142.35
2483.65417	5167.65
2486.40283	5160.05
2489.14976	5175.45
2491.89497	5168.45
2494.63845	5184.05
2497.3802	5177.15
2500.12024	5174.85
2502.85855	5160.85
2505.59514	5154.85
2508.33002	5137.15
2511.06318	5100.45
2513.79462	5082.55
2516.52435	5068.05
2519.25237	5034.95
2521.97867	5040.85
2524.70327	5032.35
2527.42616	5019.15
2530.14734	5031.15
2532.86681	5004.65
2535.58458	4999.35
2538.30065	5025.65
2541.01501	5008.55
2543.72768	5009.75
2546.43864	5006.65
2549.14791	4990.45
2551.85548	4998.85
2554.56136	5014.45
2557.26554	5016.15
2559.96803	4999.85
2562.66883	4996.45
2565.36794	4989.25
2568.06536	4977.55
2570.7611	4992.35
2573.45514	4973.75
2576.14751	4967.85
2578.83819	4962.85
2581.52719	4969.15
2584.21451	4949.05
2586.90015	4960.35
2589.58411	4943.25
2592.2664	4957.85
2594.94701	4943.75
2597.62594	4928.05
2600.30321	4925.85
2602.9788	4932.15
2605.65273	4929.65
2608.32498	4927.55
2610.99557	4935.95
2613.66449	4929.85
2616.33175	4926.35
2618.99734	4927.25
2621.66128	4946.95
2624.32355	4930.75
2626.98416	4935.35
2629.64311	4925.35
2632.30041	4920.25
2634.95605	4912.15
2637.61004	4911.25
2640.26238	4889.35
2642.91306	4898.45
2645.56209	4888.95
2648.20948	4889.75
2650.85521	4896.25
2653.4993	4886.65
2656.14175	4905.05
2658.78255	4912.75
2661.42171	4907.75
2664.05923	4926.35
2666.6951	4921.45
2669.32934	4944.55
2671.96194	4935.75
2674.59291	4941.95
2677.22224	4930.45
2679.84993	4923.55
2682.476	4926.45
2685.10043	4940.65
2687.72324	4907.15
2690.34441	4910.35
2692.96396	4909.25
2695.58188	4920.65
2698.19818	4909.55
2700.81285	4900.65
2703.4259	4911.45
2706.03733	4913.55
2708.64714	4905.25
2711.25533	4919.45
2713.86191	4924.15
2716.46687	4908.55
2719.07021	4943.15
2721.67194	4924.75
2724.27206	4926.85
2726.87057	4947.85
2729.46747	4928.95
2732.06276	4941.95
2734.65644	4921.75
2737.24852	4933.05
2739.83899	4890.55
2742.42786	4923.45
2745.01513	4895.75
2747.60079	4885.65
2750.18486	4880.55
2752.76733	4896.95
2755.3482	4890.45
2757.92747	4895.75
2760.50515	4893.15
2763.08123	4902.35
2765.65573	4879.45
2768.22863	4878.15
2770.79994	4898.35
2773.36967	4887.85
2775.9378	4883.55
2778.50435	4885.95
2781.06932	4875.35
2783.6327	4889.25
2786.1945	4869.25
2788.75471	4874.85
2791.31335	4851.75
2793.87041	4862.65
2796.42589	4862.55
2798.97979	4864.55
2801.53212	4843.25
2804.08288	4846.75
2806.63206	4857.55
2809.17967	4836.05
2811.72571	4843.55
2814.27018	4853.25
2816.81308	4859.75
2819.35442	4851.15
2821.89419	4849.15
2824.43239	4864.75
2826.96904	4870.85
2829.50412	4870.65
2832.03763	4858.85
2834.56959	4863.75
2837.1	4846.95
2839.62884	4865.75
2842.15613	4853.65
2844.68186	4853.75
2847.20604	4873.35
2849.72867	4889.95
2852.24974	4904.05
2854.76927	4891.75
2857.28724	4893.95
2859.80367	4919.75
2862.31855	4912.25
2864.83189	4918.75
2867.34368	4923.95
2869.85393	4942.85
2872.36264	4954.45
2874.8698	4944.85
2877.37543	4956.55
2879.87952	4948.45
2882.38207	4946.75
2884.88308	4952.35
2887.38256	4949.15
2889.88051	4951.15
2892.37692	4945.05
2894.8718	4948.95
2897.36515	4939.75
2899.85698	4930.45
2902.34727	4945.85
2904.83604	4945.05
2907.32328	4958.25
2909.809	4951.95
2912.29319	4971.55
2914.77587	4965.45
2917.25702	4959.25
2919.73665	4920.15
2922.21476	4938.05
2924.69136	4921.65
2927.16644	4919.85
2929.64	4887.65
2932.11205	4890.35
2934.58258	4861.65
2937.05161	4858.85
2939.51912	4856.05
2941.98513	4833.55
2944.44962	4815.15
2946.91261	4795.35
2949.37409	4791.35
2951.83407	4797.35
2954.29254	4796.05
2956.74951	4776.65
2959.20498	4763.65
2961.65895	4750.45
2964.11142	4728.15
2966.56239	4717.55
2969.01186	4699.25
2971.45984	4684.85
2973.90632	4662.65
2976.35131	4651.15
2978.7948	4641.15
2981.23681	4612.55
2983.67732	4607.15
2986.11635	4601.25
2988.55388	4597.65
2990.98993	4581.35
2993.4245	4556.35
2995.85758	4560.85
2998.28917	4569.85
3000.71928	4546.75
3003.14791	4549.85
3005.57506	4537.15
3008.00073	4516.15
3010.42493	4534.15
3012.84764	4503.25
3015.26888	4503.65
3017.68865	4498.25
3020.10694	4485.35
3022.52376	4460.75
3024.9391	4466.85
3027.35298	4438.95
3029.76539	4451.35
3032.17632	4425.75
3034.5858	4423.25
3036.9938	4432.45
3039.40034	4416.35
3041.80542	4398.05
3044.20903	4377.95
3046.61118	4369.05
3049.01187	4375.05
3051.4111	4371.05
3053.80888	4359.45
3056.20519	4352.75
3058.60005	4342.45
3060.99345	4343.75
3063.3854	4336.85
3065.7759	4302.25
3068.16494	4301.75
3070.55254	4285.25
3072.93868	4278.65
3075.32338	4269.35
3077.70662	4253.45
3080.08842	4246.45
3082.46878	4246.85
3084.84769	4232.05
3087.22515	4244.45
3089.60118	4245.65
3091.97576	4226.95
3094.3489	4212.75
3096.72061	4212.15
3099.09087	4208.55
3101.4597	4210.15
3103.82709	4192.55
3106.19305	4175.15
3108.55757	4186.45
3110.92066	4171.35
3113.28232	4155.85
3115.64255	4157.65
3118.00134	4151.15
3120.35871	4142.65
3122.71466	4140.95
3125.06917	4124.55
3127.42226	4127.95
3129.77393	4130.15
3132.12417	4126.75
3134.47299	4139.55
3136.82039	4133.05
3139.16636	4140.35
3141.51092	4132.85
3143.85406	4129.65
3146.19579	4132.35
3148.53609	4146.75
3150.87499	4139.25
3153.21246	4146.45
3155.54853	4164.35
3157.88318	4144.25
3160.21642	4130.35
3162.54826	4134.05
3164.87868	4138.95
3167.2077	4131.65
3169.5353	4144.95
3171.86151	4136.75
3174.18631	4128.45
3176.5097	4122.45
3178.83169	4111.85
3181.15228	4126.15
3183.47147	4108.95
3185.78926	4125.45
3188.10565	4124.55
3190.42065	4126.15
3192.73424	4130.45
3195.04645	4126.55
3197.35725	4149.95
3199.66667	4139.15
3201.97469	4144.75
3204.28132	4150.25
3206.58656	4138.35
3208.8904	4141.45
3211.19287	4147.25
3213.49394	4147.15
3215.79363	4151.25
3218.09193	4154.65
3220.38884	4143.55
3222.68438	4144.85
3224.97853	4151.55
3227.2713	4152.75
3229.56269	4149.35
3231.8527	4148.95
3234.14133	4133.15
3236.42858	4128.85
3238.71446	4116.55
3240.99896	4120.45
3243.28209	4122.55
3245.56384	4123.65
3247.84423	4139.75
3250.12324	4111.65
3252.40088	4120.35
3254.67715	4113.05
3256.95205	4111.35
3259.22558	4094.15
3261.49775	4085.85
3263.76855	4092.05
3266.03799	4070.05
3268.30606	4084.35
3270.57277	4058.05
3272.83812	4053.95
3275.10211	4057.95
3277.36474	4059.45
3279.62601	4069.45
3281.88593	4052.55
3284.14448	4073.65
3286.40168	4071.65
3288.65753	4072.75
3290.91202	4066.55
3293.16516	4051.95
3295.41695	4050.75
3297.66738	4032.05
3299.91647	4008.25
3302.16421	3985.55
3304.4106	3977.25
3306.65564	3972.65
3308.89933	3943.35
3311.14169	3916.35
3313.38269	3890.35
3315.62236	3854.35
3317.86068	3828.55
3320.09766	3782.85
3322.3333	3744.15
3324.5676	3746.75
3326.80056	3678.85
3329.03219	3652.45
3331.26248	1.85
3333.49143	-1.05
3335.71905	-0.15
