Data from AgNP_FTO_APTES_UA_100uM_CRN_0uM_R6G_10uM_NaF_0.1M_Addition_RamanShift__17__11-05-00-103.txt Node

Date: Thu Mar 24 11:05:00 GMT 2022
User: TCL
Spectrometer: QEP01345
Trigger mode: 4
Integration Time (sec): 7.000000E0
Scans to average: 10
Electric dark correction enabled: true
Nonlinearity correction enabled: false
Boxcar width: 0
XAxis mode: Raman Shifts
Number of Pixels in Spectrum: 1044
>>>>>Begin Spectral Data<<<<<
46.04893	-2.85
50.45542	-0.45
54.85868	1.55
59.25871	0.25
63.6555	33.95
68.04907	37.15
72.43941	33.75
76.82654	36.75
81.21044	41.35
85.59113	37.45
89.96862	44.85
94.34289	41.05
98.71396	42.85
103.08183	47.85
107.4465	45.45
111.80798	49.55
116.16626	48.35
120.52136	48.45
124.87327	48.95
129.222	53.55
133.56755	57.25
137.90993	56.55
142.24913	66.45
146.58517	69.75
150.91804	84.55
155.24774	101.05
159.57429	122.95
163.89768	156.35
168.21792	210.95
172.53501	287.35
176.84895	398.15
181.15975	561.55
185.46741	788.05
189.77193	1079.65
194.07331	1435.05
198.37157	1847.55
202.6667	2292.45
206.9587	2717.15
211.24758	3150.65
215.53334	3612.15
219.81599	4109.25
224.09553	4665.15
228.37195	5288.15
232.64527	6004.15
236.91549	6694.85
241.18261	7328.65
245.44663	7885.85
249.70755	8280.75
253.96539	8597.65
258.22014	8838.35
262.4718	9039.35
266.72039	9182.45
270.96589	9232.35
275.20832	9168.65
279.44768	9028.55
283.68397	8849.45
287.91719	8736.25
292.14735	8672.95
296.37445	8702.15
300.59849	8851.45
304.81948	9088.85
309.03742	9312.85
313.25231	9424.15
317.46415	9370.65
321.67296	9214.55
325.87872	9044.05
330.08145	8972.75
334.28114	8959.45
338.47781	9012.85
342.67145	9135.25
346.86207	9310.25
351.04966	9589.95
355.23424	9844.55
359.4158	9993.95
363.59435	10069.25
367.76989	10063.05
371.94243	10023.85
376.11196	10003.65
380.27849	10040.25
384.44203	10081.75
388.60257	10135.25
392.76012	10099.35
396.91468	10144.85
401.06626	10313.65
405.21485	10421.85
409.36047	10251.35
413.50311	9968.95
417.64277	9830.85
421.77947	9783.35
425.9132	9712.65
430.04396	9705.15
434.17176	9818.45
438.2966	10064.25
442.41849	10530.45
446.53742	11205.65
450.6534	11875.05
454.76644	12175.15
458.87653	12013.35
462.98368	11624.55
467.08789	11157.75
471.18916	10738.65
475.2875	10315.05
479.38291	9945.25
483.4754	9637.85
487.56496	9432.15
491.6516	9278.95
495.73531	9164.55
499.81612	9148.75
503.89401	9214.55
507.96899	9243.85
512.04106	9205.45
516.11023	9154.75
520.1765	9150.55
524.23987	9244.55
528.30034	9402.65
532.35792	9418.45
536.41261	9202.25
540.46441	8841.75
544.51333	8617.85
548.55936	8622.55
552.60252	8927.95
556.64279	9437.55
560.6802	9864.05
564.71473	9989.25
568.7464	10113.65
572.7752	10496.35
576.80114	10740.35
580.82422	10943.85
584.84444	11672.95
588.86181	13230.85
592.87633	15429.25
596.888	16603.45
600.89682	15225.45
604.9028	13575.45
608.90594	14138.95
612.90624	15904.05
616.90371	14966.45
620.89834	11317.55
624.89015	9448.25
628.87913	9144.75
632.86528	9214.65
636.84862	9189.55
640.82913	8870.45
644.80683	8443.35
648.78172	8182.45
652.75379	8176.35
656.72306	8441.85
660.68952	8800.75
664.65319	8695.95
668.61405	8275.25
672.57211	8161.45
676.52738	8251.55
680.47986	8232.15
684.42955	8090.75
688.37646	7986.05
692.32058	8060.25
696.26192	8283.95
700.20048	8531.85
704.13626	8616.15
708.06928	8633.05
711.99952	8583.85
715.927	8624.75
719.85171	8719.95
723.77365	8704.45
727.69284	8510.75
731.60928	8395.25
735.52295	8420.75
739.43388	8551.15
743.34206	8644.15
747.24749	8680.15
751.15017	8764.15
755.05012	8924.35
758.94733	9281.65
762.8418	10102.25
766.73354	11589.55
770.62254	13031.25
774.50882	13484.65
778.39237	12745.65
782.27321	11367.05
786.15132	10015.85
790.02671	9137.35
793.89938	8707.35
797.76935	8467.95
801.6366	8366.55
805.50115	8277.45
809.36299	8200.45
813.22213	8127.05
817.07857	8068.45
820.93231	7979.35
824.78336	7957.05
828.63172	7959.05
832.47738	7974.35
836.32036	7987.95
840.16066	8018.35
843.99827	8021.25
847.8332	7983.75
851.66546	8010.05
855.49504	7986.25
859.32195	7976.05
863.1462	7918.15
866.96777	7860.85
870.78668	7837.55
874.60293	7866.35
878.41652	7893.85
882.22745	7969.05
886.03573	8063.25
889.84136	8038.45
893.64433	8007.55
897.44466	7968.85
901.24235	7970.95
905.0374	7887.75
908.8298	7821.35
912.61957	7769.35
916.40671	7808.15
920.19121	7954.15
923.97308	8148.45
927.75233	8323.15
931.52895	8306.25
935.30295	8065.05
939.07433	7752.25
942.84309	7566.15
946.60924	7445.15
950.37278	7428.05
954.13371	7393.85
957.89203	7392.45
961.64774	7376.35
965.40086	7388.85
969.15137	7394.05
972.89929	7357.55
976.64461	7351.35
980.38733	7321.95
984.12747	7384.25
987.86502	7423.45
991.59999	7543.95
995.33237	7703.75
999.06217	8020.95
1002.78939	8433.05
1006.51404	8815.15
1010.23611	9130.55
1013.95561	9335.45
1017.67255	9350.25
1021.38692	9052.45
1025.09872	8586.15
1028.80796	8303.95
1032.51465	8275.35
1036.21877	8357.95
1039.92035	8439.75
1043.61937	8433.05
1047.31584	8393.85
1051.00976	8349.95
1054.70114	8271.95
1058.38998	8238.95
1062.07627	8255.35
1065.76003	8296.55
1069.44126	8417.25
1073.11995	8629.35
1076.79611	8868.95
1080.46974	9052.35
1084.14085	9320.95
1087.80943	9598.75
1091.47549	9719.45
1095.13903	9590.45
1098.80005	9237.45
1102.45857	8864.15
1106.11456	8747.45
1109.76805	8787.05
1113.41903	8937.55
1117.06751	9156.05
1120.71348	9421.05
1124.35696	9753.35
1127.99793	10005.95
1131.63641	10031.05
1135.2724	9810.75
1138.90589	9597.95
1142.5369	9563.35
1146.16542	9645.65
1149.79145	9829.05
1153.415	9963.65
1157.03607	10081.55
1160.65467	10327.45
1164.27079	10863.75
1167.88443	11772.15
1171.49561	13085.45
1175.10432	14999.95
1178.71056	17466.35
1182.31434	19697.55
1185.91565	20267.65
1189.51451	19206.55
1193.11091	17641.95
1196.70485	16107.25
1200.29634	14843.35
1203.88538	13821.65
1207.47197	13075.45
1211.05612	12596.75
1214.63782	12364.75
1218.21708	12426.85
1221.79391	12799.65
1225.36829	13271.45
1228.94024	13363.25
1232.50976	12836.25
1236.07685	12032.05
1239.6415	11535.75
1243.20374	11328.05
1246.76355	11278.15
1250.32093	11348.35
1253.8759	11631.75
1257.42845	12080.15
1260.97859	12661.75
1264.52631	13327.95
1268.07163	13965.55
1271.61453	14528.65
1275.15503	15078.65
1278.69312	15660.85
1282.22882	16419.95
1285.76211	17545.25
1289.29301	18962.15
1292.82151	20453.65
1296.34761	22074.65
1299.87133	23953.45
1303.39266	26091.25
1306.9116	28484.35
1310.42815	30824.55
1313.94233	32141.35
1317.45412	31321.25
1320.96354	28953.05
1324.47058	26268.95
1327.97525	24039.25
1331.47754	22447.45
1334.97747	21541.55
1338.47502	20988.55
1341.97022	20561.65
1345.46305	20345.05
1348.95352	20794.25
1352.44163	22282.05
1355.92738	25016.65
1359.41078	28667.35
1362.89183	31913.35
1366.37053	31999.25
1369.84688	28113.95
1373.32088	23030.55
1376.79254	19801.85
1380.26186	18613.15
1383.72883	18106.65
1387.19347	17530.45
1390.65578	16927.25
1394.11575	16767.15
1397.57339	17053.55
1401.0287	17413.85
1404.48168	17581.25
1407.93234	17426.35
1411.38068	16966.75
1414.82669	16442.65
1418.27039	15864.35
1421.71177	15248.65
1425.15083	14702.35
1428.58758	14526.95
1432.02203	14871.55
1435.45416	15341.95
1438.88399	15661.55
1442.31151	15770.75
1445.73673	15806.25
1449.15965	15811.15
1452.58027	15596.75
1455.9986	15240.35
1459.41463	15140.45
1462.82837	15489.25
1466.23982	16110.55
1469.64898	16746.75
1473.05586	17225.15
1476.46045	17537.05
1479.86276	17671.75
1483.26279	17789.25
1486.66054	17963.85
1490.05602	18437.15
1493.44922	18921.05
1496.84016	19325.95
1500.22882	19703.35
1503.61521	20379.75
1506.99934	21349.05
1510.38121	22220.25
1513.76081	22328.05
1517.13816	21361.45
1520.51324	19827.95
1523.88607	18676.35
1527.25665	18211.65
1530.62498	18171.45
1533.99105	18070.35
1537.35488	17629.75
1540.71647	16973.35
1544.07581	16222.35
1547.4329	15479.25
1550.78776	14820.55
1554.14038	14286.55
1557.49077	13972.15
1560.83892	13916.15
1564.18484	14040.25
1567.52853	14434.65
1570.86999	14913.55
1574.20922	15345.55
1577.54624	15514.65
1580.88103	15187.95
1584.2136	14799.25
1587.54395	15172.15
1590.87208	16416.85
1594.19801	18424.05
1597.52172	20584.95
1600.84321	21654.65
1604.16251	20524.55
1607.47959	17911.45
1610.79447	15059.75
1614.10715	12764.85
1617.41763	11319.55
1620.7259	10525.25
1624.03199	10255.15
1627.33587	10358.15
1630.63757	10932.95
1633.93707	12111.45
1637.23439	14237.25
1640.52951	17750.05
1643.82246	22408.95
1647.11321	26376.95
1650.40179	27088.25
1653.68819	23878.15
1656.97241	18818.35
1660.25446	14356.05
1663.53433	11490.15
1666.81203	9834.15
1670.08756	8912.35
1673.36092	8371.75
1676.63211	8019.65
1679.90115	7777.65
1683.16801	7610.95
1686.43272	7466.75
1689.69527	7385.75
1692.95567	7300.95
1696.2139	7258.35
1699.46999	7201.25
1702.72392	7189.25
1705.97571	7165.65
1709.22535	7137.85
1712.47284	7119.35
1715.71819	7131.25
1718.96139	7092.35
1722.20246	7050.65
1725.44139	6990.85
1728.67818	6937.45
1731.91284	6886.95
1735.14537	6822.15
1738.37576	6771.65
1741.60403	6730.45
1744.83017	6715.35
1748.05418	6677.65
1751.27607	6652.25
1754.49584	6624.05
1757.71349	6617.75
1760.92903	6612.95
1764.14244	6585.75
1767.35375	6588.75
1770.56294	6587.25
1773.77002	6546.95
1776.97499	6536.75
1780.17785	6520.05
1783.37861	6505.95
1786.57727	6478.85
1789.77382	6434.15
1792.96828	6439.35
1796.16064	6431.85
1799.3509	6417.75
1802.53907	6407.85
1805.72514	6369.65
1808.90913	6367.65
1812.09102	6342.95
1815.27083	6335.65
1818.44856	6310.15
1821.6242	6309.95
1824.79776	6294.05
1827.96924	6290.55
1831.13864	6284.95
1834.30597	6277.65
1837.47122	6274.75
1840.6344	6281.65
1843.7955	6275.35
1846.95454	6271.55
1850.11151	6268.25
1853.26642	6277.75
1856.41926	6281.45
1859.57004	6292.15
1862.71876	6300.15
1865.86542	6317.25
1869.01003	6323.65
1872.15258	6336.05
1875.29308	6367.65
1878.43152	6398.55
1881.56792	6419.35
1884.70227	6443.85
1887.83457	6452.15
1890.96482	6447.65
1894.09304	6487.75
1897.21921	6466.15
1900.34335	6478.75
1903.46544	6436.55
1906.58551	6432.05
1909.70353	6432.85
1912.81953	6408.35
1915.93349	6404.75
1919.04543	6400.85
1922.15534	6381.45
1925.26322	6335.95
1928.36908	6319.85
1931.47292	6293.55
1934.57473	6282.65
1937.67453	6261.35
1940.77232	6236.85
1943.86808	6225.75
1946.96184	6218.95
1950.05358	6180.95
1953.14331	6173.45
1956.23103	6154.75
1959.31675	6136.35
1962.40046	6097.85
1965.48217	6074.95
1968.56188	6052.45
1971.63959	6035.15
1974.7153	5995.65
1977.78901	5991.25
1980.86073	5954.25
1983.93046	5943.05
1986.99819	5895.75
1990.06394	5892.15
1993.1277	5873.35
1996.18947	5873.15
1999.24925	5858.15
2002.30706	5842.25
2005.36288	5857.75
2008.41672	5839.25
2011.46859	5831.05
2014.51848	5808.35
2017.56639	5799.15
2020.61233	5768.85
2023.6563	5755.15
2026.6983	5708.35
2029.73833	5700.05
2032.7764	5683.35
2035.8125	5638.75
2038.84664	5614.95
2041.87881	5601.45
2044.90903	5602.25
2047.93729	5589.15
2050.96359	5594.25
2053.98794	5586.85
2057.01034	5596.95
2060.03078	5607.65
2063.04927	5624.65
2066.06582	5651.95
2069.08042	5671.95
2072.09307	5703.35
2075.10378	5700.45
2078.11255	5741.35
2081.11938	5762.05
2084.12426	5759.85
2087.12722	5765.15
2090.12824	5758.45
2093.12732	5746.75
2096.12447	5736.95
2099.11969	5705.25
2102.11299	5697.75
2105.10435	5658.55
2108.09379	5646.15
2111.08131	5628.75
2114.0669	5608.25
2117.05057	5618.85
2120.03233	5586.55
2123.01216	5580.15
2125.99008	5572.15
2128.96609	5563.65
2131.94018	5551.55
2134.91236	5550.85
2137.88263	5544.25
2140.851	5508.25
2143.81746	5538.65
2146.78201	5538.65
2149.74466	5498.65
2152.7054	5493.95
2155.66425	5477.75
2158.6212	5486.15
2161.57625	5459.55
2164.52941	5443.95
2167.48067	5413.05
2170.43004	5419.05
2173.37752	5411.95
2176.32311	5408.45
2179.26681	5387.65
2182.20863	5396.15
2185.14856	5406.95
2188.08661	5398.95
2191.02278	5393.55
2193.95707	5389.45
2196.88948	5369.85
2199.82001	5387.95
2202.74867	5369.95
2205.67545	5372.65
2208.60037	5349.85
2211.52341	5318.35
2214.44458	5310.05
2217.36388	5297.95
2220.28132	5311.65
2223.1969	5290.85
2226.11061	5267.45
2229.02246	5272.85
2231.93245	5279.45
2234.84058	5280.25
2237.74686	5269.95
2240.65128	5305.35
2243.55385	5255.85
2246.45456	5252.75
2249.35343	5232.65
2252.25044	5235.65
2255.14561	5221.85
2258.03893	5213.35
2260.93041	5187.55
2263.82004	5169.05
2266.70783	5160.05
2269.59378	5153.95
2272.4779	5146.15
2275.36017	5133.75
2278.24061	5123.45
2281.11922	5109.75
2283.996	5100.15
2286.87094	5092.75
2289.74405	5074.15
2292.61534	5067.95
2295.4848	5071.05
2298.35243	5074.85
2301.21824	5061.15
2304.08223	5084.25
2306.94439	5053.25
2309.80474	5062.45
2312.66327	5072.45
2315.51999	5081.25
2318.37489	5081.95
2321.22797	5061.05
2324.07925	5065.45
2326.92871	5051.55
2329.77637	5049.45
2332.62222	5017.55
2335.46626	5021.75
2338.3085	5023.25
2341.14893	5041.45
2343.98756	5040.25
2346.8244	5056.05
2349.65943	5046.25
2352.49267	5038.25
2355.32411	5061.75
2358.15376	5051.65
2360.98161	5044.85
2363.80768	5047.75
2366.63195	5045.95
2369.45444	5056.35
2372.27514	5037.25
2375.09405	5034.45
2377.91118	5036.25
2380.72652	5031.85
2383.54009	5016.15
2386.35187	5016.65
2389.16188	4976.55
2391.97011	4959.85
2394.77657	4968.35
2397.58125	4958.55
2400.38416	4952.45
2403.18529	4913.55
2405.98466	4928.05
2408.78226	4922.45
2411.57809	4911.75
2414.37216	4894.35
2417.16446	4900.35
2419.955	4902.65
2422.74378	4903.55
2425.5308	4897.35
2428.31606	4891.75
2431.09956	4883.45
2433.88131	4883.65
2436.6613	4886.05
2439.43954	4883.85
2442.21603	4875.65
2444.99077	4881.25
2447.76377	4878.75
2450.53501	4876.35
2453.30451	4911.85
2456.07226	4912.75
2458.83827	4907.95
2461.60254	4909.85
2464.36507	4915.35
2467.12586	4912.95
2469.88492	4914.85
2472.64224	4922.55
2475.39782	4911.75
2478.15167	4926.75
2480.90379	4937.45
2483.65417	4929.75
2486.40283	4938.35
2489.14976	4938.15
2491.89497	4951.45
2494.63845	4965.55
2497.3802	4940.45
2500.12024	4943.55
2502.85855	4935.05
2505.59514	4937.35
2508.33002	4927.55
2511.06318	4909.05
2513.79462	4909.25
2516.52435	4883.55
2519.25237	4896.65
2521.97867	4895.65
2524.70327	4886.05
2527.42616	4868.75
2530.14734	4857.85
2532.86681	4876.45
2535.58458	4868.85
2538.30065	4874.25
2541.01501	4880.65
2543.72768	4874.05
2546.43864	4874.05
2549.14791	4875.75
2551.85548	4876.05
2554.56136	4872.35
2557.26554	4871.05
2559.96803	4862.45
2562.66883	4863.75
2565.36794	4861.05
2568.06536	4865.05
2570.7611	4868.85
2573.45514	4873.05
2576.14751	4861.75
2578.83819	4849.55
2581.52719	4858.15
2584.21451	4864.15
2586.90015	4854.65
2589.58411	4835.25
2592.2664	4860.95
2594.94701	4848.15
2597.62594	4829.15
2600.30321	4837.85
2602.9788	4841.95
2605.65273	4832.05
2608.32498	4838.35
2610.99557	4829.45
2613.66449	4840.35
2616.33175	4848.25
2618.99734	4849.15
2621.66128	4828.45
2624.32355	4834.75
2626.98416	4813.45
2629.64311	4809.75
2632.30041	4811.25
2634.95605	4804.05
2637.61004	4807.65
2640.26238	4808.65
2642.91306	4807.95
2645.56209	4800.95
2648.20948	4814.25
2650.85521	4809.25
2653.4993	4810.05
2656.14175	4840.95
2658.78255	4829.45
2661.42171	4831.75
2664.05923	4852.45
2666.6951	4860.95
2669.32934	4873.45
2671.96194	4875.45
2674.59291	4870.65
2677.22224	4880.95
2679.84993	4857.75
2682.476	4844.45
2685.10043	4864.05
2687.72324	4847.75
2690.34441	4843.95
2692.96396	4845.25
2695.58188	4849.55
2698.19818	4841.65
2700.81285	4838.85
2703.4259	4852.05
2706.03733	4867.65
2708.64714	4852.15
2711.25533	4871.05
2713.86191	4867.05
2716.46687	4879.95
2719.07021	4873.35
2721.67194	4885.45
2724.27206	4874.25
2726.87057	4896.25
2729.46747	4902.05
2732.06276	4904.35
2734.65644	4906.35
2737.24852	4887.35
2739.83899	4883.05
2742.42786	4890.85
2745.01513	4877.55
2747.60079	4868.05
2750.18486	4880.15
2752.76733	4878.55
2755.3482	4896.55
2757.92747	4890.55
2760.50515	4891.35
2763.08123	4902.95
2765.65573	4871.95
2768.22863	4882.25
2770.79994	4879.85
2773.36967	4879.55
2775.9378	4879.65
2778.50435	4872.05
2781.06932	4876.85
2783.6327	4876.45
2786.1945	4885.45
2788.75471	4877.55
2791.31335	4868.05
2793.87041	4882.45
2796.42589	4867.55
2798.97979	4870.55
2801.53212	4854.15
2804.08288	4861.75
2806.63206	4851.05
2809.17967	4849.25
2811.72571	4833.05
2814.27018	4843.15
2816.81308	4834.95
2819.35442	4844.25
2821.89419	4864.65
2824.43239	4855.35
2826.96904	4845.95
2829.50412	4877.55
2832.03763	4862.55
2834.56959	4867.65
2837.1	4855.25
2839.62884	4861.85
2842.15613	4861.75
2844.68186	4882.55
2847.20604	4905.85
2849.72867	4918.15
2852.24974	4927.95
2854.76927	4925.55
2857.28724	4929.55
2859.80367	4902.55
2862.31855	4910.45
2864.83189	4915.65
2867.34368	4940.05
2869.85393	4938.45
2872.36264	4936.35
2874.8698	4961.35
2877.37543	4934.65
2879.87952	4955.85
2882.38207	4948.95
2884.88308	4942.05
2887.38256	4951.65
2889.88051	4949.25
2892.37692	4962.85
2894.8718	4956.05
2897.36515	4966.35
2899.85698	4964.45
2902.34727	4973.25
2904.83604	4959.65
2907.32328	4982.95
2909.809	4964.05
2912.29319	4972.55
2914.77587	4980.15
2917.25702	4963.05
2919.73665	4964.25
2922.21476	4959.75
2924.69136	4961.35
2927.16644	4964.05
2929.64	4947.75
2932.11205	4934.85
2934.58258	4912.55
2937.05161	4920.55
2939.51912	4893.95
2941.98513	4883.25
2944.44962	4868.15
2946.91261	4838.95
2949.37409	4845.95
2951.83407	4850.85
2954.29254	4834.65
2956.74951	4814.55
2959.20498	4802.25
2961.65895	4793.75
2964.11142	4784.15
2966.56239	4764.15
2969.01186	4755.65
2971.45984	4735.95
2973.90632	4720.05
2976.35131	4684.65
2978.7948	4677.95
2981.23681	4643.85
2983.67732	4646.35
2986.11635	4627.25
2988.55388	4630.45
2990.98993	4609.25
2993.4245	4585.85
2995.85758	4596.45
2998.28917	4592.95
3000.71928	4568.35
3003.14791	4578.35
3005.57506	4582.95
3008.00073	4565.85
3010.42493	4563.75
3012.84764	4564.05
3015.26888	4557.95
3017.68865	4536.05
3020.10694	4522.45
3022.52376	4499.25
3024.9391	4501.35
3027.35298	4479.35
3029.76539	4485.85
3032.17632	4455.95
3034.5858	4466.45
3036.9938	4444.45
3039.40034	4435.75
3041.80542	4441.95
3044.20903	4427.35
3046.61118	4445.05
3049.01187	4428.65
3051.4111	4422.35
3053.80888	4429.35
3056.20519	4419.55
3058.60005	4412.25
3060.99345	4412.85
3063.3854	4406.95
3065.7759	4370.95
3068.16494	4367.85
3070.55254	4352.55
3072.93868	4356.65
3075.32338	4352.75
3077.70662	4335.45
3080.08842	4320.05
3082.46878	4331.95
3084.84769	4323.65
3087.22515	4315.25
3089.60118	4311.85
3091.97576	4308.45
3094.3489	4301.75
3096.72061	4297.95
3099.09087	4287.35
3101.4597	4289.85
3103.82709	4279.75
3106.19305	4272.35
3108.55757	4256.85
3110.92066	4261.05
3113.28232	4252.15
3115.64255	4227.45
3118.00134	4229.35
3120.35871	4218.15
3122.71466	4238.25
3125.06917	4210.05
3127.42226	4220.25
3129.77393	4221.85
3132.12417	4224.75
3134.47299	4243.65
3136.82039	4246.55
3139.16636	4233.75
3141.51092	4236.95
3143.85406	4223.65
3146.19579	4227.45
3148.53609	4220.95
3150.87499	4228.55
3153.21246	4237.85
3155.54853	4223.85
3157.88318	4219.85
3160.21642	4222.75
3162.54826	4219.25
3164.87868	4209.45
3167.2077	4209.75
3169.5353	4226.85
3171.86151	4223.75
3174.18631	4216.85
3176.5097	4237.25
3178.83169	4215.75
3181.15228	4216.55
3183.47147	4226.65
3185.78926	4213.45
3188.10565	4225.75
3190.42065	4225.75
3192.73424	4229.15
3195.04645	4227.55
3197.35725	4229.45
3199.66667	4224.45
3201.97469	4218.55
3204.28132	4214.95
3206.58656	4228.35
3208.8904	4224.55
3211.19287	4228.75
3213.49394	4229.95
3215.79363	4213.55
3218.09193	4216.85
3220.38884	4202.35
3222.68438	4219.65
3224.97853	4203.15
3227.2713	4219.05
3229.56269	4222.05
3231.8527	4218.65
3234.14133	4206.35
3236.42858	4204.25
3238.71446	4198.85
3240.99896	4189.55
3243.28209	4207.95
3245.56384	4207.15
3247.84423	4199.15
3250.12324	4208.35
3252.40088	4194.35
3254.67715	4188.15
3256.95205	4189.05
3259.22558	4170.15
3261.49775	4159.25
3263.76855	4121.65
3266.03799	4152.25
3268.30606	4147.85
3270.57277	4130.55
3272.83812	4133.85
3275.10211	4127.65
3277.36474	4136.05
3279.62601	4127.75
3281.88593	4116.45
3284.14448	4130.35
3286.40168	4132.65
3288.65753	4133.75
3290.91202	4123.55
3293.16516	4125.85
3295.41695	4115.05
3297.66738	4098.35
3299.91647	4091.65
3302.16421	4047.15
3304.4106	4035.35
3306.65564	4018.75
3308.89933	3996.75
3311.14169	3968.75
3313.38269	3934.45
3315.62236	3919.15
3317.86068	3885.65
3320.09766	3834.55
3322.3333	3800.45
3324.5676	3812.05
3326.80056	3742.15
3329.03219	3729.05
3331.26248	1.85
3333.49143	-0.45
3335.71905	-0.15
