Data from AgNP_FTO_APTES_UA_100uM_CRN_5uM_R6G_10uM_NaF_0.1M_Addition_RamanShift__16__14-57-10-372.txt Node

Date: Thu Mar 24 14:57:10 GMT 2022
User: TCL
Spectrometer: QEP01345
Trigger mode: 4
Integration Time (sec): 7.000000E0
Scans to average: 10
Electric dark correction enabled: true
Nonlinearity correction enabled: false
Boxcar width: 0
XAxis mode: Raman Shifts
Number of Pixels in Spectrum: 1044
>>>>>Begin Spectral Data<<<<<
46.04893	-0.45
50.45542	0.75
54.85868	-1.15
59.25871	-0.75
63.6555	27.95
68.04907	31.15
72.43941	29.75
76.82654	29.65
81.21044	34.05
85.59113	35.05
89.96862	40.25
94.34289	35.15
98.71396	42.65
103.08183	39.05
107.4465	40.45
111.80798	42.65
116.16626	44.15
120.52136	43.45
124.87327	40.65
129.222	45.25
133.56755	50.05
137.90993	51.65
142.24913	60.25
146.58517	62.05
150.91804	75.85
155.24774	90.25
159.57429	109.05
163.89768	140.55
168.21792	188.85
172.53501	253.15
176.84895	358.25
181.15975	506.85
185.46741	708.65
189.77193	977.65
194.07331	1294.45
198.37157	1695.55
202.6667	2102.85
206.9587	2521.75
211.24758	2966.65
215.53334	3407.95
219.81599	3893.75
224.09553	4483.25
228.37195	5144.85
232.64527	5826.55
236.91549	6505.65
241.18261	7117.25
245.44663	7589.65
249.70755	7902.55
253.96539	8184.55
258.22014	8413.55
262.4718	8669.85
266.72039	8835.25
270.96589	8882.25
275.20832	8793.45
279.44768	8601.75
283.68397	8385.55
287.91719	8218.45
292.14735	8242.15
296.37445	8479.75
300.59849	8862.15
304.81948	9354.35
309.03742	9747.25
313.25231	9820.65
317.46415	9450.35
321.67296	8698.35
325.87872	8073.05
330.08145	7750.65
334.28114	7710.65
338.47781	7820.75
342.67145	8069.85
346.86207	8401.85
351.04966	8881.95
355.23424	9463.35
359.4158	9898.55
363.59435	10090.85
367.76989	10156.45
371.94243	10068.15
376.11196	9944.05
380.27849	9849.25
384.44203	9721.45
388.60257	9600.55
392.76012	9529.75
396.91468	9616.75
401.06626	9849.95
405.21485	9997.35
409.36047	9762.05
413.50311	9160.75
417.64277	8598.85
421.77947	8241.05
425.9132	8077.35
430.04396	8037.55
434.17176	8068.15
438.2966	8147.25
442.41849	8355.45
446.53742	8608.55
450.6534	8827.25
454.76644	8966.35
458.87653	8966.15
462.98368	8853.95
467.08789	8709.35
471.18916	8537.65
475.2875	8298.25
479.38291	8115.45
483.4754	7956.45
487.56496	7833.75
491.6516	7775.75
495.73531	7772.85
499.81612	7828.05
503.89401	7902.65
507.96899	8049.45
512.04106	8180.15
516.11023	8318.55
520.1765	8413.15
524.23987	8428.35
528.30034	8356.55
532.35792	8270.25
536.41261	8123.85
540.46441	7931.15
544.51333	7779.45
548.55936	7826.45
552.60252	7995.75
556.64279	8227.35
560.6802	8362.65
564.71473	8484.25
568.7464	8847.85
572.7752	9042.55
576.80114	8794.05
580.82422	8541.35
584.84444	8539.25
588.86181	8664.45
592.87633	8811.75
596.888	8962.75
600.89682	9174.65
604.9028	10279.25
608.90594	13590.45
612.90624	17972.15
616.90371	17306.45
620.89834	11540.45
624.89015	8620.45
628.87913	8142.35
632.86528	8310.75
636.84862	8549.85
640.82913	8426.65
644.80683	7932.75
648.78172	7536.35
652.75379	7525.45
656.72306	7911.85
660.68952	8406.25
664.65319	8304.65
668.61405	7753.25
672.57211	7501.85
676.52738	7506.95
680.47986	7492.15
684.42955	7353.35
688.37646	7241.25
692.32058	7244.45
696.26192	7340.85
700.20048	7452.05
704.13626	7529.65
708.06928	7531.55
711.99952	7431.95
715.927	7430.55
719.85171	7488.25
723.77365	7545.95
727.69284	7515.05
731.60928	7441.25
735.52295	7432.35
739.43388	7444.65
743.34206	7490.15
747.24749	7490.05
751.15017	7478.85
755.05012	7596.75
758.94733	8015.45
762.8418	9211.35
766.73354	11283.35
770.62254	13422.85
774.50882	14420.15
778.39237	13723.55
782.27321	11699.85
786.15132	9614.45
790.02671	8323.15
793.89938	7685.15
797.76935	7443.25
801.6366	7321.35
805.50115	7268.75
809.36299	7214.45
813.22213	7152.35
817.07857	7127.15
820.93231	7087.05
824.78336	7113.35
828.63172	7149.25
832.47738	7159.55
836.32036	7113.05
840.16066	7073.85
843.99827	7049.15
847.8332	7021.25
851.66546	7029.15
855.49504	7033.85
859.32195	7049.45
863.1462	7027.85
866.96777	6997.05
870.78668	7009.85
874.60293	7046.25
878.41652	7050.65
882.22745	7134.65
886.03573	7185.65
889.84136	7183.15
893.64433	7133.15
897.44466	7095.75
901.24235	7081.95
905.0374	7010.55
908.8298	6941.15
912.61957	6891.35
916.40671	6881.75
920.19121	6936.85
923.97308	7075.25
927.75233	7204.05
931.52895	7353.15
935.30295	7267.85
939.07433	7006.75
942.84309	6768.05
946.60924	6642.65
950.37278	6595.95
954.13371	6534.05
957.89203	6520.75
961.64774	6490.45
965.40086	6492.65
969.15137	6456.95
972.89929	6440.45
976.64461	6444.25
980.38733	6451.75
984.12747	6456.95
987.86502	6496.65
991.59999	6547.45
995.33237	6662.75
999.06217	6799.75
1002.78939	7003.55
1006.51404	7223.75
1010.23611	7398.35
1013.95561	7499.35
1017.67255	7488.75
1021.38692	7375.05
1025.09872	7204.05
1028.80796	7074.65
1032.51465	7078.45
1036.21877	7165.05
1039.92035	7234.95
1043.61937	7274.05
1047.31584	7280.35
1051.00976	7251.95
1054.70114	7214.45
1058.38998	7190.65
1062.07627	7209.85
1065.76003	7238.95
1069.44126	7289.65
1073.11995	7440.85
1076.79611	7659.25
1080.46974	7869.65
1084.14085	8135.75
1087.80943	8448.95
1091.47549	8548.25
1095.13903	8379.35
1098.80005	8062.25
1102.45857	7784.55
1106.11456	7673.35
1109.76805	7772.85
1113.41903	8008.05
1117.06751	8356.95
1120.71348	8862.55
1124.35696	9432.65
1127.99793	9867.65
1131.63641	9751.05
1135.2724	9153.15
1138.90589	8612.55
1142.5369	8244.45
1146.16542	8005.35
1149.79145	7836.75
1153.415	7757.35
1157.03607	7835.85
1160.65467	8067.95
1164.27079	8439.25
1167.88443	9043.05
1171.49561	9966.85
1175.10432	11463.95
1178.71056	13450.35
1182.31434	15130.55
1185.91565	15595.45
1189.51451	15004.75
1193.11091	13856.45
1196.70485	12589.75
1200.29634	11572.75
1203.88538	10787.75
1207.47197	9906.25
1211.05612	9150.55
1214.63782	8709.35
1218.21708	8514.15
1221.79391	8520.55
1225.36829	8565.65
1228.94024	8559.05
1232.50976	8438.45
1236.07685	8327.65
1239.6415	8326.45
1243.20374	8342.95
1246.76355	8398.95
1250.32093	8511.15
1253.8759	8686.75
1257.42845	9011.05
1260.97859	9431.95
1264.52631	9901.55
1268.07163	10410.75
1271.61453	10855.45
1275.15503	11169.35
1278.69312	11329.35
1282.22882	11494.05
1285.76211	11838.95
1289.29301	12308.75
1292.82151	12851.75
1296.34761	13445.35
1299.87133	14378.65
1303.39266	15930.35
1306.9116	18318.75
1310.42815	20849.95
1313.94233	21989.45
1317.45412	20872.45
1320.96354	18764.85
1324.47058	16704.65
1327.97525	14993.75
1331.47754	13867.45
1334.97747	13343.25
1338.47502	13291.45
1341.97022	13674.55
1345.46305	14562.85
1348.95352	15996.05
1352.44163	17861.45
1355.92738	20387.35
1359.41078	24103.85
1362.89183	27559.45
1366.37053	26425.45
1369.84688	21240.95
1373.32088	16522.35
1376.79254	13811.95
1380.26186	12433.75
1383.72883	11579.75
1387.19347	10904.95
1390.65578	10283.45
1394.11575	9831.55
1397.57339	9596.75
1401.0287	9529.25
1404.48168	9515.35
1407.93234	9489.55
1411.38068	9506.35
1414.82669	9574.15
1418.27039	9587.55
1421.71177	9520.55
1425.15083	9328.55
1428.58758	9270.05
1432.02203	9381.45
1435.45416	9609.15
1438.88399	9731.15
1442.31151	9699.95
1445.73673	9788.15
1449.15965	9842.95
1452.58027	9846.85
1455.9986	9770.05
1459.41463	9805.15
1462.82837	9997.25
1466.23982	10329.75
1469.64898	10636.45
1473.05586	10913.35
1476.46045	11047.15
1479.86276	11230.45
1483.26279	11512.25
1486.66054	11912.55
1490.05602	12520.45
1493.44922	13428.05
1496.84016	14867.85
1500.22882	17114.35
1503.61521	20266.95
1506.99934	23802.75
1510.38121	26450.85
1513.76081	26627.05
1517.13816	23881.85
1520.51324	19792.35
1523.88607	16222.95
1527.25665	13944.15
1530.62498	12696.35
1533.99105	11963.75
1537.35488	11462.15
1540.71647	11106.75
1544.07581	10836.35
1547.4329	10727.95
1550.78776	10729.95
1554.14038	10811.35
1557.49077	10969.15
1560.83892	11264.15
1564.18484	11818.55
1567.52853	12506.65
1570.86999	13103.35
1574.20922	13411.75
1577.54624	13266.25
1580.88103	12281.15
1584.2136	11009.65
1587.54395	10232.85
1590.87208	10206.45
1594.19801	10847.25
1597.52172	11823.85
1600.84321	12284.15
1604.16251	11865.75
1607.47959	11073.05
1610.79447	10288.55
1614.10715	9459.05
1617.41763	8758.75
1620.7259	8252.35
1624.03199	8012.05
1627.33587	8026.65
1630.63757	8271.75
1633.93707	8820.45
1637.23439	9821.45
1640.52951	11465.25
1643.82246	13897.85
1647.11321	16763.55
1650.40179	18642.05
1653.68819	17901.95
1656.97241	14901.55
1660.25446	11679.65
1663.53433	9411.55
1666.81203	8133.45
1670.08756	7435.65
1673.36092	6993.85
1676.63211	6717.45
1679.90115	6543.55
1683.16801	6409.45
1686.43272	6282.05
1689.69527	6228.05
1692.95567	6177.25
1696.2139	6142.75
1699.46999	6119.95
1702.72392	6098.75
1705.97571	6079.85
1709.22535	6055.85
1712.47284	6030.85
1715.71819	6058.05
1718.96139	6037.25
1722.20246	6004.95
1725.44139	5946.45
1728.67818	5894.25
1731.91284	5813.85
1735.14537	5778.65
1738.37576	5747.15
1741.60403	5706.25
1744.83017	5703.25
1748.05418	5669.45
1751.27607	5638.65
1754.49584	5633.55
1757.71349	5639.65
1760.92903	5610.05
1764.14244	5617.95
1767.35375	5604.55
1770.56294	5556.15
1773.77002	5527.45
1776.97499	5519.45
1780.17785	5489.75
1783.37861	5454.85
1786.57727	5444.35
1789.77382	5435.75
1792.96828	5419.85
1796.16064	5398.35
1799.3509	5390.85
1802.53907	5376.05
1805.72514	5358.35
1808.90913	5327.65
1812.09102	5318.35
1815.27083	5307.65
1818.44856	5293.15
1821.6242	5276.45
1824.79776	5272.85
1827.96924	5245.05
1831.13864	5248.15
1834.30597	5241.55
1837.47122	5231.65
1840.6344	5236.95
1843.7955	5234.45
1846.95454	5215.95
1850.11151	5203.85
1853.26642	5210.15
1856.41926	5210.95
1859.57004	5168.65
1862.71876	5185.65
1865.86542	5186.55
1869.01003	5187.55
1872.15258	5175.25
1875.29308	5179.75
1878.43152	5154.45
1881.56792	5154.85
1884.70227	5163.15
1887.83457	5156.35
1890.96482	5151.25
1894.09304	5138.75
1897.21921	5144.25
1900.34335	5146.55
1903.46544	5134.25
1906.58551	5151.15
1909.70353	5125.85
1912.81953	5116.55
1915.93349	5102.75
1919.04543	5094.35
1922.15534	5084.35
1925.26322	5062.65
1928.36908	5038.35
1931.47292	5021.75
1934.57473	5012.35
1937.67453	4992.55
1940.77232	4971.45
1943.86808	4952.05
1946.96184	4937.85
1950.05358	4942.35
1953.14331	4920.35
1956.23103	4899.55
1959.31675	4907.75
1962.40046	4883.85
1965.48217	4874.65
1968.56188	4868.05
1971.63959	4865.45
1974.7153	4849.65
1977.78901	4835.65
1980.86073	4811.75
1983.93046	4812.45
1986.99819	4774.25
1990.06394	4752.15
1993.1277	4720.55
1996.18947	4708.85
1999.24925	4691.05
2002.30706	4681.45
2005.36288	4650.85
2008.41672	4653.35
2011.46859	4639.35
2014.51848	4614.35
2017.56639	4607.65
2020.61233	4589.85
2023.6563	4591.75
2026.6983	4571.85
2029.73833	4553.35
2032.7764	4542.15
2035.8125	4531.45
2038.84664	4534.85
2041.87881	4516.65
2044.90903	4518.85
2047.93729	4521.85
2050.96359	4509.35
2053.98794	4493.65
2057.01034	4488.15
2060.03078	4477.35
2063.04927	4469.55
2066.06582	4473.65
2069.08042	4458.85
2072.09307	4449.35
2075.10378	4451.35
2078.11255	4456.55
2081.11938	4446.35
2084.12426	4453.25
2087.12722	4461.05
2090.12824	4451.25
2093.12732	4462.25
2096.12447	4464.55
2099.11969	4460.65
2102.11299	4455.75
2105.10435	4451.55
2108.09379	4446.55
2111.08131	4460.15
2114.0669	4458.65
2117.05057	4463.75
2120.03233	4463.25
2123.01216	4483.65
2125.99008	4473.95
2128.96609	4488.45
2131.94018	4490.75
2134.91236	4486.25
2137.88263	4487.35
2140.851	4491.45
2143.81746	4482.55
2146.78201	4481.25
2149.74466	4483.65
2152.7054	4479.95
2155.66425	4471.75
2158.6212	4461.25
2161.57625	4468.25
2164.52941	4461.35
2167.48067	4452.95
2170.43004	4465.55
2173.37752	4441.05
2176.32311	4451.05
2179.26681	4445.45
2182.20863	4452.05
2185.14856	4451.75
2188.08661	4439.35
2191.02278	4435.05
2193.95707	4417.95
2196.88948	4424.35
2199.82001	4408.05
2202.74867	4413.95
2205.67545	4421.95
2208.60037	4426.45
2211.52341	4403.85
2214.44458	4402.05
2217.36388	4379.75
2220.28132	4395.55
2223.1969	4376.75
2226.11061	4367.95
2229.02246	4356.95
2231.93245	4352.85
2234.84058	4334.95
2237.74686	4328.25
2240.65128	4339.55
2243.55385	4326.55
2246.45456	4328.35
2249.35343	4328.65
2252.25044	4343.55
2255.14561	4325.25
2258.03893	4325.25
2260.93041	4323.75
2263.82004	4325.85
2266.70783	4316.35
2269.59378	4311.75
2272.4779	4298.55
2275.36017	4290.95
2278.24061	4261.45
2281.11922	4264.95
2283.996	4260.25
2286.87094	4239.95
2289.74405	4228.85
2292.61534	4218.35
2295.4848	4218.35
2298.35243	4216.25
2301.21824	4207.65
2304.08223	4202.05
2306.94439	4211.85
2309.80474	4216.45
2312.66327	4207.75
2315.51999	4192.45
2318.37489	4203.75
2321.22797	4189.45
2324.07925	4193.65
2326.92871	4181.05
2329.77637	4192.75
2332.62222	4196.45
2335.46626	4178.55
2338.3085	4185.75
2341.14893	4182.45
2343.98756	4187.65
2346.8244	4201.55
2349.65943	4187.25
2352.49267	4194.35
2355.32411	4192.95
2358.15376	4197.55
2360.98161	4234.75
2363.80768	4237.45
2366.63195	4234.95
2369.45444	4225.45
2372.27514	4230.75
2375.09405	4231.95
2377.91118	4217.15
2380.72652	4192.05
2383.54009	4170.75
2386.35187	4165.75
2389.16188	4128.65
2391.97011	4126.95
2394.77657	4109.15
2397.58125	4100.95
2400.38416	4095.45
2403.18529	4078.85
2405.98466	4072.85
2408.78226	4065.45
2411.57809	4033.25
2414.37216	4043.35
2417.16446	4030.05
2419.955	4026.95
2422.74378	4024.45
2425.5308	4020.65
2428.31606	4033.05
2431.09956	4036.85
2433.88131	4031.95
2436.6613	4035.25
2439.43954	4027.55
2442.21603	4041.35
2444.99077	4035.75
2447.76377	4039.05
2450.53501	4043.35
2453.30451	4058.35
2456.07226	4034.55
2458.83827	4062.05
2461.60254	4057.95
2464.36507	4039.15
2467.12586	4063.55
2469.88492	4049.65
2472.64224	4067.95
2475.39782	4056.55
2478.15167	4064.95
2480.90379	4067.25
2483.65417	4068.55
2486.40283	4103.75
2489.14976	4109.45
2491.89497	4117.65
2494.63845	4105.95
2497.3802	4095.55
2500.12024	4082.65
2502.85855	4100.95
2505.59514	4075.25
2508.33002	4057.75
2511.06318	4026.15
2513.79462	4014.25
2516.52435	3984.55
2519.25237	3983.55
2521.97867	3980.65
2524.70327	3963.65
2527.42616	3968.15
2530.14734	3947.35
2532.86681	3929.75
2535.58458	3933.75
2538.30065	3926.75
2541.01501	3935.55
2543.72768	3946.25
2546.43864	3943.05
2549.14791	3919.65
2551.85548	3931.15
2554.56136	3952.75
2557.26554	3930.95
2559.96803	3929.75
2562.66883	3926.85
2565.36794	3931.25
2568.06536	3926.65
2570.7611	3913.25
2573.45514	3925.95
2576.14751	3907.45
2578.83819	3897.85
2581.52719	3900.15
2584.21451	3874.15
2586.90015	3878.85
2589.58411	3857.85
2592.2664	3860.45
2594.94701	3858.65
2597.62594	3868.65
2600.30321	3847.05
2602.9788	3848.45
2605.65273	3851.15
2608.32498	3851.05
2610.99557	3839.35
2613.66449	3845.95
2616.33175	3836.05
2618.99734	3845.95
2621.66128	3839.95
2624.32355	3840.35
2626.98416	3837.75
2629.64311	3833.85
2632.30041	3822.15
2634.95605	3814.75
2637.61004	3798.15
2640.26238	3793.75
2642.91306	3807.15
2645.56209	3797.05
2648.20948	3778.85
2650.85521	3791.75
2653.4993	3794.55
2656.14175	3790.55
2658.78255	3798.25
2661.42171	3794.35
2664.05923	3812.25
2666.6951	3796.85
2669.32934	3803.95
2671.96194	3809.65
2674.59291	3818.75
2677.22224	3811.65
2679.84993	3798.95
2682.476	3796.45
2685.10043	3796.05
2687.72324	3804.65
2690.34441	3804.35
2692.96396	3788.25
2695.58188	3804.65
2698.19818	3794.45
2700.81285	3781.65
2703.4259	3798.55
2706.03733	3807.35
2708.64714	3812.85
2711.25533	3805.35
2713.86191	3815.05
2716.46687	3816.85
2719.07021	3822.05
2721.67194	3812.85
2724.27206	3805.85
2726.87057	3797.15
2729.46747	3802.05
2732.06276	3806.05
2734.65644	3798.95
2737.24852	3777.85
2739.83899	3776.25
2742.42786	3774.55
2745.01513	3756.25
2747.60079	3768.55
2750.18486	3752.65
2752.76733	3754.85
2755.3482	3755.65
2757.92747	3753.75
2760.50515	3741.75
2763.08123	3739.65
2765.65573	3736.45
2768.22863	3738.05
2770.79994	3726.65
2773.36967	3736.55
2775.9378	3731.95
2778.50435	3730.85
2781.06932	3735.85
2783.6327	3735.65
2786.1945	3704.45
2788.75471	3701.05
2791.31335	3700.25
2793.87041	3710.75
2796.42589	3690.45
2798.97979	3699.45
2801.53212	3702.15
2804.08288	3695.35
2806.63206	3701.95
2809.17967	3699.95
2811.72571	3689.25
2814.27018	3705.75
2816.81308	3707.85
2819.35442	3713.25
2821.89419	3723.25
2824.43239	3721.95
2826.96904	3706.55
2829.50412	3716.75
2832.03763	3710.35
2834.56959	3708.05
2837.1	3698.25
2839.62884	3699.95
2842.15613	3688.95
2844.68186	3710.95
2847.20604	3695.45
2849.72867	3709.85
2852.24974	3698.75
2854.76927	3722.65
2857.28724	3706.35
2859.80367	3717.15
2862.31855	3702.65
2864.83189	3721.05
2867.34368	3731.15
2869.85393	3735.35
2872.36264	3741.05
2874.8698	3731.65
2877.37543	3758.35
2879.87952	3745.25
2882.38207	3753.75
2884.88308	3720.55
2887.38256	3721.05
2889.88051	3728.95
2892.37692	3716.25
2894.8718	3719.05
2897.36515	3715.05
2899.85698	3722.95
2902.34727	3726.05
2904.83604	3725.45
2907.32328	3710.35
2909.809	3737.55
2912.29319	3741.75
2914.77587	3726.55
2917.25702	3720.05
2919.73665	3704.55
2922.21476	3720.35
2924.69136	3701.75
2927.16644	3691.65
2929.64	3689.65
2932.11205	3688.05
2934.58258	3670.85
2937.05161	3666.45
2939.51912	3663.05
2941.98513	3656.15
2944.44962	3670.95
2946.91261	3643.05
2949.37409	3651.95
2951.83407	3645.15
2954.29254	3652.25
2956.74951	3631.85
2959.20498	3640.65
2961.65895	3624.45
2964.11142	3632.85
2966.56239	3628.45
2969.01186	3603.75
2971.45984	3608.95
2973.90632	3593.85
2976.35131	3597.95
2978.7948	3574.15
2981.23681	3567.35
2983.67732	3562.95
2986.11635	3546.95
2988.55388	3542.95
2990.98993	3555.65
2993.4245	3538.05
2995.85758	3555.75
2998.28917	3550.15
3000.71928	3536.05
3003.14791	3519.55
3005.57506	3543.25
3008.00073	3510.45
3010.42493	3532.25
3012.84764	3511.15
3015.26888	3526.45
3017.68865	3509.15
3020.10694	3515.25
3022.52376	3506.55
3024.9391	3489.35
3027.35298	3501.45
3029.76539	3482.05
3032.17632	3472.85
3034.5858	3465.85
3036.9938	3454.55
3039.40034	3448.05
3041.80542	3429.35
3044.20903	3437.75
3046.61118	3434.45
3049.01187	3424.15
3051.4111	3422.55
3053.80888	3425.95
3056.20519	3416.45
3058.60005	3410.05
3060.99345	3410.75
3063.3854	3389.65
3065.7759	3397.05
3068.16494	3396.85
3070.55254	3381.05
3072.93868	3376.05
3075.32338	3375.35
3077.70662	3375.25
3080.08842	3360.95
3082.46878	3370.65
3084.84769	3349.35
3087.22515	3352.75
3089.60118	3363.75
3091.97576	3355.35
3094.3489	3339.85
3096.72061	3361.65
3099.09087	3365.25
3101.4597	3351.55
3103.82709	3350.25
3106.19305	3353.35
3108.55757	3345.55
3110.92066	3337.75
3113.28232	3341.95
3115.64255	3340.75
3118.00134	3329.25
3120.35871	3320.05
3122.71466	3332.85
3125.06917	3331.05
3127.42226	3331.95
3129.77393	3345.55
3132.12417	3332.95
3134.47299	3333.85
3136.82039	3326.25
3139.16636	3326.65
3141.51092	3349.05
3143.85406	3350.05
3146.19579	3366.25
3148.53609	3358.65
3150.87499	3363.35
3153.21246	3363.85
3155.54853	3380.25
3157.88318	3371.55
3160.21642	3359.15
3162.54826	3373.85
3164.87868	3372.25
3167.2077	3357.85
3169.5353	3358.05
3171.86151	3377.05
3174.18631	3369.75
3176.5097	3369.65
3178.83169	3367.45
3181.15228	3373.25
3183.47147	3349.15
3185.78926	3374.25
3188.10565	3370.45
3190.42065	3374.45
3192.73424	3371.95
3195.04645	3371.25
3197.35725	3378.95
3199.66667	3375.35
3201.97469	3393.35
3204.28132	3410.95
3206.58656	3408.85
3208.8904	3412.55
3211.19287	3405.75
3213.49394	3425.95
3215.79363	3417.15
3218.09193	3431.35
3220.38884	3417.05
3222.68438	3416.85
3224.97853	3426.95
3227.2713	3414.05
3229.56269	3409.25
3231.8527	3411.55
3234.14133	3417.55
3236.42858	3404.95
3238.71446	3410.95
3240.99896	3400.95
3243.28209	3416.35
3245.56384	3420.05
3247.84423	3411.05
3250.12324	3404.65
3252.40088	3406.85
3254.67715	3400.55
3256.95205	3398.05
3259.22558	3411.35
3261.49775	3385.65
3263.76855	3388.25
3266.03799	3389.35
3268.30606	3399.05
3270.57277	3391.95
3272.83812	3383.55
3275.10211	3381.65
3277.36474	3391.65
3279.62601	3386.55
3281.88593	3387.55
3284.14448	3389.95
3286.40168	3389.95
3288.65753	3398.25
3290.91202	3386.95
3293.16516	3394.85
3295.41695	3398.75
3297.66738	3375.35
3299.91647	3375.75
3302.16421	3350.05
3304.4106	3342.15
3306.65564	3336.35
3308.89933	3304.95
3311.14169	3288.85
3313.38269	3258.75
3315.62236	3252.45
3317.86068	3220.65
3320.09766	3192.25
3322.3333	3149.55
3324.5676	3164.45
3326.80056	3102.15
3329.03219	3093.15
3331.26248	1.15
3333.49143	-0.45
3335.71905	1.35
