Data from AgNP_FTO_APTES_UA_100uM_CRN_0uM_R6G_10uM_NaF_0.1M_Addition_RamanShift__44__11-36-30-139.txt Node

Date: Thu Mar 24 11:36:30 GMT 2022
User: TCL
Spectrometer: QEP01345
Trigger mode: 4
Integration Time (sec): 7.000000E0
Scans to average: 10
Electric dark correction enabled: true
Nonlinearity correction enabled: false
Boxcar width: 0
XAxis mode: Raman Shifts
Number of Pixels in Spectrum: 1044
>>>>>Begin Spectral Data<<<<<
46.04893	-2.45
50.45542	0.65
54.85868	0.35
59.25871	0.55
63.6555	38.05
68.04907	39.65
72.43941	42.25
76.82654	40.55
81.21044	46.15
85.59113	44.05
89.96862	51.05
94.34289	46.65
98.71396	51.95
103.08183	48.95
107.4465	50.65
111.80798	54.85
116.16626	55.75
120.52136	59.05
124.87327	57.35
129.222	64.75
133.56755	66.35
137.90993	71.35
142.24913	80.85
146.58517	89.15
150.91804	101.05
155.24774	121.65
159.57429	156.05
163.89768	204.55
168.21792	273.15
172.53501	373.95
176.84895	522.65
181.15975	732.65
185.46741	1034.55
189.77193	1427.75
194.07331	1923.85
198.37157	2520.45
202.6667	3129.35
206.9587	3784.85
211.24758	4444.05
215.53334	5201.35
219.81599	6043.45
224.09553	7039.45
228.37195	8148.55
232.64527	9334.85
236.91549	10429.65
241.18261	11358.85
245.44663	12023.25
249.70755	12489.75
253.96539	12873.65
258.22014	13113.45
262.4718	13248.95
266.72039	13133.55
270.96589	12907.25
275.20832	12449.95
279.44768	11987.35
283.68397	11661.65
287.91719	11478.15
292.14735	11651.75
296.37445	12267.85
300.59849	13341.55
304.81948	14701.85
309.03742	15881.35
313.25231	16289.75
317.46415	15329.05
321.67296	13447.75
325.87872	11731.35
330.08145	10844.85
334.28114	10749.15
338.47781	11134.35
342.67145	11644.05
346.86207	12528.35
351.04966	13939.05
355.23424	15588.05
359.4158	16751.25
363.59435	17093.35
367.76989	16917.35
371.94243	16428.65
376.11196	15861.35
380.27849	15383.55
384.44203	14804.75
388.60257	14268.45
392.76012	13938.15
396.91468	14034.55
401.06626	14481.45
405.21485	14883.35
409.36047	14326.85
413.50311	12885.95
417.64277	11476.85
421.77947	10612.15
425.9132	10211.95
430.04396	10072.75
434.17176	10113.95
438.2966	10325.85
442.41849	10797.25
446.53742	11330.95
450.6534	11783.85
454.76644	11912.15
458.87653	11665.95
462.98368	11329.05
467.08789	10905.75
471.18916	10444.05
475.2875	9950.75
479.38291	9497.25
483.4754	9185.35
487.56496	9005.05
491.6516	8911.15
495.73531	8903.95
499.81612	8975.95
503.89401	9207.55
507.96899	9482.45
512.04106	9854.75
516.11023	10255.05
520.1765	10527.95
524.23987	10560.55
528.30034	10371.55
532.35792	10065.65
536.41261	9674.65
540.46441	9171.25
544.51333	8823.95
548.55936	8865.95
552.60252	9224.45
556.64279	9762.45
560.6802	10089.65
564.71473	10638.55
568.7464	11859.25
572.7752	12435.35
576.80114	11350.65
580.82422	10138.05
584.84444	9631.35
588.86181	9526.45
592.87633	9551.35
596.888	9723.75
600.89682	10367.65
604.9028	13242.55
608.90594	21186.65
612.90624	31709.15
616.90371	30678.75
620.89834	17375.65
624.89015	10647.15
628.87913	9465.85
632.86528	9854.45
636.84862	10336.55
640.82913	9884.15
644.80683	8713.75
648.78172	7909.95
652.75379	7997.05
656.72306	8928.15
660.68952	10077.55
664.65319	9758.05
668.61405	8504.45
672.57211	7867.05
676.52738	7787.75
680.47986	7722.25
684.42955	7479.35
688.37646	7316.55
692.32058	7384.05
696.26192	7579.25
700.20048	7885.25
704.13626	8076.65
708.06928	8082.15
711.99952	7929.05
715.927	7875.05
719.85171	8023.25
723.77365	8082.05
727.69284	7917.85
731.60928	7752.55
735.52295	7717.95
739.43388	7758.55
743.34206	7851.65
747.24749	7863.25
751.15017	7934.25
755.05012	8296.45
758.94733	9524.85
762.8418	12557.95
766.73354	17262.05
770.62254	21354.85
774.50882	23386.75
778.39237	22481.85
782.27321	18046.15
786.15132	12924.35
790.02671	9888.85
793.89938	8578.05
797.76935	8031.85
801.6366	7791.15
805.50115	7647.45
809.36299	7550.45
813.22213	7486.35
817.07857	7436.35
820.93231	7428.95
824.78336	7541.15
828.63172	7729.25
832.47738	7755.25
836.32036	7651.15
840.16066	7446.45
843.99827	7331.65
847.8332	7239.85
851.66546	7241.45
855.49504	7250.75
859.32195	7211.55
863.1462	7145.25
866.96777	7081.15
870.78668	7058.05
874.60293	7119.65
878.41652	7186.25
882.22745	7351.35
886.03573	7488.85
889.84136	7453.75
893.64433	7395.15
897.44466	7408.85
901.24235	7420.35
905.0374	7337.15
908.8298	7161.75
912.61957	7031.45
916.40671	6996.95
920.19121	7113.65
923.97308	7353.75
927.75233	7729.55
931.52895	8069.25
935.30295	7872.45
939.07433	7183.15
942.84309	6679.15
946.60924	6422.65
950.37278	6289.95
954.13371	6240.15
957.89203	6211.75
961.64774	6184.95
965.40086	6161.75
969.15137	6136.35
972.89929	6118.05
976.64461	6103.35
980.38733	6115.15
984.12747	6112.15
987.86502	6146.85
991.59999	6225.95
995.33237	6334.05
999.06217	6559.45
1002.78939	6874.35
1006.51404	7216.45
1010.23611	7499.75
1013.95561	7620.75
1017.67255	7516.25
1021.38692	7298.95
1025.09872	7007.75
1028.80796	6836.75
1032.51465	6867.75
1036.21877	7022.15
1039.92035	7191.85
1043.61937	7334.65
1047.31584	7390.35
1051.00976	7382.35
1054.70114	7300.95
1058.38998	7227.55
1062.07627	7216.35
1065.76003	7304.45
1069.44126	7410.75
1073.11995	7737.45
1076.79611	8113.95
1080.46974	8661.65
1084.14085	9416.95
1087.80943	10050.35
1091.47549	10157.25
1095.13903	9659.25
1098.80005	8819.75
1102.45857	8200.85
1106.11456	8013.55
1109.76805	8264.35
1113.41903	8878.45
1117.06751	9902.25
1120.71348	11377.65
1124.35696	13153.65
1127.99793	14125.65
1131.63641	13166.15
1135.2724	11288.65
1138.90589	9886.25
1142.5369	9079.85
1146.16542	8565.85
1149.79145	8280.15
1153.415	8219.95
1157.03607	8350.75
1160.65467	8702.25
1164.27079	9400.65
1167.88443	10554.05
1171.49561	12452.85
1175.10432	15585.25
1178.71056	19644.25
1182.31434	22468.75
1185.91565	22783.75
1189.51451	21471.45
1193.11091	19313.55
1196.70485	17070.85
1200.29634	15356.15
1203.88538	13858.15
1207.47197	12037.55
1211.05612	10457.15
1214.63782	9612.25
1218.21708	9267.45
1221.79391	9172.55
1225.36829	9142.05
1228.94024	9034.95
1232.50976	8957.75
1236.07685	8931.85
1239.6415	9062.25
1243.20374	9202.85
1246.76355	9308.05
1250.32093	9488.25
1253.8759	9870.55
1257.42845	10490.55
1260.97859	11300.85
1264.52631	12204.35
1268.07163	12981.15
1271.61453	13541.15
1275.15503	13808.15
1278.69312	13849.95
1282.22882	14106.25
1285.76211	14945.65
1289.29301	15928.95
1292.82151	16799.25
1296.34761	17916.55
1299.87133	19735.45
1303.39266	23122.25
1306.9116	28331.15
1310.42815	33763.85
1313.94233	35559.05
1317.45412	32330.75
1320.96354	27154.15
1324.47058	22371.15
1327.97525	18886.25
1331.47754	17036.25
1334.97747	16500.35
1338.47502	16938.15
1341.97022	18312.35
1345.46305	20700.45
1348.95352	23782.75
1352.44163	27642.85
1355.92738	33606.05
1359.41078	42363.35
1362.89183	48500.85
1366.37053	44075.95
1369.84688	33687.95
1373.32088	25331.75
1376.79254	20373.75
1380.26186	17496.75
1383.72883	15573.35
1387.19347	14035.55
1390.65578	12703.05
1394.11575	11826.45
1397.57339	11354.25
1401.0287	11261.65
1404.48168	11255.45
1407.93234	11346.75
1411.38068	11514.05
1414.82669	11680.35
1418.27039	11638.45
1421.71177	11357.75
1425.15083	11089.45
1428.58758	11165.85
1432.02203	11496.05
1435.45416	11663.85
1438.88399	11587.95
1442.31151	11474.85
1445.73673	11530.55
1449.15965	11639.55
1452.58027	11551.05
1455.9986	11309.85
1459.41463	11296.35
1462.82837	11638.45
1466.23982	12240.65
1469.64898	12709.85
1473.05586	12971.35
1476.46045	13158.45
1479.86276	13516.45
1483.26279	14154.75
1486.66054	15116.05
1490.05602	16513.05
1493.44922	18598.25
1496.84016	21777.05
1500.22882	26888.15
1503.61521	33884.65
1506.99934	41539.15
1510.38121	47400.35
1513.76081	48040.35
1517.13816	42156.25
1520.51324	32938.45
1523.88607	25181.95
1527.25665	20438.85
1530.62498	17939.15
1533.99105	16460.85
1537.35488	15471.65
1540.71647	14895.35
1544.07581	14651.55
1547.4329	14588.95
1550.78776	14618.55
1554.14038	14765.25
1557.49077	14991.25
1560.83892	15587.95
1564.18484	16725.45
1567.52853	18240.35
1570.86999	19354.15
1574.20922	19851.75
1577.54624	19325.65
1580.88103	17118.85
1584.2136	14318.75
1587.54395	12705.35
1590.87208	12553.65
1594.19801	13747.45
1597.52172	15565.55
1600.84321	16452.85
1604.16251	15692.65
1607.47959	14158.55
1610.79447	12380.05
1614.10715	10797.75
1617.41763	9593.95
1620.7259	8909.05
1624.03199	8661.15
1627.33587	8761.45
1630.63757	9192.05
1633.93707	10138.25
1637.23439	11806.95
1640.52951	14716.25
1643.82246	19294.05
1647.11321	24817.45
1650.40179	28361.35
1653.68819	26727.85
1656.97241	20978.15
1660.25446	15050.15
1663.53433	11099.15
1666.81203	8907.35
1670.08756	7729.45
1673.36092	7037.55
1676.63211	6638.05
1679.90115	6352.05
1683.16801	6174.45
1686.43272	6032.05
1689.69527	5919.35
1692.95567	5866.55
1696.2139	5819.65
1699.46999	5804.45
1702.72392	5760.45
1705.97571	5749.35
1709.22535	5767.85
1712.47284	5786.45
1715.71819	5762.55
1718.96139	5753.75
1722.20246	5734.55
1725.44139	5656.35
1728.67818	5529.45
1731.91284	5439.05
1735.14537	5336.55
1738.37576	5304.95
1741.60403	5249.85
1744.83017	5201.25
1748.05418	5177.15
1751.27607	5141.35
1754.49584	5118.55
1757.71349	5082.65
1760.92903	5069.35
1764.14244	5034.45
1767.35375	4994.35
1770.56294	4966.85
1773.77002	4922.25
1776.97499	4856.85
1780.17785	4826.15
1783.37861	4790.05
1786.57727	4754.85
1789.77382	4750.75
1792.96828	4740.25
1796.16064	4728.75
1799.3509	4707.55
1802.53907	4695.55
1805.72514	4667.95
1808.90913	4641.35
1812.09102	4623.65
1815.27083	4605.95
1818.44856	4567.75
1821.6242	4558.75
1824.79776	4529.75
1827.96924	4533.65
1831.13864	4510.15
1834.30597	4507.35
1837.47122	4478.05
1840.6344	4453.75
1843.7955	4470.35
1846.95454	4449.45
1850.11151	4458.15
1853.26642	4454.45
1856.41926	4453.85
1859.57004	4456.35
1862.71876	4452.25
1865.86542	4447.95
1869.01003	4461.25
1872.15258	4447.75
1875.29308	4467.55
1878.43152	4461.55
1881.56792	4484.75
1884.70227	4464.35
1887.83457	4456.75
1890.96482	4447.55
1894.09304	4454.35
1897.21921	4437.45
1900.34335	4445.85
1903.46544	4455.25
1906.58551	4461.65
1909.70353	4438.45
1912.81953	4422.95
1915.93349	4426.85
1919.04543	4413.65
1922.15534	4409.55
1925.26322	4387.85
1928.36908	4360.65
1931.47292	4325.05
1934.57473	4301.75
1937.67453	4271.95
1940.77232	4256.95
1943.86808	4223.95
1946.96184	4197.15
1950.05358	4179.25
1953.14331	4178.45
1956.23103	4160.85
1959.31675	4162.65
1962.40046	4136.05
1965.48217	4167.05
1968.56188	4182.55
1971.63959	4167.35
1974.7153	4183.75
1977.78901	4160.05
1980.86073	4131.95
1983.93046	4098.95
1986.99819	4050.45
1990.06394	4032.15
1993.1277	3988.45
1996.18947	3971.25
1999.24925	3942.05
2002.30706	3916.65
2005.36288	3909.95
2008.41672	3893.75
2011.46859	3857.35
2014.51848	3858.75
2017.56639	3836.45
2020.61233	3816.15
2023.6563	3812.05
2026.6983	3782.95
2029.73833	3772.05
2032.7764	3778.55
2035.8125	3766.65
2038.84664	3767.05
2041.87881	3768.65
2044.90903	3753.15
2047.93729	3746.75
2050.96359	3737.25
2053.98794	3730.35
2057.01034	3710.35
2060.03078	3694.65
2063.04927	3692.95
2066.06582	3694.25
2069.08042	3671.55
2072.09307	3662.35
2075.10378	3667.65
2078.11255	3662.45
2081.11938	3664.75
2084.12426	3650.45
2087.12722	3654.35
2090.12824	3661.75
2093.12732	3659.05
2096.12447	3660.15
2099.11969	3647.15
2102.11299	3651.55
2105.10435	3661.25
2108.09379	3662.35
2111.08131	3670.15
2114.0669	3677.35
2117.05057	3686.65
2120.03233	3697.85
2123.01216	3692.05
2125.99008	3685.15
2128.96609	3702.45
2131.94018	3691.85
2134.91236	3692.35
2137.88263	3683.75
2140.851	3663.75
2143.81746	3644.15
2146.78201	3635.05
2149.74466	3610.45
2152.7054	3586.45
2155.66425	3586.55
2158.6212	3563.35
2161.57625	3562.75
2164.52941	3542.05
2167.48067	3527.05
2170.43004	3539.25
2173.37752	3533.25
2176.32311	3541.55
2179.26681	3545.35
2182.20863	3532.15
2185.14856	3536.05
2188.08661	3532.75
2191.02278	3527.75
2193.95707	3498.65
2196.88948	3486.85
2199.82001	3472.85
2202.74867	3469.85
2205.67545	3465.65
2208.60037	3462.35
2211.52341	3443.95
2214.44458	3444.15
2217.36388	3446.25
2220.28132	3436.55
2223.1969	3412.05
2226.11061	3391.95
2229.02246	3376.55
2231.93245	3387.55
2234.84058	3371.25
2237.74686	3360.95
2240.65128	3356.35
2243.55385	3367.35
2246.45456	3373.75
2249.35343	3367.75
2252.25044	3385.15
2255.14561	3378.45
2258.03893	3417.75
2260.93041	3416.75
2263.82004	3427.75
2266.70783	3419.05
2269.59378	3407.35
2272.4779	3389.95
2275.36017	3387.45
2278.24061	3369.95
2281.11922	3357.55
2283.996	3353.25
2286.87094	3333.95
2289.74405	3307.35
2292.61534	3298.45
2295.4848	3283.25
2298.35243	3265.55
2301.21824	3265.85
2304.08223	3248.75
2306.94439	3263.85
2309.80474	3246.75
2312.66327	3269.35
2315.51999	3254.95
2318.37489	3256.55
2321.22797	3247.45
2324.07925	3248.35
2326.92871	3233.85
2329.77637	3237.75
2332.62222	3225.35
2335.46626	3235.75
2338.3085	3239.35
2341.14893	3235.65
2343.98756	3248.55
2346.8244	3269.05
2349.65943	3271.45
2352.49267	3281.55
2355.32411	3291.55
2358.15376	3332.35
2360.98161	3350.05
2363.80768	3354.45
2366.63195	3388.25
2369.45444	3397.55
2372.27514	3404.05
2375.09405	3390.05
2377.91118	3394.65
2380.72652	3358.95
2383.54009	3324.85
2386.35187	3301.15
2389.16188	3263.35
2391.97011	3248.45
2394.77657	3229.25
2397.58125	3204.95
2400.38416	3188.95
2403.18529	3160.35
2405.98466	3155.55
2408.78226	3141.35
2411.57809	3118.65
2414.37216	3116.85
2417.16446	3117.15
2419.955	3123.45
2422.74378	3117.85
2425.5308	3119.65
2428.31606	3134.35
2431.09956	3149.15
2433.88131	3133.95
2436.6613	3141.35
2439.43954	3151.35
2442.21603	3168.85
2444.99077	3176.45
2447.76377	3182.95
2450.53501	3192.65
2453.30451	3198.25
2456.07226	3203.75
2458.83827	3203.25
2461.60254	3204.25
2464.36507	3194.75
2467.12586	3192.95
2469.88492	3199.35
2472.64224	3199.05
2475.39782	3216.15
2478.15167	3246.35
2480.90379	3264.05
2483.65417	3281.85
2486.40283	3308.75
2489.14976	3329.75
2491.89497	3356.05
2494.63845	3341.25
2497.3802	3332.65
2500.12024	3337.35
2502.85855	3288.25
2505.59514	3274.45
2508.33002	3233.35
2511.06318	3195.75
2513.79462	3166.35
2516.52435	3130.95
2519.25237	3090.15
2521.97867	3080.75
2524.70327	3053.15
2527.42616	3038.85
2530.14734	3044.85
2532.86681	3039.55
2535.58458	3052.45
2538.30065	3048.15
2541.01501	3055.65
2543.72768	3067.25
2546.43864	3076.15
2549.14791	3077.35
2551.85548	3082.65
2554.56136	3071.25
2557.26554	3068.75
2559.96803	3082.55
2562.66883	3074.05
2565.36794	3060.95
2568.06536	3063.05
2570.7611	3068.55
2573.45514	3042.15
2576.14751	3044.55
2578.83819	3034.15
2581.52719	3034.45
2584.21451	3014.25
2586.90015	3012.85
2589.58411	3008.05
2592.2664	3001.25
2594.94701	2995.85
2597.62594	2994.65
2600.30321	2974.05
2602.9788	2999.05
2605.65273	2995.75
2608.32498	3003.75
2610.99557	3013.95
2613.66449	3005.65
2616.33175	3010.75
2618.99734	3016.95
2621.66128	3016.55
2624.32355	3004.05
2626.98416	2998.85
2629.64311	2995.15
2632.30041	2984.45
2634.95605	2970.95
2637.61004	2957.15
2640.26238	2937.95
2642.91306	2935.75
2645.56209	2928.55
2648.20948	2940.55
2650.85521	2933.05
2653.4993	2923.85
2656.14175	2945.75
2658.78255	2949.95
2661.42171	2964.15
2664.05923	2979.15
2666.6951	2983.15
2669.32934	3000.05
2671.96194	2998.45
2674.59291	3011.65
2677.22224	3009.25
2679.84993	3011.55
2682.476	2994.05
2685.10043	2999.05
2687.72324	3000.75
2690.34441	2993.95
2692.96396	2985.85
2695.58188	2989.45
2698.19818	2983.25
2700.81285	2989.95
2703.4259	2991.35
2706.03733	2997.95
2708.64714	3004.25
2711.25533	3005.65
2713.86191	3011.15
2716.46687	3023.25
2719.07021	3029.75
2721.67194	3035.35
2724.27206	3037.75
2726.87057	3042.75
2729.46747	3029.15
2732.06276	3014.15
2734.65644	3004.15
2737.24852	2998.45
2739.83899	2975.35
2742.42786	2979.35
2745.01513	2949.25
2747.60079	2950.45
2750.18486	2941.65
2752.76733	2942.45
2755.3482	2936.35
2757.92747	2939.35
2760.50515	2913.55
2763.08123	2914.15
2765.65573	2916.95
2768.22863	2915.85
2770.79994	2906.25
2773.36967	2931.45
2775.9378	2938.65
2778.50435	2929.45
2781.06932	2935.45
2783.6327	2955.85
2786.1945	2946.75
2788.75471	2964.25
2791.31335	2963.75
2793.87041	2970.55
2796.42589	2992.55
2798.97979	2995.65
2801.53212	3002.15
2804.08288	3021.75
2806.63206	3034.95
2809.17967	3042.65
2811.72571	3062.55
2814.27018	3110.75
2816.81308	3104.15
2819.35442	3131.15
2821.89419	3143.35
2824.43239	3158.15
2826.96904	3168.75
2829.50412	3183.45
2832.03763	3168.05
2834.56959	3179.45
2837.1	3184.95
2839.62884	3189.35
2842.15613	3191.55
2844.68186	3217.65
2847.20604	3245.55
2849.72867	3272.05
2852.24974	3314.75
2854.76927	3322.55
2857.28724	3337.75
2859.80367	3341.15
2862.31855	3362.75
2864.83189	3379.15
2867.34368	3390.25
2869.85393	3417.95
2872.36264	3404.95
2874.8698	3409.75
2877.37543	3402.95
2879.87952	3378.95
2882.38207	3371.35
2884.88308	3347.55
2887.38256	3341.25
2889.88051	3332.15
2892.37692	3327.35
2894.8718	3310.15
2897.36515	3311.95
2899.85698	3301.55
2902.34727	3302.05
2904.83604	3296.05
2907.32328	3285.35
2909.809	3275.45
2912.29319	3267.55
2914.77587	3246.35
2917.25702	3225.35
2919.73665	3211.05
2922.21476	3196.15
2924.69136	3204.95
2927.16644	3194.25
2929.64	3154.65
2932.11205	3140.05
2934.58258	3115.05
2937.05161	3124.15
2939.51912	3095.65
2941.98513	3086.55
2944.44962	3057.25
2946.91261	3019.65
2949.37409	3013.75
2951.83407	3018.55
2954.29254	2997.45
2956.74951	2983.15
2959.20498	2977.55
2961.65895	2969.85
2964.11142	2944.65
2966.56239	2940.35
2969.01186	2922.75
2971.45984	2900.25
2973.90632	2881.35
2976.35131	2866.75
2978.7948	2851.75
2981.23681	2843.45
2983.67732	2842.55
2986.11635	2832.65
2988.55388	2817.75
2990.98993	2827.65
2993.4245	2831.45
2995.85758	2815.95
2998.28917	2827.45
3000.71928	2809.75
3003.14791	2816.15
3005.57506	2816.25
3008.00073	2817.85
3010.42493	2817.85
3012.84764	2808.45
3015.26888	2810.45
3017.68865	2808.55
3020.10694	2802.45
3022.52376	2790.15
3024.9391	2778.35
3027.35298	2776.15
3029.76539	2757.35
3032.17632	2744.45
3034.5858	2716.85
3036.9938	2709.45
3039.40034	2696.75
3041.80542	2689.45
3044.20903	2672.05
3046.61118	2674.95
3049.01187	2658.55
3051.4111	2652.85
3053.80888	2651.65
3056.20519	2638.65
3058.60005	2640.65
3060.99345	2626.15
3063.3854	2621.05
3065.7759	2596.15
3068.16494	2601.25
3070.55254	2594.45
3072.93868	2587.15
3075.32338	2575.55
3077.70662	2564.95
3080.08842	2561.35
3082.46878	2559.35
3084.84769	2544.35
3087.22515	2549.45
3089.60118	2541.85
3091.97576	2526.25
3094.3489	2525.75
3096.72061	2521.25
3099.09087	2523.75
3101.4597	2524.75
3103.82709	2521.35
3106.19305	2507.55
3108.55757	2501.05
3110.92066	2501.85
3113.28232	2486.75
3115.64255	2489.15
3118.00134	2487.85
3120.35871	2484.95
3122.71466	2488.85
3125.06917	2487.45
3127.42226	2500.65
3129.77393	2488.85
3132.12417	2501.45
3134.47299	2508.65
3136.82039	2514.75
3139.16636	2521.05
3141.51092	2541.55
3143.85406	2533.35
3146.19579	2522.15
3148.53609	2543.25
3150.87499	2557.05
3153.21246	2558.05
3155.54853	2568.05
3157.88318	2567.55
3160.21642	2560.95
3162.54826	2577.65
3164.87868	2577.05
3167.2077	2572.75
3169.5353	2568.85
3171.86151	2590.75
3174.18631	2574.15
3176.5097	2581.35
3178.83169	2574.75
3181.15228	2583.55
3183.47147	2590.95
3185.78926	2591.25
3188.10565	2590.65
3190.42065	2601.75
3192.73424	2608.85
3195.04645	2614.15
3197.35725	2620.95
3199.66667	2630.15
3201.97469	2629.15
3204.28132	2644.55
3206.58656	2660.15
3208.8904	2654.45
3211.19287	2655.15
3213.49394	2666.35
3215.79363	2668.15
3218.09193	2684.05
3220.38884	2675.35
3222.68438	2683.55
3224.97853	2670.35
3227.2713	2683.45
3229.56269	2687.95
3231.8527	2684.55
3234.14133	2683.05
3236.42858	2672.65
3238.71446	2666.15
3240.99896	2683.65
3243.28209	2681.75
3245.56384	2684.65
3247.84423	2686.75
3250.12324	2678.15
3252.40088	2678.65
3254.67715	2670.55
3256.95205	2667.75
3259.22558	2660.15
3261.49775	2668.65
3263.76855	2653.15
3266.03799	2639.25
3268.30606	2644.15
3270.57277	2640.75
3272.83812	2646.85
3275.10211	2631.15
3277.36474	2647.95
3279.62601	2637.85
3281.88593	2636.45
3284.14448	2635.15
3286.40168	2644.25
3288.65753	2639.05
3290.91202	2638.85
3293.16516	2623.75
3295.41695	2636.75
3297.66738	2610.55
3299.91647	2607.75
3302.16421	2583.15
3304.4106	2565.05
3306.65564	2563.65
3308.89933	2529.65
3311.14169	2517.05
3313.38269	2481.75
3315.62236	2462.05
3317.86068	2424.65
3320.09766	2399.55
3322.3333	2364.95
3324.5676	2365.85
3326.80056	2306.25
3329.03219	2312.05
3331.26248	0.45
3333.49143	-1.05
3335.71905	0.65
