Data from AgNP_FTO_APTES_UA_100uM_CRN_5uM_R6G_10uM_NaF_0.1M_Addition_RamanShift__3__14-42-00-354.txt Node

Date: Thu Mar 24 14:42:00 GMT 2022
User: TCL
Spectrometer: QEP01345
Trigger mode: 4
Integration Time (sec): 7.000000E0
Scans to average: 10
Electric dark correction enabled: true
Nonlinearity correction enabled: false
Boxcar width: 0
XAxis mode: Raman Shifts
Number of Pixels in Spectrum: 1044
>>>>>Begin Spectral Data<<<<<
46.04893	-1.95
50.45542	0.05
54.85868	-1.45
59.25871	-0.05
63.6555	29.75
68.04907	33.25
72.43941	32.15
76.82654	30.75
81.21044	36.25
85.59113	34.85
89.96862	40.85
94.34289	35.85
98.71396	40.65
103.08183	41.85
107.4465	42.25
111.80798	41.15
116.16626	43.95
120.52136	44.85
124.87327	47.85
129.222	49.15
133.56755	52.85
137.90993	54.85
142.24913	62.75
146.58517	65.55
150.91804	79.05
155.24774	90.35
159.57429	113.75
163.89768	147.45
168.21792	192.35
172.53501	268.45
176.84895	372.05
181.15975	523.65
185.46741	730.65
189.77193	1015.45
194.07331	1352.95
198.37157	1770.85
202.6667	2201.45
206.9587	2644.45
211.24758	3072.45
215.53334	3545.35
219.81599	4073.15
224.09553	4683.15
228.37195	5317.35
232.64527	6051.65
236.91549	6722.95
241.18261	7317.35
245.44663	7800.15
249.70755	8095.55
253.96539	8356.45
258.22014	8596.15
262.4718	8804.25
266.72039	8936.55
270.96589	8965.55
275.20832	8877.25
279.44768	8670.15
283.68397	8494.65
287.91719	8356.05
292.14735	8367.05
296.37445	8577.65
300.59849	8962.05
304.81948	9477.15
309.03742	9890.25
313.25231	10047.15
317.46415	9760.15
321.67296	9091.75
325.87872	8486.05
330.08145	8153.85
334.28114	8122.45
338.47781	8235.15
342.67145	8478.75
346.86207	8810.45
351.04966	9325.55
355.23424	9847.25
359.4158	10248.15
363.59435	10408.65
367.76989	10359.35
371.94243	10195.85
376.11196	10078.25
380.27849	9969.75
384.44203	9811.65
388.60257	9756.45
392.76012	9719.25
396.91468	9816.65
401.06626	10069.55
405.21485	10233.45
409.36047	10028.75
413.50311	9458.85
417.64277	8929.35
421.77947	8645.95
425.9132	8493.95
430.04396	8482.65
434.17176	8523.75
438.2966	8667.35
442.41849	8966.65
446.53742	9363.35
450.6534	9715.95
454.76644	9907.25
458.87653	9856.75
462.98368	9667.45
467.08789	9418.95
471.18916	9126.55
475.2875	8827.05
479.38291	8549.55
483.4754	8321.85
487.56496	8156.55
491.6516	8085.05
495.73531	8060.25
499.81612	8110.15
503.89401	8197.25
507.96899	8293.85
512.04106	8381.15
516.11023	8502.05
520.1765	8576.75
524.23987	8632.95
528.30034	8649.05
532.35792	8573.35
536.41261	8433.35
540.46441	8211.85
544.51333	8076.55
548.55936	8113.95
552.60252	8299.05
556.64279	8561.35
560.6802	8750.05
564.71473	8878.05
568.7464	9177.05
572.7752	9402.65
576.80114	9225.55
580.82422	9097.25
584.84444	9286.75
588.86181	9723.45
592.87633	10266.45
596.888	10685.95
600.89682	10646.95
604.9028	11285.55
608.90594	14236.05
612.90624	18452.15
616.90371	17665.45
620.89834	11911.65
624.89015	9015.85
628.87913	8472.95
632.86528	8658.65
636.84862	8854.95
640.82913	8676.05
644.80683	8110.65
648.78172	7735.15
652.75379	7754.25
656.72306	8145.55
660.68952	8658.25
664.65319	8514.85
668.61405	7940.25
672.57211	7654.15
676.52738	7679.05
680.47986	7663.05
684.42955	7513.85
688.37646	7416.65
692.32058	7458.65
696.26192	7588.75
700.20048	7730.75
704.13626	7844.65
708.06928	7795.95
711.99952	7729.85
715.927	7735.65
719.85171	7845.85
723.77365	7865.55
727.69284	7798.45
731.60928	7714.65
735.52295	7727.55
739.43388	7799.05
743.34206	7820.65
747.24749	7800.85
751.15017	7808.05
755.05012	7952.15
758.94733	8411.55
762.8418	9592.95
766.73354	11631.05
770.62254	13539.95
774.50882	14256.85
778.39237	13637.45
782.27321	11807.75
786.15132	9826.25
790.02671	8558.85
793.89938	7959.15
797.76935	7717.35
801.6366	7575.45
805.50115	7548.85
809.36299	7498.75
813.22213	7425.65
817.07857	7380.15
820.93231	7355.55
824.78336	7394.45
828.63172	7436.45
832.47738	7454.75
836.32036	7413.05
840.16066	7390.15
843.99827	7352.15
847.8332	7322.25
851.66546	7336.95
855.49504	7312.95
859.32195	7309.45
863.1462	7293.55
866.96777	7271.65
870.78668	7258.95
874.60293	7285.55
878.41652	7336.45
882.22745	7430.95
886.03573	7496.45
889.84136	7496.25
893.64433	7451.05
897.44466	7438.75
901.24235	7398.05
905.0374	7349.85
908.8298	7265.85
912.61957	7189.85
916.40671	7204.95
920.19121	7244.05
923.97308	7374.95
927.75233	7567.45
931.52895	7720.05
935.30295	7594.75
939.07433	7292.75
942.84309	7053.05
946.60924	6925.65
950.37278	6859.35
954.13371	6840.75
957.89203	6817.55
961.64774	6790.55
965.40086	6806.15
969.15137	6806.45
972.89929	6794.25
976.64461	6790.55
980.38733	6815.05
984.12747	6822.25
987.86502	6872.65
991.59999	6939.85
995.33237	7079.95
999.06217	7302.85
1002.78939	7591.05
1006.51404	7838.25
1010.23611	8061.75
1013.95561	8188.15
1017.67255	8126.35
1021.38692	7925.15
1025.09872	7670.55
1028.80796	7553.25
1032.51465	7567.45
1036.21877	7699.25
1039.92035	7766.85
1043.61937	7791.55
1047.31584	7736.85
1051.00976	7662.55
1054.70114	7613.05
1058.38998	7545.85
1062.07627	7557.65
1065.76003	7593.25
1069.44126	7710.05
1073.11995	7894.45
1076.79611	8153.35
1080.46974	8407.25
1084.14085	8704.95
1087.80943	9007.45
1091.47549	9097.15
1095.13903	8889.25
1098.80005	8481.45
1102.45857	8167.35
1106.11456	8025.35
1109.76805	8110.25
1113.41903	8322.35
1117.06751	8656.15
1120.71348	9159.25
1124.35696	9713.85
1127.99793	10183.65
1131.63641	10048.65
1135.2724	9443.35
1138.90589	8943.25
1142.5369	8650.95
1146.16542	8454.95
1149.79145	8342.85
1153.415	8299.55
1157.03607	8355.15
1160.65467	8581.15
1164.27079	9014.85
1167.88443	9716.35
1171.49561	10768.85
1175.10432	12424.55
1178.71056	14649.25
1182.31434	16506.35
1185.91565	17064.75
1189.51451	16460.75
1193.11091	15286.85
1196.70485	13940.95
1200.29634	12803.75
1203.88538	11866.85
1207.47197	10899.95
1211.05612	10071.65
1214.63782	9647.35
1218.21708	9485.65
1221.79391	9505.75
1225.36829	9588.25
1228.94024	9568.25
1232.50976	9409.15
1236.07685	9233.15
1239.6415	9197.55
1243.20374	9281.25
1246.76355	9344.15
1250.32093	9446.25
1253.8759	9655.45
1257.42845	10076.55
1260.97859	10631.75
1264.52631	11260.35
1268.07163	11872.95
1271.61453	12318.85
1275.15503	12569.75
1278.69312	12704.45
1282.22882	12886.35
1285.76211	13377.85
1289.29301	14043.95
1292.82151	14719.05
1296.34761	15432.85
1299.87133	16494.95
1303.39266	18259.45
1306.9116	20848.05
1310.42815	23580.05
1313.94233	24904.45
1317.45412	23777.25
1320.96354	21502.55
1324.47058	19226.95
1327.97525	17376.55
1331.47754	16045.85
1334.97747	15365.45
1338.47502	15259.25
1341.97022	15615.65
1345.46305	16414.85
1348.95352	17683.25
1352.44163	19455.35
1355.92738	21967.45
1359.41078	25792.05
1362.89183	29388.25
1366.37053	28487.35
1369.84688	23294.25
1373.32088	18240.35
1376.79254	15426.75
1380.26186	14201.75
1383.72883	13421.25
1387.19347	12617.55
1390.65578	11825.15
1394.11575	11249.05
1397.57339	11008.35
1401.0287	10983.25
1404.48168	10973.95
1407.93234	11033.65
1411.38068	11121.25
1414.82669	11231.85
1418.27039	11247.25
1421.71177	11082.05
1425.15083	10777.35
1428.58758	10711.95
1432.02203	10974.25
1435.45416	11391.25
1438.88399	11622.25
1442.31151	11670.05
1445.73673	11713.95
1449.15965	11734.65
1452.58027	11680.05
1455.9986	11415.25
1459.41463	11254.65
1462.82837	11400.35
1466.23982	11842.15
1469.64898	12355.85
1473.05586	12853.15
1476.46045	13247.65
1479.86276	13677.15
1483.26279	14086.65
1486.66054	14643.15
1490.05602	15480.55
1493.44922	16576.45
1496.84016	17902.75
1500.22882	19641.35
1503.61521	22039.25
1506.99934	24947.35
1510.38121	27241.85
1513.76081	27288.05
1517.13816	24684.25
1520.51324	20683.85
1523.88607	17163.15
1527.25665	15021.05
1530.62498	13888.45
1533.99105	13224.25
1537.35488	12768.75
1540.71647	12391.45
1544.07581	12119.95
1547.4329	11902.95
1550.78776	11744.05
1554.14038	11659.55
1557.49077	11688.15
1560.83892	11864.65
1564.18484	12383.15
1567.52853	13119.05
1570.86999	13813.45
1574.20922	14165.15
1577.54624	14082.25
1580.88103	13170.35
1584.2136	12012.05
1587.54395	11463.85
1590.87208	11740.65
1594.19801	12812.15
1597.52172	14290.65
1600.84321	15121.95
1604.16251	14677.75
1607.47959	13365.55
1610.79447	11836.45
1614.10715	10531.75
1617.41763	9518.85
1620.7259	8918.95
1624.03199	8680.35
1627.33587	8728.75
1630.63757	9106.75
1633.93707	9831.65
1637.23439	11171.25
1640.52951	13416.35
1643.82246	16600.45
1647.11321	20035.75
1650.40179	21810.85
1653.68819	20465.85
1656.97241	16742.45
1660.25446	12953.95
1663.53433	10345.85
1666.81203	8858.05
1670.08756	8031.55
1673.36092	7548.75
1676.63211	7240.05
1679.90115	7029.95
1683.16801	6888.75
1686.43272	6765.55
1689.69527	6650.15
1692.95567	6629.05
1696.2139	6576.45
1699.46999	6548.35
1702.72392	6526.95
1705.97571	6499.05
1709.22535	6461.55
1712.47284	6466.05
1715.71819	6485.95
1718.96139	6472.05
1722.20246	6442.25
1725.44139	6376.85
1728.67818	6308.45
1731.91284	6254.95
1735.14537	6191.95
1738.37576	6147.95
1741.60403	6117.35
1744.83017	6091.75
1748.05418	6058.05
1751.27607	6059.25
1754.49584	6053.85
1757.71349	6036.45
1760.92903	6014.15
1764.14244	6011.05
1767.35375	5978.95
1770.56294	5950.95
1773.77002	5945.55
1776.97499	5894.45
1780.17785	5859.45
1783.37861	5851.25
1786.57727	5830.95
1789.77382	5824.35
1792.96828	5832.35
1796.16064	5797.45
1799.3509	5790.85
1802.53907	5774.65
1805.72514	5749.75
1808.90913	5715.25
1812.09102	5713.15
1815.27083	5680.15
1818.44856	5677.95
1821.6242	5673.55
1824.79776	5654.05
1827.96924	5635.85
1831.13864	5640.35
1834.30597	5634.45
1837.47122	5638.95
1840.6344	5617.75
1843.7955	5608.25
1846.95454	5602.25
1850.11151	5572.55
1853.26642	5578.55
1856.41926	5568.25
1859.57004	5564.05
1862.71876	5567.45
1865.86542	5563.05
1869.01003	5582.15
1872.15258	5554.75
1875.29308	5546.45
1878.43152	5551.15
1881.56792	5543.95
1884.70227	5557.85
1887.83457	5535.95
1890.96482	5521.05
1894.09304	5535.75
1897.21921	5528.55
1900.34335	5534.55
1903.46544	5527.25
1906.58551	5533.95
1909.70353	5523.55
1912.81953	5513.15
1915.93349	5498.75
1919.04543	5487.45
1922.15534	5475.85
1925.26322	5438.95
1928.36908	5440.05
1931.47292	5429.05
1934.57473	5389.95
1937.67453	5386.25
1940.77232	5364.05
1943.86808	5330.05
1946.96184	5342.85
1950.05358	5319.35
1953.14331	5285.05
1956.23103	5273.05
1959.31675	5266.15
1962.40046	5266.25
1965.48217	5249.15
1968.56188	5237.35
1971.63959	5212.95
1974.7153	5217.45
1977.78901	5174.35
1980.86073	5170.25
1983.93046	5136.25
1986.99819	5105.65
1990.06394	5094.85
1993.1277	5078.25
1996.18947	5071.85
1999.24925	5034.85
2002.30706	5021.55
2005.36288	4996.35
2008.41672	4977.55
2011.46859	4987.85
2014.51848	4973.15
2017.56639	4943.25
2020.61233	4935.35
2023.6563	4925.95
2026.6983	4912.65
2029.73833	4900.25
2032.7764	4891.55
2035.8125	4873.55
2038.84664	4879.55
2041.87881	4868.55
2044.90903	4878.15
2047.93729	4861.25
2050.96359	4862.55
2053.98794	4848.65
2057.01034	4831.25
2060.03078	4825.05
2063.04927	4821.65
2066.06582	4813.05
2069.08042	4807.65
2072.09307	4796.45
2075.10378	4800.35
2078.11255	4809.65
2081.11938	4788.95
2084.12426	4806.25
2087.12722	4799.25
2090.12824	4806.95
2093.12732	4812.55
2096.12447	4808.95
2099.11969	4803.15
2102.11299	4794.75
2105.10435	4813.65
2108.09379	4787.25
2111.08131	4781.75
2114.0669	4804.75
2117.05057	4805.75
2120.03233	4810.05
2123.01216	4826.95
2125.99008	4829.65
2128.96609	4817.15
2131.94018	4823.45
2134.91236	4814.55
2137.88263	4816.95
2140.851	4818.35
2143.81746	4820.75
2146.78201	4811.35
2149.74466	4808.55
2152.7054	4804.05
2155.66425	4791.45
2158.6212	4796.75
2161.57625	4776.95
2164.52941	4785.95
2167.48067	4781.55
2170.43004	4777.45
2173.37752	4787.95
2176.32311	4769.95
2179.26681	4777.15
2182.20863	4771.95
2185.14856	4777.35
2188.08661	4778.55
2191.02278	4765.45
2193.95707	4768.85
2196.88948	4767.45
2199.82001	4767.55
2202.74867	4753.85
2205.67545	4750.95
2208.60037	4734.05
2211.52341	4732.15
2214.44458	4735.65
2217.36388	4731.35
2220.28132	4720.25
2223.1969	4712.15
2226.11061	4696.85
2229.02246	4689.45
2231.93245	4688.75
2234.84058	4675.05
2237.74686	4664.85
2240.65128	4659.95
2243.55385	4668.05
2246.45456	4661.25
2249.35343	4640.25
2252.25044	4637.45
2255.14561	4661.45
2258.03893	4671.75
2260.93041	4657.65
2263.82004	4656.35
2266.70783	4652.95
2269.59378	4619.25
2272.4779	4611.75
2275.36017	4601.45
2278.24061	4585.75
2281.11922	4577.75
2283.996	4560.05
2286.87094	4553.65
2289.74405	4556.55
2292.61534	4534.25
2295.4848	4539.25
2298.35243	4535.55
2301.21824	4522.55
2304.08223	4505.35
2306.94439	4535.95
2309.80474	4525.25
2312.66327	4518.15
2315.51999	4511.05
2318.37489	4510.95
2321.22797	4521.95
2324.07925	4504.55
2326.92871	4504.85
2329.77637	4515.55
2332.62222	4491.65
2335.46626	4496.05
2338.3085	4502.25
2341.14893	4481.95
2343.98756	4507.05
2346.8244	4494.25
2349.65943	4501.65
2352.49267	4512.95
2355.32411	4519.95
2358.15376	4526.05
2360.98161	4535.15
2363.80768	4553.75
2366.63195	4540.45
2369.45444	4545.95
2372.27514	4541.05
2375.09405	4536.95
2377.91118	4530.25
2380.72652	4510.75
2383.54009	4490.45
2386.35187	4481.85
2389.16188	4446.95
2391.97011	4446.55
2394.77657	4436.05
2397.58125	4411.25
2400.38416	4416.25
2403.18529	4382.05
2405.98466	4389.85
2408.78226	4358.95
2411.57809	4364.85
2414.37216	4350.55
2417.16446	4338.85
2419.955	4337.95
2422.74378	4342.15
2425.5308	4326.35
2428.31606	4345.65
2431.09956	4353.55
2433.88131	4349.65
2436.6613	4352.15
2439.43954	4347.75
2442.21603	4354.05
2444.99077	4362.15
2447.76377	4377.65
2450.53501	4376.65
2453.30451	4374.85
2456.07226	4373.85
2458.83827	4378.15
2461.60254	4397.35
2464.36507	4378.85
2467.12586	4384.35
2469.88492	4385.45
2472.64224	4363.55
2475.39782	4386.05
2478.15167	4402.45
2480.90379	4404.45
2483.65417	4420.35
2486.40283	4420.95
2489.14976	4453.05
2491.89497	4467.85
2494.63845	4448.85
2497.3802	4446.95
2500.12024	4445.95
2502.85855	4440.65
2505.59514	4407.25
2508.33002	4393.35
2511.06318	4374.55
2513.79462	4352.25
2516.52435	4338.45
2519.25237	4336.95
2521.97867	4319.15
2524.70327	4327.75
2527.42616	4307.95
2530.14734	4284.45
2532.86681	4294.95
2535.58458	4286.85
2538.30065	4290.75
2541.01501	4298.85
2543.72768	4297.65
2546.43864	4297.05
2549.14791	4283.25
2551.85548	4299.75
2554.56136	4296.95
2557.26554	4302.15
2559.96803	4305.05
2562.66883	4291.45
2565.36794	4296.85
2568.06536	4295.05
2570.7611	4294.15
2573.45514	4285.55
2576.14751	4273.15
2578.83819	4269.65
2581.52719	4267.05
2584.21451	4260.05
2586.90015	4242.05
2589.58411	4250.05
2592.2664	4239.45
2594.94701	4240.35
2597.62594	4239.45
2600.30321	4223.95
2602.9788	4220.55
2605.65273	4225.55
2608.32498	4230.35
2610.99557	4222.05
2613.66449	4232.85
2616.33175	4229.45
2618.99734	4224.75
2621.66128	4230.15
2624.32355	4231.25
2626.98416	4219.35
2629.64311	4199.85
2632.30041	4203.15
2634.95605	4203.85
2637.61004	4182.95
2640.26238	4184.65
2642.91306	4177.55
2645.56209	4185.45
2648.20948	4196.05
2650.85521	4183.65
2653.4993	4183.25
2656.14175	4194.45
2658.78255	4195.55
2661.42171	4190.95
2664.05923	4202.55
2666.6951	4195.05
2669.32934	4219.95
2671.96194	4211.95
2674.59291	4226.85
2677.22224	4228.95
2679.84993	4232.35
2682.476	4222.15
2685.10043	4205.45
2687.72324	4203.65
2690.34441	4206.85
2692.96396	4211.95
2695.58188	4210.95
2698.19818	4198.95
2700.81285	4210.85
2703.4259	4215.35
2706.03733	4212.55
2708.64714	4211.75
2711.25533	4217.35
2713.86191	4223.95
2716.46687	4223.45
2719.07021	4224.95
2721.67194	4227.65
2724.27206	4223.25
2726.87057	4235.65
2729.46747	4237.55
2732.06276	4229.35
2734.65644	4219.65
2737.24852	4210.45
2739.83899	4198.55
2742.42786	4212.75
2745.01513	4195.55
2747.60079	4197.95
2750.18486	4181.05
2752.76733	4183.95
2755.3482	4187.95
2757.92747	4180.75
2760.50515	4176.85
2763.08123	4183.05
2765.65573	4168.55
2768.22863	4180.35
2770.79994	4174.75
2773.36967	4160.55
2775.9378	4171.55
2778.50435	4169.35
2781.06932	4167.65
2783.6327	4158.35
2786.1945	4170.75
2788.75471	4144.15
2791.31335	4137.15
2793.87041	4143.05
2796.42589	4140.15
2798.97979	4143.95
2801.53212	4135.55
2804.08288	4142.15
2806.63206	4142.35
2809.17967	4157.05
2811.72571	4149.55
2814.27018	4157.85
2816.81308	4156.25
2819.35442	4157.65
2821.89419	4163.45
2824.43239	4174.05
2826.96904	4162.15
2829.50412	4170.45
2832.03763	4156.25
2834.56959	4152.65
2837.1	4155.55
2839.62884	4154.05
2842.15613	4147.75
2844.68186	4149.55
2847.20604	4158.85
2849.72867	4159.75
2852.24974	4144.95
2854.76927	4169.95
2857.28724	4152.85
2859.80367	4163.75
2862.31855	4164.05
2864.83189	4171.45
2867.34368	4189.45
2869.85393	4191.45
2872.36264	4195.15
2874.8698	4192.05
2877.37543	4191.55
2879.87952	4193.05
2882.38207	4178.75
2884.88308	4164.05
2887.38256	4167.95
2889.88051	4174.25
2892.37692	4170.05
2894.8718	4153.35
2897.36515	4172.35
2899.85698	4164.75
2902.34727	4180.55
2904.83604	4172.15
2907.32328	4179.65
2909.809	4184.15
2912.29319	4186.55
2914.77587	4194.35
2917.25702	4185.45
2919.73665	4175.85
2922.21476	4169.15
2924.69136	4159.65
2927.16644	4157.15
2929.64	4147.55
2932.11205	4133.05
2934.58258	4123.65
2937.05161	4135.65
2939.51912	4121.25
2941.98513	4111.05
2944.44962	4108.65
2946.91261	4099.55
2949.37409	4106.45
2951.83407	4089.05
2954.29254	4098.15
2956.74951	4084.95
2959.20498	4089.25
2961.65895	4078.35
2964.11142	4084.25
2966.56239	4077.45
2969.01186	4074.45
2971.45984	4051.65
2973.90632	4044.35
2976.35131	4035.45
2978.7948	4037.85
2981.23681	4016.55
2983.67732	4010.45
2986.11635	3988.45
2988.55388	3986.75
2990.98993	3970.75
2993.4245	3958.25
2995.85758	3965.05
2998.28917	3949.95
3000.71928	3955.15
3003.14791	3956.15
3005.57506	3939.05
3008.00073	3944.25
3010.42493	3947.05
3012.84764	3932.95
3015.26888	3935.05
3017.68865	3924.35
3020.10694	3926.75
3022.52376	3896.05
3024.9391	3897.35
3027.35298	3896.15
3029.76539	3878.05
3032.17632	3882.65
3034.5858	3862.15
3036.9938	3854.75
3039.40034	3848.45
3041.80542	3839.45
3044.20903	3830.85
3046.61118	3830.95
3049.01187	3820.75
3051.4111	3817.55
3053.80888	3811.65
3056.20519	3826.95
3058.60005	3814.35
3060.99345	3812.25
3063.3854	3792.75
3065.7759	3786.55
3068.16494	3773.85
3070.55254	3771.65
3072.93868	3764.85
3075.32338	3764.75
3077.70662	3760.15
3080.08842	3745.25
3082.46878	3740.05
3084.84769	3736.45
3087.22515	3752.25
3089.60118	3749.15
3091.97576	3746.75
3094.3489	3738.85
3096.72061	3736.75
3099.09087	3732.25
3101.4597	3725.55
3103.82709	3746.65
3106.19305	3723.95
3108.55757	3723.05
3110.92066	3718.15
3113.28232	3708.45
3115.64255	3691.45
3118.00134	3688.65
3120.35871	3684.65
3122.71466	3697.95
3125.06917	3685.95
3127.42226	3700.55
3129.77393	3706.95
3132.12417	3713.85
3134.47299	3711.25
3136.82039	3702.75
3139.16636	3703.45
3141.51092	3711.65
3143.85406	3714.65
3146.19579	3720.15
3148.53609	3720.95
3150.87499	3731.05
3153.21246	3725.95
3155.54853	3722.35
3157.88318	3726.95
3160.21642	3718.15
3162.54826	3703.25
3164.87868	3723.25
3167.2077	3721.65
3169.5353	3702.65
3171.86151	3715.75
3174.18631	3708.55
3176.5097	3710.55
3178.83169	3707.55
3181.15228	3686.35
3183.47147	3726.45
3185.78926	3697.75
3188.10565	3709.35
3190.42065	3710.45
3192.73424	3712.95
3195.04645	3708.85
3197.35725	3715.55
3199.66667	3717.55
3201.97469	3722.35
3204.28132	3727.45
3206.58656	3728.65
3208.8904	3739.65
3211.19287	3739.45
3213.49394	3736.65
3215.79363	3748.85
3218.09193	3733.35
3220.38884	3733.15
3222.68438	3737.75
3224.97853	3740.05
3227.2713	3750.85
3229.56269	3727.35
3231.8527	3739.65
3234.14133	3733.05
3236.42858	3748.15
3238.71446	3740.45
3240.99896	3740.35
3243.28209	3736.95
3245.56384	3727.65
3247.84423	3725.05
3250.12324	3721.25
3252.40088	3709.05
3254.67715	3706.25
3256.95205	3708.35
3259.22558	3701.35
3261.49775	3687.65
3263.76855	3693.85
3266.03799	3690.75
3268.30606	3678.95
3270.57277	3676.25
3272.83812	3678.25
3275.10211	3680.65
3277.36474	3680.25
3279.62601	3691.65
3281.88593	3692.75
3284.14448	3682.25
3286.40168	3686.65
3288.65753	3707.65
3290.91202	3703.75
3293.16516	3690.85
3295.41695	3699.95
3297.66738	3679.85
3299.91647	3668.55
3302.16421	3645.15
3304.4106	3640.05
3306.65564	3620.35
3308.89933	3588.45
3311.14169	3572.45
3313.38269	3555.95
3315.62236	3531.25
3317.86068	3498.15
3320.09766	3457.05
3322.3333	3436.65
3324.5676	3455.75
3326.80056	3387.45
3329.03219	3374.35
3331.26248	1.35
3333.49143	-0.45
3335.71905	2.25
