Data from AgNP_FTO_APTES_UA_100uM_CRN_50uM_R6G_10uM_NaF_0.1M_Addition_RamanShift__32__17-45-10-560.txt Node

Date: Thu Mar 24 17:45:10 GMT 2022
User: TCL
Spectrometer: QEP01345
Trigger mode: 4
Integration Time (sec): 7.000000E0
Scans to average: 10
Electric dark correction enabled: true
Nonlinearity correction enabled: false
Boxcar width: 0
XAxis mode: Raman Shifts
Number of Pixels in Spectrum: 1044
>>>>>Begin Spectral Data<<<<<
46.04893	-0.95
50.45542	-0.85
54.85868	-0.55
59.25871	0.65
63.6555	35.55
68.04907	39.35
72.43941	39.75
76.82654	39.75
81.21044	43.75
85.59113	43.05
89.96862	44.55
94.34289	44.45
98.71396	50.55
103.08183	46.85
107.4465	47.75
111.80798	51.25
116.16626	50.05
120.52136	55.95
124.87327	56.05
129.222	57.35
133.56755	62.15
137.90993	68.25
142.24913	77.15
146.58517	81.85
150.91804	97.15
155.24774	115.45
159.57429	144.05
163.89768	187.85
168.21792	248.55
172.53501	336.45
176.84895	474.05
181.15975	662.95
185.46741	942.55
189.77193	1281.45
194.07331	1731.35
198.37157	2229.75
202.6667	2756.45
206.9587	3293.45
211.24758	3817.05
215.53334	4379.15
219.81599	4942.95
224.09553	5620.95
228.37195	6365.35
232.64527	7175.85
236.91549	8043.05
241.18261	8835.25
245.44663	9533.45
249.70755	10087.75
253.96539	10538.75
258.22014	10946.95
262.4718	11246.85
266.72039	11528.55
270.96589	11662.65
275.20832	11674.55
279.44768	11574.65
283.68397	11432.25
287.91719	11356.45
292.14735	11348.45
296.37445	11451.85
300.59849	11681.45
304.81948	11923.35
309.03742	12076.85
313.25231	12009.05
317.46415	11689.15
321.67296	11230.55
325.87872	10772.45
330.08145	10552.75
334.28114	10529.55
338.47781	10623.95
342.67145	10798.65
346.86207	11080.05
351.04966	11412.25
355.23424	11773.55
359.4158	12048.15
363.59435	12175.45
367.76989	12196.95
371.94243	12212.65
376.11196	12242.45
380.27849	12241.95
384.44203	12193.85
388.60257	12187.25
392.76012	12220.45
396.91468	12316.45
401.06626	12535.85
405.21485	12634.85
409.36047	12492.45
413.50311	12083.55
417.64277	11685.75
421.77947	11503.25
425.9132	11481.45
430.04396	11544.65
434.17176	11614.95
438.2966	11794.45
442.41849	12103.05
446.53742	12436.35
450.6534	12804.45
454.76644	13048.05
458.87653	13084.95
462.98368	12969.35
467.08789	12788.35
471.18916	12609.35
475.2875	12393.75
479.38291	12224.55
483.4754	12037.45
487.56496	11833.45
491.6516	11663.25
495.73531	11557.35
499.81612	11507.75
503.89401	11580.05
507.96899	11632.45
512.04106	11683.35
516.11023	11677.95
520.1765	11665.45
524.23987	11596.45
528.30034	11577.55
532.35792	11461.95
536.41261	11325.85
540.46441	11180.15
544.51333	11138.45
548.55936	11263.65
552.60252	11511.35
556.64279	11826.65
560.6802	12020.35
564.71473	12144.65
568.7464	12388.65
572.7752	12738.65
576.80114	12905.55
580.82422	12972.85
584.84444	13113.25
588.86181	13372.65
592.87633	13782.45
596.888	14063.85
600.89682	14115.15
604.9028	14709.65
608.90594	16745.25
612.90624	19349.35
616.90371	18199.65
620.89834	13941.35
624.89015	11893.75
628.87913	11626.95
632.86528	11827.55
636.84862	11996.05
640.82913	11847.25
644.80683	11325.25
648.78172	10960.05
652.75379	10812.85
656.72306	11049.25
660.68952	11414.75
664.65319	11267.35
668.61405	10832.45
672.57211	10661.05
676.52738	10676.55
680.47986	10660.65
684.42955	10590.35
688.37646	10518.55
692.32058	10541.45
696.26192	10662.15
700.20048	10765.35
704.13626	10895.75
708.06928	10888.95
711.99952	10802.35
715.927	10773.95
719.85171	10825.75
723.77365	10812.45
727.69284	10765.65
731.60928	10713.95
735.52295	10697.95
739.43388	10726.75
743.34206	10768.15
747.24749	10774.65
751.15017	10838.25
755.05012	11017.85
758.94733	11455.05
762.8418	12461.25
766.73354	14287.25
770.62254	16033.35
774.50882	16580.45
778.39237	15607.05
782.27321	13816.55
786.15132	12190.95
790.02671	11234.75
793.89938	10759.55
797.76935	10523.05
801.6366	10444.55
805.50115	10379.15
809.36299	10339.45
813.22213	10294.55
817.07857	10281.75
820.93231	10237.35
824.78336	10183.25
828.63172	10165.15
832.47738	10140.85
836.32036	10128.65
840.16066	10118.75
843.99827	10096.45
847.8332	10070.15
851.66546	10066.95
855.49504	10077.75
859.32195	10063.95
863.1462	10044.45
866.96777	10040.55
870.78668	10009.55
874.60293	10037.45
878.41652	10084.15
882.22745	10136.35
886.03573	10176.85
889.84136	10196.95
893.64433	10149.25
897.44466	10104.45
901.24235	10047.95
905.0374	9999.85
908.8298	9964.85
912.61957	9930.05
916.40671	9977.05
920.19121	10102.45
923.97308	10209.45
927.75233	10221.35
931.52895	10151.95
935.30295	10024.95
939.07433	9792.55
942.84309	9601.35
946.60924	9507.15
950.37278	9444.45
954.13371	9438.35
957.89203	9416.55
961.64774	9421.25
965.40086	9401.25
969.15137	9363.95
972.89929	9315.95
976.64461	9263.85
980.38733	9278.65
984.12747	9311.75
987.86502	9338.35
991.59999	9423.35
995.33237	9544.15
999.06217	9753.75
1002.78939	10067.65
1006.51404	10354.25
1010.23611	10560.95
1013.95561	10695.45
1017.67255	10680.45
1021.38692	10528.85
1025.09872	10266.85
1028.80796	10116.05
1032.51465	10091.75
1036.21877	10146.85
1039.92035	10226.35
1043.61937	10270.95
1047.31584	10226.15
1051.00976	10207.55
1054.70114	10199.45
1058.38998	10247.95
1062.07627	10323.75
1065.76003	10376.05
1069.44126	10503.95
1073.11995	10620.45
1076.79611	10762.45
1080.46974	10924.75
1084.14085	11137.15
1087.80943	11316.45
1091.47549	11432.65
1095.13903	11357.75
1098.80005	11092.45
1102.45857	10815.15
1106.11456	10690.35
1109.76805	10717.95
1113.41903	10871.95
1117.06751	11159.45
1120.71348	11521.55
1124.35696	11878.05
1127.99793	12198.45
1131.63641	12217.15
1135.2724	11920.45
1138.90589	11636.55
1142.5369	11401.05
1146.16542	11275.05
1149.79145	11218.35
1153.415	11278.55
1157.03607	11406.45
1160.65467	11709.75
1164.27079	12212.35
1167.88443	12916.45
1171.49561	14041.45
1175.10432	15627.05
1178.71056	17620.95
1182.31434	19375.75
1185.91565	19936.05
1189.51451	19464.85
1193.11091	18487.75
1196.70485	17358.05
1200.29634	16299.45
1203.88538	15497.35
1207.47197	14697.45
1211.05612	13979.25
1214.63782	13514.75
1218.21708	13296.45
1221.79391	13249.85
1225.36829	13264.35
1228.94024	13148.65
1232.50976	12879.65
1236.07685	12611.75
1239.6415	12439.95
1243.20374	12422.45
1246.76355	12465.65
1250.32093	12619.95
1253.8759	12839.35
1257.42845	13182.05
1260.97859	13608.55
1264.52631	14069.65
1268.07163	14550.05
1271.61453	15007.35
1275.15503	15446.55
1278.69312	15780.45
1282.22882	16081.55
1285.76211	16558.95
1289.29301	17208.05
1292.82151	17999.65
1296.34761	18974.65
1299.87133	20235.75
1303.39266	21896.15
1306.9116	23967.65
1310.42815	26057.45
1313.94233	27170.85
1317.45412	26736.15
1320.96354	25498.55
1324.47058	24157.85
1327.97525	22885.55
1331.47754	21922.25
1334.97747	21411.85
1338.47502	21290.45
1341.97022	21513.05
1345.46305	21961.15
1348.95352	22680.75
1352.44163	23607.65
1355.92738	25169.15
1359.41078	27683.05
1362.89183	30006.15
1366.37053	29355.35
1369.84688	25638.45
1373.32088	21639.65
1376.79254	19168.85
1380.26186	17999.75
1383.72883	17489.15
1387.19347	17108.05
1390.65578	16735.35
1394.11575	16459.55
1397.57339	16472.75
1401.0287	16642.15
1404.48168	16774.45
1407.93234	16684.45
1411.38068	16460.55
1414.82669	16044.75
1418.27039	15488.15
1421.71177	14919.15
1425.15083	14374.05
1428.58758	14061.55
1432.02203	14152.15
1435.45416	14444.85
1438.88399	14768.15
1442.31151	15043.75
1445.73673	15215.25
1449.15965	15374.45
1452.58027	15477.15
1455.9986	15524.95
1459.41463	15657.95
1462.82837	16003.55
1466.23982	16462.55
1469.64898	17000.05
1473.05586	17426.95
1476.46045	17655.25
1479.86276	17755.75
1483.26279	17806.35
1486.66054	17944.35
1490.05602	18264.25
1493.44922	18796.45
1496.84016	19620.95
1500.22882	20954.35
1503.61521	22816.95
1506.99934	24868.95
1510.38121	26215.45
1513.76081	26062.95
1517.13816	24345.65
1520.51324	21950.05
1523.88607	19967.55
1527.25665	18758.45
1530.62498	18229.95
1533.99105	17879.95
1537.35488	17527.75
1540.71647	17133.35
1544.07581	16615.15
1547.4329	16192.15
1550.78776	15783.15
1554.14038	15602.55
1557.49077	15612.25
1560.83892	15794.65
1564.18484	16139.15
1567.52853	16612.45
1570.86999	17051.35
1574.20922	17318.65
1577.54624	17334.15
1580.88103	16754.95
1584.2136	15998.75
1587.54395	15740.45
1590.87208	16220.25
1594.19801	17211.15
1597.52172	18422.55
1600.84321	18887.45
1604.16251	18196.25
1607.47959	16908.85
1610.79447	15539.15
1614.10715	14221.95
1617.41763	13109.35
1620.7259	12324.85
1624.03199	11889.85
1627.33587	11860.75
1630.63757	12175.45
1633.93707	12962.45
1637.23439	14400.45
1640.52951	16558.85
1643.82246	19380.85
1647.11321	22045.95
1650.40179	23151.45
1653.68819	21781.15
1656.97241	18635.45
1660.25446	15287.35
1663.53433	12914.65
1666.81203	11436.55
1670.08756	10550.45
1673.36092	10001.75
1676.63211	9647.45
1679.90115	9369.65
1683.16801	9186.15
1686.43272	9047.35
1689.69527	8917.55
1692.95567	8841.05
1696.2139	8764.65
1699.46999	8705.45
1702.72392	8667.15
1705.97571	8610.05
1709.22535	8573.05
1712.47284	8551.35
1715.71819	8522.65
1718.96139	8465.85
1722.20246	8413.35
1725.44139	8371.55
1728.67818	8292.55
1731.91284	8228.75
1735.14537	8144.45
1738.37576	8133.35
1741.60403	8071.25
1744.83017	8050.95
1748.05418	8029.05
1751.27607	7979.15
1754.49584	7958.85
1757.71349	7948.55
1760.92903	7944.25
1764.14244	7935.25
1767.35375	7943.65
1770.56294	7891.55
1773.77002	7860.25
1776.97499	7840.65
1780.17785	7793.15
1783.37861	7782.85
1786.57727	7762.95
1789.77382	7756.35
1792.96828	7748.65
1796.16064	7721.65
1799.3509	7691.85
1802.53907	7691.05
1805.72514	7635.35
1808.90913	7614.25
1812.09102	7599.25
1815.27083	7587.95
1818.44856	7570.55
1821.6242	7534.05
1824.79776	7521.15
1827.96924	7503.15
1831.13864	7499.05
1834.30597	7463.35
1837.47122	7468.45
1840.6344	7460.15
1843.7955	7466.65
1846.95454	7448.05
1850.11151	7444.45
1853.26642	7423.55
1856.41926	7384.05
1859.57004	7405.05
1862.71876	7396.85
1865.86542	7386.35
1869.01003	7394.95
1872.15258	7381.25
1875.29308	7375.75
1878.43152	7362.65
1881.56792	7361.35
1884.70227	7350.75
1887.83457	7348.05
1890.96482	7362.45
1894.09304	7334.85
1897.21921	7320.85
1900.34335	7312.15
1903.46544	7320.45
1906.58551	7320.85
1909.70353	7310.65
1912.81953	7297.15
1915.93349	7277.15
1919.04543	7264.15
1922.15534	7238.85
1925.26322	7248.65
1928.36908	7219.95
1931.47292	7197.45
1934.57473	7162.75
1937.67453	7144.75
1940.77232	7137.35
1943.86808	7117.15
1946.96184	7086.95
1950.05358	7066.65
1953.14331	7041.75
1956.23103	7014.45
1959.31675	6995.75
1962.40046	6956.75
1965.48217	6960.05
1968.56188	6950.65
1971.63959	6910.15
1974.7153	6914.85
1977.78901	6894.85
1980.86073	6873.85
1983.93046	6835.75
1986.99819	6810.95
1990.06394	6777.95
1993.1277	6772.95
1996.18947	6741.15
1999.24925	6745.35
2002.30706	6703.65
2005.36288	6682.55
2008.41672	6633.25
2011.46859	6647.85
2014.51848	6604.85
2017.56639	6592.55
2020.61233	6552.35
2023.6563	6547.55
2026.6983	6553.25
2029.73833	6518.55
2032.7764	6491.75
2035.8125	6483.05
2038.84664	6471.85
2041.87881	6431.05
2044.90903	6435.45
2047.93729	6440.75
2050.96359	6427.75
2053.98794	6418.95
2057.01034	6389.85
2060.03078	6417.35
2063.04927	6384.75
2066.06582	6378.55
2069.08042	6385.65
2072.09307	6380.35
2075.10378	6349.85
2078.11255	6358.95
2081.11938	6371.55
2084.12426	6359.35
2087.12722	6340.35
2090.12824	6355.35
2093.12732	6340.35
2096.12447	6356.85
2099.11969	6349.65
2102.11299	6347.35
2105.10435	6357.65
2108.09379	6346.55
2111.08131	6333.15
2114.0669	6361.85
2117.05057	6357.25
2120.03233	6377.15
2123.01216	6376.15
2125.99008	6374.95
2128.96609	6389.55
2131.94018	6360.15
2134.91236	6353.75
2137.88263	6373.25
2140.851	6378.65
2143.81746	6367.15
2146.78201	6349.05
2149.74466	6356.85
2152.7054	6353.65
2155.66425	6329.15
2158.6212	6348.55
2161.57625	6348.15
2164.52941	6321.45
2167.48067	6338.05
2170.43004	6326.05
2173.37752	6315.85
2176.32311	6310.95
2179.26681	6308.65
2182.20863	6299.85
2185.14856	6330.15
2188.08661	6301.25
2191.02278	6313.55
2193.95707	6304.85
2196.88948	6302.95
2199.82001	6303.55
2202.74867	6312.15
2205.67545	6268.55
2208.60037	6273.35
2211.52341	6256.15
2214.44458	6266.85
2217.36388	6239.45
2220.28132	6235.45
2223.1969	6219.55
2226.11061	6196.25
2229.02246	6198.55
2231.93245	6184.45
2234.84058	6169.55
2237.74686	6162.15
2240.65128	6181.95
2243.55385	6147.45
2246.45456	6142.25
2249.35343	6129.55
2252.25044	6130.65
2255.14561	6106.65
2258.03893	6111.45
2260.93041	6109.65
2263.82004	6099.75
2266.70783	6061.05
2269.59378	6068.35
2272.4779	6037.65
2275.36017	6027.85
2278.24061	6030.35
2281.11922	6010.15
2283.996	5976.95
2286.87094	5966.05
2289.74405	5977.05
2292.61534	5960.55
2295.4848	5953.15
2298.35243	5942.05
2301.21824	5938.45
2304.08223	5943.25
2306.94439	5934.05
2309.80474	5928.45
2312.66327	5924.85
2315.51999	5937.25
2318.37489	5931.55
2321.22797	5915.55
2324.07925	5898.25
2326.92871	5910.25
2329.77637	5911.45
2332.62222	5897.05
2335.46626	5890.05
2338.3085	5895.85
2341.14893	5880.85
2343.98756	5875.45
2346.8244	5884.85
2349.65943	5883.05
2352.49267	5903.15
2355.32411	5912.85
2358.15376	5901.05
2360.98161	5917.05
2363.80768	5916.35
2366.63195	5921.05
2369.45444	5930.15
2372.27514	5913.75
2375.09405	5890.65
2377.91118	5881.75
2380.72652	5854.05
2383.54009	5836.65
2386.35187	5833.45
2389.16188	5818.45
2391.97011	5822.55
2394.77657	5788.45
2397.58125	5755.25
2400.38416	5739.55
2403.18529	5740.15
2405.98466	5735.65
2408.78226	5719.65
2411.57809	5709.65
2414.37216	5704.45
2417.16446	5704.95
2419.955	5689.15
2422.74378	5687.45
2425.5308	5681.15
2428.31606	5681.35
2431.09956	5693.55
2433.88131	5666.55
2436.6613	5671.35
2439.43954	5668.55
2442.21603	5670.35
2444.99077	5671.95
2447.76377	5666.85
2450.53501	5680.65
2453.30451	5670.45
2456.07226	5665.45
2458.83827	5671.35
2461.60254	5675.25
2464.36507	5667.75
2467.12586	5661.35
2469.88492	5672.65
2472.64224	5661.85
2475.39782	5689.85
2478.15167	5696.65
2480.90379	5717.45
2483.65417	5700.45
2486.40283	5711.05
2489.14976	5721.15
2491.89497	5729.75
2494.63845	5731.75
2497.3802	5710.35
2500.12024	5709.15
2502.85855	5698.05
2505.59514	5686.95
2508.33002	5677.35
2511.06318	5655.05
2513.79462	5652.35
2516.52435	5638.85
2519.25237	5627.55
2521.97867	5612.05
2524.70327	5613.95
2527.42616	5612.15
2530.14734	5594.95
2532.86681	5604.35
2535.58458	5606.05
2538.30065	5585.75
2541.01501	5591.35
2543.72768	5594.85
2546.43864	5592.85
2549.14791	5590.85
2551.85548	5564.55
2554.56136	5568.85
2557.26554	5548.85
2559.96803	5552.55
2562.66883	5547.05
2565.36794	5526.15
2568.06536	5539.45
2570.7611	5527.95
2573.45514	5495.25
2576.14751	5522.55
2578.83819	5512.05
2581.52719	5520.15
2584.21451	5501.25
2586.90015	5493.65
2589.58411	5493.55
2592.2664	5489.65
2594.94701	5487.45
2597.62594	5478.05
2600.30321	5458.35
2602.9788	5467.05
2605.65273	5466.65
2608.32498	5467.15
2610.99557	5478.45
2613.66449	5451.95
2616.33175	5461.65
2618.99734	5476.75
2621.66128	5471.45
2624.32355	5479.35
2626.98416	5465.35
2629.64311	5443.85
2632.30041	5471.15
2634.95605	5460.95
2637.61004	5470.15
2640.26238	5453.35
2642.91306	5445.55
2645.56209	5444.75
2648.20948	5423.35
2650.85521	5434.35
2653.4993	5430.55
2656.14175	5439.15
2658.78255	5444.85
2661.42171	5452.45
2664.05923	5454.15
2666.6951	5466.05
2669.32934	5469.75
2671.96194	5474.05
2674.59291	5488.25
2677.22224	5461.55
2679.84993	5466.85
2682.476	5449.95
2685.10043	5447.65
2687.72324	5438.95
2690.34441	5440.45
2692.96396	5448.95
2695.58188	5435.05
2698.19818	5450.55
2700.81285	5449.45
2703.4259	5444.85
2706.03733	5455.55
2708.64714	5447.75
2711.25533	5459.75
2713.86191	5460.05
2716.46687	5483.55
2719.07021	5480.25
2721.67194	5488.85
2724.27206	5477.85
2726.87057	5482.35
2729.46747	5483.25
2732.06276	5491.35
2734.65644	5472.35
2737.24852	5487.45
2739.83899	5466.75
2742.42786	5480.25
2745.01513	5460.25
2747.60079	5438.65
2750.18486	5448.65
2752.76733	5436.65
2755.3482	5426.15
2757.92747	5447.15
2760.50515	5416.15
2763.08123	5416.15
2765.65573	5423.05
2768.22863	5435.35
2770.79994	5414.85
2773.36967	5420.25
2775.9378	5411.25
2778.50435	5416.95
2781.06932	5429.75
2783.6327	5417.35
2786.1945	5429.25
2788.75471	5429.25
2791.31335	5417.75
2793.87041	5405.35
2796.42589	5406.65
2798.97979	5406.75
2801.53212	5390.45
2804.08288	5388.45
2806.63206	5348.25
2809.17967	5363.55
2811.72571	5364.55
2814.27018	5371.65
2816.81308	5370.15
2819.35442	5342.95
2821.89419	5349.45
2824.43239	5332.85
2826.96904	5334.15
2829.50412	5332.25
2832.03763	5321.75
2834.56959	5330.55
2837.1	5312.65
2839.62884	5343.55
2842.15613	5329.25
2844.68186	5335.35
2847.20604	5335.55
2849.72867	5357.55
2852.24974	5353.55
2854.76927	5326.75
2857.28724	5334.55
2859.80367	5351.25
2862.31855	5342.65
2864.83189	5345.95
2867.34368	5349.35
2869.85393	5351.15
2872.36264	5355.25
2874.8698	5340.35
2877.37543	5347.55
2879.87952	5331.95
2882.38207	5314.65
2884.88308	5333.45
2887.38256	5332.15
2889.88051	5327.45
2892.37692	5339.85
2894.8718	5342.95
2897.36515	5358.95
2899.85698	5345.05
2902.34727	5338.75
2904.83604	5325.05
2907.32328	5357.65
2909.809	5362.75
2912.29319	5386.95
2914.77587	5368.25
2917.25702	5371.25
2919.73665	5361.65
2922.21476	5360.85
2924.69136	5354.35
2927.16644	5349.35
2929.64	5346.35
2932.11205	5323.85
2934.58258	5293.35
2937.05161	5303.35
2939.51912	5301.95
2941.98513	5287.75
2944.44962	5301.15
2946.91261	5262.45
2949.37409	5262.75
2951.83407	5256.25
2954.29254	5263.85
2956.74951	5259.05
2959.20498	5249.55
2961.65895	5262.95
2964.11142	5253.05
2966.56239	5216.15
2969.01186	5212.45
2971.45984	5210.05
2973.90632	5197.15
2976.35131	5194.55
2978.7948	5185.15
2981.23681	5167.45
2983.67732	5156.85
2986.11635	5152.55
2988.55388	5142.25
2990.98993	5102.45
2993.4245	5117.65
2995.85758	5115.55
2998.28917	5103.75
3000.71928	5088.85
3003.14791	5083.95
3005.57506	5078.45
3008.00073	5073.45
3010.42493	5075.95
3012.84764	5063.15
3015.26888	5056.95
3017.68865	5040.65
3020.10694	5031.35
3022.52376	5034.75
3024.9391	5015.95
3027.35298	5017.95
3029.76539	4984.25
3032.17632	4980.85
3034.5858	4990.15
3036.9938	4980.95
3039.40034	4982.75
3041.80542	4976.05
3044.20903	4981.15
3046.61118	4978.45
3049.01187	4968.15
3051.4111	4983.75
3053.80888	4955.15
3056.20519	4925.65
3058.60005	4924.05
3060.99345	4919.45
3063.3854	4899.95
3065.7759	4894.15
3068.16494	4899.65
3070.55254	4866.45
3072.93868	4890.05
3075.32338	4869.25
3077.70662	4861.05
3080.08842	4841.75
3082.46878	4846.95
3084.84769	4853.35
3087.22515	4847.05
3089.60118	4842.95
3091.97576	4844.35
3094.3489	4841.95
3096.72061	4845.25
3099.09087	4849.65
3101.4597	4844.35
3103.82709	4846.35
3106.19305	4839.95
3108.55757	4834.45
3110.92066	4824.35
3113.28232	4815.55
3115.64255	4796.15
3118.00134	4795.55
3120.35871	4804.75
3122.71466	4791.75
3125.06917	4769.05
3127.42226	4781.15
3129.77393	4786.75
3132.12417	4765.45
3134.47299	4781.65
3136.82039	4767.65
3139.16636	4755.05
3141.51092	4759.75
3143.85406	4763.25
3146.19579	4777.75
3148.53609	4786.75
3150.87499	4786.45
3153.21246	4792.95
3155.54853	4809.65
3157.88318	4798.95
3160.21642	4802.75
3162.54826	4797.95
3164.87868	4798.65
3167.2077	4789.85
3169.5353	4797.35
3171.86151	4811.15
3174.18631	4801.55
3176.5097	4798.25
3178.83169	4805.85
3181.15228	4798.05
3183.47147	4800.45
3185.78926	4801.25
3188.10565	4808.35
3190.42065	4795.25
3192.73424	4795.55
3195.04645	4805.95
3197.35725	4794.45
3199.66667	4790.55
3201.97469	4812.35
3204.28132	4791.95
3206.58656	4819.65
3208.8904	4792.15
3211.19287	4808.55
3213.49394	4820.15
3215.79363	4815.25
3218.09193	4810.35
3220.38884	4822.25
3222.68438	4826.25
3224.97853	4831.45
3227.2713	4818.45
3229.56269	4833.55
3231.8527	4830.25
3234.14133	4831.55
3236.42858	4813.65
3238.71446	4810.35
3240.99896	4783.55
3243.28209	4798.85
3245.56384	4787.65
3247.84423	4776.85
3250.12324	4763.55
3252.40088	4768.25
3254.67715	4764.15
3256.95205	4758.55
3259.22558	4769.25
3261.49775	4749.45
3263.76855	4758.45
3266.03799	4728.75
3268.30606	4753.75
3270.57277	4737.55
3272.83812	4720.95
3275.10211	4725.85
3277.36474	4725.75
3279.62601	4716.65
3281.88593	4717.85
3284.14448	4735.35
3286.40168	4724.25
3288.65753	4731.35
3290.91202	4722.95
3293.16516	4698.65
3295.41695	4687.35
3297.66738	4680.15
3299.91647	4659.45
3302.16421	4630.85
3304.4106	4628.85
3306.65564	4609.65
3308.89933	4568.55
3311.14169	4530.95
3313.38269	4507.05
3315.62236	4479.15
3317.86068	4429.15
3320.09766	4403.95
3322.3333	4373.65
3324.5676	4354.75
3326.80056	4298.85
3329.03219	4281.45
3331.26248	0.65
3333.49143	-0.65
3335.71905	0.65
