Data from AgNP_FTO_APTES_UA_100uM_CRN_10uM_R6G_10uM_NaF_0.1M_Addition_RamanShift__36__15-59-00-442.txt Node

Date: Thu Mar 24 15:59:00 GMT 2022
User: TCL
Spectrometer: QEP01345
Trigger mode: 4
Integration Time (sec): 7.000000E0
Scans to average: 10
Electric dark correction enabled: true
Nonlinearity correction enabled: false
Boxcar width: 0
XAxis mode: Raman Shifts
Number of Pixels in Spectrum: 1044
>>>>>Begin Spectral Data<<<<<
46.04893	-0.45
50.45542	-0.35
54.85868	-0.05
59.25871	-0.85
63.6555	30.05
68.04907	29.55
72.43941	30.45
76.82654	29.75
81.21044	30.65
85.59113	31.85
89.96862	36.45
94.34289	34.95
98.71396	36.95
103.08183	35.85
107.4465	37.85
111.80798	38.65
116.16626	41.25
120.52136	41.15
124.87327	41.45
129.222	42.45
133.56755	45.75
137.90993	45.85
142.24913	54.05
146.58517	57.45
150.91804	67.55
155.24774	79.85
159.57429	98.25
163.89768	125.55
168.21792	166.85
172.53501	230.25
176.84895	318.95
181.15975	453.25
185.46741	633.25
189.77193	875.45
194.07331	1174.75
198.37157	1525.95
202.6667	1894.85
206.9587	2254.25
211.24758	2621.15
215.53334	2981.85
219.81599	3362.85
224.09553	3799.35
228.37195	4260.85
232.64527	4784.45
236.91549	5343.55
241.18261	5881.25
245.44663	6360.75
249.70755	6795.15
253.96539	7152.05
258.22014	7427.25
262.4718	7697.75
266.72039	7887.75
270.96589	7993.75
275.20832	7969.05
279.44768	7873.65
283.68397	7739.25
287.91719	7673.45
292.14735	7619.95
296.37445	7632.05
300.59849	7717.85
304.81948	7842.25
309.03742	7964.45
313.25231	7973.95
317.46415	7848.15
321.67296	7611.85
325.87872	7380.95
330.08145	7282.85
334.28114	7273.55
338.47781	7338.45
342.67145	7454.55
346.86207	7627.85
351.04966	7847.65
355.23424	8059.65
359.4158	8250.35
363.59435	8372.85
367.76989	8408.85
371.94243	8452.35
376.11196	8454.25
380.27849	8457.15
384.44203	8457.55
388.60257	8469.35
392.76012	8531.65
396.91468	8599.75
401.06626	8732.65
405.21485	8827.05
409.36047	8732.05
413.50311	8515.25
417.64277	8302.15
421.77947	8178.65
425.9132	8151.95
430.04396	8189.95
434.17176	8202.65
438.2966	8275.25
442.41849	8361.85
446.53742	8510.15
450.6534	8657.15
454.76644	8778.75
458.87653	8793.15
462.98368	8768.35
467.08789	8734.35
471.18916	8661.35
475.2875	8548.25
479.38291	8435.65
483.4754	8363.75
487.56496	8313.15
491.6516	8294.85
495.73531	8270.15
499.81612	8277.95
503.89401	8348.85
507.96899	8380.65
512.04106	8439.75
516.11023	8495.15
520.1765	8508.65
524.23987	8500.35
528.30034	8481.55
532.35792	8431.85
536.41261	8375.85
540.46441	8268.65
544.51333	8225.75
548.55936	8245.15
552.60252	8354.95
556.64279	8511.55
560.6802	8549.85
564.71473	8565.15
568.7464	8653.15
572.7752	8762.65
576.80114	8771.75
580.82422	8805.55
584.84444	8942.85
588.86181	9088.05
592.87633	9238.75
596.888	9417.85
600.89682	9455.95
604.9028	9800.25
608.90594	10985.95
612.90624	12676.55
616.90371	12257.45
620.89834	9872.15
624.89015	8663.05
628.87913	8478.85
632.86528	8576.75
636.84862	8701.95
640.82913	8665.95
644.80683	8444.55
648.78172	8256.25
652.75379	8259.75
656.72306	8397.65
660.68952	8601.95
664.65319	8567.35
668.61405	8346.15
672.57211	8261.35
676.52738	8270.05
680.47986	8262.25
684.42955	8209.55
688.37646	8163.55
692.32058	8186.05
696.26192	8223.55
700.20048	8316.75
704.13626	8378.15
708.06928	8390.75
711.99952	8343.45
715.927	8338.75
719.85171	8331.25
723.77365	8331.25
727.69284	8302.45
731.60928	8276.85
735.52295	8239.55
739.43388	8278.95
743.34206	8302.65
747.24749	8306.45
751.15017	8317.25
755.05012	8360.25
758.94733	8586.55
762.8418	9052.05
766.73354	10001.75
770.62254	10936.45
774.50882	11311.15
778.39237	10904.65
782.27321	10032.25
786.15132	9222.25
790.02671	8648.45
793.89938	8376.05
797.76935	8244.35
801.6366	8175.35
805.50115	8141.05
809.36299	8105.55
813.22213	8086.45
817.07857	8087.35
820.93231	8053.15
824.78336	8047.65
828.63172	8063.15
832.47738	8048.35
836.32036	8044.45
840.16066	8038.35
843.99827	8036.65
847.8332	8035.35
851.66546	8023.75
855.49504	8054.05
859.32195	8055.05
863.1462	8023.25
866.96777	8033.65
870.78668	8030.15
874.60293	8040.65
878.41652	8036.65
882.22745	8086.05
886.03573	8120.05
889.84136	8112.55
893.64433	8075.25
897.44466	8057.05
901.24235	8044.15
905.0374	8015.95
908.8298	7970.15
912.61957	7944.85
916.40671	7963.75
920.19121	7998.05
923.97308	8040.95
927.75233	8098.75
931.52895	8100.45
935.30295	8035.05
939.07433	7921.65
942.84309	7776.65
946.60924	7721.75
950.37278	7688.75
954.13371	7684.75
957.89203	7666.85
961.64774	7641.15
965.40086	7654.75
969.15137	7639.25
972.89929	7597.45
976.64461	7615.65
980.38733	7616.55
984.12747	7598.25
987.86502	7622.75
991.59999	7639.45
995.33237	7665.95
999.06217	7746.35
1002.78939	7833.05
1006.51404	7923.45
1010.23611	8044.05
1013.95561	8122.45
1017.67255	8128.65
1021.38692	8071.25
1025.09872	7998.85
1028.80796	7871.05
1032.51465	7850.95
1036.21877	7848.35
1039.92035	7863.55
1043.61937	7913.15
1047.31584	7960.15
1051.00976	7993.35
1054.70114	8022.55
1058.38998	7994.65
1062.07627	8012.95
1065.76003	8071.65
1069.44126	8142.15
1073.11995	8242.95
1076.79611	8370.25
1080.46974	8455.15
1084.14085	8577.05
1087.80943	8689.15
1091.47549	8737.45
1095.13903	8704.85
1098.80005	8571.55
1102.45857	8412.45
1106.11456	8330.95
1109.76805	8306.85
1113.41903	8368.65
1117.06751	8463.35
1120.71348	8611.95
1124.35696	8798.35
1127.99793	8975.35
1131.63641	9008.05
1135.2724	8827.35
1138.90589	8634.95
1142.5369	8525.55
1146.16542	8427.85
1149.79145	8367.95
1153.415	8376.05
1157.03607	8402.75
1160.65467	8476.65
1164.27079	8689.15
1167.88443	8958.45
1171.49561	9396.55
1175.10432	10048.85
1178.71056	10915.45
1182.31434	11691.85
1185.91565	11999.75
1189.51451	11868.85
1193.11091	11508.25
1196.70485	10994.15
1200.29634	10564.25
1203.88538	10127.75
1207.47197	9704.15
1211.05612	9287.55
1214.63782	9037.45
1218.21708	8899.35
1221.79391	8856.25
1225.36829	8841.75
1228.94024	8841.35
1232.50976	8811.85
1236.07685	8768.35
1239.6415	8737.35
1243.20374	8761.45
1246.76355	8780.85
1250.32093	8805.35
1253.8759	8892.65
1257.42845	9025.55
1260.97859	9213.45
1264.52631	9456.05
1268.07163	9662.35
1271.61453	9854.95
1275.15503	10031.05
1278.69312	10149.05
1282.22882	10246.65
1285.76211	10446.35
1289.29301	10679.15
1292.82151	10943.65
1296.34761	11257.15
1299.87133	11698.35
1303.39266	12340.05
1306.9116	13212.65
1310.42815	14083.55
1313.94233	14533.65
1317.45412	14187.95
1320.96354	13543.65
1324.47058	12839.95
1327.97525	12232.15
1331.47754	11815.45
1334.97747	11606.65
1338.47502	11642.45
1341.97022	11796.85
1345.46305	12203.15
1348.95352	12767.35
1352.44163	13416.75
1355.92738	14269.15
1359.41078	15464.05
1362.89183	16665.75
1366.37053	16485.35
1369.84688	14656.15
1373.32088	12586.75
1376.79254	11211.95
1380.26186	10528.45
1383.72883	10184.55
1387.19347	9865.65
1390.65578	9589.95
1394.11575	9348.25
1397.57339	9221.15
1401.0287	9149.85
1404.48168	9116.45
1407.93234	9069.75
1411.38068	9029.55
1414.82669	9008.05
1418.27039	8933.85
1421.71177	8849.55
1425.15083	8732.75
1428.58758	8661.15
1432.02203	8622.95
1435.45416	8692.35
1438.88399	8736.25
1442.31151	8761.25
1445.73673	8808.05
1449.15965	8805.75
1452.58027	8846.25
1455.9986	8840.25
1459.41463	8878.25
1462.82837	8973.35
1466.23982	9143.55
1469.64898	9347.05
1473.05586	9509.05
1476.46045	9637.15
1479.86276	9784.05
1483.26279	9901.35
1486.66054	10098.15
1490.05602	10388.75
1493.44922	10848.15
1496.84016	11504.95
1500.22882	12454.95
1503.61521	13702.55
1506.99934	15015.95
1510.38121	15861.95
1513.76081	15804.55
1517.13816	14712.95
1520.51324	13243.55
1523.88607	12001.05
1527.25665	11199.25
1530.62498	10724.05
1533.99105	10445.55
1537.35488	10207.65
1540.71647	10014.45
1544.07581	9808.85
1547.4329	9679.95
1550.78776	9538.75
1554.14038	9515.95
1557.49077	9557.45
1560.83892	9675.05
1564.18484	9891.95
1567.52853	10137.05
1570.86999	10382.05
1574.20922	10565.25
1577.54624	10490.85
1580.88103	10115.15
1584.2136	9608.55
1587.54395	9332.25
1590.87208	9333.85
1594.19801	9640.55
1597.52172	10064.45
1600.84321	10231.85
1604.16251	10003.65
1607.47959	9655.05
1610.79447	9263.75
1614.10715	8822.75
1617.41763	8453.05
1620.7259	8173.95
1624.03199	7997.25
1627.33587	7918.05
1630.63757	7993.45
1633.93707	8237.55
1637.23439	8687.65
1640.52951	9445.95
1643.82246	10527.85
1647.11321	11744.55
1650.40179	12469.95
1653.68819	12151.05
1656.97241	10907.95
1660.25446	9500.55
1663.53433	8486.45
1666.81203	7840.35
1670.08756	7440.55
1673.36092	7233.85
1676.63211	7092.35
1679.90115	6988.45
1683.16801	6897.75
1686.43272	6828.15
1689.69527	6776.95
1692.95567	6730.05
1696.2139	6729.95
1699.46999	6705.65
1702.72392	6694.25
1705.97571	6655.45
1709.22535	6632.15
1712.47284	6627.65
1715.71819	6610.05
1718.96139	6590.15
1722.20246	6565.65
1725.44139	6541.35
1728.67818	6505.65
1731.91284	6453.05
1735.14537	6428.35
1738.37576	6401.45
1741.60403	6373.95
1744.83017	6354.25
1748.05418	6344.25
1751.27607	6318.05
1754.49584	6320.35
1757.71349	6291.35
1760.92903	6294.15
1764.14244	6300.95
1767.35375	6274.05
1770.56294	6276.45
1773.77002	6243.55
1776.97499	6220.45
1780.17785	6195.65
1783.37861	6178.05
1786.57727	6165.95
1789.77382	6147.55
1792.96828	6139.85
1796.16064	6109.45
1799.3509	6092.15
1802.53907	6093.55
1805.72514	6068.25
1808.90913	6038.95
1812.09102	6026.75
1815.27083	6004.35
1818.44856	5980.55
1821.6242	5974.75
1824.79776	5983.25
1827.96924	5966.55
1831.13864	5964.65
1834.30597	5947.85
1837.47122	5948.85
1840.6344	5934.55
1843.7955	5927.35
1846.95454	5910.35
1850.11151	5905.55
1853.26642	5898.55
1856.41926	5922.55
1859.57004	5901.25
1862.71876	5913.35
1865.86542	5887.35
1869.01003	5896.85
1872.15258	5864.25
1875.29308	5858.05
1878.43152	5858.15
1881.56792	5849.35
1884.70227	5823.45
1887.83457	5837.65
1890.96482	5804.75
1894.09304	5792.35
1897.21921	5780.05
1900.34335	5764.15
1903.46544	5770.15
1906.58551	5763.35
1909.70353	5754.55
1912.81953	5735.05
1915.93349	5744.55
1919.04543	5724.15
1922.15534	5707.45
1925.26322	5696.75
1928.36908	5696.85
1931.47292	5675.15
1934.57473	5652.55
1937.67453	5633.35
1940.77232	5636.95
1943.86808	5605.65
1946.96184	5602.45
1950.05358	5555.35
1953.14331	5538.35
1956.23103	5533.05
1959.31675	5522.75
1962.40046	5494.45
1965.48217	5489.45
1968.56188	5468.65
1971.63959	5436.35
1974.7153	5425.05
1977.78901	5402.45
1980.86073	5402.15
1983.93046	5393.75
1986.99819	5334.25
1990.06394	5326.35
1993.1277	5311.65
1996.18947	5294.75
1999.24925	5286.15
2002.30706	5263.45
2005.36288	5252.45
2008.41672	5222.05
2011.46859	5215.45
2014.51848	5199.35
2017.56639	5161.25
2020.61233	5140.05
2023.6563	5139.15
2026.6983	5131.25
2029.73833	5121.55
2032.7764	5091.85
2035.8125	5088.55
2038.84664	5069.55
2041.87881	5062.75
2044.90903	5058.55
2047.93729	5044.65
2050.96359	5033.55
2053.98794	5020.05
2057.01034	4988.75
2060.03078	4999.75
2063.04927	4987.75
2066.06582	4993.85
2069.08042	4997.65
2072.09307	4977.55
2075.10378	4983.75
2078.11255	4988.75
2081.11938	4967.55
2084.12426	4969.75
2087.12722	4952.25
2090.12824	4951.05
2093.12732	4946.85
2096.12447	4961.35
2099.11969	4954.95
2102.11299	4957.95
2105.10435	4961.55
2108.09379	4973.85
2111.08131	4963.05
2114.0669	4966.15
2117.05057	4975.45
2120.03233	4961.65
2123.01216	4968.65
2125.99008	4976.55
2128.96609	4975.55
2131.94018	4975.15
2134.91236	4989.45
2137.88263	4976.85
2140.851	4981.55
2143.81746	4981.05
2146.78201	4965.25
2149.74466	4974.85
2152.7054	4956.55
2155.66425	4954.85
2158.6212	4953.45
2161.57625	4943.05
2164.52941	4951.55
2167.48067	4944.75
2170.43004	4928.75
2173.37752	4931.35
2176.32311	4940.45
2179.26681	4916.55
2182.20863	4906.45
2185.14856	4920.25
2188.08661	4903.55
2191.02278	4901.25
2193.95707	4902.15
2196.88948	4878.05
2199.82001	4899.65
2202.74867	4879.65
2205.67545	4868.85
2208.60037	4885.75
2211.52341	4848.55
2214.44458	4850.35
2217.36388	4838.35
2220.28132	4820.75
2223.1969	4803.85
2226.11061	4817.55
2229.02246	4800.15
2231.93245	4777.55
2234.84058	4771.65
2237.74686	4761.05
2240.65128	4760.75
2243.55385	4760.45
2246.45456	4747.65
2249.35343	4739.45
2252.25044	4740.25
2255.14561	4724.65
2258.03893	4739.95
2260.93041	4714.15
2263.82004	4704.75
2266.70783	4694.25
2269.59378	4696.95
2272.4779	4686.35
2275.36017	4653.75
2278.24061	4646.05
2281.11922	4638.25
2283.996	4619.65
2286.87094	4619.05
2289.74405	4600.65
2292.61534	4594.45
2295.4848	4601.95
2298.35243	4583.75
2301.21824	4566.65
2304.08223	4580.25
2306.94439	4575.75
2309.80474	4562.65
2312.66327	4549.15
2315.51999	4544.25
2318.37489	4544.65
2321.22797	4529.35
2324.07925	4521.65
2326.92871	4516.35
2329.77637	4526.65
2332.62222	4516.75
2335.46626	4505.65
2338.3085	4494.65
2341.14893	4477.85
2343.98756	4480.95
2346.8244	4488.35
2349.65943	4476.05
2352.49267	4478.85
2355.32411	4473.05
2358.15376	4483.65
2360.98161	4473.95
2363.80768	4477.15
2366.63195	4477.65
2369.45444	4481.95
2372.27514	4468.25
2375.09405	4466.05
2377.91118	4451.85
2380.72652	4437.15
2383.54009	4429.45
2386.35187	4406.05
2389.16188	4390.65
2391.97011	4377.45
2394.77657	4370.35
2397.58125	4353.65
2400.38416	4329.35
2403.18529	4332.65
2405.98466	4317.05
2408.78226	4312.75
2411.57809	4310.55
2414.37216	4311.35
2417.16446	4310.45
2419.955	4298.75
2422.74378	4301.65
2425.5308	4282.45
2428.31606	4282.25
2431.09956	4277.45
2433.88131	4279.15
2436.6613	4268.15
2439.43954	4275.65
2442.21603	4269.45
2444.99077	4270.75
2447.76377	4268.15
2450.53501	4260.15
2453.30451	4268.05
2456.07226	4264.15
2458.83827	4265.05
2461.60254	4250.35
2464.36507	4233.75
2467.12586	4222.85
2469.88492	4228.35
2472.64224	4239.05
2475.39782	4229.45
2478.15167	4228.35
2480.90379	4232.95
2483.65417	4236.35
2486.40283	4238.05
2489.14976	4224.85
2491.89497	4227.05
2494.63845	4239.45
2497.3802	4217.65
2500.12024	4213.15
2502.85855	4199.15
2505.59514	4202.15
2508.33002	4177.85
2511.06318	4163.25
2513.79462	4168.55
2516.52435	4153.35
2519.25237	4141.75
2521.97867	4127.85
2524.70327	4120.85
2527.42616	4108.35
2530.14734	4106.75
2532.86681	4107.75
2535.58458	4090.45
2538.30065	4090.85
2541.01501	4086.05
2543.72768	4079.05
2546.43864	4072.45
2549.14791	4067.95
2551.85548	4072.15
2554.56136	4050.85
2557.26554	4048.25
2559.96803	4041.35
2562.66883	4029.95
2565.36794	4021.15
2568.06536	4027.95
2570.7611	4005.15
2573.45514	4009.05
2576.14751	4000.95
2578.83819	3993.05
2581.52719	3981.25
2584.21451	3963.65
2586.90015	3965.85
2589.58411	3954.15
2592.2664	3942.35
2594.94701	3947.95
2597.62594	3958.95
2600.30321	3928.45
2602.9788	3925.45
2605.65273	3914.15
2608.32498	3927.15
2610.99557	3922.35
2613.66449	3907.05
2616.33175	3901.05
2618.99734	3890.75
2621.66128	3877.15
2624.32355	3875.95
2626.98416	3874.55
2629.64311	3864.25
2632.30041	3871.25
2634.95605	3852.65
2637.61004	3847.25
2640.26238	3828.65
2642.91306	3843.55
2645.56209	3835.05
2648.20948	3833.05
2650.85521	3844.35
2653.4993	3830.25
2656.14175	3828.65
2658.78255	3818.05
2661.42171	3836.15
2664.05923	3825.65
2666.6951	3829.75
2669.32934	3835.05
2671.96194	3830.35
2674.59291	3844.35
2677.22224	3828.75
2679.84993	3837.05
2682.476	3824.05
2685.10043	3825.75
2687.72324	3800.75
2690.34441	3816.05
2692.96396	3808.35
2695.58188	3825.65
2698.19818	3816.15
2700.81285	3808.55
2703.4259	3824.55
2706.03733	3809.25
2708.64714	3800.85
2711.25533	3814.45
2713.86191	3802.15
2716.46687	3798.35
2719.07021	3802.25
2721.67194	3809.95
2724.27206	3800.15
2726.87057	3796.85
2729.46747	3790.25
2732.06276	3805.05
2734.65644	3793.55
2737.24852	3794.65
2739.83899	3790.15
2742.42786	3781.35
2745.01513	3768.75
2747.60079	3768.05
2750.18486	3755.65
2752.76733	3746.45
2755.3482	3733.35
2757.92747	3721.65
2760.50515	3731.85
2763.08123	3715.45
2765.65573	3729.05
2768.22863	3712.25
2770.79994	3697.85
2773.36967	3694.05
2775.9378	3705.65
2778.50435	3706.75
2781.06932	3683.55
2783.6327	3683.75
2786.1945	3685.05
2788.75471	3682.35
2791.31335	3670.05
2793.87041	3656.95
2796.42589	3670.05
2798.97979	3652.25
2801.53212	3650.55
2804.08288	3632.75
2806.63206	3639.05
2809.17967	3636.95
2811.72571	3621.05
2814.27018	3624.25
2816.81308	3613.35
2819.35442	3607.65
2821.89419	3593.45
2824.43239	3587.85
2826.96904	3586.85
2829.50412	3593.35
2832.03763	3579.35
2834.56959	3584.55
2837.1	3581.65
2839.62884	3582.45
2842.15613	3575.45
2844.68186	3576.45
2847.20604	3591.95
2849.72867	3593.15
2852.24974	3595.35
2854.76927	3581.85
2857.28724	3566.95
2859.80367	3564.05
2862.31855	3567.35
2864.83189	3560.45
2867.34368	3554.85
2869.85393	3560.05
2872.36264	3558.05
2874.8698	3549.35
2877.37543	3556.75
2879.87952	3537.75
2882.38207	3537.55
2884.88308	3536.25
2887.38256	3532.25
2889.88051	3539.55
2892.37692	3536.35
2894.8718	3521.25
2897.36515	3528.55
2899.85698	3540.95
2902.34727	3529.85
2904.83604	3522.45
2907.32328	3548.75
2909.809	3548.45
2912.29319	3559.95
2914.77587	3549.45
2917.25702	3539.75
2919.73665	3542.75
2922.21476	3543.65
2924.69136	3530.45
2927.16644	3537.95
2929.64	3529.45
2932.11205	3514.75
2934.58258	3500.85
2937.05161	3504.75
2939.51912	3499.15
2941.98513	3492.15
2944.44962	3492.95
2946.91261	3480.95
2949.37409	3475.15
2951.83407	3476.15
2954.29254	3472.25
2956.74951	3471.45
2959.20498	3473.05
2961.65895	3473.45
2964.11142	3455.85
2966.56239	3465.75
2969.01186	3457.65
2971.45984	3452.35
2973.90632	3442.85
2976.35131	3429.15
2978.7948	3429.25
2981.23681	3414.95
2983.67732	3422.75
2986.11635	3421.05
2988.55388	3403.25
2990.98993	3390.15
2993.4245	3384.45
2995.85758	3375.45
2998.28917	3376.05
3000.71928	3372.05
3003.14791	3359.85
3005.57506	3375.35
3008.00073	3348.95
3010.42493	3360.25
3012.84764	3335.15
3015.26888	3363.55
3017.68865	3349.85
3020.10694	3344.65
3022.52376	3333.65
3024.9391	3324.85
3027.35298	3328.05
3029.76539	3325.05
3032.17632	3322.55
3034.5858	3305.25
3036.9938	3294.85
3039.40034	3300.55
3041.80542	3286.35
3044.20903	3293.85
3046.61118	3302.35
3049.01187	3283.05
3051.4111	3293.85
3053.80888	3280.95
3056.20519	3273.95
3058.60005	3274.25
3060.99345	3263.15
3063.3854	3252.85
3065.7759	3258.35
3068.16494	3252.95
3070.55254	3260.15
3072.93868	3233.95
3075.32338	3238.65
3077.70662	3232.75
3080.08842	3226.25
3082.46878	3225.15
3084.84769	3220.15
3087.22515	3238.75
3089.60118	3228.25
3091.97576	3225.45
3094.3489	3231.15
3096.72061	3224.25
3099.09087	3222.45
3101.4597	3222.55
3103.82709	3234.15
3106.19305	3219.35
3108.55757	3237.05
3110.92066	3214.35
3113.28232	3222.95
3115.64255	3205.55
3118.00134	3210.65
3120.35871	3214.15
3122.71466	3204.55
3125.06917	3209.65
3127.42226	3199.05
3129.77393	3209.25
3132.12417	3202.45
3134.47299	3210.55
3136.82039	3203.45
3139.16636	3206.15
3141.51092	3204.95
3143.85406	3209.35
3146.19579	3208.45
3148.53609	3218.85
3150.87499	3224.85
3153.21246	3231.25
3155.54853	3239.45
3157.88318	3241.15
3160.21642	3245.45
3162.54826	3250.85
3164.87868	3249.25
3167.2077	3236.05
3169.5353	3241.95
3171.86151	3256.35
3174.18631	3255.25
3176.5097	3251.85
3178.83169	3246.55
3181.15228	3242.45
3183.47147	3230.75
3185.78926	3240.95
3188.10565	3231.25
3190.42065	3239.75
3192.73424	3246.95
3195.04645	3242.95
3197.35725	3243.35
3199.66667	3231.35
3201.97469	3237.95
3204.28132	3252.45
3206.58656	3257.35
3208.8904	3262.35
3211.19287	3257.65
3213.49394	3246.95
3215.79363	3269.55
3218.09193	3276.45
3220.38884	3261.25
3222.68438	3281.05
3224.97853	3278.65
3227.2713	3275.25
3229.56269	3271.45
3231.8527	3270.75
3234.14133	3259.35
3236.42858	3248.85
3238.71446	3245.55
3240.99896	3243.55
3243.28209	3226.85
3245.56384	3241.15
3247.84423	3226.65
3250.12324	3239.05
3252.40088	3235.25
3254.67715	3213.25
3256.95205	3222.05
3259.22558	3224.15
3261.49775	3217.65
3263.76855	3224.15
3266.03799	3223.95
3268.30606	3226.45
3270.57277	3205.25
3272.83812	3193.95
3275.10211	3180.25
3277.36474	3188.45
3279.62601	3188.15
3281.88593	3174.25
3284.14448	3168.35
3286.40168	3181.05
3288.65753	3180.15
3290.91202	3185.25
3293.16516	3174.45
3295.41695	3166.85
3297.66738	3134.45
3299.91647	3133.35
3302.16421	3114.85
3304.4106	3115.65
3306.65564	3091.75
3308.89933	3075.25
3311.14169	3043.15
3313.38269	3030.35
3315.62236	3001.55
3317.86068	2972.55
3320.09766	2963.05
3322.3333	2950.85
3324.5676	2947.75
3326.80056	2903.85
3329.03219	2882.65
3331.26248	1.85
3333.49143	0.15
3335.71905	0.35
