Data from AgNP_FTO_APTES_UA_100uM_CRN_2uM_R6G_10uM_NaF_0.1M_Addition_RamanShift__9__13-55-20-300.txt Node

Date: Thu Mar 24 13:55:20 GMT 2022
User: TCL
Spectrometer: QEP01345
Trigger mode: 4
Integration Time (sec): 7.000000E0
Scans to average: 10
Electric dark correction enabled: true
Nonlinearity correction enabled: false
Boxcar width: 0
XAxis mode: Raman Shifts
Number of Pixels in Spectrum: 1044
>>>>>Begin Spectral Data<<<<<
46.04893	-1.75
50.45542	-0.15
54.85868	1.15
59.25871	-0.15
63.6555	36.35
68.04907	40.15
72.43941	39.85
76.82654	42.85
81.21044	45.85
85.59113	45.65
89.96862	51.45
94.34289	47.15
98.71396	51.65
103.08183	51.75
107.4465	54.25
111.80798	52.85
116.16626	53.55
120.52136	58.25
124.87327	59.45
129.222	58.35
133.56755	67.35
137.90993	65.05
142.24913	81.05
146.58517	85.25
150.91804	98.95
155.24774	117.65
159.57429	148.25
163.89768	190.75
168.21792	251.75
172.53501	343.25
176.84895	478.05
181.15975	676.65
185.46741	941.35
189.77193	1300.75
194.07331	1744.95
198.37157	2263.95
202.6667	2814.45
206.9587	3341.25
211.24758	3904.35
215.53334	4427.55
219.81599	4994.25
224.09553	5647.75
228.37195	6358.75
232.64527	7171.95
236.91549	7982.85
241.18261	8787.55
245.44663	9473.35
249.70755	10061.55
253.96539	10584.75
258.22014	11001.55
262.4718	11336.45
266.72039	11582.25
270.96589	11702.55
275.20832	11679.35
279.44768	11597.45
283.68397	11512.45
287.91719	11414.45
292.14735	11407.95
296.37445	11465.25
300.59849	11607.35
304.81948	11804.55
309.03742	11990.95
313.25231	11977.25
317.46415	11771.75
321.67296	11380.25
325.87872	10986.55
330.08145	10788.05
334.28114	10812.05
338.47781	10864.95
342.67145	11041.55
346.86207	11259.45
351.04966	11527.25
355.23424	11812.35
359.4158	12052.35
363.59435	12137.85
367.76989	12173.95
371.94243	12152.65
376.11196	12155.75
380.27849	12126.55
384.44203	12134.05
388.60257	12162.35
392.76012	12259.55
396.91468	12388.55
401.06626	12651.85
405.21485	12799.15
409.36047	12679.15
413.50311	12346.65
417.64277	12053.15
421.77947	11887.65
425.9132	11866.15
430.04396	11917.15
434.17176	11995.75
438.2966	12068.85
442.41849	12193.45
446.53742	12404.25
450.6534	12663.05
454.76644	12853.15
458.87653	12912.05
462.98368	12865.05
467.08789	12798.35
471.18916	12675.55
475.2875	12478.65
479.38291	12354.45
483.4754	12223.25
487.56496	12159.85
491.6516	12073.35
495.73531	12029.25
499.81612	12015.15
503.89401	12070.25
507.96899	12148.15
512.04106	12171.75
516.11023	12222.55
520.1765	12170.65
524.23987	12142.05
528.30034	12069.05
532.35792	11944.15
536.41261	11828.35
540.46441	11678.85
544.51333	11655.85
548.55936	11781.25
552.60252	11992.05
556.64279	12260.15
560.6802	12395.35
564.71473	12462.25
568.7464	12673.85
572.7752	12968.55
576.80114	13224.85
580.82422	13456.45
584.84444	13702.75
588.86181	13830.55
592.87633	13998.95
596.888	14054.05
600.89682	14026.75
604.9028	14476.05
608.90594	16215.45
612.90624	18385.35
616.90371	17528.55
620.89834	14046.25
624.89015	12336.55
628.87913	12054.15
632.86528	12216.55
636.84862	12405.35
640.82913	12299.65
644.80683	11928.45
648.78172	11653.75
652.75379	11632.75
656.72306	11818.25
660.68952	12115.05
664.65319	12083.55
668.61405	11786.05
672.57211	11686.45
676.52738	11666.75
680.47986	11624.95
684.42955	11550.75
688.37646	11471.25
692.32058	11482.85
696.26192	11606.25
700.20048	11726.85
704.13626	11882.35
708.06928	11942.95
711.99952	11888.05
715.927	11814.45
719.85171	11799.55
723.77365	11797.75
727.69284	11719.15
731.60928	11581.85
735.52295	11549.55
739.43388	11548.05
743.34206	11573.35
747.24749	11666.25
751.15017	11738.15
755.05012	11930.55
758.94733	12300.15
762.8418	13191.55
766.73354	14730.75
770.62254	16203.95
774.50882	16560.65
778.39237	15636.75
782.27321	14264.85
786.15132	13002.05
790.02671	12223.15
793.89938	11808.15
797.76935	11593.95
801.6366	11491.95
805.50115	11435.75
809.36299	11382.45
813.22213	11317.85
817.07857	11293.25
820.93231	11303.65
824.78336	11277.15
828.63172	11271.05
832.47738	11284.55
836.32036	11235.45
840.16066	11220.35
843.99827	11212.95
847.8332	11193.15
851.66546	11223.95
855.49504	11233.85
859.32195	11234.25
863.1462	11194.65
866.96777	11203.15
870.78668	11159.05
874.60293	11204.05
878.41652	11209.05
882.22745	11260.55
886.03573	11292.25
889.84136	11288.85
893.64433	11290.25
897.44466	11266.85
901.24235	11243.25
905.0374	11212.15
908.8298	11169.25
912.61957	11128.45
916.40671	11193.15
920.19121	11321.05
923.97308	11439.15
927.75233	11475.75
931.52895	11405.95
935.30295	11236.75
939.07433	11013.25
942.84309	10842.75
946.60924	10747.75
950.37278	10672.45
954.13371	10631.55
957.89203	10662.95
961.64774	10637.65
965.40086	10633.25
969.15137	10644.45
972.89929	10600.85
976.64461	10576.75
980.38733	10561.05
984.12747	10566.05
987.86502	10587.05
991.59999	10621.65
995.33237	10701.75
999.06217	10806.35
1002.78939	10961.05
1006.51404	11136.75
1010.23611	11367.05
1013.95561	11473.85
1017.67255	11490.25
1021.38692	11368.35
1025.09872	11214.75
1028.80796	11059.25
1032.51465	10998.45
1036.21877	11012.05
1039.92035	11058.35
1043.61937	11130.65
1047.31584	11214.25
1051.00976	11263.75
1054.70114	11313.85
1058.38998	11332.75
1062.07627	11430.25
1065.76003	11540.25
1069.44126	11688.65
1073.11995	11908.35
1076.79611	12127.25
1080.46974	12238.35
1084.14085	12354.75
1087.80943	12509.45
1091.47549	12648.25
1095.13903	12635.05
1098.80005	12410.95
1102.45857	12135.95
1106.11456	11903.55
1109.76805	11828.35
1113.41903	11848.25
1117.06751	12006.95
1120.71348	12215.25
1124.35696	12513.85
1127.99793	12772.65
1131.63641	12803.45
1135.2724	12589.45
1138.90589	12356.85
1142.5369	12237.15
1146.16542	12166.05
1149.79145	12139.55
1153.415	12173.55
1157.03607	12235.05
1160.65467	12456.85
1164.27079	12779.75
1167.88443	13289.95
1171.49561	14086.45
1175.10432	15204.75
1178.71056	16666.95
1182.31434	17862.15
1185.91565	18341.95
1189.51451	18239.75
1193.11091	17737.95
1196.70485	17015.65
1200.29634	16227.65
1203.88538	15552.45
1207.47197	14834.65
1211.05612	14251.25
1214.63782	13821.95
1218.21708	13541.75
1221.79391	13402.15
1225.36829	13325.15
1228.94024	13320.55
1232.50976	13257.75
1236.07685	13126.15
1239.6415	13029.55
1243.20374	13006.55
1246.76355	13051.25
1250.32093	13134.55
1253.8759	13333.75
1257.42845	13628.75
1260.97859	14035.45
1264.52631	14427.15
1268.07163	14871.75
1271.61453	15200.35
1275.15503	15515.15
1278.69312	15764.95
1282.22882	16016.15
1285.76211	16412.55
1289.29301	16896.45
1292.82151	17437.55
1296.34761	18031.05
1299.87133	18858.15
1303.39266	19898.75
1306.9116	21244.85
1310.42815	22557.25
1313.94233	23182.35
1317.45412	22801.45
1320.96354	21966.65
1324.47058	21157.15
1327.97525	20487.55
1331.47754	20007.05
1334.97747	19783.05
1338.47502	19815.65
1341.97022	20035.85
1345.46305	20494.05
1348.95352	21112.85
1352.44163	21806.85
1355.92738	22722.15
1359.41078	24216.45
1362.89183	25796.45
1366.37053	25651.85
1369.84688	23145.65
1373.32088	20111.15
1376.79254	18013.45
1380.26186	16928.85
1383.72883	16363.25
1387.19347	16033.05
1390.65578	15645.05
1394.11575	15330.35
1397.57339	15125.35
1401.0287	14976.05
1404.48168	14876.55
1407.93234	14729.25
1411.38068	14551.45
1414.82669	14320.85
1418.27039	14075.45
1421.71177	13774.75
1425.15083	13463.75
1428.58758	13234.15
1432.02203	13235.15
1435.45416	13409.15
1438.88399	13582.35
1442.31151	13723.15
1445.73673	13916.25
1449.15965	13986.05
1452.58027	14045.25
1455.9986	14088.65
1459.41463	14225.75
1462.82837	14429.85
1466.23982	14774.65
1469.64898	15096.55
1473.05586	15402.45
1476.46045	15579.55
1479.86276	15782.35
1483.26279	15980.15
1486.66054	16209.75
1490.05602	16641.55
1493.44922	17286.05
1496.84016	18282.85
1500.22882	19702.25
1503.61521	21454.45
1506.99934	23273.75
1510.38121	24452.15
1513.76081	24345.45
1517.13816	22994.95
1520.51324	21053.45
1523.88607	19398.45
1527.25665	18380.55
1530.62498	17748.65
1533.99105	17389.85
1537.35488	17019.15
1540.71647	16584.95
1544.07581	16154.85
1547.4329	15723.25
1550.78776	15383.55
1554.14038	15196.85
1557.49077	15199.45
1560.83892	15325.45
1564.18484	15633.35
1567.52853	16041.85
1570.86999	16389.05
1574.20922	16598.65
1577.54624	16511.05
1580.88103	15960.55
1584.2136	15215.15
1587.54395	14861.15
1590.87208	14945.65
1594.19801	15494.45
1597.52172	16318.05
1600.84321	16599.15
1604.16251	16115.45
1607.47959	15354.55
1610.79447	14559.95
1614.10715	13731.75
1617.41763	12977.35
1620.7259	12373.35
1624.03199	12023.65
1627.33587	11918.05
1630.63757	12062.45
1633.93707	12518.95
1637.23439	13343.95
1640.52951	14747.35
1643.82246	16681.95
1647.11321	18800.55
1650.40179	20033.55
1653.68819	19545.65
1656.97241	17541.05
1660.25446	15067.55
1663.53433	13080.05
1666.81203	11816.35
1670.08756	11026.55
1673.36092	10577.65
1676.63211	10306.45
1679.90115	10085.35
1683.16801	9939.75
1686.43272	9828.65
1689.69527	9730.35
1692.95567	9644.35
1696.2139	9599.15
1699.46999	9526.85
1702.72392	9518.45
1705.97571	9467.05
1709.22535	9470.45
1712.47284	9430.25
1715.71819	9415.25
1718.96139	9391.65
1722.20246	9339.85
1725.44139	9310.35
1728.67818	9255.85
1731.91284	9182.15
1735.14537	9106.85
1738.37576	9061.35
1741.60403	9019.05
1744.83017	8988.75
1748.05418	8978.05
1751.27607	8938.35
1754.49584	8942.45
1757.71349	8897.85
1760.92903	8897.65
1764.14244	8893.15
1767.35375	8880.85
1770.56294	8859.95
1773.77002	8807.15
1776.97499	8804.75
1780.17785	8793.35
1783.37861	8767.25
1786.57727	8733.25
1789.77382	8705.45
1792.96828	8704.25
1796.16064	8676.05
1799.3509	8659.45
1802.53907	8661.65
1805.72514	8616.35
1808.90913	8601.35
1812.09102	8576.75
1815.27083	8537.55
1818.44856	8523.35
1821.6242	8505.05
1824.79776	8490.25
1827.96924	8479.35
1831.13864	8460.25
1834.30597	8458.25
1837.47122	8426.15
1840.6344	8395.15
1843.7955	8400.75
1846.95454	8404.55
1850.11151	8383.35
1853.26642	8381.35
1856.41926	8387.05
1859.57004	8367.55
1862.71876	8347.45
1865.86542	8337.95
1869.01003	8327.25
1872.15258	8323.95
1875.29308	8296.15
1878.43152	8273.15
1881.56792	8269.35
1884.70227	8262.75
1887.83457	8254.65
1890.96482	8224.05
1894.09304	8227.15
1897.21921	8215.25
1900.34335	8214.25
1903.46544	8185.45
1906.58551	8188.35
1909.70353	8192.25
1912.81953	8160.55
1915.93349	8149.05
1919.04543	8141.55
1922.15534	8105.25
1925.26322	8092.75
1928.36908	8070.45
1931.47292	8051.45
1934.57473	8007.95
1937.67453	8009.25
1940.77232	7989.35
1943.86808	7976.85
1946.96184	7942.85
1950.05358	7927.75
1953.14331	7892.35
1956.23103	7881.75
1959.31675	7864.45
1962.40046	7824.95
1965.48217	7819.05
1968.56188	7781.95
1971.63959	7778.95
1974.7153	7735.35
1977.78901	7717.15
1980.86073	7696.85
1983.93046	7668.55
1986.99819	7631.95
1990.06394	7583.05
1993.1277	7559.85
1996.18947	7543.25
1999.24925	7522.15
2002.30706	7488.25
2005.36288	7444.65
2008.41672	7445.15
2011.46859	7419.35
2014.51848	7404.05
2017.56639	7381.85
2020.61233	7332.25
2023.6563	7333.25
2026.6983	7309.55
2029.73833	7280.75
2032.7764	7254.15
2035.8125	7228.05
2038.84664	7219.15
2041.87881	7209.75
2044.90903	7192.35
2047.93729	7165.45
2050.96359	7155.25
2053.98794	7134.15
2057.01034	7118.75
2060.03078	7118.05
2063.04927	7093.85
2066.06582	7080.55
2069.08042	7093.25
2072.09307	7055.15
2075.10378	7053.65
2078.11255	7071.35
2081.11938	7071.05
2084.12426	7050.85
2087.12722	7063.15
2090.12824	7061.65
2093.12732	7070.25
2096.12447	7060.15
2099.11969	7060.55
2102.11299	7068.05
2105.10435	7074.15
2108.09379	7053.35
2111.08131	7047.25
2114.0669	7072.35
2117.05057	7069.75
2120.03233	7076.15
2123.01216	7079.25
2125.99008	7065.85
2128.96609	7070.95
2131.94018	7064.25
2134.91236	7065.15
2137.88263	7051.25
2140.851	7079.05
2143.81746	7076.05
2146.78201	7076.45
2149.74466	7075.35
2152.7054	7073.15
2155.66425	7050.05
2158.6212	7061.55
2161.57625	7051.95
2164.52941	7036.75
2167.48067	7033.95
2170.43004	7018.85
2173.37752	7034.05
2176.32311	7005.75
2179.26681	6999.05
2182.20863	6987.05
2185.14856	7004.85
2188.08661	6989.65
2191.02278	6996.15
2193.95707	6957.25
2196.88948	6935.95
2199.82001	6943.55
2202.74867	6935.55
2205.67545	6942.65
2208.60037	6926.65
2211.52341	6907.15
2214.44458	6885.25
2217.36388	6872.05
2220.28132	6864.35
2223.1969	6859.25
2226.11061	6843.25
2229.02246	6823.95
2231.93245	6800.15
2234.84058	6779.05
2237.74686	6765.55
2240.65128	6747.35
2243.55385	6756.65
2246.45456	6743.65
2249.35343	6723.05
2252.25044	6725.65
2255.14561	6734.55
2258.03893	6712.95
2260.93041	6696.05
2263.82004	6684.15
2266.70783	6671.55
2269.59378	6662.35
2272.4779	6633.35
2275.36017	6619.75
2278.24061	6603.85
2281.11922	6605.95
2283.996	6574.35
2286.87094	6574.35
2289.74405	6546.95
2292.61534	6536.45
2295.4848	6522.05
2298.35243	6521.95
2301.21824	6518.75
2304.08223	6513.55
2306.94439	6491.75
2309.80474	6485.55
2312.66327	6484.95
2315.51999	6484.35
2318.37489	6447.95
2321.22797	6456.35
2324.07925	6439.75
2326.92871	6429.25
2329.77637	6408.45
2332.62222	6413.55
2335.46626	6401.75
2338.3085	6403.75
2341.14893	6385.65
2343.98756	6390.25
2346.8244	6375.65
2349.65943	6371.95
2352.49267	6366.95
2355.32411	6371.55
2358.15376	6383.35
2360.98161	6376.05
2363.80768	6365.95
2366.63195	6385.65
2369.45444	6380.45
2372.27514	6379.45
2375.09405	6366.15
2377.91118	6341.05
2380.72652	6313.25
2383.54009	6312.35
2386.35187	6299.95
2389.16188	6271.45
2391.97011	6262.75
2394.77657	6261.55
2397.58125	6225.75
2400.38416	6206.45
2403.18529	6176.05
2405.98466	6184.05
2408.78226	6179.75
2411.57809	6166.15
2414.37216	6134.85
2417.16446	6139.65
2419.955	6106.25
2422.74378	6122.05
2425.5308	6114.85
2428.31606	6122.95
2431.09956	6123.55
2433.88131	6100.35
2436.6613	6086.15
2439.43954	6095.75
2442.21603	6102.65
2444.99077	6056.65
2447.76377	6084.45
2450.53501	6090.25
2453.30451	6074.95
2456.07226	6049.95
2458.83827	6063.25
2461.60254	6059.45
2464.36507	6044.75
2467.12586	6050.45
2469.88492	6043.45
2472.64224	6045.55
2475.39782	6046.05
2478.15167	6045.75
2480.90379	6030.85
2483.65417	6043.75
2486.40283	6045.05
2489.14976	6051.05
2491.89497	6050.05
2494.63845	6046.15
2497.3802	6019.55
2500.12024	6026.15
2502.85855	6031.75
2505.59514	6015.05
2508.33002	6010.85
2511.06318	5986.15
2513.79462	5959.85
2516.52435	5964.15
2519.25237	5945.75
2521.97867	5942.45
2524.70327	5944.25
2527.42616	5910.45
2530.14734	5896.75
2532.86681	5885.75
2535.58458	5889.95
2538.30065	5860.85
2541.01501	5865.35
2543.72768	5845.55
2546.43864	5840.45
2549.14791	5844.45
2551.85548	5826.15
2554.56136	5825.85
2557.26554	5815.45
2559.96803	5807.65
2562.66883	5797.35
2565.36794	5796.15
2568.06536	5801.65
2570.7611	5768.95
2573.45514	5765.95
2576.14751	5753.65
2578.83819	5752.65
2581.52719	5728.95
2584.21451	5729.05
2586.90015	5726.15
2589.58411	5682.75
2592.2664	5698.75
2594.94701	5671.85
2597.62594	5662.95
2600.30321	5637.55
2602.9788	5642.45
2605.65273	5634.15
2608.32498	5653.35
2610.99557	5623.55
2613.66449	5617.95
2616.33175	5612.75
2618.99734	5599.45
2621.66128	5603.05
2624.32355	5595.85
2626.98416	5597.45
2629.64311	5577.95
2632.30041	5569.55
2634.95605	5560.45
2637.61004	5555.45
2640.26238	5531.35
2642.91306	5543.15
2645.56209	5530.85
2648.20948	5519.45
2650.85521	5536.15
2653.4993	5522.55
2656.14175	5522.75
2658.78255	5531.65
2661.42171	5519.45
2664.05923	5522.35
2666.6951	5524.05
2669.32934	5540.65
2671.96194	5518.05
2674.59291	5521.35
2677.22224	5505.05
2679.84993	5551.85
2682.476	5508.85
2685.10043	5523.15
2687.72324	5505.15
2690.34441	5514.65
2692.96396	5512.65
2695.58188	5524.35
2698.19818	5505.15
2700.81285	5499.25
2703.4259	5493.75
2706.03733	5494.85
2708.64714	5484.75
2711.25533	5495.95
2713.86191	5489.65
2716.46687	5483.85
2719.07021	5492.35
2721.67194	5488.65
2724.27206	5481.25
2726.87057	5493.45
2729.46747	5476.35
2732.06276	5472.45
2734.65644	5477.65
2737.24852	5479.55
2739.83899	5469.25
2742.42786	5465.85
2745.01513	5430.85
2747.60079	5445.65
2750.18486	5425.45
2752.76733	5432.85
2755.3482	5414.55
2757.92747	5413.25
2760.50515	5416.05
2763.08123	5390.85
2765.65573	5384.45
2768.22863	5401.15
2770.79994	5380.95
2773.36967	5366.45
2775.9378	5365.25
2778.50435	5355.25
2781.06932	5357.15
2783.6327	5349.75
2786.1945	5336.75
2788.75471	5327.65
2791.31335	5319.15
2793.87041	5323.75
2796.42589	5307.95
2798.97979	5295.05
2801.53212	5282.75
2804.08288	5284.15
2806.63206	5280.15
2809.17967	5277.25
2811.72571	5255.15
2814.27018	5252.05
2816.81308	5244.85
2819.35442	5234.35
2821.89419	5220.85
2824.43239	5230.05
2826.96904	5219.15
2829.50412	5215.35
2832.03763	5234.35
2834.56959	5198.55
2837.1	5194.45
2839.62884	5201.05
2842.15613	5196.45
2844.68186	5196.45
2847.20604	5203.85
2849.72867	5206.95
2852.24974	5191.35
2854.76927	5177.25
2857.28724	5166.95
2859.80367	5181.55
2862.31855	5175.95
2864.83189	5183.35
2867.34368	5171.55
2869.85393	5166.25
2872.36264	5172.75
2874.8698	5176.55
2877.37543	5175.45
2879.87952	5177.25
2882.38207	5180.35
2884.88308	5162.45
2887.38256	5157.15
2889.88051	5158.15
2892.37692	5140.95
2894.8718	5139.75
2897.36515	5144.95
2899.85698	5144.65
2902.34727	5160.65
2904.83604	5165.75
2907.32328	5154.35
2909.809	5168.85
2912.29319	5159.65
2914.77587	5153.55
2917.25702	5156.35
2919.73665	5156.05
2922.21476	5155.55
2924.69136	5146.15
2927.16644	5146.15
2929.64	5118.75
2932.11205	5107.85
2934.58258	5087.55
2937.05161	5100.35
2939.51912	5096.55
2941.98513	5087.05
2944.44962	5084.35
2946.91261	5058.45
2949.37409	5059.85
2951.83407	5062.85
2954.29254	5036.15
2956.74951	5040.65
2959.20498	5035.35
2961.65895	5000.75
2964.11142	5003.05
2966.56239	5001.05
2969.01186	4982.55
2971.45984	4993.55
2973.90632	4973.35
2976.35131	4954.95
2978.7948	4951.35
2981.23681	4951.35
2983.67732	4928.25
2986.11635	4906.05
2988.55388	4921.85
2990.98993	4920.65
2993.4245	4897.45
2995.85758	4891.15
2998.28917	4891.45
3000.71928	4877.75
3003.14791	4853.15
3005.57506	4842.15
3008.00073	4850.25
3010.42493	4857.65
3012.84764	4846.15
3015.26888	4835.55
3017.68865	4815.45
3020.10694	4796.25
3022.52376	4789.35
3024.9391	4787.15
3027.35298	4774.35
3029.76539	4774.05
3032.17632	4766.65
3034.5858	4763.95
3036.9938	4752.95
3039.40034	4734.65
3041.80542	4734.15
3044.20903	4710.95
3046.61118	4713.55
3049.01187	4690.25
3051.4111	4692.15
3053.80888	4669.85
3056.20519	4669.75
3058.60005	4660.05
3060.99345	4661.55
3063.3854	4665.15
3065.7759	4638.65
3068.16494	4656.65
3070.55254	4633.45
3072.93868	4626.75
3075.32338	4609.95
3077.70662	4610.45
3080.08842	4593.45
3082.46878	4605.35
3084.84769	4585.55
3087.22515	4577.35
3089.60118	4572.35
3091.97576	4567.65
3094.3489	4565.05
3096.72061	4552.45
3099.09087	4572.45
3101.4597	4553.25
3103.82709	4552.35
3106.19305	4560.65
3108.55757	4576.65
3110.92066	4542.45
3113.28232	4544.85
3115.64255	4511.95
3118.00134	4504.65
3120.35871	4505.65
3122.71466	4498.25
3125.06917	4506.05
3127.42226	4492.65
3129.77393	4511.65
3132.12417	4503.15
3134.47299	4497.95
3136.82039	4496.25
3139.16636	4507.05
3141.51092	4501.25
3143.85406	4506.65
3146.19579	4517.25
3148.53609	4510.25
3150.87499	4508.65
3153.21246	4518.15
3155.54853	4516.55
3157.88318	4510.45
3160.21642	4498.55
3162.54826	4497.85
3164.87868	4497.05
3167.2077	4499.35
3169.5353	4500.75
3171.86151	4506.65
3174.18631	4493.55
3176.5097	4494.65
3178.83169	4504.25
3181.15228	4485.75
3183.47147	4479.75
3185.78926	4486.45
3188.10565	4485.75
3190.42065	4470.85
3192.73424	4501.15
3195.04645	4468.05
3197.35725	4499.75
3199.66667	4497.15
3201.97469	4505.75
3204.28132	4491.25
3206.58656	4488.75
3208.8904	4499.15
3211.19287	4508.25
3213.49394	4487.65
3215.79363	4489.65
3218.09193	4490.65
3220.38884	4493.75
3222.68438	4489.45
3224.97853	4479.45
3227.2713	4471.15
3229.56269	4471.45
3231.8527	4467.15
3234.14133	4442.35
3236.42858	4453.25
3238.71446	4452.95
3240.99896	4439.25
3243.28209	4435.45
3245.56384	4436.65
3247.84423	4431.75
3250.12324	4433.05
3252.40088	4412.95
3254.67715	4421.05
3256.95205	4411.75
3259.22558	4399.85
3261.49775	4392.25
3263.76855	4381.45
3266.03799	4385.25
3268.30606	4376.15
3270.57277	4358.95
3272.83812	4352.55
3275.10211	4351.45
3277.36474	4344.35
3279.62601	4350.85
3281.88593	4333.85
3284.14448	4346.15
3286.40168	4336.85
3288.65753	4333.65
3290.91202	4334.85
3293.16516	4294.25
3295.41695	4295.95
3297.66738	4264.65
3299.91647	4252.75
3302.16421	4255.45
3304.4106	4242.75
3306.65564	4222.25
3308.89933	4180.75
3311.14169	4161.85
3313.38269	4134.85
3315.62236	4107.35
3317.86068	4071.55
3320.09766	4027.35
3322.3333	3992.45
3324.5676	3993.95
3326.80056	3926.15
3329.03219	3922.25
3331.26248	1.15
3333.49143	-1.25
3335.71905	1.15
