Data from AgNP_FTO_APTES_UA_100uM_CRN_20uM_R6G_10uM_NaF_0.1M_Addition_RamanShift__21__16-50-20-500.txt Node

Date: Thu Mar 24 16:50:20 GMT 2022
User: TCL
Spectrometer: QEP01345
Trigger mode: 4
Integration Time (sec): 7.000000E0
Scans to average: 10
Electric dark correction enabled: true
Nonlinearity correction enabled: false
Boxcar width: 0
XAxis mode: Raman Shifts
Number of Pixels in Spectrum: 1044
>>>>>Begin Spectral Data<<<<<
46.04893	-2.35
50.45542	-0.05
54.85868	0.35
59.25871	0.15
63.6555	44.95
68.04907	44.55
72.43941	44.25
76.82654	46.15
81.21044	49.95
85.59113	52.05
89.96862	54.05
94.34289	54.15
98.71396	56.15
103.08183	56.25
107.4465	57.85
111.80798	63.95
116.16626	61.85
120.52136	63.25
124.87327	64.45
129.222	70.55
133.56755	73.65
137.90993	81.45
142.24913	92.65
146.58517	101.15
150.91804	118.75
155.24774	139.95
159.57429	179.75
163.89768	238.95
168.21792	319.75
172.53501	439.45
176.84895	617.35
181.15975	869.95
185.46741	1217.15
189.77193	1684.75
194.07331	2269.05
198.37157	2926.85
202.6667	3633.95
206.9587	4325.35
211.24758	5056.05
215.53334	5813.15
219.81599	6654.85
224.09553	7594.15
228.37195	8653.75
232.64527	9787.65
236.91549	10971.35
241.18261	12008.15
245.44663	12853.25
249.70755	13493.85
253.96539	14073.45
258.22014	14531.25
262.4718	14992.85
266.72039	15320.85
270.96589	15430.45
275.20832	15367.45
279.44768	15147.35
283.68397	14868.55
287.91719	14696.95
292.14735	14703.15
296.37445	14999.05
300.59849	15479.55
304.81948	16096.65
309.03742	16545.05
313.25231	16560.35
317.46415	15977.45
321.67296	15032.25
325.87872	14185.35
330.08145	13726.25
334.28114	13655.95
338.47781	13842.85
342.67145	14139.45
346.86207	14598.05
351.04966	15273.05
355.23424	15979.75
359.4158	16504.85
363.59435	16794.65
367.76989	16865.45
371.94243	16861.05
376.11196	16765.95
380.27849	16670.65
384.44203	16545.25
388.60257	16451.75
392.76012	16426.65
396.91468	16547.65
401.06626	16870.95
405.21485	17081.35
409.36047	16769.85
413.50311	16023.65
417.64277	15231.75
421.77947	14857.55
425.9132	14682.25
430.04396	14693.15
434.17176	14824.15
438.2966	14984.75
442.41849	15327.65
446.53742	15839.35
450.6534	16324.15
454.76644	16586.15
458.87653	16592.85
462.98368	16388.75
467.08789	16117.85
471.18916	15806.55
475.2875	15449.85
479.38291	15135.05
483.4754	14867.95
487.56496	14650.25
491.6516	14509.65
495.73531	14396.75
499.81612	14375.65
503.89401	14508.95
507.96899	14626.65
512.04106	14741.15
516.11023	14858.15
520.1765	14938.85
524.23987	14942.15
528.30034	14877.75
532.35792	14692.85
536.41261	14481.45
540.46441	14210.05
544.51333	14083.35
548.55936	14254.35
552.60252	14647.45
556.64279	15090.45
560.6802	15277.05
564.71473	15449.35
568.7464	15872.25
572.7752	16275.75
576.80114	16120.35
580.82422	15920.05
584.84444	15953.55
588.86181	16204.95
592.87633	16550.45
596.888	16757.35
600.89682	16922.85
604.9028	18372.05
608.90594	22738.65
612.90624	28369.55
616.90371	26754.65
620.89834	18998.15
624.89015	15331.45
628.87913	14709.75
632.86528	14954.85
636.84862	15270.45
640.82913	14970.65
644.80683	14221.75
648.78172	13669.35
652.75379	13633.65
656.72306	14118.15
660.68952	14801.55
664.65319	14582.85
668.61405	13867.05
672.57211	13546.35
676.52738	13573.45
680.47986	13561.05
684.42955	13397.45
688.37646	13276.25
692.32058	13315.35
696.26192	13456.45
700.20048	13674.35
704.13626	13821.15
708.06928	13773.75
711.99952	13661.85
715.927	13612.65
719.85171	13702.75
723.77365	13765.45
727.69284	13656.85
731.60928	13522.35
735.52295	13503.35
739.43388	13553.05
743.34206	13602.95
747.24749	13659.85
751.15017	13729.35
755.05012	13948.55
758.94733	14662.35
762.8418	16409.25
766.73354	19388.45
770.62254	22303.95
774.50882	23381.05
778.39237	22047.55
782.27321	19070.15
786.15132	16271.95
790.02671	14606.35
793.89938	13840.85
797.76935	13476.85
801.6366	13322.45
805.50115	13228.95
809.36299	13131.45
813.22213	13054.55
817.07857	13034.35
820.93231	12978.75
824.78336	12986.15
828.63172	13006.25
832.47738	13011.05
836.32036	12962.25
840.16066	12932.25
843.99827	12928.75
847.8332	12888.05
851.66546	12857.75
855.49504	12869.25
859.32195	12878.65
863.1462	12850.75
866.96777	12808.65
870.78668	12800.55
874.60293	12835.15
878.41652	12883.15
882.22745	12980.15
886.03573	13062.35
889.84136	13041.75
893.64433	12964.75
897.44466	12894.15
901.24235	12847.95
905.0374	12791.15
908.8298	12717.55
912.61957	12651.45
916.40671	12694.75
920.19121	12841.75
923.97308	13024.25
927.75233	13134.05
931.52895	13210.15
935.30295	13009.35
939.07433	12635.45
942.84309	12363.85
946.60924	12179.85
950.37278	12112.35
954.13371	12060.15
957.89203	12035.15
961.64774	11989.55
965.40086	11992.45
969.15137	11940.15
972.89929	11900.95
976.64461	11861.15
980.38733	11855.75
984.12747	11921.95
987.86502	12016.35
991.59999	12136.05
995.33237	12337.45
999.06217	12637.05
1002.78939	13016.55
1006.51404	13351.05
1010.23611	13634.75
1013.95561	13792.45
1017.67255	13765.65
1021.38692	13536.65
1025.09872	13289.95
1028.80796	13168.85
1032.51465	13240.55
1036.21877	13424.75
1039.92035	13532.45
1043.61937	13546.55
1047.31584	13482.15
1051.00976	13370.55
1054.70114	13290.45
1058.38998	13259.25
1062.07627	13344.65
1065.76003	13403.75
1069.44126	13514.65
1073.11995	13718.35
1076.79611	13958.85
1080.46974	14256.25
1084.14085	14655.85
1087.80943	14998.55
1091.47549	15175.75
1095.13903	14970.95
1098.80005	14524.35
1102.45857	14121.15
1106.11456	13962.65
1109.76805	14084.05
1113.41903	14444.65
1117.06751	14992.75
1120.71348	15620.65
1124.35696	16318.85
1127.99793	16827.05
1131.63641	16664.45
1135.2724	15923.25
1138.90589	15261.35
1142.5369	14857.05
1146.16542	14587.25
1149.79145	14399.45
1153.415	14408.25
1157.03607	14516.35
1160.65467	14925.95
1164.27079	15632.05
1167.88443	16705.25
1171.49561	18217.15
1175.10432	20496.05
1178.71056	23486.55
1182.31434	26042.25
1185.91565	26830.25
1189.51451	26120.65
1193.11091	24512.85
1196.70485	22692.35
1200.29634	21096.85
1203.88538	19854.35
1207.47197	18584.05
1211.05612	17452.95
1214.63782	16787.35
1218.21708	16444.95
1221.79391	16444.75
1225.36829	16495.85
1228.94024	16374.25
1232.50976	16098.85
1236.07685	15832.95
1239.6415	15735.25
1243.20374	15769.05
1246.76355	15879.15
1250.32093	16084.65
1253.8759	16431.15
1257.42845	16938.05
1260.97859	17538.15
1264.52631	18242.75
1268.07163	18950.85
1271.61453	19582.85
1275.15503	20139.15
1278.69312	20504.15
1282.22882	20906.95
1285.76211	21507.55
1289.29301	22324.75
1292.82151	23236.85
1296.34761	24397.55
1299.87133	26098.35
1303.39266	28581.15
1306.9116	31996.55
1310.42815	35432.75
1313.94233	36941.35
1317.45412	35672.95
1320.96354	33104.55
1324.47058	30451.05
1327.97525	28190.15
1331.47754	26685.35
1334.97747	26094.45
1338.47502	26079.55
1341.97022	26607.65
1345.46305	27714.05
1348.95352	29369.05
1352.44163	31492.25
1355.92738	34730.55
1359.41078	39621.05
1362.89183	43835.75
1366.37053	42127.45
1369.84688	35147.75
1373.32088	28617.25
1376.79254	24770.15
1380.26186	22870.65
1383.72883	21886.25
1387.19347	21092.55
1390.65578	20384.65
1394.11575	19914.45
1397.57339	19742.15
1401.0287	19755.55
1404.48168	19828.05
1407.93234	19804.35
1411.38068	19695.95
1414.82669	19505.05
1418.27039	19103.55
1421.71177	18555.75
1425.15083	18002.95
1428.58758	17765.15
1432.02203	17970.65
1435.45416	18331.25
1438.88399	18574.15
1442.31151	18773.65
1445.73673	18907.15
1449.15965	19071.75
1452.58027	19108.25
1455.9986	19007.35
1459.41463	19088.65
1462.82837	19456.65
1466.23982	20004.95
1469.64898	20582.35
1473.05586	20999.55
1476.46045	21258.85
1479.86276	21457.95
1483.26279	21706.05
1486.66054	22144.05
1490.05602	22893.55
1493.44922	24048.25
1496.84016	25912.55
1500.22882	28834.05
1503.61521	32789.25
1506.99934	37136.15
1510.38121	40068.05
1513.76081	39805.65
1517.13816	36242.05
1520.51324	31274.75
1523.88607	27139.75
1527.25665	24719.65
1530.62498	23446.65
1533.99105	22694.25
1537.35488	22169.65
1540.71647	21616.75
1544.07581	21108.95
1547.4329	20667.95
1550.78776	20389.85
1554.14038	20281.75
1557.49077	20413.15
1560.83892	20790.05
1564.18484	21392.55
1567.52853	22187.85
1570.86999	22862.85
1574.20922	23272.35
1577.54624	23134.15
1580.88103	21942.85
1584.2136	20461.55
1587.54395	19741.65
1590.87208	20113.95
1594.19801	21372.85
1597.52172	23122.35
1600.84321	23810.05
1604.16251	22943.15
1607.47959	21402.35
1610.79447	19776.05
1614.10715	18125.55
1617.41763	16736.75
1620.7259	15774.25
1624.03199	15272.95
1627.33587	15282.25
1630.63757	15685.55
1633.93707	16704.15
1637.23439	18414.95
1640.52951	21201.65
1643.82246	24945.55
1647.11321	28823.35
1650.40179	30764.75
1653.68819	28972.65
1656.97241	24432.05
1660.25446	19782.25
1663.53433	16603.15
1666.81203	14672.85
1670.08756	13584.05
1673.36092	12880.65
1676.63211	12447.65
1679.90115	12130.05
1683.16801	11895.55
1686.43272	11724.15
1689.69527	11582.25
1692.95567	11481.25
1696.2139	11400.75
1699.46999	11366.15
1702.72392	11293.45
1705.97571	11276.25
1709.22535	11256.45
1712.47284	11258.25
1715.71819	11222.55
1718.96139	11194.05
1722.20246	11138.95
1725.44139	11073.65
1728.67818	10983.15
1731.91284	10866.15
1735.14537	10795.25
1738.37576	10759.25
1741.60403	10696.85
1744.83017	10658.55
1748.05418	10637.75
1751.27607	10597.05
1754.49584	10566.15
1757.71349	10541.25
1760.92903	10513.85
1764.14244	10519.75
1767.35375	10485.85
1770.56294	10454.65
1773.77002	10393.55
1776.97499	10378.85
1780.17785	10330.85
1783.37861	10326.25
1786.57727	10292.75
1789.77382	10266.65
1792.96828	10237.85
1796.16064	10223.45
1799.3509	10196.15
1802.53907	10181.85
1805.72514	10157.35
1808.90913	10111.65
1812.09102	10096.85
1815.27083	10052.65
1818.44856	10042.65
1821.6242	10033.45
1824.79776	9993.85
1827.96924	9965.05
1831.13864	9967.75
1834.30597	9943.75
1837.47122	9928.05
1840.6344	9889.25
1843.7955	9894.05
1846.95454	9903.95
1850.11151	9853.75
1853.26642	9869.65
1856.41926	9860.35
1859.57004	9855.75
1862.71876	9840.35
1865.86542	9843.95
1869.01003	9840.75
1872.15258	9820.65
1875.29308	9829.45
1878.43152	9810.95
1881.56792	9834.05
1884.70227	9814.25
1887.83457	9821.25
1890.96482	9808.15
1894.09304	9792.35
1897.21921	9775.35
1900.34335	9746.95
1903.46544	9759.15
1906.58551	9770.05
1909.70353	9758.25
1912.81953	9741.85
1915.93349	9695.85
1919.04543	9685.55
1922.15534	9645.45
1925.26322	9632.15
1928.36908	9611.05
1931.47292	9603.75
1934.57473	9540.65
1937.67453	9573.65
1940.77232	9551.55
1943.86808	9513.35
1946.96184	9469.25
1950.05358	9443.45
1953.14331	9401.05
1956.23103	9366.85
1959.31675	9350.15
1962.40046	9348.55
1965.48217	9308.55
1968.56188	9282.15
1971.63959	9282.85
1974.7153	9249.95
1977.78901	9239.25
1980.86073	9193.85
1983.93046	9160.65
1986.99819	9117.45
1990.06394	9091.25
1993.1277	9040.25
1996.18947	9009.45
1999.24925	8994.65
2002.30706	8976.15
2005.36288	8956.25
2008.41672	8906.75
2011.46859	8869.65
2014.51848	8850.15
2017.56639	8813.05
2020.61233	8790.25
2023.6563	8807.05
2026.6983	8775.45
2029.73833	8742.15
2032.7764	8707.05
2035.8125	8692.75
2038.84664	8693.45
2041.87881	8683.25
2044.90903	8658.05
2047.93729	8641.95
2050.96359	8644.95
2053.98794	8600.95
2057.01034	8587.25
2060.03078	8580.05
2063.04927	8582.05
2066.06582	8562.55
2069.08042	8574.65
2072.09307	8549.95
2075.10378	8548.95
2078.11255	8542.65
2081.11938	8534.65
2084.12426	8543.25
2087.12722	8538.45
2090.12824	8518.65
2093.12732	8523.15
2096.12447	8548.65
2099.11969	8554.55
2102.11299	8546.55
2105.10435	8548.05
2108.09379	8567.65
2111.08131	8585.85
2114.0669	8567.95
2117.05057	8576.25
2120.03233	8582.15
2123.01216	8581.85
2125.99008	8586.65
2128.96609	8613.95
2131.94018	8603.15
2134.91236	8605.65
2137.88263	8612.15
2140.851	8599.95
2143.81746	8630.85
2146.78201	8618.95
2149.74466	8573.45
2152.7054	8577.25
2155.66425	8575.35
2158.6212	8585.65
2161.57625	8567.05
2164.52941	8552.15
2167.48067	8571.85
2170.43004	8531.95
2173.37752	8569.75
2176.32311	8562.85
2179.26681	8552.05
2182.20863	8553.55
2185.14856	8571.25
2188.08661	8549.05
2191.02278	8542.15
2193.95707	8559.15
2196.88948	8532.65
2199.82001	8527.45
2202.74867	8540.25
2205.67545	8552.75
2208.60037	8519.65
2211.52341	8507.35
2214.44458	8517.35
2217.36388	8481.75
2220.28132	8459.35
2223.1969	8451.55
2226.11061	8435.75
2229.02246	8413.45
2231.93245	8382.85
2234.84058	8378.85
2237.74686	8350.95
2240.65128	8369.65
2243.55385	8341.55
2246.45456	8347.65
2249.35343	8325.75
2252.25044	8337.15
2255.14561	8348.15
2258.03893	8350.25
2260.93041	8317.85
2263.82004	8319.25
2266.70783	8293.15
2269.59378	8256.75
2272.4779	8255.35
2275.36017	8236.65
2278.24061	8246.05
2281.11922	8215.45
2283.996	8193.65
2286.87094	8170.35
2289.74405	8145.35
2292.61534	8149.75
2295.4848	8121.05
2298.35243	8117.35
2301.21824	8123.95
2304.08223	8130.95
2306.94439	8126.85
2309.80474	8133.35
2312.66327	8144.75
2315.51999	8134.25
2318.37489	8111.65
2321.22797	8075.95
2324.07925	8087.75
2326.92871	8098.45
2329.77637	8086.55
2332.62222	8082.05
2335.46626	8049.05
2338.3085	8053.45
2341.14893	8068.35
2343.98756	8071.45
2346.8244	8072.35
2349.65943	8096.55
2352.49267	8107.05
2355.32411	8099.85
2358.15376	8106.55
2360.98161	8124.35
2363.80768	8140.95
2366.63195	8142.05
2369.45444	8142.55
2372.27514	8124.45
2375.09405	8111.95
2377.91118	8081.25
2380.72652	8045.75
2383.54009	8034.05
2386.35187	8002.65
2389.16188	7987.65
2391.97011	7958.25
2394.77657	7937.45
2397.58125	7921.25
2400.38416	7898.05
2403.18529	7874.65
2405.98466	7874.35
2408.78226	7850.85
2411.57809	7828.15
2414.37216	7812.75
2417.16446	7838.85
2419.955	7817.55
2422.74378	7820.35
2425.5308	7798.25
2428.31606	7815.25
2431.09956	7788.05
2433.88131	7795.45
2436.6613	7804.65
2439.43954	7807.35
2442.21603	7794.75
2444.99077	7791.75
2447.76377	7797.55
2450.53501	7807.65
2453.30451	7815.55
2456.07226	7788.95
2458.83827	7814.15
2461.60254	7818.35
2464.36507	7817.15
2467.12586	7804.65
2469.88492	7792.95
2472.64224	7811.15
2475.39782	7829.65
2478.15167	7854.95
2480.90379	7850.45
2483.65417	7874.05
2486.40283	7872.35
2489.14976	7906.45
2491.89497	7889.65
2494.63845	7898.95
2497.3802	7895.85
2500.12024	7887.75
2502.85855	7876.85
2505.59514	7853.35
2508.33002	7835.05
2511.06318	7795.05
2513.79462	7778.05
2516.52435	7753.05
2519.25237	7740.85
2521.97867	7726.65
2524.70327	7746.25
2527.42616	7695.55
2530.14734	7710.85
2532.86681	7701.25
2535.58458	7708.05
2538.30065	7667.45
2541.01501	7687.35
2543.72768	7669.35
2546.43864	7672.05
2549.14791	7649.85
2551.85548	7679.15
2554.56136	7659.25
2557.26554	7636.55
2559.96803	7623.25
2562.66883	7623.25
2565.36794	7625.35
2568.06536	7604.25
2570.7611	7604.75
2573.45514	7592.05
2576.14751	7591.85
2578.83819	7573.65
2581.52719	7607.55
2584.21451	7569.05
2586.90015	7556.45
2589.58411	7559.65
2592.2664	7552.05
2594.94701	7556.95
2597.62594	7554.75
2600.30321	7534.85
2602.9788	7540.35
2605.65273	7534.15
2608.32498	7530.65
2610.99557	7517.15
2613.66449	7540.25
2616.33175	7537.55
2618.99734	7532.15
2621.66128	7528.85
2624.32355	7517.05
2626.98416	7517.25
2629.64311	7495.25
2632.30041	7511.15
2634.95605	7494.55
2637.61004	7508.25
2640.26238	7467.65
2642.91306	7480.85
2645.56209	7476.85
2648.20948	7474.45
2650.85521	7460.45
2653.4993	7469.75
2656.14175	7482.35
2658.78255	7485.55
2661.42171	7475.95
2664.05923	7491.75
2666.6951	7504.05
2669.32934	7521.25
2671.96194	7526.85
2674.59291	7540.85
2677.22224	7506.95
2679.84993	7526.25
2682.476	7502.05
2685.10043	7477.65
2687.72324	7476.25
2690.34441	7491.65
2692.96396	7478.85
2695.58188	7481.35
2698.19818	7473.55
2700.81285	7489.65
2703.4259	7483.95
2706.03733	7501.05
2708.64714	7472.25
2711.25533	7486.35
2713.86191	7494.35
2716.46687	7513.45
2719.07021	7516.65
2721.67194	7529.85
2724.27206	7534.85
2726.87057	7528.05
2729.46747	7497.65
2732.06276	7513.85
2734.65644	7508.35
2737.24852	7475.25
2739.83899	7465.25
2742.42786	7488.25
2745.01513	7474.55
2747.60079	7453.05
2750.18486	7435.65
2752.76733	7457.75
2755.3482	7440.85
2757.92747	7432.85
2760.50515	7407.55
2763.08123	7423.95
2765.65573	7424.45
2768.22863	7440.15
2770.79994	7416.15
2773.36967	7419.65
2775.9378	7424.25
2778.50435	7412.15
2781.06932	7423.55
2783.6327	7408.35
2786.1945	7413.45
2788.75471	7417.65
2791.31335	7399.65
2793.87041	7413.05
2796.42589	7374.45
2798.97979	7374.45
2801.53212	7375.25
2804.08288	7364.35
2806.63206	7330.95
2809.17967	7347.35
2811.72571	7344.95
2814.27018	7347.45
2816.81308	7336.45
2819.35442	7328.25
2821.89419	7348.05
2824.43239	7365.05
2826.96904	7322.65
2829.50412	7327.85
2832.03763	7294.25
2834.56959	7319.65
2837.1	7314.35
2839.62884	7325.95
2842.15613	7326.45
2844.68186	7330.45
2847.20604	7313.75
2849.72867	7342.55
2852.24974	7344.65
2854.76927	7337.95
2857.28724	7349.25
2859.80367	7342.05
2862.31855	7341.05
2864.83189	7341.75
2867.34368	7354.85
2869.85393	7350.45
2872.36264	7337.65
2874.8698	7371.15
2877.37543	7349.95
2879.87952	7337.35
2882.38207	7338.45
2884.88308	7326.15
2887.38256	7328.85
2889.88051	7321.05
2892.37692	7334.25
2894.8718	7340.85
2897.36515	7332.35
2899.85698	7344.05
2902.34727	7352.95
2904.83604	7320.45
2907.32328	7381.25
2909.809	7359.45
2912.29319	7367.65
2914.77587	7365.05
2917.25702	7360.55
2919.73665	7345.25
2922.21476	7353.05
2924.69136	7326.35
2927.16644	7317.85
2929.64	7313.15
2932.11205	7306.85
2934.58258	7256.25
2937.05161	7278.95
2939.51912	7267.95
2941.98513	7257.25
2944.44962	7235.65
2946.91261	7197.05
2949.37409	7243.65
2951.83407	7230.55
2954.29254	7234.05
2956.74951	7244.35
2959.20498	7247.35
2961.65895	7232.55
2964.11142	7216.25
2966.56239	7176.55
2969.01186	7186.15
2971.45984	7183.35
2973.90632	7170.55
2976.35131	7152.05
2978.7948	7121.55
2981.23681	7119.35
2983.67732	7101.95
2986.11635	7086.65
2988.55388	7070.65
2990.98993	7067.75
2993.4245	7037.85
2995.85758	7028.65
2998.28917	7019.75
3000.71928	7010.15
3003.14791	6989.65
3005.57506	6998.05
3008.00073	7005.75
3010.42493	7000.65
3012.84764	6979.45
3015.26888	6987.75
3017.68865	6946.65
3020.10694	6976.05
3022.52376	6939.25
3024.9391	6928.35
3027.35298	6912.05
3029.76539	6910.65
3032.17632	6894.35
3034.5858	6881.25
3036.9938	6882.15
3039.40034	6867.55
3041.80542	6863.15
3044.20903	6848.15
3046.61118	6847.85
3049.01187	6820.95
3051.4111	6813.25
3053.80888	6781.95
3056.20519	6796.65
3058.60005	6772.55
3060.99345	6769.95
3063.3854	6766.35
3065.7759	6719.25
3068.16494	6714.45
3070.55254	6718.15
3072.93868	6704.25
3075.32338	6684.55
3077.70662	6678.75
3080.08842	6644.15
3082.46878	6648.85
3084.84769	6636.85
3087.22515	6663.85
3089.60118	6635.95
3091.97576	6633.75
3094.3489	6644.25
3096.72061	6631.75
3099.09087	6659.65
3101.4597	6641.35
3103.82709	6634.45
3106.19305	6634.85
3108.55757	6630.85
3110.92066	6621.95
3113.28232	6616.75
3115.64255	6604.55
3118.00134	6602.45
3120.35871	6584.45
3122.71466	6547.95
3125.06917	6548.95
3127.42226	6537.95
3129.77393	6552.75
3132.12417	6535.65
3134.47299	6539.25
3136.82039	6528.85
3139.16636	6540.25
3141.51092	6531.25
3143.85406	6533.65
3146.19579	6547.75
3148.53609	6543.95
3150.87499	6546.05
3153.21246	6569.05
3155.54853	6575.85
3157.88318	6563.45
3160.21642	6571.65
3162.54826	6573.75
3164.87868	6550.35
3167.2077	6547.85
3169.5353	6558.35
3171.86151	6572.65
3174.18631	6548.75
3176.5097	6567.25
3178.83169	6555.05
3181.15228	6522.55
3183.47147	6515.75
3185.78926	6525.85
3188.10565	6510.65
3190.42065	6524.25
3192.73424	6530.05
3195.04645	6533.75
3197.35725	6547.35
3199.66667	6541.55
3201.97469	6559.75
3204.28132	6544.25
3206.58656	6544.15
3208.8904	6548.25
3211.19287	6567.35
3213.49394	6575.95
3215.79363	6582.35
3218.09193	6587.75
3220.38884	6588.15
3222.68438	6600.85
3224.97853	6596.55
3227.2713	6582.35
3229.56269	6590.85
3231.8527	6582.95
3234.14133	6594.35
3236.42858	6587.15
3238.71446	6573.05
3240.99896	6540.75
3243.28209	6546.25
3245.56384	6536.45
3247.84423	6520.95
3250.12324	6514.65
3252.40088	6519.15
3254.67715	6512.65
3256.95205	6504.95
3259.22558	6513.95
3261.49775	6506.75
3263.76855	6525.05
3266.03799	6511.25
3268.30606	6501.65
3270.57277	6494.55
3272.83812	6488.55
3275.10211	6487.85
3277.36474	6461.05
3279.62601	6484.25
3281.88593	6460.75
3284.14448	6493.65
3286.40168	6491.25
3288.65753	6492.65
3290.91202	6496.15
3293.16516	6494.85
3295.41695	6466.25
3297.66738	6441.35
3299.91647	6399.05
3302.16421	6384.65
3304.4106	6372.95
3306.65564	6336.75
3308.89933	6282.55
3311.14169	6251.75
3313.38269	6197.65
3315.62236	6168.45
3317.86068	6113.05
3320.09766	6066.35
3322.3333	6030.45
3324.5676	6008.15
3326.80056	5908.45
3329.03219	5867.95
3331.26248	2.25
3333.49143	-0.65
3335.71905	0.15
