Data from AgNP_FTO_APTES_UA_100uM_CRN_20uM_R6G_10uM_NaF_0.1M_Addition_RamanShift__8__16-35-10-483.txt Node

Date: Thu Mar 24 16:35:10 GMT 2022
User: TCL
Spectrometer: QEP01345
Trigger mode: 4
Integration Time (sec): 7.000000E0
Scans to average: 10
Electric dark correction enabled: true
Nonlinearity correction enabled: false
Boxcar width: 0
XAxis mode: Raman Shifts
Number of Pixels in Spectrum: 1044
>>>>>Begin Spectral Data<<<<<
46.04893	-1.85
50.45542	0.45
54.85868	-0.35
59.25871	0.05
63.6555	41.45
68.04907	46.35
72.43941	47.25
76.82654	46.05
81.21044	51.85
85.59113	49.45
89.96862	54.25
94.34289	53.95
98.71396	56.65
103.08183	55.45
107.4465	61.55
111.80798	65.25
116.16626	62.45
120.52136	67.25
124.87327	66.45
129.222	70.85
133.56755	77.55
137.90993	82.15
142.24913	93.65
146.58517	103.85
150.91804	118.75
155.24774	148.85
159.57429	188.05
163.89768	240.35
168.21792	320.35
172.53501	443.55
176.84895	627.95
181.15975	891.05
185.46741	1246.55
189.77193	1722.55
194.07331	2320.85
198.37157	3000.65
202.6667	3719.55
206.9587	4447.55
211.24758	5168.75
215.53334	5891.75
219.81599	6700.55
224.09553	7581.25
228.37195	8555.45
232.64527	9646.15
236.91549	10736.55
241.18261	11773.65
245.44663	12649.35
249.70755	13427.15
253.96539	14080.75
258.22014	14613.35
262.4718	15033.85
266.72039	15349.25
270.96589	15518.75
275.20832	15505.65
279.44768	15342.85
283.68397	15140.85
287.91719	14987.05
292.14735	14915.15
296.37445	15016.55
300.59849	15292.65
304.81948	15692.55
309.03742	15953.15
313.25231	15997.05
317.46415	15701.25
321.67296	15148.45
325.87872	14636.15
330.08145	14406.05
334.28114	14395.65
338.47781	14561.85
342.67145	14830.25
346.86207	15181.55
351.04966	15643.35
355.23424	16100.35
359.4158	16494.25
363.59435	16657.15
367.76989	16760.25
371.94243	16753.05
376.11196	16709.95
380.27849	16692.25
384.44203	16687.65
388.60257	16693.45
392.76012	16755.05
396.91468	16922.15
401.06626	17224.75
405.21485	17410.05
409.36047	17202.75
413.50311	16684.15
417.64277	16176.25
421.77947	15947.45
425.9132	15865.35
430.04396	15895.15
434.17176	16038.65
438.2966	16201.75
442.41849	16531.65
446.53742	17021.05
450.6534	17501.55
454.76644	17761.45
458.87653	17811.05
462.98368	17613.95
467.08789	17408.95
471.18916	17134.35
475.2875	16856.85
479.38291	16580.85
483.4754	16336.55
487.56496	16161.75
491.6516	16014.75
495.73531	15924.55
499.81612	15901.35
503.89401	15990.15
507.96899	16102.15
512.04106	16150.75
516.11023	16225.55
520.1765	16249.95
524.23987	16271.95
528.30034	16247.75
532.35792	16176.35
536.41261	15998.75
540.46441	15716.75
544.51333	15621.35
548.55936	15727.55
552.60252	16011.45
556.64279	16378.75
560.6802	16645.65
564.71473	16785.95
568.7464	17061.25
572.7752	17431.35
576.80114	17537.15
580.82422	17617.15
584.84444	17954.35
588.86181	18533.75
592.87633	19268.85
596.888	19653.15
600.89682	19402.05
604.9028	19821.95
608.90594	22560.05
612.90624	26122.45
616.90371	24713.05
620.89834	19255.25
624.89015	16684.25
628.87913	16263.45
632.86528	16500.65
636.84862	16743.85
640.82913	16557.45
644.80683	15953.75
648.78172	15504.05
652.75379	15477.65
656.72306	15853.95
660.68952	16363.15
664.65319	16173.65
668.61405	15658.05
672.57211	15475.25
676.52738	15532.65
680.47986	15518.75
684.42955	15379.95
688.37646	15252.05
692.32058	15313.35
696.26192	15474.15
700.20048	15691.55
704.13626	15823.25
708.06928	15841.95
711.99952	15734.25
715.927	15724.05
719.85171	15793.15
723.77365	15839.25
727.69284	15706.75
731.60928	15572.25
735.52295	15560.15
739.43388	15637.75
743.34206	15676.05
747.24749	15699.45
751.15017	15797.75
755.05012	15975.75
758.94733	16545.95
762.8418	17752.85
766.73354	19896.85
770.62254	21927.15
774.50882	22560.85
778.39237	21577.95
782.27321	19554.05
786.15132	17649.85
790.02671	16446.85
793.89938	15832.45
797.76935	15532.95
801.6366	15391.85
805.50115	15291.65
809.36299	15235.15
813.22213	15175.45
817.07857	15160.25
820.93231	15119.45
824.78336	15120.35
828.63172	15150.65
832.47738	15119.15
836.32036	15081.35
840.16066	15061.85
843.99827	15055.65
847.8332	15035.75
851.66546	15039.65
855.49504	15061.55
859.32195	15065.05
863.1462	15035.65
866.96777	15028.55
870.78668	15012.05
874.60293	15060.55
878.41652	15089.35
882.22745	15191.75
886.03573	15250.45
889.84136	15280.25
893.64433	15179.35
897.44466	15128.65
901.24235	15072.35
905.0374	15027.15
908.8298	15006.25
912.61957	14939.25
916.40671	14947.75
920.19121	15068.05
923.97308	15195.65
927.75233	15317.85
931.52895	15316.15
935.30295	15135.05
939.07433	14808.05
942.84309	14578.35
946.60924	14445.05
950.37278	14375.15
954.13371	14370.75
957.89203	14333.15
961.64774	14348.15
965.40086	14374.25
969.15137	14328.95
972.89929	14261.75
976.64461	14252.45
980.38733	14236.85
984.12747	14298.45
987.86502	14394.65
991.59999	14462.75
995.33237	14584.95
999.06217	14764.35
1002.78939	15053.55
1006.51404	15393.65
1010.23611	15702.05
1013.95561	15837.65
1017.67255	15851.25
1021.38692	15595.45
1025.09872	15352.35
1028.80796	15076.65
1032.51465	14989.35
1036.21877	15005.95
1039.92035	15090.75
1043.61937	15178.75
1047.31584	15226.65
1051.00976	15247.75
1054.70114	15264.85
1058.38998	15276.55
1062.07627	15387.05
1065.76003	15508.55
1069.44126	15658.25
1073.11995	15945.95
1076.79611	16241.75
1080.46974	16518.25
1084.14085	16751.25
1087.80943	17009.95
1091.47549	17169.95
1095.13903	17074.75
1098.80005	16733.15
1102.45857	16347.55
1106.11456	16128.75
1109.76805	16123.55
1113.41903	16254.55
1117.06751	16564.85
1120.71348	16952.25
1124.35696	17459.55
1127.99793	17824.05
1131.63641	17813.15
1135.2724	17425.35
1138.90589	17049.35
1142.5369	16824.95
1146.16542	16659.55
1149.79145	16610.15
1153.415	16593.35
1157.03607	16678.55
1160.65467	16949.95
1164.27079	17494.85
1167.88443	18295.65
1171.49561	19511.35
1175.10432	21309.85
1178.71056	23591.95
1182.31434	25586.95
1185.91565	26179.35
1189.51451	25625.55
1193.11091	24575.65
1196.70485	23316.35
1200.29634	22200.35
1203.88538	21255.55
1207.47197	20289.65
1211.05612	19505.75
1214.63782	18943.15
1218.21708	18642.85
1221.79391	18597.55
1225.36829	18622.75
1228.94024	18512.35
1232.50976	18284.95
1236.07685	18007.35
1239.6415	17891.05
1243.20374	17842.75
1246.76355	17893.05
1250.32093	18083.05
1253.8759	18324.95
1257.42845	18760.65
1260.97859	19336.55
1264.52631	19947.55
1268.07163	20582.75
1271.61453	21072.45
1275.15503	21487.15
1278.69312	21795.15
1282.22882	22198.25
1285.76211	22863.35
1289.29301	23731.55
1292.82151	24711.05
1296.34761	25786.65
1299.87133	27223.75
1303.39266	29125.95
1306.9116	31453.05
1310.42815	33797.15
1313.94233	34851.15
1317.45412	34004.05
1320.96354	32173.55
1324.47058	30355.45
1327.97525	28675.55
1331.47754	27520.45
1334.97747	26884.25
1338.47502	26737.45
1341.97022	27005.65
1345.46305	27729.65
1348.95352	28797.55
1352.44163	30285.45
1355.92738	32444.45
1359.41078	35638.95
1362.89183	38620.95
1366.37053	37896.35
1369.84688	33219.65
1373.32088	28168.25
1376.79254	25126.45
1380.26186	23761.05
1383.72883	23096.75
1387.19347	22491.15
1390.65578	21910.55
1394.11575	21453.95
1397.57339	21232.85
1401.0287	21165.05
1404.48168	21098.05
1407.93234	20988.45
1411.38068	20767.15
1414.82669	20537.25
1418.27039	20201.15
1421.71177	19755.55
1425.15083	19265.65
1428.58758	19073.75
1432.02203	19214.75
1435.45416	19544.15
1438.88399	19786.95
1442.31151	19942.25
1445.73673	20091.45
1449.15965	20209.85
1452.58027	20179.85
1455.9986	20086.45
1459.41463	20120.45
1462.82837	20396.25
1466.23982	20894.85
1469.64898	21439.55
1473.05586	21935.95
1476.46045	22295.05
1479.86276	22544.35
1483.26279	22778.75
1486.66054	23081.85
1490.05602	23724.95
1493.44922	24647.75
1496.84016	25984.15
1500.22882	27849.05
1503.61521	30344.15
1506.99934	32959.05
1510.38121	34686.65
1513.76081	34548.05
1517.13816	32192.05
1520.51324	29028.35
1523.88607	26371.75
1527.25665	24798.55
1530.62498	24097.65
1533.99105	23531.55
1537.35488	23054.25
1540.71647	22456.45
1544.07581	21909.75
1547.4329	21379.45
1550.78776	20999.15
1554.14038	20787.65
1557.49077	20758.45
1560.83892	20988.65
1564.18484	21421.65
1567.52853	22076.05
1570.86999	22656.05
1574.20922	23132.85
1577.54624	23041.15
1580.88103	22168.45
1584.2136	21221.95
1587.54395	20821.15
1590.87208	21283.35
1594.19801	22415.35
1597.52172	23848.95
1600.84321	24426.05
1604.16251	23656.45
1607.47959	22185.75
1610.79447	20583.65
1614.10715	19061.75
1617.41763	17865.85
1620.7259	17043.15
1624.03199	16605.15
1627.33587	16581.75
1630.63757	16935.55
1633.93707	17790.25
1637.23439	19361.05
1640.52951	21900.85
1643.82246	25395.35
1647.11321	28743.95
1650.40179	30121.95
1653.68819	28480.75
1656.97241	24571.85
1660.25446	20618.25
1663.53433	17833.75
1666.81203	16200.65
1670.08756	15250.15
1673.36092	14620.95
1676.63211	14232.65
1679.90115	13966.25
1683.16801	13752.95
1686.43272	13586.05
1689.69527	13446.85
1692.95567	13341.45
1696.2139	13243.55
1699.46999	13207.95
1702.72392	13136.85
1705.97571	13093.55
1709.22535	13073.55
1712.47284	13068.45
1715.71819	13034.85
1718.96139	13017.85
1722.20246	12953.75
1725.44139	12913.45
1728.67818	12808.75
1731.91284	12697.15
1735.14537	12636.15
1738.37576	12594.65
1741.60403	12539.35
1744.83017	12491.65
1748.05418	12446.75
1751.27607	12403.05
1754.49584	12373.55
1757.71349	12345.75
1760.92903	12346.15
1764.14244	12340.35
1767.35375	12333.45
1770.56294	12260.35
1773.77002	12256.35
1776.97499	12225.65
1780.17785	12168.75
1783.37861	12139.35
1786.57727	12105.55
1789.77382	12085.05
1792.96828	12080.25
1796.16064	12044.85
1799.3509	12012.35
1802.53907	12008.55
1805.72514	11952.05
1808.90913	11937.05
1812.09102	11907.15
1815.27083	11869.75
1818.44856	11824.05
1821.6242	11817.75
1824.79776	11770.95
1827.96924	11769.65
1831.13864	11753.35
1834.30597	11727.05
1837.47122	11695.35
1840.6344	11688.55
1843.7955	11700.05
1846.95454	11660.95
1850.11151	11619.75
1853.26642	11650.25
1856.41926	11613.05
1859.57004	11634.65
1862.71876	11605.75
1865.86542	11604.55
1869.01003	11612.95
1872.15258	11555.95
1875.29308	11564.95
1878.43152	11543.05
1881.56792	11524.05
1884.70227	11539.65
1887.83457	11560.85
1890.96482	11544.05
1894.09304	11500.75
1897.21921	11453.05
1900.34335	11443.05
1903.46544	11458.95
1906.58551	11456.35
1909.70353	11444.15
1912.81953	11395.65
1915.93349	11376.45
1919.04543	11363.85
1922.15534	11328.35
1925.26322	11291.35
1928.36908	11269.55
1931.47292	11239.05
1934.57473	11183.15
1937.67453	11200.55
1940.77232	11161.45
1943.86808	11148.45
1946.96184	11109.55
1950.05358	11074.95
1953.14331	11007.35
1956.23103	10985.55
1959.31675	10953.85
1962.40046	10937.75
1965.48217	10903.95
1968.56188	10870.45
1971.63959	10852.95
1974.7153	10823.45
1977.78901	10798.75
1980.86073	10728.35
1983.93046	10718.55
1986.99819	10656.75
1990.06394	10625.65
1993.1277	10611.15
1996.18947	10580.65
1999.24925	10519.65
2002.30706	10449.55
2005.36288	10453.15
2008.41672	10415.35
2011.46859	10357.25
2014.51848	10319.95
2017.56639	10331.05
2020.61233	10304.55
2023.6563	10245.05
2026.6983	10224.85
2029.73833	10193.55
2032.7764	10167.55
2035.8125	10139.95
2038.84664	10105.95
2041.87881	10102.95
2044.90903	10093.45
2047.93729	10053.75
2050.96359	10064.65
2053.98794	10011.75
2057.01034	10026.85
2060.03078	9992.85
2063.04927	9978.25
2066.06582	9959.55
2069.08042	9981.75
2072.09307	9962.95
2075.10378	9957.75
2078.11255	9936.35
2081.11938	9937.05
2084.12426	9944.65
2087.12722	9926.05
2090.12824	9927.35
2093.12732	9936.85
2096.12447	9952.65
2099.11969	9950.05
2102.11299	9966.55
2105.10435	9958.15
2108.09379	9963.25
2111.08131	9927.85
2114.0669	9955.95
2117.05057	9954.45
2120.03233	9958.75
2123.01216	9958.95
2125.99008	9979.15
2128.96609	9996.25
2131.94018	9980.85
2134.91236	9958.45
2137.88263	9962.95
2140.851	9975.95
2143.81746	10002.85
2146.78201	9962.75
2149.74466	9957.25
2152.7054	9967.55
2155.66425	9960.15
2158.6212	9928.95
2161.57625	9933.25
2164.52941	9919.35
2167.48067	9912.05
2170.43004	9916.35
2173.37752	9911.85
2176.32311	9908.35
2179.26681	9901.65
2182.20863	9905.85
2185.14856	9890.35
2188.08661	9883.75
2191.02278	9885.95
2193.95707	9865.95
2196.88948	9864.95
2199.82001	9863.05
2202.74867	9844.25
2205.67545	9831.25
2208.60037	9813.85
2211.52341	9808.35
2214.44458	9771.65
2217.36388	9737.15
2220.28132	9734.45
2223.1969	9724.05
2226.11061	9689.45
2229.02246	9686.25
2231.93245	9647.85
2234.84058	9641.55
2237.74686	9640.45
2240.65128	9620.75
2243.55385	9625.15
2246.45456	9613.15
2249.35343	9585.05
2252.25044	9570.85
2255.14561	9554.25
2258.03893	9554.15
2260.93041	9518.45
2263.82004	9499.85
2266.70783	9487.75
2269.59378	9458.15
2272.4779	9441.45
2275.36017	9428.45
2278.24061	9418.55
2281.11922	9396.15
2283.996	9376.85
2286.87094	9375.45
2289.74405	9312.85
2292.61534	9315.15
2295.4848	9310.55
2298.35243	9278.15
2301.21824	9267.65
2304.08223	9264.15
2306.94439	9266.85
2309.80474	9259.15
2312.66327	9251.45
2315.51999	9242.25
2318.37489	9223.45
2321.22797	9191.15
2324.07925	9192.75
2326.92871	9183.95
2329.77637	9167.95
2332.62222	9144.75
2335.46626	9122.55
2338.3085	9118.45
2341.14893	9133.85
2343.98756	9135.55
2346.8244	9127.55
2349.65943	9119.55
2352.49267	9102.45
2355.32411	9129.35
2358.15376	9113.65
2360.98161	9127.35
2363.80768	9127.05
2366.63195	9132.25
2369.45444	9138.35
2372.27514	9112.45
2375.09405	9114.05
2377.91118	9097.25
2380.72652	9081.75
2383.54009	9055.75
2386.35187	9027.55
2389.16188	8993.15
2391.97011	8998.15
2394.77657	8949.55
2397.58125	8943.85
2400.38416	8899.55
2403.18529	8908.45
2405.98466	8880.55
2408.78226	8853.15
2411.57809	8828.35
2414.37216	8835.35
2417.16446	8852.35
2419.955	8818.35
2422.74378	8818.75
2425.5308	8795.95
2428.31606	8771.85
2431.09956	8792.85
2433.88131	8797.05
2436.6613	8783.75
2439.43954	8770.05
2442.21603	8745.65
2444.99077	8733.25
2447.76377	8749.15
2450.53501	8752.35
2453.30451	8734.45
2456.07226	8729.25
2458.83827	8736.75
2461.60254	8734.75
2464.36507	8729.25
2467.12586	8718.95
2469.88492	8703.05
2472.64224	8713.85
2475.39782	8726.35
2478.15167	8726.65
2480.90379	8750.25
2483.65417	8738.45
2486.40283	8735.15
2489.14976	8763.15
2491.89497	8743.05
2494.63845	8751.45
2497.3802	8741.45
2500.12024	8723.55
2502.85855	8686.35
2505.59514	8712.95
2508.33002	8664.25
2511.06318	8629.95
2513.79462	8622.35
2516.52435	8608.15
2519.25237	8615.25
2521.97867	8602.75
2524.70327	8580.15
2527.42616	8554.65
2530.14734	8572.45
2532.86681	8541.85
2535.58458	8524.05
2538.30065	8492.45
2541.01501	8515.35
2543.72768	8505.05
2546.43864	8509.85
2549.14791	8514.65
2551.85548	8459.25
2554.56136	8463.05
2557.26554	8444.55
2559.96803	8417.75
2562.66883	8438.95
2565.36794	8411.75
2568.06536	8410.75
2570.7611	8396.65
2573.45514	8382.25
2576.14751	8388.95
2578.83819	8358.95
2581.52719	8361.35
2584.21451	8340.15
2586.90015	8321.85
2589.58411	8311.35
2592.2664	8340.05
2594.94701	8279.65
2597.62594	8282.25
2600.30321	8244.65
2602.9788	8267.95
2605.65273	8264.85
2608.32498	8279.75
2610.99557	8242.65
2613.66449	8224.05
2616.33175	8235.65
2618.99734	8231.85
2621.66128	8224.35
2624.32355	8207.45
2626.98416	8192.55
2629.64311	8181.65
2632.30041	8146.15
2634.95605	8148.95
2637.61004	8139.55
2640.26238	8127.55
2642.91306	8156.75
2645.56209	8146.65
2648.20948	8122.65
2650.85521	8133.35
2653.4993	8125.45
2656.14175	8140.45
2658.78255	8126.45
2661.42171	8121.25
2664.05923	8153.05
2666.6951	8152.05
2669.32934	8149.95
2671.96194	8190.45
2674.59291	8182.25
2677.22224	8146.55
2679.84993	8150.15
2682.476	8124.35
2685.10043	8136.55
2687.72324	8128.35
2690.34441	8116.75
2692.96396	8131.45
2695.58188	8117.75
2698.19818	8111.75
2700.81285	8118.95
2703.4259	8127.05
2706.03733	8128.75
2708.64714	8105.75
2711.25533	8092.15
2713.86191	8095.95
2716.46687	8137.65
2719.07021	8130.35
2721.67194	8137.95
2724.27206	8143.55
2726.87057	8153.65
2729.46747	8111.05
2732.06276	8115.05
2734.65644	8100.75
2737.24852	8162.85
2739.83899	8159.75
2742.42786	8099.55
2745.01513	8080.55
2747.60079	8052.25
2750.18486	8035.95
2752.76733	8027.25
2755.3482	8049.55
2757.92747	8050.75
2760.50515	8022.35
2763.08123	8017.35
2765.65573	8000.35
2768.22863	7993.65
2770.79994	7984.75
2773.36967	7988.55
2775.9378	7970.45
2778.50435	7970.15
2781.06932	7944.35
2783.6327	7959.45
2786.1945	7967.65
2788.75471	7960.65
2791.31335	7952.25
2793.87041	7916.65
2796.42589	7908.05
2798.97979	7909.15
2801.53212	7862.25
2804.08288	7856.05
2806.63206	7846.35
2809.17967	7863.05
2811.72571	7846.85
2814.27018	7835.35
2816.81308	7835.75
2819.35442	7790.85
2821.89419	7792.75
2824.43239	7828.85
2826.96904	7762.55
2829.50412	7776.15
2832.03763	7760.35
2834.56959	7761.05
2837.1	7750.75
2839.62884	7760.15
2842.15613	7740.35
2844.68186	7759.05
2847.20604	7772.05
2849.72867	7755.85
2852.24974	7774.85
2854.76927	7749.35
2857.28724	7748.65
2859.80367	7747.15
2862.31855	7728.75
2864.83189	7732.65
2867.34368	7708.35
2869.85393	7724.95
2872.36264	7710.55
2874.8698	7712.95
2877.37543	7699.45
2879.87952	7687.55
2882.38207	7690.15
2884.88308	7665.65
2887.38256	7685.25
2889.88051	7672.05
2892.37692	7681.45
2894.8718	7669.35
2897.36515	7676.85
2899.85698	7659.25
2902.34727	7687.75
2904.83604	7678.25
2907.32328	7690.55
2909.809	7703.65
2912.29319	7690.55
2914.77587	7705.75
2917.25702	7707.25
2919.73665	7679.75
2922.21476	7681.05
2924.69136	7682.85
2927.16644	7670.05
2929.64	7649.55
2932.11205	7660.15
2934.58258	7612.75
2937.05161	7616.95
2939.51912	7597.25
2941.98513	7602.25
2944.44962	7565.65
2946.91261	7551.75
2949.37409	7553.85
2951.83407	7547.95
2954.29254	7561.25
2956.74951	7557.35
2959.20498	7540.35
2961.65895	7539.65
2964.11142	7535.25
2966.56239	7509.55
2969.01186	7515.65
2971.45984	7496.35
2973.90632	7479.35
2976.35131	7443.25
2978.7948	7432.75
2981.23681	7432.95
2983.67732	7436.25
2986.11635	7399.15
2988.55388	7397.15
2990.98993	7374.25
2993.4245	7349.85
2995.85758	7346.85
2998.28917	7328.75
3000.71928	7322.75
3003.14791	7298.15
3005.57506	7302.45
3008.00073	7270.85
3010.42493	7269.45
3012.84764	7262.05
3015.26888	7251.85
3017.68865	7225.55
3020.10694	7242.45
3022.52376	7183.65
3024.9391	7173.45
3027.35298	7175.15
3029.76539	7151.35
3032.17632	7138.05
3034.5858	7145.45
3036.9938	7123.55
3039.40034	7130.15
3041.80542	7122.55
3044.20903	7116.45
3046.61118	7105.25
3049.01187	7073.05
3051.4111	7050.65
3053.80888	7038.25
3056.20519	7056.15
3058.60005	7042.15
3060.99345	7012.05
3063.3854	6981.05
3065.7759	6978.05
3068.16494	6969.75
3070.55254	6957.35
3072.93868	6947.05
3075.32338	6930.05
3077.70662	6921.55
3080.08842	6897.05
3082.46878	6886.45
3084.84769	6882.65
3087.22515	6872.95
3089.60118	6873.55
3091.97576	6889.15
3094.3489	6865.05
3096.72061	6848.95
3099.09087	6856.95
3101.4597	6845.55
3103.82709	6850.45
3106.19305	6946.45
3108.55757	6870.85
3110.92066	6826.15
3113.28232	6820.15
3115.64255	6794.05
3118.00134	6790.15
3120.35871	6768.25
3122.71466	6758.35
3125.06917	6728.25
3127.42226	6737.55
3129.77393	6735.55
3132.12417	6732.05
3134.47299	6722.25
3136.82039	6723.95
3139.16636	6718.05
3141.51092	6713.75
3143.85406	6715.65
3146.19579	6698.35
3148.53609	6713.95
3150.87499	6726.15
3153.21246	6703.95
3155.54853	6739.85
3157.88318	6737.15
3160.21642	6711.95
3162.54826	6737.25
3164.87868	6723.95
3167.2077	6718.35
3169.5353	6730.45
3171.86151	6705.15
3174.18631	6707.65
3176.5097	6721.05
3178.83169	6704.55
3181.15228	6694.15
3183.47147	6667.35
3185.78926	6675.55
3188.10565	6655.45
3190.42065	6648.05
3192.73424	6659.55
3195.04645	6657.45
3197.35725	6647.25
3199.66667	6641.45
3201.97469	6656.05
3204.28132	6627.05
3206.58656	6668.05
3208.8904	6640.55
3211.19287	6657.75
3213.49394	6671.85
3215.79363	6669.15
3218.09193	6668.25
3220.38884	6655.85
3222.68438	6659.75
3224.97853	6666.15
3227.2713	6663.25
3229.56269	6636.85
3231.8527	6653.15
3234.14133	6633.85
3236.42858	6632.65
3238.71446	6610.35
3240.99896	6588.95
3243.28209	6601.45
3245.56384	6570.35
3247.84423	6588.55
3250.12324	6567.25
3252.40088	6536.35
3254.67715	6545.25
3256.95205	6544.75
3259.22558	6546.25
3261.49775	6543.75
3263.76855	6523.85
3266.03799	6508.15
3268.30606	6488.65
3270.57277	6486.55
3272.83812	6463.25
3275.10211	6467.85
3277.36474	6467.45
3279.62601	6464.45
3281.88593	6454.45
3284.14448	6458.95
3286.40168	6450.05
3288.65753	6466.55
3290.91202	6457.95
3293.16516	6457.75
3295.41695	6453.75
3297.66738	6390.75
3299.91647	6380.95
3302.16421	6330.15
3304.4106	6318.45
3306.65564	6283.05
3308.89933	6254.55
3311.14169	6197.15
3313.38269	6159.75
3315.62236	6114.05
3317.86068	6058.25
3320.09766	6012.35
3322.3333	5973.85
3324.5676	5955.65
3326.80056	5876.55
3329.03219	5859.85
3331.26248	3.35
3333.49143	-1.75
3335.71905	-0.25
