Data from AgNP_FTO_APTES_UA_100uM_CRN_10uM_R6G_10uM_NaF_0.1M_Addition_RamanShift__55__16-21-10-468.txt Node

Date: Thu Mar 24 16:21:10 GMT 2022
User: TCL
Spectrometer: QEP01345
Trigger mode: 4
Integration Time (sec): 7.000000E0
Scans to average: 10
Electric dark correction enabled: true
Nonlinearity correction enabled: false
Boxcar width: 0
XAxis mode: Raman Shifts
Number of Pixels in Spectrum: 1044
>>>>>Begin Spectral Data<<<<<
46.04893	-1.35
50.45542	-1.15
54.85868	-0.25
59.25871	0.25
63.6555	31.45
68.04907	34.75
72.43941	33.65
76.82654	33.15
81.21044	39.25
85.59113	38.95
89.96862	42.95
94.34289	42.05
98.71396	46.95
103.08183	42.85
107.4465	44.65
111.80798	47.05
116.16626	47.55
120.52136	49.25
124.87327	51.75
129.222	55.15
133.56755	59.75
137.90993	61.35
142.24913	73.15
146.58517	81.95
150.91804	93.25
155.24774	116.65
159.57429	143.95
163.89768	188.85
168.21792	254.65
172.53501	346.25
176.84895	493.05
181.15975	690.95
185.46741	978.65
189.77193	1366.95
194.07331	1845.35
198.37157	2410.25
202.6667	3009.75
206.9587	3633.45
211.24758	4309.35
215.53334	5070.15
219.81599	5940.85
224.09553	7002.75
228.37195	8137.25
232.64527	9307.05
236.91549	10380.05
241.18261	11183.15
245.44663	11656.55
249.70755	11966.85
253.96539	12221.25
258.22014	12504.45
262.4718	12677.45
266.72039	12699.65
270.96589	12448.65
275.20832	11983.15
279.44768	11467.35
283.68397	11012.25
287.91719	10873.35
292.14735	11095.45
296.37445	11843.85
300.59849	13151.15
304.81948	14799.35
309.03742	16189.75
313.25231	16622.25
317.46415	15577.85
321.67296	13448.25
325.87872	11509.65
330.08145	10527.75
334.28114	10451.45
338.47781	10812.35
342.67145	11414.65
346.86207	12429.15
351.04966	13995.15
355.23424	15816.75
359.4158	16979.05
363.59435	17257.95
367.76989	16921.45
371.94243	16289.85
376.11196	15664.15
380.27849	15036.75
384.44203	14440.05
388.60257	13843.15
392.76012	13466.65
396.91468	13609.55
401.06626	14171.45
405.21485	14519.45
409.36047	13783.05
413.50311	12164.15
417.64277	10611.55
421.77947	9692.15
425.9132	9276.95
430.04396	9118.45
434.17176	9134.15
438.2966	9354.15
442.41849	9776.15
446.53742	10294.75
450.6534	10674.45
454.76644	10778.45
458.87653	10533.85
462.98368	10205.45
467.08789	9810.55
471.18916	9373.65
475.2875	8877.25
479.38291	8484.45
483.4754	8187.05
487.56496	7988.05
491.6516	7902.65
495.73531	7892.35
499.81612	7986.65
503.89401	8242.05
507.96899	8593.75
512.04106	9023.65
516.11023	9493.55
520.1765	9836.15
524.23987	9896.75
528.30034	9672.65
532.35792	9440.65
536.41261	9090.65
540.46441	8562.85
544.51333	8226.25
548.55936	8280.45
552.60252	8721.35
556.64279	9257.85
560.6802	9563.45
564.71473	10229.15
568.7464	11593.05
572.7752	12046.45
576.80114	10540.55
580.82422	9025.75
584.84444	8343.55
588.86181	8162.55
592.87633	8203.15
596.888	8441.45
600.89682	9277.75
604.9028	12515.55
608.90594	21566.75
612.90624	33742.95
616.90371	31596.15
620.89834	16747.55
624.89015	9922.25
628.87913	8771.85
632.86528	9252.15
636.84862	9780.45
640.82913	9216.35
644.80683	7969.75
648.78172	7200.55
652.75379	7319.95
656.72306	8366.25
660.68952	9567.75
664.65319	9103.75
668.61405	7704.95
672.57211	7044.35
676.52738	6991.45
680.47986	6962.05
684.42955	6701.75
688.37646	6567.65
692.32058	6603.95
696.26192	6733.55
700.20048	6998.85
704.13626	7208.65
708.06928	7139.25
711.99952	6998.55
715.927	6991.75
719.85171	7189.45
723.77365	7283.95
727.69284	7168.35
731.60928	7008.85
735.52295	7001.45
739.43388	7063.95
743.34206	7077.55
747.24749	7056.55
751.15017	7086.75
755.05012	7446.55
758.94733	8790.65
762.8418	12128.55
766.73354	17239.15
770.62254	21499.65
774.50882	23287.55
778.39237	21829.65
782.27321	17031.45
786.15132	11892.55
790.02671	8947.75
793.89938	7702.05
797.76935	7202.45
801.6366	6960.55
805.50115	6861.15
809.36299	6793.45
813.22213	6720.55
817.07857	6708.85
820.93231	6735.55
824.78336	6839.55
828.63172	7033.15
832.47738	7075.45
836.32036	6933.75
840.16066	6686.15
843.99827	6509.75
847.8332	6454.65
851.66546	6452.15
855.49504	6452.55
859.32195	6431.65
863.1462	6363.75
866.96777	6316.95
870.78668	6334.25
874.60293	6408.35
878.41652	6517.65
882.22745	6675.85
886.03573	6770.75
889.84136	6717.05
893.64433	6639.25
897.44466	6660.85
901.24235	6705.45
905.0374	6627.85
908.8298	6437.25
912.61957	6299.65
916.40671	6263.25
920.19121	6348.45
923.97308	6536.05
927.75233	6967.65
931.52895	7403.05
935.30295	7195.85
939.07433	6514.55
942.84309	6006.35
946.60924	5750.85
950.37278	5629.15
954.13371	5576.15
957.89203	5541.95
961.64774	5537.95
965.40086	5511.15
969.15137	5492.25
972.89929	5473.45
976.64461	5463.25
980.38733	5454.05
984.12747	5470.55
987.86502	5484.65
991.59999	5540.05
995.33237	5670.15
999.06217	5842.15
1002.78939	6154.25
1006.51404	6505.35
1010.23611	6787.15
1013.95561	6811.65
1017.67255	6710.45
1021.38692	6493.65
1025.09872	6250.25
1028.80796	6079.95
1032.51465	6120.05
1036.21877	6246.75
1039.92035	6378.45
1043.61937	6489.05
1047.31584	6563.15
1051.00976	6568.25
1054.70114	6464.35
1058.38998	6408.15
1062.07627	6404.75
1065.76003	6425.05
1069.44126	6471.45
1073.11995	6664.65
1076.79611	7069.15
1080.46974	7698.95
1084.14085	8556.15
1087.80943	9286.55
1091.47549	9377.75
1095.13903	8787.45
1098.80005	7941.65
1102.45857	7401.65
1106.11456	7299.15
1109.76805	7648.15
1113.41903	8394.35
1117.06751	9612.85
1120.71348	11285.75
1124.35696	13172.35
1127.99793	14052.15
1131.63641	12806.45
1135.2724	10749.35
1138.90589	9244.95
1142.5369	8396.15
1146.16542	7812.45
1149.79145	7498.25
1153.415	7424.75
1157.03607	7573.35
1160.65467	7932.15
1164.27079	8661.85
1167.88443	9782.25
1171.49561	11716.35
1175.10432	14945.65
1178.71056	19006.65
1182.31434	21764.95
1185.91565	22009.25
1189.51451	20534.05
1193.11091	18121.25
1196.70485	15566.35
1200.29634	13793.05
1203.88538	12402.45
1207.47197	10675.65
1211.05612	9159.65
1214.63782	8268.45
1218.21708	7889.25
1221.79391	7780.95
1225.36829	7750.25
1228.94024	7698.55
1232.50976	7637.85
1236.07685	7671.45
1239.6415	7786.25
1243.20374	7956.75
1246.76355	8108.55
1250.32093	8318.45
1253.8759	8719.45
1257.42845	9366.15
1260.97859	10197.55
1264.52631	11066.75
1268.07163	11804.05
1271.61453	12281.95
1275.15503	12322.65
1278.69312	12183.75
1282.22882	12452.55
1285.76211	13324.25
1289.29301	14311.45
1292.82151	15167.55
1296.34761	16107.75
1299.87133	17923.65
1303.39266	21591.55
1306.9116	27576.75
1310.42815	33929.15
1313.94233	35986.45
1317.45412	32276.75
1320.96354	26243.85
1324.47058	20697.15
1327.97525	16543.65
1331.47754	14189.25
1334.97747	13407.45
1338.47502	13799.75
1341.97022	15434.35
1345.46305	18375.55
1348.95352	22266.35
1352.44163	26838.35
1355.92738	33752.15
1359.41078	44341.55
1362.89183	51832.15
1366.37053	45835.95
1369.84688	32954.95
1373.32088	23349.05
1376.79254	18165.95
1380.26186	15262.05
1383.72883	13396.05
1387.19347	11932.65
1390.65578	10672.15
1394.11575	9665.25
1397.57339	9131.15
1401.0287	8907.85
1404.48168	8757.25
1407.93234	8725.35
1411.38068	8880.65
1414.82669	9245.55
1418.27039	9487.15
1421.71177	9470.05
1425.15083	9318.35
1428.58758	9533.45
1432.02203	10001.85
1435.45416	10159.45
1438.88399	9956.05
1442.31151	9762.25
1445.73673	9835.85
1449.15965	9974.55
1452.58027	9817.45
1455.9986	9472.35
1459.41463	9374.35
1462.82837	9630.25
1466.23982	10156.75
1469.64898	10623.65
1473.05586	10811.65
1476.46045	10860.85
1479.86276	11145.25
1483.26279	11793.95
1486.66054	12875.35
1490.05602	14427.55
1493.44922	16740.15
1496.84016	20463.05
1500.22882	26384.65
1503.61521	34613.35
1506.99934	44179.65
1510.38121	51687.75
1513.76081	52693.55
1517.13816	45471.95
1520.51324	34294.15
1523.88607	24990.35
1527.25665	19281.05
1530.62498	16129.75
1533.99105	14278.95
1537.35488	13043.95
1540.71647	12313.55
1544.07581	12110.05
1547.4329	12150.65
1550.78776	12377.65
1554.14038	12772.75
1557.49077	13422.95
1560.83892	14386.65
1564.18484	15875.65
1567.52853	17413.25
1570.86999	18370.45
1574.20922	18777.75
1577.54624	18285.55
1580.88103	15885.75
1584.2136	12923.45
1587.54395	11103.75
1590.87208	10790.65
1594.19801	11770.55
1597.52172	13399.45
1600.84321	14078.55
1604.16251	13377.25
1607.47959	12242.25
1610.79447	11076.35
1614.10715	9764.15
1617.41763	8624.85
1620.7259	7993.15
1624.03199	7754.95
1627.33587	7889.85
1630.63757	8389.95
1633.93707	9394.85
1637.23439	11220.25
1640.52951	14467.75
1643.82246	19785.65
1647.11321	26491.55
1650.40179	30887.05
1653.68819	28832.25
1656.97241	21823.65
1660.25446	15000.85
1663.53433	10742.35
1666.81203	8435.75
1670.08756	7224.45
1673.36092	6503.85
1676.63211	6066.15
1679.90115	5778.75
1683.16801	5579.25
1686.43272	5435.25
1689.69527	5347.45
1692.95567	5269.25
1696.2139	5248.25
1699.46999	5225.35
1702.72392	5188.45
1705.97571	5180.05
1709.22535	5180.35
1712.47284	5181.55
1715.71819	5220.95
1718.96139	5172.95
1722.20246	5149.25
1725.44139	5072.95
1728.67818	4954.85
1731.91284	4840.65
1735.14537	4751.25
1738.37576	4697.55
1741.60403	4658.65
1744.83017	4624.55
1748.05418	4597.55
1751.27607	4550.55
1754.49584	4525.55
1757.71349	4502.55
1760.92903	4468.55
1764.14244	4461.15
1767.35375	4406.85
1770.56294	4336.15
1773.77002	4278.25
1776.97499	4241.55
1780.17785	4189.85
1783.37861	4131.95
1786.57727	4115.25
1789.77382	4074.85
1792.96828	4072.45
1796.16064	4064.15
1799.3509	4042.45
1802.53907	4036.55
1805.72514	4013.05
1808.90913	3970.85
1812.09102	3948.75
1815.27083	3945.35
1818.44856	3912.25
1821.6242	3889.85
1824.79776	3861.85
1827.96924	3843.95
1831.13864	3830.45
1834.30597	3810.85
1837.47122	3794.65
1840.6344	3767.35
1843.7955	3754.75
1846.95454	3737.25
1850.11151	3736.65
1853.26642	3731.35
1856.41926	3719.05
1859.57004	3713.15
1862.71876	3737.45
1865.86542	3732.05
1869.01003	3739.55
1872.15258	3734.45
1875.29308	3749.45
1878.43152	3736.45
1881.56792	3763.15
1884.70227	3740.15
1887.83457	3720.95
1890.96482	3718.65
1894.09304	3705.75
1897.21921	3702.55
1900.34335	3679.85
1903.46544	3697.65
1906.58551	3693.25
1909.70353	3694.25
1912.81953	3687.15
1915.93349	3677.95
1919.04543	3661.15
1922.15534	3654.85
1925.26322	3628.55
1928.36908	3603.45
1931.47292	3562.65
1934.57473	3539.65
1937.67453	3502.95
1940.77232	3475.35
1943.86808	3443.85
1946.96184	3452.35
1950.05358	3430.55
1953.14331	3429.75
1956.23103	3420.25
1959.31675	3418.55
1962.40046	3420.65
1965.48217	3428.05
1968.56188	3430.35
1971.63959	3454.85
1974.7153	3443.85
1977.78901	3414.35
1980.86073	3384.15
1983.93046	3333.05
1986.99819	3305.35
1990.06394	3280.75
1993.1277	3245.45
1996.18947	3244.35
1999.24925	3218.45
2002.30706	3207.15
2005.36288	3182.55
2008.41672	3168.25
2011.46859	3152.95
2014.51848	3156.25
2017.56639	3132.05
2020.61233	3125.55
2023.6563	3110.65
2026.6983	3099.45
2029.73833	3083.75
2032.7764	3079.65
2035.8125	3059.35
2038.84664	3056.45
2041.87881	3055.35
2044.90903	3050.45
2047.93729	3040.85
2050.96359	3030.15
2053.98794	3014.65
2057.01034	3004.95
2060.03078	2984.85
2063.04927	2977.25
2066.06582	2957.15
2069.08042	2943.05
2072.09307	2945.65
2075.10378	2938.65
2078.11255	2936.95
2081.11938	2943.45
2084.12426	2952.95
2087.12722	2950.55
2090.12824	2938.75
2093.12732	2947.25
2096.12447	2945.35
2099.11969	2942.35
2102.11299	2950.75
2105.10435	2945.15
2108.09379	2945.65
2111.08131	2959.85
2114.0669	2953.05
2117.05057	2973.15
2120.03233	2988.75
2123.01216	3014.25
2125.99008	3017.85
2128.96609	3022.05
2131.94018	3010.45
2134.91236	3006.45
2137.88263	2995.95
2140.851	2964.95
2143.81746	2955.65
2146.78201	2943.55
2149.74466	2917.45
2152.7054	2912.25
2155.66425	2887.85
2158.6212	2886.25
2161.57625	2866.45
2164.52941	2864.75
2167.48067	2867.05
2170.43004	2865.95
2173.37752	2877.15
2176.32311	2875.65
2179.26681	2862.35
2182.20863	2880.15
2185.14856	2877.15
2188.08661	2873.05
2191.02278	2858.15
2193.95707	2848.55
2196.88948	2833.45
2199.82001	2831.15
2202.74867	2819.55
2205.67545	2819.85
2208.60037	2815.75
2211.52341	2815.25
2214.44458	2813.45
2217.36388	2793.25
2220.28132	2792.75
2223.1969	2770.95
2226.11061	2764.95
2229.02246	2758.45
2231.93245	2752.25
2234.84058	2727.45
2237.74686	2734.55
2240.65128	2741.65
2243.55385	2728.45
2246.45456	2743.55
2249.35343	2743.25
2252.25044	2772.75
2255.14561	2796.15
2258.03893	2824.55
2260.93041	2846.75
2263.82004	2846.55
2266.70783	2841.15
2269.59378	2837.85
2272.4779	2823.45
2275.36017	2806.85
2278.24061	2791.75
2281.11922	2784.25
2283.996	2773.85
2286.87094	2749.15
2289.74405	2733.05
2292.61534	2704.95
2295.4848	2694.45
2298.35243	2685.85
2301.21824	2666.05
2304.08223	2673.75
2306.94439	2672.15
2309.80474	2661.85
2312.66327	2673.55
2315.51999	2656.95
2318.37489	2667.05
2321.22797	2675.15
2324.07925	2669.55
2326.92871	2659.85
2329.77637	2667.75
2332.62222	2654.25
2335.46626	2650.65
2338.3085	2655.15
2341.14893	2673.65
2343.98756	2684.55
2346.8244	2684.45
2349.65943	2697.65
2352.49267	2718.15
2355.32411	2743.65
2358.15376	2776.65
2360.98161	2798.35
2363.80768	2806.75
2366.63195	2841.15
2369.45444	2857.15
2372.27514	2855.95
2375.09405	2841.45
2377.91118	2825.15
2380.72652	2781.45
2383.54009	2753.55
2386.35187	2721.95
2389.16188	2689.45
2391.97011	2678.75
2394.77657	2639.55
2397.58125	2621.35
2400.38416	2595.45
2403.18529	2592.25
2405.98466	2575.15
2408.78226	2568.55
2411.57809	2559.75
2414.37216	2546.95
2417.16446	2565.85
2419.955	2555.75
2422.74378	2557.95
2425.5308	2568.05
2428.31606	2579.45
2431.09956	2588.35
2433.88131	2593.65
2436.6613	2596.85
2439.43954	2614.05
2442.21603	2618.45
2444.99077	2631.25
2447.76377	2648.95
2450.53501	2645.45
2453.30451	2654.15
2456.07226	2667.65
2458.83827	2647.95
2461.60254	2654.25
2464.36507	2647.75
2467.12586	2650.45
2469.88492	2639.65
2472.64224	2645.45
2475.39782	2668.95
2478.15167	2700.15
2480.90379	2720.25
2483.65417	2751.75
2486.40283	2782.55
2489.14976	2803.95
2491.89497	2816.85
2494.63845	2808.15
2497.3802	2795.05
2500.12024	2770.95
2502.85855	2742.65
2505.59514	2709.45
2508.33002	2683.25
2511.06318	2629.05
2513.79462	2593.25
2516.52435	2547.75
2519.25237	2519.55
2521.97867	2492.45
2524.70327	2492.35
2527.42616	2469.45
2530.14734	2459.35
2532.86681	2466.55
2535.58458	2472.85
2538.30065	2467.75
2541.01501	2496.55
2543.72768	2501.05
2546.43864	2493.85
2549.14791	2513.35
2551.85548	2513.45
2554.56136	2519.05
2557.26554	2521.45
2559.96803	2529.85
2562.66883	2511.15
2565.36794	2510.15
2568.06536	2520.55
2570.7611	2488.85
2573.45514	2482.55
2576.14751	2459.15
2578.83819	2455.45
2581.52719	2438.45
2584.21451	2448.15
2586.90015	2427.45
2589.58411	2427.45
2592.2664	2431.75
2594.94701	2429.85
2597.62594	2422.35
2600.30321	2418.05
2602.9788	2427.65
2605.65273	2426.95
2608.32498	2434.25
2610.99557	2434.35
2613.66449	2440.35
2616.33175	2437.75
2618.99734	2454.35
2621.66128	2453.15
2624.32355	2444.95
2626.98416	2442.15
2629.64311	2421.45
2632.30041	2411.05
2634.95605	2394.75
2637.61004	2384.25
2640.26238	2374.65
2642.91306	2368.85
2645.56209	2369.85
2648.20948	2369.45
2650.85521	2360.45
2653.4993	2365.85
2656.14175	2379.75
2658.78255	2398.55
2661.42171	2405.35
2664.05923	2408.05
2666.6951	2433.05
2669.32934	2445.15
2671.96194	2442.55
2674.59291	2451.95
2677.22224	2446.35
2679.84993	2454.35
2682.476	2439.75
2685.10043	2428.55
2687.72324	2429.45
2690.34441	2431.05
2692.96396	2421.45
2695.58188	2416.55
2698.19818	2411.25
2700.81285	2414.25
2703.4259	2428.55
2706.03733	2425.95
2708.64714	2421.95
2711.25533	2430.65
2713.86191	2435.75
2716.46687	2438.75
2719.07021	2448.25
2721.67194	2442.85
2724.27206	2432.25
2726.87057	2445.35
2729.46747	2442.25
2732.06276	2417.15
2734.65644	2398.45
2737.24852	2401.45
2739.83899	2369.85
2742.42786	2363.55
2745.01513	2342.55
2747.60079	2338.15
2750.18486	2324.95
2752.76733	2315.95
2755.3482	2320.25
2757.92747	2308.15
2760.50515	2300.75
2763.08123	2294.95
2765.65573	2293.15
2768.22863	2278.65
2770.79994	2278.55
2773.36967	2297.95
2775.9378	2288.45
2778.50435	2283.85
2781.06932	2293.05
2783.6327	2302.15
2786.1945	2310.05
2788.75471	2320.75
2791.31335	2309.35
2793.87041	2314.55
2796.42589	2322.25
2798.97979	2333.05
2801.53212	2335.95
2804.08288	2346.55
2806.63206	2360.55
2809.17967	2370.25
2811.72571	2389.85
2814.27018	2424.25
2816.81308	2443.55
2819.35442	2451.05
2821.89419	2488.35
2824.43239	2496.05
2826.96904	2492.05
2829.50412	2504.35
2832.03763	2497.15
2834.56959	2484.75
2837.1	2470.55
2839.62884	2470.05
2842.15613	2475.75
2844.68186	2496.75
2847.20604	2522.75
2849.72867	2539.65
2852.24974	2550.15
2854.76927	2573.35
2857.28724	2589.75
2859.80367	2607.65
2862.31855	2606.15
2864.83189	2632.95
2867.34368	2652.75
2869.85393	2661.85
2872.36264	2682.15
2874.8698	2680.65
2877.37543	2675.65
2879.87952	2652.15
2882.38207	2645.45
2884.88308	2624.25
2887.38256	2608.85
2889.88051	2594.95
2892.37692	2600.65
2894.8718	2583.85
2897.36515	2576.75
2899.85698	2576.25
2902.34727	2570.15
2904.83604	2569.15
2907.32328	2556.85
2909.809	2546.65
2912.29319	2541.35
2914.77587	2550.15
2917.25702	2513.05
2919.73665	2489.85
2922.21476	2477.85
2924.69136	2465.05
2927.16644	2452.65
2929.64	2446.15
2932.11205	2441.25
2934.58258	2433.95
2937.05161	2416.85
2939.51912	2419.55
2941.98513	2417.95
2944.44962	2410.75
2946.91261	2398.25
2949.37409	2401.05
2951.83407	2397.15
2954.29254	2398.45
2956.74951	2397.15
2959.20498	2407.35
2961.65895	2400.25
2964.11142	2391.25
2966.56239	2380.65
2969.01186	2368.55
2971.45984	2361.25
2973.90632	2354.75
2976.35131	2332.75
2978.7948	2326.75
2981.23681	2306.25
2983.67732	2311.35
2986.11635	2300.45
2988.55388	2299.05
2990.98993	2298.25
2993.4245	2294.35
2995.85758	2314.15
2998.28917	2324.15
3000.71928	2325.25
3003.14791	2336.25
3005.57506	2335.65
3008.00073	2329.05
3010.42493	2338.75
3012.84764	2332.55
3015.26888	2335.65
3017.68865	2339.85
3020.10694	2329.75
3022.52376	2325.45
3024.9391	2308.75
3027.35298	2311.65
3029.76539	2286.75
3032.17632	2261.95
3034.5858	2256.85
3036.9938	2229.75
3039.40034	2214.45
3041.80542	2206.85
3044.20903	2179.45
3046.61118	2191.25
3049.01187	2175.45
3051.4111	2183.45
3053.80888	2178.25
3056.20519	2165.35
3058.60005	2160.15
3060.99345	2160.95
3063.3854	2146.35
3065.7759	2143.15
3068.16494	2125.55
3070.55254	2127.55
3072.93868	2116.25
3075.32338	2106.95
3077.70662	2101.65
3080.08842	2109.35
3082.46878	2102.15
3084.84769	2103.75
3087.22515	2099.15
3089.60118	2105.05
3091.97576	2091.45
3094.3489	2094.75
3096.72061	2088.95
3099.09087	2097.35
3101.4597	2092.95
3103.82709	2092.75
3106.19305	2097.15
3108.55757	2091.95
3110.92066	2089.85
3113.28232	2096.85
3115.64255	2095.05
3118.00134	2098.65
3120.35871	2097.15
3122.71466	2087.05
3125.06917	2090.95
3127.42226	2100.85
3129.77393	2105.55
3132.12417	2106.05
3134.47299	2104.55
3136.82039	2108.45
3139.16636	2111.45
3141.51092	2112.55
3143.85406	2132.25
3146.19579	2142.05
3148.53609	2144.35
3150.87499	2166.85
3153.21246	2172.65
3155.54853	2187.45
3157.88318	2191.15
3160.21642	2191.45
3162.54826	2192.45
3164.87868	2201.35
3167.2077	2204.85
3169.5353	2196.05
3171.86151	2205.45
3174.18631	2206.55
3176.5097	2199.15
3178.83169	2200.65
3181.15228	2203.15
3183.47147	2209.75
3185.78926	2214.25
3188.10565	2220.95
3190.42065	2232.85
3192.73424	2236.15
3195.04645	2237.75
3197.35725	2253.15
3199.66667	2263.05
3201.97469	2274.55
3204.28132	2292.35
3206.58656	2307.65
3208.8904	2297.15
3211.19287	2319.15
3213.49394	2332.05
3215.79363	2339.85
3218.09193	2350.45
3220.38884	2360.55
3222.68438	2357.85
3224.97853	2356.05
3227.2713	2352.75
3229.56269	2354.55
3231.8527	2366.35
3234.14133	2358.65
3236.42858	2348.85
3238.71446	2355.75
3240.99896	2345.65
3243.28209	2347.95
3245.56384	2345.95
3247.84423	2344.95
3250.12324	2343.75
3252.40088	2352.35
3254.67715	2330.35
3256.95205	2341.45
3259.22558	2333.65
3261.49775	2336.85
3263.76855	2339.95
3266.03799	2330.55
3268.30606	2322.25
3270.57277	2313.45
3272.83812	2316.75
3275.10211	2319.65
3277.36474	2312.65
3279.62601	2311.65
3281.88593	2319.95
3284.14448	2319.25
3286.40168	2328.05
3288.65753	2320.05
3290.91202	2334.05
3293.16516	2329.95
3295.41695	2329.75
3297.66738	2326.05
3299.91647	2309.55
3302.16421	2277.55
3304.4106	2267.95
3306.65564	2258.55
3308.89933	2225.45
3311.14169	2200.95
3313.38269	2173.95
3315.62236	2165.55
3317.86068	2133.95
3320.09766	2096.05
3322.3333	2080.65
3324.5676	2074.75
3326.80056	2035.35
3329.03219	2014.85
3331.26248	0.95
3333.49143	0.05
3335.71905	1.35
