Data from AgNP_FTO_APTES_UA_100uM_CRN_20uM_R6G_10uM_NaF_0.1M_Addition_RamanShift__24__16-53-50-504.txt Node

Date: Thu Mar 24 16:53:50 GMT 2022
User: TCL
Spectrometer: QEP01345
Trigger mode: 4
Integration Time (sec): 7.000000E0
Scans to average: 10
Electric dark correction enabled: true
Nonlinearity correction enabled: false
Boxcar width: 0
XAxis mode: Raman Shifts
Number of Pixels in Spectrum: 1044
>>>>>Begin Spectral Data<<<<<
46.04893	-1.65
50.45542	0.15
54.85868	-0.05
59.25871	-0.25
63.6555	43.05
68.04907	44.85
72.43941	46.25
76.82654	45.75
81.21044	47.75
85.59113	47.55
89.96862	53.25
94.34289	51.35
98.71396	58.65
103.08183	58.45
107.4465	58.45
111.80798	64.45
116.16626	60.85
120.52136	61.65
124.87327	66.35
129.222	71.65
133.56755	72.55
137.90993	82.65
142.24913	90.95
146.58517	105.45
150.91804	118.75
155.24774	148.45
159.57429	187.15
163.89768	243.15
168.21792	329.95
172.53501	449.35
176.84895	633.55
181.15975	897.75
185.46741	1256.95
189.77193	1733.25
194.07331	2324.95
198.37157	3004.85
202.6667	3732.55
206.9587	4463.75
211.24758	5200.35
215.53334	6013.65
219.81599	6872.85
224.09553	7875.95
228.37195	8984.65
232.64527	10219.85
236.91549	11402.55
241.18261	12462.05
245.44663	13332.75
249.70755	14005.15
253.96539	14529.65
258.22014	15041.85
262.4718	15487.15
266.72039	15843.65
270.96589	15948.05
275.20832	15836.85
279.44768	15582.45
283.68397	15269.65
287.91719	15076.85
292.14735	15113.85
296.37445	15428.05
300.59849	16001.15
304.81948	16712.75
309.03742	17218.25
313.25231	17278.45
317.46415	16642.15
321.67296	15599.85
325.87872	14670.55
330.08145	14152.75
334.28114	14037.25
338.47781	14282.95
342.67145	14606.25
346.86207	15128.15
351.04966	15880.95
355.23424	16663.35
359.4158	17297.95
363.59435	17561.75
367.76989	17633.95
371.94243	17598.65
376.11196	17456.45
380.27849	17362.65
384.44203	17193.55
388.60257	17063.35
392.76012	16980.75
396.91468	17099.15
401.06626	17484.15
405.21485	17684.75
409.36047	17341.15
413.50311	16453.65
417.64277	15650.65
421.77947	15197.25
425.9132	15019.15
430.04396	15048.15
434.17176	15153.45
438.2966	15371.85
442.41849	15772.45
446.53742	16377.85
450.6534	16934.25
454.76644	17227.75
458.87653	17188.95
462.98368	16904.15
467.08789	16571.35
471.18916	16216.25
475.2875	15816.85
479.38291	15459.95
483.4754	15205.25
487.56496	14920.85
491.6516	14735.45
495.73531	14622.95
499.81612	14598.75
503.89401	14722.65
507.96899	14885.65
512.04106	15020.45
516.11023	15163.55
520.1765	15244.15
524.23987	15243.55
528.30034	15130.05
532.35792	14996.75
536.41261	14778.05
540.46441	14439.95
544.51333	14305.65
548.55936	14452.65
552.60252	14875.85
556.64279	15375.05
560.6802	15635.95
564.71473	15839.45
568.7464	16379.55
572.7752	16819.25
576.80114	16581.25
580.82422	16288.75
584.84444	16337.85
588.86181	16666.15
592.87633	17203.05
596.888	17531.85
600.89682	17618.55
604.9028	19056.25
608.90594	23907.65
612.90624	30060.75
616.90371	28371.55
620.89834	19771.95
624.89015	15659.95
628.87913	15013.05
632.86528	15237.05
636.84862	15540.65
640.82913	15217.35
644.80683	14365.55
648.78172	13769.35
652.75379	13725.95
656.72306	14270.95
660.68952	14992.95
664.65319	14753.85
668.61405	13967.55
672.57211	13615.65
676.52738	13626.75
680.47986	13602.25
684.42955	13401.45
688.37646	13308.65
692.32058	13355.35
696.26192	13485.35
700.20048	13719.25
704.13626	13881.15
708.06928	13815.85
711.99952	13703.85
715.927	13657.75
719.85171	13757.95
723.77365	13840.85
727.69284	13741.15
731.60928	13619.25
735.52295	13604.65
739.43388	13642.75
743.34206	13745.55
747.24749	13762.15
751.15017	13828.35
755.05012	14070.65
758.94733	14876.15
762.8418	16777.45
766.73354	20089.85
770.62254	23247.65
774.50882	24483.25
778.39237	23012.25
782.27321	19727.65
786.15132	16600.55
790.02671	14786.45
793.89938	13906.05
797.76935	13555.15
801.6366	13397.55
805.50115	13281.75
809.36299	13226.75
813.22213	13133.65
817.07857	13067.35
820.93231	13025.95
824.78336	13046.25
828.63172	13063.55
832.47738	13090.35
836.32036	13032.65
840.16066	12968.75
843.99827	12961.45
847.8332	12943.75
851.66546	12918.55
855.49504	12935.25
859.32195	12896.25
863.1462	12835.55
866.96777	12808.45
870.78668	12808.25
874.60293	12835.75
878.41652	12902.45
882.22745	13009.75
886.03573	13084.65
889.84136	13106.85
893.64433	13004.75
897.44466	12921.35
901.24235	12863.65
905.0374	12792.85
908.8298	12733.05
912.61957	12643.15
916.40671	12679.65
920.19121	12868.75
923.97308	13065.75
927.75233	13203.85
931.52895	13296.95
935.30295	13069.45
939.07433	12684.45
942.84309	12353.85
946.60924	12198.35
950.37278	12095.25
954.13371	12043.35
957.89203	11995.45
961.64774	11957.25
965.40086	11935.95
969.15137	11888.15
972.89929	11847.45
976.64461	11817.35
980.38733	11796.85
984.12747	11867.05
987.86502	11966.65
991.59999	12088.65
995.33237	12302.95
999.06217	12662.65
1002.78939	13086.35
1006.51404	13505.45
1010.23611	13786.05
1013.95561	13950.05
1017.67255	13908.65
1021.38692	13684.85
1025.09872	13358.65
1028.80796	13212.65
1032.51465	13357.55
1036.21877	13564.75
1039.92035	13662.65
1043.61937	13651.95
1047.31584	13542.65
1051.00976	13403.25
1054.70114	13300.55
1058.38998	13268.35
1062.07627	13309.95
1065.76003	13407.65
1069.44126	13489.95
1073.11995	13693.15
1076.79611	13953.95
1080.46974	14281.55
1084.14085	14680.45
1087.80943	15154.05
1091.47549	15304.25
1095.13903	15034.95
1098.80005	14518.85
1102.45857	14099.25
1106.11456	13979.75
1109.76805	14114.95
1113.41903	14527.85
1117.06751	15163.85
1120.71348	15905.45
1124.35696	16742.95
1127.99793	17260.55
1131.63641	17061.05
1135.2724	16182.45
1138.90589	15467.85
1142.5369	14994.65
1146.16542	14701.05
1149.79145	14553.15
1153.415	14540.55
1157.03607	14677.75
1160.65467	15137.55
1164.27079	15919.25
1167.88443	17069.75
1171.49561	18761.05
1175.10432	21344.15
1178.71056	24717.25
1182.31434	27548.35
1185.91565	28380.45
1189.51451	27389.65
1193.11091	25521.15
1196.70485	23388.05
1200.29634	21727.05
1203.88538	20435.35
1207.47197	19058.35
1211.05612	17876.35
1214.63782	17147.95
1218.21708	16882.25
1221.79391	16892.95
1225.36829	16978.75
1228.94024	16810.55
1232.50976	16436.35
1236.07685	16114.95
1239.6415	15987.15
1243.20374	16005.75
1246.76355	16135.05
1250.32093	16330.75
1253.8759	16711.25
1257.42845	17265.85
1260.97859	17951.35
1264.52631	18744.05
1268.07163	19499.55
1271.61453	20226.75
1275.15503	20779.05
1278.69312	21171.65
1282.22882	21595.45
1285.76211	22354.95
1289.29301	23322.85
1292.82151	24383.65
1296.34761	25697.35
1299.87133	27675.85
1303.39266	30539.85
1306.9116	34477.85
1310.42815	38539.25
1313.94233	40265.15
1317.45412	38754.75
1320.96354	35779.95
1324.47058	32669.85
1327.97525	29985.55
1331.47754	28249.15
1334.97747	27480.05
1338.47502	27460.35
1341.97022	28072.15
1345.46305	29219.85
1348.95352	30985.35
1352.44163	33408.45
1355.92738	37127.55
1359.41078	42823.95
1362.89183	47666.85
1366.37053	45632.45
1369.84688	37666.35
1373.32088	30313.05
1376.79254	26099.95
1380.26186	24043.55
1383.72883	22952.95
1387.19347	22074.95
1390.65578	21336.75
1394.11575	20882.25
1397.57339	20811.55
1401.0287	20970.85
1404.48168	21162.75
1407.93234	21141.45
1411.38068	20976.85
1414.82669	20716.95
1418.27039	20214.15
1421.71177	19544.15
1425.15083	18870.35
1428.58758	18581.35
1432.02203	18833.35
1435.45416	19259.05
1438.88399	19631.85
1442.31151	19818.15
1445.73673	19986.45
1449.15965	20164.85
1452.58027	20165.75
1455.9986	20056.95
1459.41463	20082.05
1462.82837	20462.85
1466.23982	21101.75
1469.64898	21742.95
1473.05586	22211.95
1476.46045	22452.25
1479.86276	22634.65
1483.26279	22866.55
1486.66054	23347.35
1490.05602	24108.35
1493.44922	25421.85
1496.84016	27322.15
1500.22882	30468.25
1503.61521	34893.05
1506.99934	39684.05
1510.38121	42987.95
1513.76081	42793.85
1517.13816	38788.65
1520.51324	33179.55
1523.88607	28557.95
1527.25665	25818.35
1530.62498	24475.05
1533.99105	23686.75
1537.35488	23084.35
1540.71647	22551.15
1544.07581	22014.35
1547.4329	21535.05
1550.78776	21241.45
1554.14038	21109.95
1557.49077	21218.75
1560.83892	21606.35
1564.18484	22307.55
1567.52853	23159.25
1570.86999	23906.65
1574.20922	24377.45
1577.54624	24235.15
1580.88103	22984.65
1584.2136	21335.65
1587.54395	20592.25
1590.87208	21100.85
1594.19801	22633.65
1597.52172	24623.65
1600.84321	25487.15
1604.16251	24544.15
1607.47959	22678.65
1610.79447	20712.75
1614.10715	18777.85
1617.41763	17209.75
1620.7259	16147.05
1624.03199	15602.55
1627.33587	15650.45
1630.63757	16154.65
1633.93707	17334.75
1637.23439	19330.85
1640.52951	22540.25
1643.82246	26853.65
1647.11321	31321.65
1650.40179	33479.55
1653.68819	31347.25
1656.97241	26060.65
1660.25446	20721.55
1663.53433	17130.75
1666.81203	15028.65
1670.08756	13795.45
1673.36092	13017.75
1676.63211	12524.75
1679.90115	12190.85
1683.16801	11947.95
1686.43272	11764.45
1689.69527	11594.55
1692.95567	11501.75
1696.2139	11424.25
1699.46999	11352.35
1702.72392	11297.05
1705.97571	11276.75
1709.22535	11231.75
1712.47284	11230.65
1715.71819	11221.15
1718.96139	11169.05
1722.20246	11143.25
1725.44139	11049.85
1728.67818	10952.95
1731.91284	10837.55
1735.14537	10754.75
1738.37576	10696.55
1741.60403	10657.55
1744.83017	10612.15
1748.05418	10593.15
1751.27607	10549.25
1754.49584	10511.65
1757.71349	10482.15
1760.92903	10478.15
1764.14244	10461.05
1767.35375	10434.75
1770.56294	10380.75
1773.77002	10330.65
1776.97499	10307.25
1780.17785	10266.65
1783.37861	10233.75
1786.57727	10179.55
1789.77382	10185.25
1792.96828	10171.25
1796.16064	10142.75
1799.3509	10127.45
1802.53907	10111.75
1805.72514	10089.15
1808.90913	10051.25
1812.09102	9989.45
1815.27083	9959.75
1818.44856	9958.35
1821.6242	9945.65
1824.79776	9905.15
1827.96924	9868.45
1831.13864	9853.85
1834.30597	9866.25
1837.47122	9806.75
1840.6344	9828.35
1843.7955	9801.75
1846.95454	9787.95
1850.11151	9772.45
1853.26642	9758.15
1856.41926	9765.25
1859.57004	9759.15
1862.71876	9761.55
1865.86542	9750.35
1869.01003	9760.05
1872.15258	9725.75
1875.29308	9733.55
1878.43152	9755.05
1881.56792	9755.95
1884.70227	9730.75
1887.83457	9754.15
1890.96482	9728.85
1894.09304	9702.75
1897.21921	9694.35
1900.34335	9652.55
1903.46544	9670.55
1906.58551	9693.85
1909.70353	9671.35
1912.81953	9659.25
1915.93349	9644.25
1919.04543	9625.05
1922.15534	9603.05
1925.26322	9566.65
1928.36908	9549.45
1931.47292	9517.15
1934.57473	9489.55
1937.67453	9475.25
1940.77232	9449.95
1943.86808	9412.35
1946.96184	9394.15
1950.05358	9356.05
1953.14331	9323.05
1956.23103	9280.85
1959.31675	9266.25
1962.40046	9254.35
1965.48217	9236.85
1968.56188	9231.45
1971.63959	9209.15
1974.7153	9185.55
1977.78901	9180.75
1980.86073	9128.25
1983.93046	9085.25
1986.99819	9041.85
1990.06394	9016.05
1993.1277	8978.95
1996.18947	8956.35
1999.24925	8930.15
2002.30706	8881.95
2005.36288	8840.95
2008.41672	8823.95
2011.46859	8791.25
2014.51848	8763.15
2017.56639	8735.75
2020.61233	8737.05
2023.6563	8708.35
2026.6983	8691.15
2029.73833	8658.75
2032.7764	8628.55
2035.8125	8646.15
2038.84664	8609.25
2041.87881	8613.05
2044.90903	8571.15
2047.93729	8553.65
2050.96359	8556.35
2053.98794	8510.95
2057.01034	8530.25
2060.03078	8499.35
2063.04927	8477.85
2066.06582	8480.35
2069.08042	8507.35
2072.09307	8476.85
2075.10378	8477.45
2078.11255	8460.35
2081.11938	8455.05
2084.12426	8449.85
2087.12722	8438.95
2090.12824	8431.65
2093.12732	8429.55
2096.12447	8438.05
2099.11969	8461.95
2102.11299	8453.75
2105.10435	8479.65
2108.09379	8444.95
2111.08131	8462.85
2114.0669	8476.75
2117.05057	8510.65
2120.03233	8483.65
2123.01216	8501.75
2125.99008	8512.85
2128.96609	8518.35
2131.94018	8520.95
2134.91236	8512.25
2137.88263	8509.95
2140.851	8545.45
2143.81746	8527.25
2146.78201	8519.05
2149.74466	8493.25
2152.7054	8482.55
2155.66425	8479.05
2158.6212	8483.55
2161.57625	8479.25
2164.52941	8470.15
2167.48067	8464.35
2170.43004	8440.55
2173.37752	8439.65
2176.32311	8445.85
2179.26681	8459.15
2182.20863	8462.75
2185.14856	8461.35
2188.08661	8447.25
2191.02278	8457.85
2193.95707	8457.35
2196.88948	8438.15
2199.82001	8435.65
2202.74867	8406.95
2205.67545	8429.25
2208.60037	8428.75
2211.52341	8401.55
2214.44458	8390.05
2217.36388	8375.35
2220.28132	8369.55
2223.1969	8353.05
2226.11061	8335.15
2229.02246	8303.45
2231.93245	8280.95
2234.84058	8282.25
2237.74686	8260.65
2240.65128	8284.65
2243.55385	8240.15
2246.45456	8263.15
2249.35343	8239.05
2252.25044	8235.05
2255.14561	8230.35
2258.03893	8260.15
2260.93041	8222.15
2263.82004	8203.75
2266.70783	8189.65
2269.59378	8189.25
2272.4779	8176.15
2275.36017	8167.45
2278.24061	8137.35
2281.11922	8109.95
2283.996	8095.25
2286.87094	8070.55
2289.74405	8066.35
2292.61534	8035.35
2295.4848	8030.85
2298.35243	8045.95
2301.21824	8010.45
2304.08223	8046.55
2306.94439	8051.95
2309.80474	8023.55
2312.66327	8036.45
2315.51999	8059.35
2318.37489	8029.45
2321.22797	8027.45
2324.07925	8006.45
2326.92871	7985.25
2329.77637	7997.15
2332.62222	7998.65
2335.46626	7969.05
2338.3085	7968.25
2341.14893	7977.95
2343.98756	8004.05
2346.8244	8014.35
2349.65943	8039.65
2352.49267	8026.85
2355.32411	8044.95
2358.15376	8067.35
2360.98161	8061.35
2363.80768	8046.85
2366.63195	8096.35
2369.45444	8095.55
2372.27514	8050.95
2375.09405	8037.95
2377.91118	8033.35
2380.72652	7986.35
2383.54009	7976.25
2386.35187	7941.35
2389.16188	7926.15
2391.97011	7883.35
2394.77657	7851.85
2397.58125	7836.85
2400.38416	7853.85
2403.18529	7810.75
2405.98466	7804.25
2408.78226	7755.35
2411.57809	7747.95
2414.37216	7749.65
2417.16446	7745.85
2419.955	7738.95
2422.74378	7724.35
2425.5308	7732.15
2428.31606	7719.35
2431.09956	7735.25
2433.88131	7721.65
2436.6613	7720.85
2439.43954	7726.15
2442.21603	7716.65
2444.99077	7722.85
2447.76377	7729.95
2450.53501	7727.65
2453.30451	7757.35
2456.07226	7742.35
2458.83827	7732.45
2461.60254	7742.15
2464.36507	7759.75
2467.12586	7732.15
2469.88492	7728.55
2472.64224	7749.05
2475.39782	7776.35
2478.15167	7788.85
2480.90379	7796.45
2483.65417	7813.75
2486.40283	7833.15
2489.14976	7855.45
2491.89497	7847.75
2494.63845	7862.35
2497.3802	7828.25
2500.12024	7847.05
2502.85855	7816.95
2505.59514	7815.15
2508.33002	7770.35
2511.06318	7737.45
2513.79462	7738.05
2516.52435	7698.05
2519.25237	7679.85
2521.97867	7666.15
2524.70327	7657.05
2527.42616	7642.35
2530.14734	7651.45
2532.86681	7634.55
2535.58458	7630.15
2538.30065	7624.55
2541.01501	7623.75
2543.72768	7645.35
2546.43864	7635.05
2549.14791	7622.15
2551.85548	7606.25
2554.56136	7611.45
2557.26554	7584.15
2559.96803	7581.25
2562.66883	7608.75
2565.36794	7575.55
2568.06536	7578.15
2570.7611	7560.15
2573.45514	7546.55
2576.14751	7531.25
2578.83819	7530.55
2581.52719	7539.95
2584.21451	7527.25
2586.90015	7541.85
2589.58411	7524.75
2592.2664	7529.35
2594.94701	7515.05
2597.62594	7532.25
2600.30321	7494.15
2602.9788	7503.15
2605.65273	7498.05
2608.32498	7504.75
2610.99557	7494.75
2613.66449	7485.55
2616.33175	7515.85
2618.99734	7507.65
2621.66128	7514.25
2624.32355	7510.15
2626.98416	7520.25
2629.64311	7512.85
2632.30041	7487.95
2634.95605	7495.05
2637.61004	7500.05
2640.26238	7471.25
2642.91306	7480.55
2645.56209	7484.15
2648.20948	7456.25
2650.85521	7443.15
2653.4993	7466.75
2656.14175	7477.35
2658.78255	7458.35
2661.42171	7480.65
2664.05923	7484.85
2666.6951	7506.75
2669.32934	7521.25
2671.96194	7506.45
2674.59291	7531.05
2677.22224	7499.05
2679.84993	7515.15
2682.476	7492.75
2685.10043	7479.35
2687.72324	7469.25
2690.34441	7470.65
2692.96396	7479.55
2695.58188	7462.35
2698.19818	7465.35
2700.81285	7477.65
2703.4259	7477.55
2706.03733	7485.35
2708.64714	7469.25
2711.25533	7472.65
2713.86191	7476.65
2716.46687	7519.35
2719.07021	7518.65
2721.67194	7525.85
2724.27206	7526.25
2726.87057	7524.85
2729.46747	7501.65
2732.06276	7509.95
2734.65644	7492.15
2737.24852	7503.55
2739.83899	7482.45
2742.42786	7473.75
2745.01513	7455.45
2747.60079	7452.35
2750.18486	7441.15
2752.76733	7432.35
2755.3482	7436.15
2757.92747	7430.35
2760.50515	7434.35
2763.08123	7424.05
2765.65573	7419.35
2768.22863	7418.15
2770.79994	7432.65
2773.36967	7413.65
2775.9378	7431.05
2778.50435	7411.85
2781.06932	7408.25
2783.6327	7424.25
2786.1945	7421.45
2788.75471	7427.15
2791.31335	7404.95
2793.87041	7400.45
2796.42589	7403.45
2798.97979	7384.15
2801.53212	7367.75
2804.08288	7384.75
2806.63206	7349.25
2809.17967	7373.75
2811.72571	7360.75
2814.27018	7378.05
2816.81308	7369.55
2819.35442	7357.05
2821.89419	7352.15
2824.43239	7393.25
2826.96904	7366.75
2829.50412	7349.15
2832.03763	7336.05
2834.56959	7332.35
2837.1	7327.75
2839.62884	7348.55
2842.15613	7337.95
2844.68186	7332.75
2847.20604	7345.05
2849.72867	7375.85
2852.24974	7378.35
2854.76927	7360.95
2857.28724	7357.05
2859.80367	7355.55
2862.31855	7366.75
2864.83189	7377.75
2867.34368	7381.15
2869.85393	7394.45
2872.36264	7374.55
2874.8698	7362.95
2877.37543	7380.15
2879.87952	7369.65
2882.38207	7358.15
2884.88308	7357.85
2887.38256	7380.15
2889.88051	7379.85
2892.37692	7350.15
2894.8718	7349.15
2897.36515	7370.55
2899.85698	7360.85
2902.34727	7375.55
2904.83604	7375.55
2907.32328	7400.65
2909.809	7383.45
2912.29319	7388.25
2914.77587	7378.75
2917.25702	7398.15
2919.73665	7391.45
2922.21476	7356.55
2924.69136	7337.05
2927.16644	7339.95
2929.64	7339.35
2932.11205	7327.25
2934.58258	7292.65
2937.05161	7286.45
2939.51912	7287.35
2941.98513	7257.35
2944.44962	7256.05
2946.91261	7228.15
2949.37409	7227.75
2951.83407	7233.75
2954.29254	7254.95
2956.74951	7240.25
2959.20498	7259.05
2961.65895	7252.15
2964.11142	7225.35
2966.56239	7207.35
2969.01186	7219.75
2971.45984	7183.35
2973.90632	7183.15
2976.35131	7156.15
2978.7948	7109.05
2981.23681	7119.85
2983.67732	7101.65
2986.11635	7083.75
2988.55388	7067.25
2990.98993	7058.15
2993.4245	7054.55
2995.85758	7059.95
2998.28917	7038.45
3000.71928	7026.15
3003.14791	7004.45
3005.57506	7006.35
3008.00073	6988.25
3010.42493	6995.45
3012.84764	6987.55
3015.26888	6979.15
3017.68865	6961.95
3020.10694	6971.25
3022.52376	6930.45
3024.9391	6929.45
3027.35298	6908.75
3029.76539	6900.65
3032.17632	6893.75
3034.5858	6880.35
3036.9938	6863.65
3039.40034	6882.95
3041.80542	6847.85
3044.20903	6855.95
3046.61118	6841.15
3049.01187	6827.25
3051.4111	6822.85
3053.80888	6792.75
3056.20519	6797.85
3058.60005	6779.65
3060.99345	6764.75
3063.3854	6748.35
3065.7759	6732.05
3068.16494	6716.05
3070.55254	6689.35
3072.93868	6675.35
3075.32338	6667.95
3077.70662	6647.95
3080.08842	6616.55
3082.46878	6634.35
3084.84769	6629.45
3087.22515	6623.95
3089.60118	6626.25
3091.97576	6615.35
3094.3489	6613.75
3096.72061	6611.35
3099.09087	6621.35
3101.4597	6614.55
3103.82709	6622.15
3106.19305	6601.55
3108.55757	6604.35
3110.92066	6582.15
3113.28232	6584.85
3115.64255	6582.95
3118.00134	6580.15
3120.35871	6545.85
3122.71466	6533.15
3125.06917	6534.75
3127.42226	6524.45
3129.77393	6513.15
3132.12417	6503.05
3134.47299	6509.25
3136.82039	6519.85
3139.16636	6493.65
3141.51092	6496.15
3143.85406	6502.15
3146.19579	6498.85
3148.53609	6492.45
3150.87499	6510.75
3153.21246	6512.55
3155.54853	6555.15
3157.88318	6550.05
3160.21642	6526.55
3162.54826	6528.15
3164.87868	6524.25
3167.2077	6489.35
3169.5353	6526.65
3171.86151	6534.15
3174.18631	6513.35
3176.5097	6520.75
3178.83169	6495.15
3181.15228	6498.55
3183.47147	6510.05
3185.78926	6500.35
3188.10565	6491.75
3190.42065	6480.85
3192.73424	6486.65
3195.04645	6485.85
3197.35725	6498.55
3199.66667	6492.05
3201.97469	6496.95
3204.28132	6521.35
3206.58656	6515.05
3208.8904	6532.65
3211.19287	6534.85
3213.49394	6537.85
3215.79363	6537.65
3218.09193	6556.85
3220.38884	6540.95
3222.68438	6575.45
3224.97853	6569.45
3227.2713	6547.55
3229.56269	6546.75
3231.8527	6545.05
3234.14133	6539.65
3236.42858	6536.25
3238.71446	6548.35
3240.99896	6522.65
3243.28209	6529.05
3245.56384	6516.65
3247.84423	6523.85
3250.12324	6495.85
3252.40088	6499.95
3254.67715	6504.65
3256.95205	6502.85
3259.22558	6494.75
3261.49775	6504.85
3263.76855	6496.55
3266.03799	6476.85
3268.30606	6474.75
3270.57277	6485.65
3272.83812	6451.95
3275.10211	6456.65
3277.36474	6443.85
3279.62601	6451.35
3281.88593	6438.95
3284.14448	6481.65
3286.40168	6479.65
3288.65753	6475.05
3290.91202	6483.95
3293.16516	6458.65
3295.41695	6455.95
3297.66738	6412.95
3299.91647	6389.85
3302.16421	6342.55
3304.4106	6335.05
3306.65564	6286.25
3308.89933	6264.45
3311.14169	6224.95
3313.38269	6173.35
3315.62236	6129.55
3317.86068	6082.15
3320.09766	6005.55
3322.3333	5983.95
3324.5676	5970.85
3326.80056	5877.45
3329.03219	5846.85
3331.26248	2.65
3333.49143	-1.35
3335.71905	0.65
