Data from AgNP_FTO_APTES_UA_100uM_CRN_5uM_R6G_10uM_NaF_0.1M_Addition_RamanShift__17__14-58-20-373.txt Node

Date: Thu Mar 24 14:58:20 GMT 2022
User: TCL
Spectrometer: QEP01345
Trigger mode: 4
Integration Time (sec): 7.000000E0
Scans to average: 10
Electric dark correction enabled: true
Nonlinearity correction enabled: false
Boxcar width: 0
XAxis mode: Raman Shifts
Number of Pixels in Spectrum: 1044
>>>>>Begin Spectral Data<<<<<
46.04893	-1.85
50.45542	0.75
54.85868	0.25
59.25871	-1.05
63.6555	26.55
68.04907	32.55
72.43941	29.65
76.82654	31.15
81.21044	36.75
85.59113	33.35
89.96862	38.75
94.34289	34.05
98.71396	39.15
103.08183	38.65
107.4465	40.55
111.80798	44.05
116.16626	40.25
120.52136	42.25
124.87327	44.25
129.222	43.05
133.56755	50.35
137.90993	51.15
142.24913	59.55
146.58517	65.55
150.91804	72.25
155.24774	89.45
159.57429	108.75
163.89768	139.75
168.21792	186.55
172.53501	257.35
176.84895	354.35
181.15975	500.65
185.46741	707.35
189.77193	967.45
194.07331	1293.35
198.37157	1680.35
202.6667	2099.25
206.9587	2519.05
211.24758	2946.55
215.53334	3399.05
219.81599	3899.35
224.09553	4484.45
228.37195	5114.25
232.64527	5837.75
236.91549	6506.65
241.18261	7106.65
245.44663	7586.25
249.70755	7897.55
253.96539	8168.35
258.22014	8416.65
262.4718	8650.75
266.72039	8821.45
270.96589	8883.85
275.20832	8766.95
279.44768	8588.15
283.68397	8346.45
287.91719	8213.45
292.14735	8191.05
296.37445	8425.05
300.59849	8837.75
304.81948	9339.85
309.03742	9735.35
313.25231	9830.15
317.46415	9446.25
321.67296	8719.15
325.87872	8064.85
330.08145	7729.95
334.28114	7678.85
338.47781	7836.95
342.67145	8057.25
346.86207	8385.55
351.04966	8896.55
355.23424	9453.15
359.4158	9913.25
363.59435	10118.45
367.76989	10151.25
371.94243	10043.45
376.11196	9939.45
380.27849	9820.75
384.44203	9704.35
388.60257	9565.05
392.76012	9497.95
396.91468	9585.55
401.06626	9848.45
405.21485	10006.25
409.36047	9742.25
413.50311	9142.75
417.64277	8524.15
421.77947	8182.25
425.9132	8038.95
430.04396	7992.15
434.17176	8038.35
438.2966	8096.25
442.41849	8354.95
446.53742	8613.35
450.6534	8887.05
454.76644	9056.45
458.87653	9015.55
462.98368	8870.25
467.08789	8701.15
471.18916	8484.25
475.2875	8268.45
479.38291	8066.45
483.4754	7907.45
487.56496	7782.25
491.6516	7708.15
495.73531	7706.95
499.81612	7761.35
503.89401	7853.35
507.96899	7981.85
512.04106	8101.75
516.11023	8226.75
520.1765	8323.85
524.23987	8350.35
528.30034	8306.15
532.35792	8185.85
536.41261	8052.05
540.46441	7844.85
544.51333	7709.35
548.55936	7731.05
552.60252	7906.05
556.64279	8168.65
560.6802	8305.25
564.71473	8433.95
568.7464	8794.35
572.7752	9042.05
576.80114	8764.15
580.82422	8507.85
584.84444	8546.05
588.86181	8696.05
592.87633	8905.45
596.888	9105.15
600.89682	9280.55
604.9028	10341.15
608.90594	13622.15
612.90624	18058.85
616.90371	17364.55
620.89834	11502.85
624.89015	8573.45
628.87913	8054.45
632.86528	8246.85
636.84862	8471.75
640.82913	8347.75
644.80683	7821.45
648.78172	7413.75
652.75379	7395.15
656.72306	7807.25
660.68952	8304.85
664.65319	8201.75
668.61405	7622.95
672.57211	7387.75
676.52738	7410.25
680.47986	7365.25
684.42955	7217.95
688.37646	7120.65
692.32058	7130.05
696.26192	7205.85
700.20048	7339.45
704.13626	7427.15
708.06928	7404.55
711.99952	7321.95
715.927	7324.85
719.85171	7375.75
723.77365	7433.95
727.69284	7398.85
731.60928	7320.75
735.52295	7319.85
739.43388	7339.95
743.34206	7362.35
747.24749	7391.35
751.15017	7369.35
755.05012	7496.95
758.94733	7949.05
762.8418	9182.55
766.73354	11269.35
770.62254	13429.15
774.50882	14419.05
778.39237	13714.15
782.27321	11637.45
786.15132	9537.85
790.02671	8216.25
793.89938	7579.75
797.76935	7315.45
801.6366	7193.95
805.50115	7156.95
809.36299	7080.75
813.22213	7025.95
817.07857	6984.35
820.93231	6963.45
824.78336	6968.55
828.63172	7015.55
832.47738	7042.75
836.32036	6994.65
840.16066	6950.65
843.99827	6915.65
847.8332	6897.55
851.66546	6900.55
855.49504	6898.85
859.32195	6906.45
863.1462	6907.75
866.96777	6869.65
870.78668	6878.45
874.60293	6899.95
878.41652	6914.85
882.22745	6993.95
886.03573	7072.15
889.84136	7067.65
893.64433	7007.95
897.44466	6965.95
901.24235	6942.55
905.0374	6886.15
908.8298	6807.95
912.61957	6762.05
916.40671	6747.35
920.19121	6824.05
923.97308	6927.95
927.75233	7105.05
931.52895	7211.65
935.30295	7132.85
939.07433	6875.75
942.84309	6648.55
946.60924	6506.45
950.37278	6441.65
954.13371	6402.45
957.89203	6365.35
961.64774	6376.55
965.40086	6326.55
969.15137	6312.35
972.89929	6303.45
976.64461	6312.25
980.38733	6316.45
984.12747	6326.45
987.86502	6352.05
991.59999	6409.05
995.33237	6531.45
999.06217	6701.05
1002.78939	6912.05
1006.51404	7124.85
1010.23611	7305.85
1013.95561	7412.35
1017.67255	7414.25
1021.38692	7295.45
1025.09872	7094.85
1028.80796	6961.95
1032.51465	6988.65
1036.21877	7102.45
1039.92035	7156.05
1043.61937	7171.45
1047.31584	7163.25
1051.00976	7139.05
1054.70114	7093.65
1058.38998	7065.35
1062.07627	7051.35
1065.76003	7098.85
1069.44126	7149.85
1073.11995	7305.25
1076.79611	7509.45
1080.46974	7745.65
1084.14085	8037.05
1087.80943	8326.05
1091.47549	8427.05
1095.13903	8233.15
1098.80005	7922.25
1102.45857	7627.75
1106.11456	7532.15
1109.76805	7639.55
1113.41903	7880.55
1117.06751	8262.55
1120.71348	8763.55
1124.35696	9356.85
1127.99793	9787.55
1131.63641	9655.05
1135.2724	9060.75
1138.90589	8502.05
1142.5369	8133.15
1146.16542	7895.85
1149.79145	7737.65
1153.415	7666.15
1157.03607	7742.75
1160.65467	7955.35
1164.27079	8368.65
1167.88443	9013.65
1171.49561	9989.35
1175.10432	11546.75
1178.71056	13622.55
1182.31434	15340.55
1185.91565	15821.25
1189.51451	15164.65
1193.11091	13939.05
1196.70485	12616.95
1200.29634	11616.45
1203.88538	10796.35
1207.47197	9892.05
1211.05612	9127.65
1214.63782	8694.75
1218.21708	8502.75
1221.79391	8516.35
1225.36829	8573.65
1228.94024	8557.85
1232.50976	8452.95
1236.07685	8337.85
1239.6415	8266.05
1243.20374	8256.55
1246.76355	8340.75
1250.32093	8452.45
1253.8759	8672.15
1257.42845	9010.25
1260.97859	9415.55
1264.52631	9904.55
1268.07163	10415.25
1271.61453	10877.25
1275.15503	11214.65
1278.69312	11407.65
1282.22882	11590.75
1285.76211	11949.65
1289.29301	12472.45
1292.82151	13010.55
1296.34761	13665.05
1299.87133	14624.05
1303.39266	16298.55
1306.9116	18804.85
1310.42815	21474.35
1313.94233	22614.05
1317.45412	21492.65
1320.96354	19279.85
1324.47058	17092.75
1327.97525	15330.35
1331.47754	14148.15
1334.97747	13607.25
1338.47502	13531.75
1341.97022	13927.05
1345.46305	14814.55
1348.95352	16231.05
1352.44163	18139.65
1355.92738	20738.25
1359.41078	24596.45
1362.89183	28138.85
1366.37053	26930.55
1369.84688	21637.35
1373.32088	16762.85
1376.79254	13990.35
1380.26186	12613.45
1383.72883	11736.35
1387.19347	11061.35
1390.65578	10431.75
1394.11575	9984.95
1397.57339	9778.85
1401.0287	9743.75
1404.48168	9746.75
1407.93234	9729.75
1411.38068	9738.75
1414.82669	9790.85
1418.27039	9744.25
1421.71177	9639.45
1425.15083	9460.85
1428.58758	9345.25
1432.02203	9498.75
1435.45416	9757.25
1438.88399	9876.35
1442.31151	9894.55
1445.73673	9922.75
1449.15965	10029.35
1452.58027	9999.95
1455.9986	9935.15
1459.41463	9949.95
1462.82837	10111.05
1466.23982	10484.65
1469.64898	10830.85
1473.05586	11096.15
1476.46045	11255.75
1479.86276	11459.25
1483.26279	11714.85
1486.66054	12107.75
1490.05602	12751.95
1493.44922	13656.15
1496.84016	15089.15
1500.22882	17345.15
1503.61521	20490.55
1506.99934	24060.45
1510.38121	26682.15
1513.76081	26855.65
1517.13816	24080.05
1520.51324	19895.45
1523.88607	16299.55
1527.25665	14024.55
1530.62498	12790.95
1533.99105	12056.85
1537.35488	11565.05
1540.71647	11192.15
1544.07581	10959.95
1547.4329	10841.35
1550.78776	10791.95
1554.14038	10878.05
1557.49077	11034.35
1560.83892	11305.05
1564.18484	11860.65
1567.52853	12587.45
1570.86999	13150.55
1574.20922	13517.65
1577.54624	13299.05
1580.88103	12346.65
1584.2136	11047.25
1587.54395	10309.15
1590.87208	10381.25
1594.19801	11045.75
1597.52172	12124.15
1600.84321	12620.45
1604.16251	12133.65
1607.47959	11311.65
1610.79447	10416.45
1614.10715	9521.75
1617.41763	8746.45
1620.7259	8229.05
1624.03199	7982.45
1627.33587	7993.95
1630.63757	8268.95
1633.93707	8848.45
1637.23439	9931.35
1640.52951	11730.15
1643.82246	14282.95
1647.11321	17291.55
1650.40179	19110.85
1653.68819	18264.75
1656.97241	15063.65
1660.25446	11708.55
1663.53433	9399.45
1666.81203	8091.35
1670.08756	7348.85
1673.36092	6896.75
1676.63211	6624.45
1679.90115	6431.65
1683.16801	6288.35
1686.43272	6159.65
1689.69527	6106.65
1692.95567	6053.95
1696.2139	6036.55
1699.46999	5997.55
1702.72392	5991.35
1705.97571	5960.55
1709.22535	5938.45
1712.47284	5929.15
1715.71819	5936.75
1718.96139	5904.25
1722.20246	5860.75
1725.44139	5830.35
1728.67818	5760.55
1731.91284	5711.05
1735.14537	5627.95
1738.37576	5601.25
1741.60403	5588.35
1744.83017	5539.25
1748.05418	5536.75
1751.27607	5523.25
1754.49584	5497.85
1757.71349	5512.75
1760.92903	5488.65
1764.14244	5475.55
1767.35375	5456.95
1770.56294	5430.65
1773.77002	5398.55
1776.97499	5355.85
1780.17785	5341.55
1783.37861	5334.85
1786.57727	5300.05
1789.77382	5293.15
1792.96828	5277.55
1796.16064	5271.35
1799.3509	5254.65
1802.53907	5237.75
1805.72514	5224.05
1808.90913	5199.15
1812.09102	5180.75
1815.27083	5143.25
1818.44856	5133.15
1821.6242	5135.95
1824.79776	5109.95
1827.96924	5107.85
1831.13864	5090.95
1834.30597	5099.55
1837.47122	5100.05
1840.6344	5101.85
1843.7955	5082.95
1846.95454	5088.55
1850.11151	5058.55
1853.26642	5067.75
1856.41926	5042.05
1859.57004	5040.85
1862.71876	5044.95
1865.86542	5026.05
1869.01003	5052.55
1872.15258	5028.15
1875.29308	5025.35
1878.43152	5011.45
1881.56792	5030.95
1884.70227	5034.05
1887.83457	5018.25
1890.96482	5028.45
1894.09304	5002.95
1897.21921	4998.25
1900.34335	5009.65
1903.46544	5007.05
1906.58551	5002.55
1909.70353	4994.05
1912.81953	4987.35
1915.93349	4973.95
1919.04543	4964.35
1922.15534	4941.95
1925.26322	4940.55
1928.36908	4919.95
1931.47292	4907.15
1934.57473	4861.05
1937.67453	4858.65
1940.77232	4835.25
1943.86808	4821.45
1946.96184	4818.55
1950.05358	4808.15
1953.14331	4786.55
1956.23103	4785.95
1959.31675	4757.05
1962.40046	4753.95
1965.48217	4751.65
1968.56188	4736.85
1971.63959	4735.85
1974.7153	4726.85
1977.78901	4715.35
1980.86073	4679.85
1983.93046	4653.75
1986.99819	4621.05
1990.06394	4608.15
1993.1277	4603.05
1996.18947	4579.95
1999.24925	4573.95
2002.30706	4541.35
2005.36288	4540.45
2008.41672	4515.95
2011.46859	4500.45
2014.51848	4483.05
2017.56639	4477.95
2020.61233	4463.15
2023.6563	4467.75
2026.6983	4446.45
2029.73833	4439.05
2032.7764	4414.05
2035.8125	4420.95
2038.84664	4401.65
2041.87881	4400.65
2044.90903	4404.45
2047.93729	4371.25
2050.96359	4378.05
2053.98794	4363.75
2057.01034	4370.45
2060.03078	4350.05
2063.04927	4347.55
2066.06582	4346.25
2069.08042	4342.05
2072.09307	4321.05
2075.10378	4328.35
2078.11255	4341.45
2081.11938	4324.95
2084.12426	4342.35
2087.12722	4333.85
2090.12824	4334.95
2093.12732	4331.55
2096.12447	4337.55
2099.11969	4347.05
2102.11299	4335.55
2105.10435	4333.05
2108.09379	4331.75
2111.08131	4327.15
2114.0669	4324.25
2117.05057	4352.95
2120.03233	4334.75
2123.01216	4343.25
2125.99008	4368.65
2128.96609	4370.25
2131.94018	4375.15
2134.91236	4380.55
2137.88263	4367.95
2140.851	4366.65
2143.81746	4355.65
2146.78201	4352.25
2149.74466	4346.35
2152.7054	4349.75
2155.66425	4347.55
2158.6212	4326.25
2161.57625	4324.15
2164.52941	4325.45
2167.48067	4323.25
2170.43004	4313.75
2173.37752	4328.65
2176.32311	4339.45
2179.26681	4331.45
2182.20863	4325.75
2185.14856	4319.35
2188.08661	4293.95
2191.02278	4316.65
2193.95707	4313.65
2196.88948	4302.35
2199.82001	4300.85
2202.74867	4289.85
2205.67545	4288.35
2208.60037	4280.25
2211.52341	4273.75
2214.44458	4290.35
2217.36388	4265.25
2220.28132	4259.55
2223.1969	4241.35
2226.11061	4238.15
2229.02246	4253.85
2231.93245	4241.15
2234.84058	4214.45
2237.74686	4221.35
2240.65128	4218.55
2243.55385	4207.35
2246.45456	4199.55
2249.35343	4205.95
2252.25044	4200.85
2255.14561	4200.75
2258.03893	4203.65
2260.93041	4213.35
2263.82004	4194.85
2266.70783	4186.75
2269.59378	4179.75
2272.4779	4174.05
2275.36017	4170.55
2278.24061	4162.05
2281.11922	4153.05
2283.996	4141.15
2286.87094	4129.75
2289.74405	4121.85
2292.61534	4098.05
2295.4848	4102.35
2298.35243	4100.95
2301.21824	4079.35
2304.08223	4087.75
2306.94439	4095.45
2309.80474	4100.45
2312.66327	4076.25
2315.51999	4071.35
2318.37489	4088.85
2321.22797	4102.25
2324.07925	4076.75
2326.92871	4081.35
2329.77637	4081.25
2332.62222	4068.45
2335.46626	4061.75
2338.3085	4071.65
2341.14893	4069.95
2343.98756	4076.35
2346.8244	4088.55
2349.65943	4087.05
2352.49267	4085.85
2355.32411	4105.35
2358.15376	4088.55
2360.98161	4127.95
2363.80768	4145.65
2366.63195	4142.45
2369.45444	4136.25
2372.27514	4137.55
2375.09405	4111.45
2377.91118	4099.25
2380.72652	4087.15
2383.54009	4063.15
2386.35187	4058.85
2389.16188	4024.55
2391.97011	4009.45
2394.77657	3999.05
2397.58125	3994.35
2400.38416	3987.75
2403.18529	3975.45
2405.98466	3959.35
2408.78226	3942.05
2411.57809	3935.25
2414.37216	3939.35
2417.16446	3934.45
2419.955	3927.35
2422.74378	3918.55
2425.5308	3931.35
2428.31606	3917.75
2431.09956	3918.65
2433.88131	3917.05
2436.6613	3926.95
2439.43954	3934.45
2442.21603	3932.15
2444.99077	3936.15
2447.76377	3952.35
2450.53501	3950.25
2453.30451	3958.85
2456.07226	3956.45
2458.83827	3948.45
2461.60254	3943.45
2464.36507	3951.85
2467.12586	3960.05
2469.88492	3951.95
2472.64224	3962.15
2475.39782	3967.55
2478.15167	3975.55
2480.90379	3972.65
2483.65417	3982.85
2486.40283	3996.85
2489.14976	4009.85
2491.89497	4020.65
2494.63845	4004.85
2497.3802	4007.75
2500.12024	4013.45
2502.85855	3998.35
2505.59514	3992.45
2508.33002	3960.45
2511.06318	3935.15
2513.79462	3917.15
2516.52435	3903.95
2519.25237	3890.95
2521.97867	3885.85
2524.70327	3872.45
2527.42616	3868.25
2530.14734	3860.45
2532.86681	3845.35
2535.58458	3861.25
2538.30065	3845.15
2541.01501	3853.05
2543.72768	3852.45
2546.43864	3843.65
2549.14791	3849.25
2551.85548	3842.15
2554.56136	3834.65
2557.26554	3863.95
2559.96803	3849.25
2562.66883	3847.55
2565.36794	3843.15
2568.06536	3835.45
2570.7611	3823.45
2573.45514	3838.35
2576.14751	3803.35
2578.83819	3805.15
2581.52719	3822.55
2584.21451	3791.25
2586.90015	3779.65
2589.58411	3770.95
2592.2664	3794.05
2594.94701	3795.15
2597.62594	3765.25
2600.30321	3770.15
2602.9788	3766.65
2605.65273	3773.45
2608.32498	3777.95
2610.99557	3760.05
2613.66449	3758.35
2616.33175	3774.55
2618.99734	3755.65
2621.66128	3762.85
2624.32355	3759.25
2626.98416	3763.35
2629.64311	3740.95
2632.30041	3736.05
2634.95605	3750.65
2637.61004	3745.25
2640.26238	3734.15
2642.91306	3723.95
2645.56209	3725.15
2648.20948	3714.35
2650.85521	3721.25
2653.4993	3721.15
2656.14175	3719.65
2658.78255	3715.85
2661.42171	3727.25
2664.05923	3726.25
2666.6951	3745.75
2669.32934	3748.95
2671.96194	3746.35
2674.59291	3738.45
2677.22224	3750.15
2679.84993	3731.65
2682.476	3738.05
2685.10043	3738.65
2687.72324	3737.25
2690.34441	3737.45
2692.96396	3720.85
2695.58188	3734.75
2698.19818	3736.25
2700.81285	3730.35
2703.4259	3743.25
2706.03733	3739.45
2708.64714	3747.85
2711.25533	3746.75
2713.86191	3729.75
2716.46687	3744.15
2719.07021	3745.35
2721.67194	3751.95
2724.27206	3728.25
2726.87057	3739.95
2729.46747	3735.65
2732.06276	3738.45
2734.65644	3727.05
2737.24852	3721.95
2739.83899	3714.55
2742.42786	3701.95
2745.01513	3685.35
2747.60079	3679.75
2750.18486	3684.95
2752.76733	3696.25
2755.3482	3686.95
2757.92747	3681.15
2760.50515	3673.85
2763.08123	3674.15
2765.65573	3673.65
2768.22863	3678.75
2770.79994	3660.65
2773.36967	3665.55
2775.9378	3666.15
2778.50435	3665.15
2781.06932	3666.05
2783.6327	3666.25
2786.1945	3651.45
2788.75471	3654.75
2791.31335	3633.55
2793.87041	3634.55
2796.42589	3650.45
2798.97979	3639.55
2801.53212	3637.45
2804.08288	3651.55
2806.63206	3646.05
2809.17967	3647.95
2811.72571	3643.25
2814.27018	3644.25
2816.81308	3655.45
2819.35442	3659.45
2821.89419	3658.65
2824.43239	3655.85
2826.96904	3677.95
2829.50412	3672.45
2832.03763	3663.85
2834.56959	3655.85
2837.1	3652.25
2839.62884	3644.15
2842.15613	3633.55
2844.68186	3641.75
2847.20604	3646.75
2849.72867	3646.45
2852.24974	3664.95
2854.76927	3660.85
2857.28724	3651.65
2859.80367	3670.65
2862.31855	3663.35
2864.83189	3679.85
2867.34368	3683.65
2869.85393	3695.05
2872.36264	3691.45
2874.8698	3683.95
2877.37543	3713.35
2879.87952	3703.05
2882.38207	3700.35
2884.88308	3677.75
2887.38256	3671.55
2889.88051	3687.65
2892.37692	3671.35
2894.8718	3658.55
2897.36515	3670.15
2899.85698	3672.55
2902.34727	3687.05
2904.83604	3667.15
2907.32328	3671.05
2909.809	3673.05
2912.29319	3673.65
2914.77587	3672.45
2917.25702	3658.25
2919.73665	3672.55
2922.21476	3677.45
2924.69136	3658.75
2927.16644	3635.05
2929.64	3645.25
2932.11205	3624.85
2934.58258	3632.05
2937.05161	3626.85
2939.51912	3622.45
2941.98513	3613.75
2944.44962	3609.45
2946.91261	3604.85
2949.37409	3603.55
2951.83407	3602.75
2954.29254	3604.05
2956.74951	3587.85
2959.20498	3592.85
2961.65895	3572.75
2964.11142	3584.85
2966.56239	3578.25
2969.01186	3576.85
2971.45984	3567.05
2973.90632	3550.15
2976.35131	3542.15
2978.7948	3515.05
2981.23681	3523.55
2983.67732	3519.35
2986.11635	3506.45
2988.55388	3496.05
2990.98993	3482.25
2993.4245	3490.85
2995.85758	3486.05
2998.28917	3481.25
3000.71928	3494.35
3003.14791	3479.65
3005.57506	3489.35
3008.00073	3469.25
3010.42493	3496.75
3012.84764	3461.95
3015.26888	3464.85
3017.68865	3471.65
3020.10694	3463.05
3022.52376	3446.05
3024.9391	3432.55
3027.35298	3441.75
3029.76539	3447.45
3032.17632	3429.75
3034.5858	3408.95
3036.9938	3410.35
3039.40034	3404.05
3041.80542	3390.95
3044.20903	3383.75
3046.61118	3377.75
3049.01187	3372.55
3051.4111	3364.45
3053.80888	3359.35
3056.20519	3363.15
3058.60005	3362.35
3060.99345	3364.55
3063.3854	3349.35
3065.7759	3335.55
3068.16494	3347.15
3070.55254	3334.45
3072.93868	3320.45
3075.32338	3311.95
3077.70662	3332.85
3080.08842	3306.25
3082.46878	3316.65
3084.84769	3312.25
3087.22515	3301.45
3089.60118	3303.15
3091.97576	3307.55
3094.3489	3293.05
3096.72061	3288.85
3099.09087	3316.65
3101.4597	3297.15
3103.82709	3298.55
3106.19305	3294.15
3108.55757	3294.15
3110.92066	3290.45
3113.28232	3280.95
3115.64255	3291.25
3118.00134	3275.05
3120.35871	3273.65
3122.71466	3271.25
3125.06917	3274.95
3127.42226	3281.15
3129.77393	3276.15
3132.12417	3279.35
3134.47299	3291.65
3136.82039	3301.15
3139.16636	3291.75
3141.51092	3305.15
3143.85406	3302.45
3146.19579	3301.75
3148.53609	3309.55
3150.87499	3311.05
3153.21246	3319.85
3155.54853	3314.75
3157.88318	3316.15
3160.21642	3310.25
3162.54826	3318.55
3164.87868	3324.35
3167.2077	3318.35
3169.5353	3320.25
3171.86151	3320.05
3174.18631	3317.65
3176.5097	3308.15
3178.83169	3317.55
3181.15228	3316.15
3183.47147	3326.65
3185.78926	3316.05
3188.10565	3302.45
3190.42065	3332.65
3192.73424	3320.65
3195.04645	3320.55
3197.35725	3325.05
3199.66667	3334.25
3201.97469	3351.45
3204.28132	3343.15
3206.58656	3359.45
3208.8904	3362.85
3211.19287	3369.05
3213.49394	3372.95
3215.79363	3381.25
3218.09193	3373.15
3220.38884	3364.15
3222.68438	3391.15
3224.97853	3379.85
3227.2713	3365.65
3229.56269	3348.75
3231.8527	3353.25
3234.14133	3374.55
3236.42858	3361.75
3238.71446	3353.15
3240.99896	3358.55
3243.28209	3370.15
3245.56384	3355.45
3247.84423	3386.55
3250.12324	3360.45
3252.40088	3359.85
3254.67715	3347.85
3256.95205	3345.85
3259.22558	3361.55
3261.49775	3341.65
3263.76855	3336.45
3266.03799	3344.45
3268.30606	3344.25
3270.57277	3344.35
3272.83812	3330.25
3275.10211	3338.25
3277.36474	3349.65
3279.62601	3344.65
3281.88593	3347.45
3284.14448	3351.15
3286.40168	3361.05
3288.65753	3358.05
3290.91202	3357.15
3293.16516	3354.85
3295.41695	3350.35
3297.66738	3342.55
3299.91647	3328.65
3302.16421	3311.65
3304.4106	3305.45
3306.65564	3276.75
3308.89933	3270.35
3311.14169	3252.15
3313.38269	3216.75
3315.62236	3207.05
3317.86068	3173.45
3320.09766	3142.75
3322.3333	3125.35
3324.5676	3127.95
3326.80056	3061.75
3329.03219	3057.55
3331.26248	2.35
3333.49143	-1.35
3335.71905	2.05
