Data from AgNP_FTO_APTES_UA_100uM_CRN_10uM_R6G_10uM_NaF_0.1M_Addition_RamanShift__31__15-53-10-436.txt Node

Date: Thu Mar 24 15:53:10 GMT 2022
User: TCL
Spectrometer: QEP01345
Trigger mode: 4
Integration Time (sec): 7.000000E0
Scans to average: 10
Electric dark correction enabled: true
Nonlinearity correction enabled: false
Boxcar width: 0
XAxis mode: Raman Shifts
Number of Pixels in Spectrum: 1044
>>>>>Begin Spectral Data<<<<<
46.04893	-1.55
50.45542	-0.35
54.85868	0.45
59.25871	0.65
63.6555	29.55
68.04907	32.25
72.43941	31.45
76.82654	33.05
81.21044	38.65
85.59113	34.95
89.96862	40.55
94.34289	36.45
98.71396	40.65
103.08183	39.85
107.4465	41.45
111.80798	44.05
116.16626	43.35
120.52136	43.85
124.87327	43.25
129.222	44.25
133.56755	49.55
137.90993	49.95
142.24913	58.55
146.58517	64.65
150.91804	73.85
155.24774	91.25
159.57429	109.95
163.89768	143.15
168.21792	187.05
172.53501	256.35
176.84895	360.15
181.15975	504.95
185.46741	708.25
189.77193	982.65
194.07331	1313.65
198.37157	1700.15
202.6667	2124.65
206.9587	2520.15
211.24758	2931.95
215.53334	3357.65
219.81599	3810.15
224.09553	4319.45
228.37195	4888.15
232.64527	5520.05
236.91549	6175.85
241.18261	6766.35
245.44663	7283.75
249.70755	7703.35
253.96539	8039.95
258.22014	8317.85
262.4718	8561.45
266.72039	8758.15
270.96589	8831.95
275.20832	8767.55
279.44768	8637.95
283.68397	8493.25
287.91719	8393.25
292.14735	8345.25
296.37445	8392.85
300.59849	8564.75
304.81948	8846.25
309.03742	9044.05
313.25231	9104.95
317.46415	8985.25
321.67296	8627.25
325.87872	8323.95
330.08145	8160.85
334.28114	8177.05
338.47781	8262.75
342.67145	8388.55
346.86207	8596.05
351.04966	8890.55
355.23424	9207.35
359.4158	9426.75
363.59435	9545.85
367.76989	9572.35
371.94243	9560.05
376.11196	9528.95
380.27849	9497.95
384.44203	9472.15
388.60257	9471.85
392.76012	9477.65
396.91468	9550.35
401.06626	9730.85
405.21485	9837.35
409.36047	9701.75
413.50311	9349.55
417.64277	9045.85
421.77947	8863.45
425.9132	8839.05
430.04396	8861.45
434.17176	8934.95
438.2966	9048.45
442.41849	9281.65
446.53742	9593.35
450.6534	9889.75
454.76644	10064.15
458.87653	10025.75
462.98368	9907.95
467.08789	9697.35
471.18916	9514.05
475.2875	9300.25
479.38291	9107.75
483.4754	8927.35
487.56496	8844.75
491.6516	8749.35
495.73531	8730.85
499.81612	8724.75
503.89401	8792.95
507.96899	8874.95
512.04106	8916.45
516.11023	8949.85
520.1765	9021.05
524.23987	9022.75
528.30034	9029.45
532.35792	9016.05
536.41261	8914.35
540.46441	8729.65
544.51333	8586.75
548.55936	8639.65
552.60252	8790.95
556.64279	9037.55
560.6802	9192.35
564.71473	9239.95
568.7464	9368.75
572.7752	9534.85
576.80114	9588.15
580.82422	9612.65
584.84444	9873.55
588.86181	10370.35
592.87633	11080.05
596.888	11568.65
600.89682	11363.35
604.9028	11342.75
608.90594	12848.35
612.90624	15201.05
616.90371	14512.35
620.89834	10974.15
624.89015	9238.15
628.87913	8909.05
632.86528	9046.05
636.84862	9190.85
640.82913	9034.15
644.80683	8698.25
648.78172	8431.15
652.75379	8416.85
656.72306	8648.75
660.68952	8952.25
664.65319	8878.75
668.61405	8529.85
672.57211	8380.65
676.52738	8415.05
680.47986	8379.55
684.42955	8293.05
688.37646	8236.95
692.32058	8240.15
696.26192	8336.85
700.20048	8455.35
704.13626	8565.05
708.06928	8538.55
711.99952	8495.25
715.927	8501.55
719.85171	8527.25
723.77365	8557.15
727.69284	8501.95
731.60928	8441.55
735.52295	8459.45
739.43388	8505.45
743.34206	8538.35
747.24749	8529.35
751.15017	8533.95
755.05012	8644.85
758.94733	8954.05
762.8418	9719.45
766.73354	11036.05
770.62254	12375.25
774.50882	12869.05
778.39237	12285.15
782.27321	11005.65
786.15132	9751.85
790.02671	8977.55
793.89938	8563.55
797.76935	8371.65
801.6366	8297.25
805.50115	8231.65
809.36299	8193.15
813.22213	8127.25
817.07857	8129.35
820.93231	8085.45
824.78336	8105.65
828.63172	8130.85
832.47738	8125.55
836.32036	8124.25
840.16066	8072.95
843.99827	8053.85
847.8332	8030.25
851.66546	8049.75
855.49504	8057.35
859.32195	8069.15
863.1462	8042.95
866.96777	8023.05
870.78668	8022.65
874.60293	8045.75
878.41652	8052.05
882.22745	8118.35
886.03573	8161.35
889.84136	8172.75
893.64433	8111.25
897.44466	8096.25
901.24235	8079.85
905.0374	8016.65
908.8298	7982.15
912.61957	7943.45
916.40671	7949.35
920.19121	8007.85
923.97308	8094.15
927.75233	8181.65
931.52895	8189.85
935.30295	8092.35
939.07433	7893.55
942.84309	7729.85
946.60924	7619.25
950.37278	7599.85
954.13371	7590.25
957.89203	7575.75
961.64774	7580.75
965.40086	7581.35
969.15137	7540.45
972.89929	7545.85
976.64461	7524.85
980.38733	7524.45
984.12747	7538.95
987.86502	7565.15
991.59999	7608.85
995.33237	7676.75
999.06217	7814.85
1002.78939	8012.85
1006.51404	8206.25
1010.23611	8379.15
1013.95561	8486.05
1017.67255	8476.55
1021.38692	8345.95
1025.09872	8127.95
1028.80796	7930.35
1032.51465	7867.45
1036.21877	7875.65
1039.92035	7926.15
1043.61937	7989.35
1047.31584	8025.45
1051.00976	8033.95
1054.70114	8028.45
1058.38998	8051.45
1062.07627	8077.85
1065.76003	8154.75
1069.44126	8231.85
1073.11995	8390.45
1076.79611	8571.15
1080.46974	8703.55
1084.14085	8885.85
1087.80943	9061.35
1091.47549	9154.45
1095.13903	9054.95
1098.80005	8828.45
1102.45857	8619.25
1106.11456	8506.85
1109.76805	8517.85
1113.41903	8612.65
1117.06751	8792.05
1120.71348	9090.05
1124.35696	9387.95
1127.99793	9639.15
1131.63641	9635.25
1135.2724	9363.15
1138.90589	9099.25
1142.5369	8940.45
1146.16542	8840.25
1149.79145	8811.75
1153.415	8826.75
1157.03607	8868.45
1160.65467	9012.35
1164.27079	9329.45
1167.88443	9824.35
1171.49561	10593.85
1175.10432	11729.05
1178.71056	13241.45
1182.31434	14517.05
1185.91565	14820.75
1189.51451	14388.35
1193.11091	13611.15
1196.70485	12754.65
1200.29634	11988.75
1203.88538	11368.55
1207.47197	10751.65
1211.05612	10225.55
1214.63782	9932.15
1218.21708	9823.05
1221.79391	9884.05
1225.36829	9955.65
1228.94024	9946.05
1232.50976	9784.15
1236.07685	9573.45
1239.6415	9495.25
1243.20374	9451.95
1246.76355	9482.75
1250.32093	9541.75
1253.8759	9713.05
1257.42845	9955.25
1260.97859	10320.55
1264.52631	10687.75
1268.07163	11064.85
1271.61453	11390.65
1275.15503	11624.55
1278.69312	11824.45
1282.22882	12065.25
1285.76211	12524.25
1289.29301	13055.25
1292.82151	13665.05
1296.34761	14321.55
1299.87133	15176.75
1303.39266	16336.85
1306.9116	17808.55
1310.42815	19420.05
1313.94233	20173.95
1317.45412	19634.85
1320.96354	18330.15
1324.47058	16950.75
1327.97525	15794.65
1331.47754	14907.45
1334.97747	14490.15
1338.47502	14350.75
1341.97022	14546.65
1345.46305	14980.95
1348.95352	15701.95
1352.44163	16756.45
1355.92738	18409.85
1359.41078	20622.95
1362.89183	22800.15
1366.37053	22453.15
1369.84688	19372.45
1373.32088	15985.05
1376.79254	13924.85
1380.26186	12981.65
1383.72883	12536.85
1387.19347	12061.65
1390.65578	11604.45
1394.11575	11319.05
1397.57339	11219.75
1401.0287	11212.75
1404.48168	11247.35
1407.93234	11198.45
1411.38068	11105.65
1414.82669	11001.15
1418.27039	10900.85
1421.71177	10655.05
1425.15083	10377.15
1428.58758	10256.45
1432.02203	10380.95
1435.45416	10573.95
1438.88399	10767.75
1442.31151	10850.75
1445.73673	10863.25
1449.15965	10927.75
1452.58027	10887.25
1455.9986	10776.85
1459.41463	10716.55
1462.82837	10859.25
1466.23982	11204.15
1469.64898	11597.55
1473.05586	11940.75
1476.46045	12215.45
1479.86276	12424.75
1483.26279	12671.65
1486.66054	12956.25
1490.05602	13418.75
1493.44922	14039.05
1496.84016	14801.55
1500.22882	15910.45
1503.61521	17319.05
1506.99934	18901.05
1510.38121	20060.45
1513.76081	19954.55
1517.13816	18518.75
1520.51324	16443.95
1523.88607	14680.55
1527.25665	13598.45
1530.62498	12993.35
1533.99105	12610.15
1537.35488	12273.05
1540.71647	11912.65
1544.07581	11590.95
1547.4329	11320.15
1550.78776	11127.25
1554.14038	11013.35
1557.49077	10989.95
1560.83892	11116.75
1564.18484	11402.55
1567.52853	11835.45
1570.86999	12232.85
1574.20922	12501.85
1577.54624	12448.05
1580.88103	11918.15
1584.2136	11242.05
1587.54395	10951.25
1590.87208	11241.95
1594.19801	12022.85
1597.52172	13004.15
1600.84321	13457.05
1604.16251	13053.15
1607.47959	12112.75
1610.79447	11060.85
1614.10715	10087.55
1617.41763	9365.55
1620.7259	8896.95
1624.03199	8666.05
1627.33587	8668.55
1630.63757	8894.45
1633.93707	9444.15
1637.23439	10423.15
1640.52951	12064.25
1643.82246	14375.65
1647.11321	16674.25
1650.40179	17693.15
1653.68819	16543.25
1656.97241	13964.25
1660.25446	11398.75
1663.53433	9652.65
1666.81203	8601.35
1670.08756	8012.65
1673.36092	7637.35
1676.63211	7430.05
1679.90115	7273.35
1683.16801	7142.35
1686.43272	7028.75
1689.69527	6944.65
1692.95567	6884.65
1696.2139	6885.55
1699.46999	6831.15
1702.72392	6820.75
1705.97571	6788.35
1709.22535	6749.95
1712.47284	6726.25
1715.71819	6706.95
1718.96139	6676.05
1722.20246	6659.65
1725.44139	6642.55
1728.67818	6586.95
1731.91284	6544.05
1735.14537	6467.55
1738.37576	6433.05
1741.60403	6416.95
1744.83017	6398.05
1748.05418	6362.65
1751.27607	6335.45
1754.49584	6341.45
1757.71349	6318.35
1760.92903	6327.55
1764.14244	6302.45
1767.35375	6280.85
1770.56294	6282.45
1773.77002	6257.15
1776.97499	6212.75
1780.17785	6178.45
1783.37861	6177.55
1786.57727	6151.05
1789.77382	6129.35
1792.96828	6133.75
1796.16064	6100.95
1799.3509	6078.35
1802.53907	6087.65
1805.72514	6065.95
1808.90913	6035.85
1812.09102	6003.55
1815.27083	5995.15
1818.44856	5993.05
1821.6242	5975.55
1824.79776	5950.15
1827.96924	5943.35
1831.13864	5955.85
1834.30597	5928.75
1837.47122	5931.35
1840.6344	5911.75
1843.7955	5908.45
1846.95454	5895.35
1850.11151	5878.35
1853.26642	5873.85
1856.41926	5861.75
1859.57004	5872.85
1862.71876	5869.35
1865.86542	5868.45
1869.01003	5870.55
1872.15258	5840.75
1875.29308	5845.25
1878.43152	5841.85
1881.56792	5845.65
1884.70227	5829.95
1887.83457	5841.55
1890.96482	5825.65
1894.09304	5790.65
1897.21921	5796.85
1900.34335	5779.75
1903.46544	5776.55
1906.58551	5766.65
1909.70353	5768.25
1912.81953	5754.05
1915.93349	5740.85
1919.04543	5728.85
1922.15534	5711.75
1925.26322	5679.25
1928.36908	5679.45
1931.47292	5664.75
1934.57473	5659.45
1937.67453	5621.25
1940.77232	5602.45
1943.86808	5603.15
1946.96184	5572.05
1950.05358	5545.05
1953.14331	5534.15
1956.23103	5512.65
1959.31675	5516.85
1962.40046	5491.05
1965.48217	5465.85
1968.56188	5474.75
1971.63959	5429.35
1974.7153	5416.25
1977.78901	5405.35
1980.86073	5388.85
1983.93046	5365.65
1986.99819	5350.05
1990.06394	5319.85
1993.1277	5304.25
1996.18947	5294.55
1999.24925	5283.35
2002.30706	5252.15
2005.36288	5234.35
2008.41672	5206.65
2011.46859	5198.15
2014.51848	5188.65
2017.56639	5157.25
2020.61233	5148.05
2023.6563	5134.65
2026.6983	5133.35
2029.73833	5113.55
2032.7764	5078.45
2035.8125	5085.85
2038.84664	5069.25
2041.87881	5059.15
2044.90903	5057.25
2047.93729	5031.35
2050.96359	5034.55
2053.98794	5037.65
2057.01034	5016.55
2060.03078	5008.15
2063.04927	4984.55
2066.06582	5002.85
2069.08042	4986.15
2072.09307	4990.55
2075.10378	4980.05
2078.11255	4986.55
2081.11938	4987.75
2084.12426	4973.55
2087.12722	4977.45
2090.12824	4969.65
2093.12732	4972.15
2096.12447	4983.65
2099.11969	4955.65
2102.11299	4965.35
2105.10435	4964.45
2108.09379	4963.25
2111.08131	4965.45
2114.0669	4957.75
2117.05057	4952.95
2120.03233	4970.35
2123.01216	4990.05
2125.99008	4990.85
2128.96609	4983.85
2131.94018	4990.15
2134.91236	4982.95
2137.88263	4973.95
2140.851	4974.85
2143.81746	4972.55
2146.78201	4970.95
2149.74466	4963.15
2152.7054	4961.05
2155.66425	4953.65
2158.6212	4954.95
2161.57625	4940.15
2164.52941	4937.15
2167.48067	4930.45
2170.43004	4911.55
2173.37752	4925.55
2176.32311	4925.55
2179.26681	4929.25
2182.20863	4908.85
2185.14856	4915.75
2188.08661	4911.95
2191.02278	4909.25
2193.95707	4909.95
2196.88948	4903.15
2199.82001	4898.25
2202.74867	4893.35
2205.67545	4891.45
2208.60037	4871.15
2211.52341	4853.15
2214.44458	4852.55
2217.36388	4825.85
2220.28132	4829.15
2223.1969	4823.75
2226.11061	4808.65
2229.02246	4801.95
2231.93245	4797.05
2234.84058	4790.05
2237.74686	4780.75
2240.65128	4771.25
2243.55385	4775.85
2246.45456	4779.15
2249.35343	4760.15
2252.25044	4770.15
2255.14561	4755.95
2258.03893	4746.65
2260.93041	4730.05
2263.82004	4740.95
2266.70783	4715.55
2269.59378	4718.25
2272.4779	4689.75
2275.36017	4683.35
2278.24061	4667.35
2281.11922	4654.05
2283.996	4646.05
2286.87094	4643.75
2289.74405	4618.15
2292.61534	4618.15
2295.4848	4600.25
2298.35243	4604.35
2301.21824	4598.95
2304.08223	4576.45
2306.94439	4584.65
2309.80474	4586.55
2312.66327	4575.95
2315.51999	4554.35
2318.37489	4562.45
2321.22797	4547.65
2324.07925	4539.05
2326.92871	4543.95
2329.77637	4550.65
2332.62222	4535.85
2335.46626	4514.25
2338.3085	4510.15
2341.14893	4520.45
2343.98756	4514.55
2346.8244	4518.05
2349.65943	4503.55
2352.49267	4522.25
2355.32411	4522.15
2358.15376	4518.65
2360.98161	4525.35
2363.80768	4521.75
2366.63195	4538.55
2369.45444	4539.65
2372.27514	4515.35
2375.09405	4511.85
2377.91118	4512.75
2380.72652	4489.85
2383.54009	4487.15
2386.35187	4480.05
2389.16188	4435.65
2391.97011	4443.25
2394.77657	4425.15
2397.58125	4392.45
2400.38416	4394.65
2403.18529	4391.75
2405.98466	4366.65
2408.78226	4368.25
2411.57809	4357.75
2414.37216	4354.05
2417.16446	4349.55
2419.955	4338.65
2422.74378	4325.55
2425.5308	4320.05
2428.31606	4327.55
2431.09956	4343.35
2433.88131	4327.25
2436.6613	4313.75
2439.43954	4328.25
2442.21603	4329.05
2444.99077	4327.65
2447.76377	4330.15
2450.53501	4328.05
2453.30451	4322.65
2456.07226	4349.95
2458.83827	4336.45
2461.60254	4320.75
2464.36507	4316.55
2467.12586	4316.15
2469.88492	4331.95
2472.64224	4311.05
2475.39782	4309.25
2478.15167	4319.95
2480.90379	4323.15
2483.65417	4331.45
2486.40283	4332.35
2489.14976	4316.65
2491.89497	4334.15
2494.63845	4336.15
2497.3802	4326.55
2500.12024	4328.95
2502.85855	4307.65
2505.59514	4297.45
2508.33002	4287.35
2511.06318	4264.75
2513.79462	4243.85
2516.52435	4237.45
2519.25237	4232.65
2521.97867	4218.15
2524.70327	4221.45
2527.42616	4208.95
2530.14734	4216.15
2532.86681	4212.45
2535.58458	4216.65
2538.30065	4213.05
2541.01501	4192.05
2543.72768	4205.05
2546.43864	4198.35
2549.14791	4194.35
2551.85548	4185.55
2554.56136	4179.05
2557.26554	4163.55
2559.96803	4169.55
2562.66883	4158.45
2565.36794	4161.45
2568.06536	4162.25
2570.7611	4137.15
2573.45514	4133.25
2576.14751	4131.85
2578.83819	4127.65
2581.52719	4117.05
2584.21451	4112.85
2586.90015	4095.25
2589.58411	4105.55
2592.2664	4103.15
2594.94701	4098.15
2597.62594	4092.25
2600.30321	4074.45
2602.9788	4086.95
2605.65273	4071.35
2608.32498	4096.15
2610.99557	4074.55
2613.66449	4069.05
2616.33175	4070.05
2618.99734	4065.15
2621.66128	4045.95
2624.32355	4048.45
2626.98416	4033.75
2629.64311	4032.95
2632.30041	4028.75
2634.95605	4013.05
2637.61004	4013.95
2640.26238	3993.45
2642.91306	4019.95
2645.56209	3995.75
2648.20948	4005.15
2650.85521	4016.45
2653.4993	4016.35
2656.14175	4011.85
2658.78255	4019.05
2661.42171	4030.25
2664.05923	4027.85
2666.6951	4023.15
2669.32934	4033.15
2671.96194	4033.65
2674.59291	4034.35
2677.22224	4027.25
2679.84993	4040.75
2682.476	4020.85
2685.10043	4013.55
2687.72324	4006.95
2690.34441	4010.35
2692.96396	3993.85
2695.58188	4011.25
2698.19818	4003.05
2700.81285	4008.55
2703.4259	4009.25
2706.03733	4025.75
2708.64714	4009.45
2711.25533	4008.15
2713.86191	4027.15
2716.46687	4011.85
2719.07021	4009.05
2721.67194	4024.55
2724.27206	4007.75
2726.87057	4029.15
2729.46747	4036.85
2732.06276	4020.85
2734.65644	4012.25
2737.24852	4016.05
2739.83899	3993.75
2742.42786	3999.55
2745.01513	3989.65
2747.60079	3994.65
2750.18486	3973.65
2752.76733	3965.15
2755.3482	3964.85
2757.92747	3948.55
2760.50515	3953.65
2763.08123	3965.25
2765.65573	3958.45
2768.22863	3944.25
2770.79994	3936.75
2773.36967	3923.95
2775.9378	3936.55
2778.50435	3927.05
2781.06932	3916.45
2783.6327	3915.05
2786.1945	3919.65
2788.75471	3910.95
2791.31335	3920.15
2793.87041	3918.45
2796.42589	3905.65
2798.97979	3912.25
2801.53212	3890.95
2804.08288	3910.05
2806.63206	3876.35
2809.17967	3879.45
2811.72571	3874.65
2814.27018	3875.45
2816.81308	3880.55
2819.35442	3870.35
2821.89419	3862.95
2824.43239	3863.05
2826.96904	3870.05
2829.50412	3859.45
2832.03763	3857.75
2834.56959	3854.35
2837.1	3853.65
2839.62884	3841.75
2842.15613	3858.65
2844.68186	3848.15
2847.20604	3857.45
2849.72867	3882.05
2852.24974	3862.95
2854.76927	3873.95
2857.28724	3854.15
2859.80367	3839.65
2862.31855	3847.95
2864.83189	3850.05
2867.34368	3841.75
2869.85393	3850.45
2872.36264	3845.75
2874.8698	3847.95
2877.37543	3826.65
2879.87952	3838.45
2882.38207	3823.05
2884.88308	3831.15
2887.38256	3823.45
2889.88051	3809.85
2892.37692	3818.15
2894.8718	3819.05
2897.36515	3813.35
2899.85698	3818.85
2902.34727	3837.15
2904.83604	3823.45
2907.32328	3846.95
2909.809	3827.75
2912.29319	3843.65
2914.77587	3837.75
2917.25702	3838.85
2919.73665	3831.95
2922.21476	3833.55
2924.69136	3816.15
2927.16644	3831.35
2929.64	3809.05
2932.11205	3802.45
2934.58258	3794.15
2937.05161	3799.65
2939.51912	3764.15
2941.98513	3795.85
2944.44962	3773.75
2946.91261	3768.35
2949.37409	3761.85
2951.83407	3760.65
2954.29254	3753.45
2956.74951	3755.15
2959.20498	3748.35
2961.65895	3750.85
2964.11142	3764.45
2966.56239	3762.75
2969.01186	3754.15
2971.45984	3717.05
2973.90632	3727.55
2976.35131	3710.65
2978.7948	3702.35
2981.23681	3686.85
2983.67732	3679.65
2986.11635	3669.45
2988.55388	3673.65
2990.98993	3650.45
2993.4245	3650.35
2995.85758	3649.05
2998.28917	3639.05
3000.71928	3639.25
3003.14791	3625.25
3005.57506	3636.55
3008.00073	3624.65
3010.42493	3622.75
3012.84764	3615.25
3015.26888	3612.85
3017.68865	3602.55
3020.10694	3602.45
3022.52376	3579.15
3024.9391	3570.45
3027.35298	3575.85
3029.76539	3588.85
3032.17632	3562.35
3034.5858	3560.65
3036.9938	3561.25
3039.40034	3549.55
3041.80542	3538.95
3044.20903	3535.85
3046.61118	3533.75
3049.01187	3533.65
3051.4111	3517.75
3053.80888	3522.25
3056.20519	3518.75
3058.60005	3507.05
3060.99345	3502.75
3063.3854	3498.25
3065.7759	3483.35
3068.16494	3477.25
3070.55254	3475.25
3072.93868	3489.85
3075.32338	3465.05
3077.70662	3461.15
3080.08842	3446.85
3082.46878	3459.15
3084.84769	3449.75
3087.22515	3451.95
3089.60118	3441.45
3091.97576	3430.55
3094.3489	3441.25
3096.72061	3446.95
3099.09087	3434.65
3101.4597	3446.65
3103.82709	3441.55
3106.19305	3433.55
3108.55757	3440.65
3110.92066	3419.05
3113.28232	3434.45
3115.64255	3428.85
3118.00134	3418.65
3120.35871	3412.65
3122.71466	3417.55
3125.06917	3407.15
3127.42226	3399.85
3129.77393	3401.55
3132.12417	3403.25
3134.47299	3405.55
3136.82039	3401.55
3139.16636	3406.45
3141.51092	3401.45
3143.85406	3407.15
3146.19579	3414.25
3148.53609	3414.35
3150.87499	3434.15
3153.21246	3426.05
3155.54853	3426.45
3157.88318	3436.55
3160.21642	3438.15
3162.54826	3432.85
3164.87868	3427.05
3167.2077	3429.65
3169.5353	3428.55
3171.86151	3434.95
3174.18631	3440.45
3176.5097	3443.55
3178.83169	3430.75
3181.15228	3421.95
3183.47147	3434.65
3185.78926	3412.95
3188.10565	3422.05
3190.42065	3424.25
3192.73424	3420.65
3195.04645	3427.55
3197.35725	3416.65
3199.66667	3418.45
3201.97469	3427.75
3204.28132	3424.05
3206.58656	3429.75
3208.8904	3449.05
3211.19287	3449.35
3213.49394	3443.25
3215.79363	3439.85
3218.09193	3447.35
3220.38884	3435.05
3222.68438	3457.35
3224.97853	3460.15
3227.2713	3438.85
3229.56269	3451.15
3231.8527	3443.75
3234.14133	3442.15
3236.42858	3436.75
3238.71446	3427.15
3240.99896	3430.45
3243.28209	3428.95
3245.56384	3412.65
3247.84423	3432.25
3250.12324	3411.75
3252.40088	3397.35
3254.67715	3401.45
3256.95205	3395.25
3259.22558	3406.95
3261.49775	3403.85
3263.76855	3396.15
3266.03799	3381.65
3268.30606	3393.25
3270.57277	3380.15
3272.83812	3385.15
3275.10211	3366.55
3277.36474	3358.15
3279.62601	3349.25
3281.88593	3355.25
3284.14448	3358.35
3286.40168	3370.15
3288.65753	3383.65
3290.91202	3369.05
3293.16516	3362.55
3295.41695	3363.05
3297.66738	3342.45
3299.91647	3322.85
3302.16421	3312.95
3304.4106	3298.35
3306.65564	3273.65
3308.89933	3240.65
3311.14169	3234.05
3313.38269	3208.65
3315.62236	3181.85
3317.86068	3158.95
3320.09766	3144.15
3322.3333	3116.65
3324.5676	3113.85
3326.80056	3064.75
3329.03219	3045.15
3331.26248	0.55
3333.49143	-2.55
3335.71905	1.25
