Data from AgNP_FTO_APTES_UA_100uM_CRN_20uM_R6G_10uM_NaF_0.1M_Addition_RamanShift__2__16-28-10-475.txt Node

Date: Thu Mar 24 16:28:10 GMT 2022
User: TCL
Spectrometer: QEP01345
Trigger mode: 4
Integration Time (sec): 7.000000E0
Scans to average: 10
Electric dark correction enabled: true
Nonlinearity correction enabled: false
Boxcar width: 0
XAxis mode: Raman Shifts
Number of Pixels in Spectrum: 1044
>>>>>Begin Spectral Data<<<<<
46.04893	-2.35
50.45542	-1.25
54.85868	-0.05
59.25871	0.75
63.6555	44.25
68.04907	46.55
72.43941	50.15
76.82654	48.75
81.21044	53.55
85.59113	52.15
89.96862	55.85
94.34289	54.95
98.71396	58.35
103.08183	60.25
107.4465	60.45
111.80798	63.75
116.16626	66.65
120.52136	65.95
124.87327	66.85
129.222	73.65
133.56755	81.25
137.90993	82.55
142.24913	98.25
146.58517	108.45
150.91804	125.65
155.24774	155.75
159.57429	197.25
163.89768	252.05
168.21792	340.25
172.53501	474.65
176.84895	659.95
181.15975	942.05
185.46741	1315.75
189.77193	1818.95
194.07331	2439.95
198.37157	3167.65
202.6667	3920.05
206.9587	4679.65
211.24758	5442.65
215.53334	6256.65
219.81599	7123.95
224.09553	8142.25
228.37195	9218.05
232.64527	10371.65
236.91549	11576.85
241.18261	12650.45
245.44663	13545.95
249.70755	14228.65
253.96539	14829.05
258.22014	15316.75
262.4718	15754.25
266.72039	16094.35
270.96589	16202.65
275.20832	16141.85
279.44768	15898.15
283.68397	15652.95
287.91719	15445.95
292.14735	15386.05
296.37445	15611.25
300.59849	16049.05
304.81948	16609.75
309.03742	17063.85
313.25231	17176.85
317.46415	16779.25
321.67296	16015.95
325.87872	15286.05
330.08145	14955.95
334.28114	14939.65
338.47781	15130.85
342.67145	15414.65
346.86207	15892.15
351.04966	16511.05
355.23424	17189.85
359.4158	17646.45
363.59435	17840.05
367.76989	17858.95
371.94243	17761.55
376.11196	17716.65
380.27849	17616.35
384.44203	17601.45
388.60257	17528.35
392.76012	17540.45
396.91468	17711.25
401.06626	18084.85
405.21485	18264.75
409.36047	17933.55
413.50311	17223.95
417.64277	16569.15
421.77947	16247.15
425.9132	16132.05
430.04396	16164.05
434.17176	16314.65
438.2966	16596.55
442.41849	17094.15
446.53742	17844.15
450.6534	18572.25
454.76644	18926.25
458.87653	18879.05
462.98368	18580.85
467.08789	18159.35
471.18916	17719.35
475.2875	17266.55
479.38291	16851.65
483.4754	16513.15
487.56496	16192.75
491.6516	15975.15
495.73531	15801.55
499.81612	15746.65
503.89401	15884.05
507.96899	15982.05
512.04106	16071.05
516.11023	16166.05
520.1765	16184.25
524.23987	16265.25
528.30034	16275.15
532.35792	16142.95
536.41261	15886.55
540.46441	15571.25
544.51333	15416.15
548.55936	15508.35
552.60252	15827.55
556.64279	16356.95
560.6802	16750.15
564.71473	16969.45
568.7464	17466.05
572.7752	18007.95
576.80114	18069.05
580.82422	18082.45
584.84444	18482.75
588.86181	19365.35
592.87633	20648.35
596.888	21251.15
600.89682	20658.75
604.9028	20969.95
608.90594	24604.45
612.90624	29446.65
616.90371	27405.45
620.89834	20042.45
624.89015	16596.85
628.87913	16054.05
632.86528	16292.55
636.84862	16517.25
640.82913	16117.85
644.80683	15378.55
648.78172	14837.65
652.75379	14864.75
656.72306	15373.05
660.68952	16030.35
664.65319	15776.25
668.61405	15020.75
672.57211	14799.35
676.52738	14822.65
680.47986	14783.05
684.42955	14601.55
688.37646	14449.65
692.32058	14518.25
696.26192	14780.65
700.20048	15018.05
704.13626	15214.35
708.06928	15160.85
711.99952	15055.25
715.927	15064.45
719.85171	15185.35
723.77365	15221.35
727.69284	15012.95
731.60928	14912.15
735.52295	14964.15
739.43388	15062.05
743.34206	15123.55
747.24749	15118.15
751.15017	15203.65
755.05012	15461.85
758.94733	16135.15
762.8418	17751.25
766.73354	20509.35
770.62254	23060.55
774.50882	23915.55
778.39237	22725.05
782.27321	20069.35
786.15132	17568.25
790.02671	15978.85
793.89938	15217.55
797.76935	14851.85
801.6366	14657.85
805.50115	14576.35
809.36299	14496.85
813.22213	14399.45
817.07857	14367.65
820.93231	14341.75
824.78336	14342.65
828.63172	14349.35
832.47738	14357.15
836.32036	14346.25
840.16066	14283.55
843.99827	14260.05
847.8332	14230.85
851.66546	14224.45
855.49504	14195.95
859.32195	14213.15
863.1462	14154.05
866.96777	14146.85
870.78668	14111.55
874.60293	14174.75
878.41652	14227.25
882.22745	14347.75
886.03573	14427.85
889.84136	14415.15
893.64433	14339.25
897.44466	14259.55
901.24235	14224.35
905.0374	14139.55
908.8298	14050.55
912.61957	13969.75
916.40671	14026.95
920.19121	14196.95
923.97308	14372.85
927.75233	14540.85
931.52895	14587.45
935.30295	14348.35
939.07433	13942.15
942.84309	13597.95
946.60924	13451.45
950.37278	13369.25
954.13371	13371.65
957.89203	13359.55
961.64774	13339.25
965.40086	13344.65
969.15137	13316.05
972.89929	13297.65
976.64461	13297.95
980.38733	13266.45
984.12747	13323.35
987.86502	13440.85
991.59999	13547.25
995.33237	13760.75
999.06217	14113.65
1002.78939	14561.45
1006.51404	15061.75
1010.23611	15416.35
1013.95561	15616.25
1017.67255	15531.95
1021.38692	15151.45
1025.09872	14683.05
1028.80796	14350.45
1032.51465	14346.15
1036.21877	14464.05
1039.92035	14559.15
1043.61937	14610.35
1047.31584	14614.75
1051.00976	14567.35
1054.70114	14531.05
1058.38998	14524.95
1062.07627	14593.35
1065.76003	14700.35
1069.44126	14879.65
1073.11995	15226.55
1076.79611	15578.15
1080.46974	15908.85
1084.14085	16276.55
1087.80943	16664.05
1091.47549	16843.15
1095.13903	16691.35
1098.80005	16176.65
1102.45857	15705.05
1106.11456	15464.65
1109.76805	15543.85
1113.41903	15778.05
1117.06751	16219.05
1120.71348	16795.35
1124.35696	17430.95
1127.99793	17951.85
1131.63641	17887.25
1135.2724	17251.45
1138.90589	16705.45
1142.5369	16405.75
1146.16542	16289.55
1149.79145	16259.65
1153.415	16331.25
1157.03607	16452.55
1160.65467	16862.25
1164.27079	17627.25
1167.88443	18725.45
1171.49561	20433.65
1175.10432	22906.55
1178.71056	26244.65
1182.31434	28970.35
1185.91565	29651.95
1189.51451	28579.15
1193.11091	26793.25
1196.70485	24927.45
1200.29634	23347.15
1203.88538	22127.55
1207.47197	20899.45
1211.05612	19930.55
1214.63782	19319.05
1218.21708	19104.45
1221.79391	19152.75
1225.36829	19283.15
1228.94024	19136.25
1232.50976	18673.85
1236.07685	18206.35
1239.6415	17966.45
1243.20374	18017.65
1246.76355	18190.65
1250.32093	18364.65
1253.8759	18800.65
1257.42845	19400.35
1260.97859	20187.05
1264.52631	21080.15
1268.07163	21950.65
1271.61453	22649.65
1275.15503	23104.55
1278.69312	23437.25
1282.22882	24000.15
1285.76211	24978.85
1289.29301	26329.25
1292.82151	27836.25
1296.34761	29430.45
1299.87133	31540.25
1303.39266	34279.75
1306.9116	37680.85
1310.42815	41100.55
1313.94233	42717.05
1317.45412	41425.35
1320.96354	38699.75
1324.47058	35893.15
1327.97525	33454.95
1331.47754	31601.85
1334.97747	30545.05
1338.47502	30208.15
1341.97022	30326.55
1345.46305	31003.25
1348.95352	32239.45
1352.44163	34291.75
1355.92738	37634.75
1359.41078	42664.25
1362.89183	47219.35
1366.37053	46090.45
1369.84688	39326.25
1373.32088	32330.55
1376.79254	28334.45
1380.26186	26752.25
1383.72883	25970.65
1387.19347	25133.55
1390.65578	24209.15
1394.11575	23655.45
1397.57339	23569.35
1401.0287	23588.15
1404.48168	23707.05
1407.93234	23597.35
1411.38068	23297.45
1414.82669	22933.75
1418.27039	22433.95
1421.71177	21740.35
1425.15083	21029.75
1428.58758	20779.65
1432.02203	21139.95
1435.45416	21858.45
1438.88399	22341.45
1442.31151	22595.05
1445.73673	22742.55
1449.15965	22868.85
1452.58027	22724.75
1455.9986	22399.15
1459.41463	22274.75
1462.82837	22602.75
1466.23982	23363.45
1469.64898	24198.75
1473.05586	24915.65
1476.46045	25382.75
1479.86276	25788.15
1483.26279	26091.15
1486.66054	26614.15
1490.05602	27465.05
1493.44922	28702.25
1496.84016	30096.95
1500.22882	31996.15
1503.61521	34743.35
1506.99934	37913.65
1510.38121	40334.45
1513.76081	40162.65
1517.13816	37159.55
1520.51324	32817.45
1523.88607	29241.05
1527.25665	27186.95
1530.62498	26213.55
1533.99105	25638.15
1537.35488	25066.05
1540.71647	24403.45
1544.07581	23715.45
1547.4329	23032.15
1550.78776	22521.65
1554.14038	22185.95
1557.49077	22068.45
1560.83892	22273.75
1564.18484	22842.95
1567.52853	23699.55
1570.86999	24564.75
1574.20922	25130.75
1577.54624	25066.45
1580.88103	24049.45
1584.2136	22863.15
1587.54395	22610.55
1590.87208	23484.25
1594.19801	25430.75
1597.52172	27791.65
1600.84321	28884.05
1604.16251	27684.75
1607.47959	25144.55
1610.79447	22448.15
1614.10715	20047.15
1617.41763	18325.35
1620.7259	17291.65
1624.03199	16813.25
1627.33587	16907.55
1630.63757	17510.65
1633.93707	18868.15
1637.23439	21266.35
1640.52951	25114.55
1643.82246	30370.45
1647.11321	35326.55
1650.40179	37168.75
1653.68819	34268.85
1656.97241	28341.95
1660.25446	22594.15
1663.53433	18718.35
1666.81203	16459.25
1670.08756	15129.35
1673.36092	14339.65
1676.63211	13852.05
1679.90115	13523.65
1683.16801	13275.85
1686.43272	13085.15
1689.69527	12911.85
1692.95567	12774.55
1696.2139	12692.65
1699.46999	12643.85
1702.72392	12551.45
1705.97571	12538.55
1709.22535	12537.65
1712.47284	12481.25
1715.71819	12474.05
1718.96139	12410.15
1722.20246	12374.05
1725.44139	12292.85
1728.67818	12169.25
1731.91284	12063.65
1735.14537	11984.45
1738.37576	11929.05
1741.60403	11888.45
1744.83017	11846.05
1748.05418	11789.55
1751.27607	11734.25
1754.49584	11702.75
1757.71349	11669.45
1760.92903	11667.95
1764.14244	11639.85
1767.35375	11625.15
1770.56294	11586.25
1773.77002	11560.85
1776.97499	11527.65
1780.17785	11503.85
1783.37861	11469.35
1786.57727	11455.55
1789.77382	11417.75
1792.96828	11358.05
1796.16064	11321.65
1799.3509	11312.35
1802.53907	11311.25
1805.72514	11249.15
1808.90913	11221.25
1812.09102	11211.25
1815.27083	11185.95
1818.44856	11150.45
1821.6242	11116.15
1824.79776	11074.05
1827.96924	11075.35
1831.13864	11043.75
1834.30597	11021.05
1837.47122	11009.35
1840.6344	10991.95
1843.7955	10972.75
1846.95454	10965.55
1850.11151	10935.65
1853.26642	10924.05
1856.41926	10933.65
1859.57004	10892.85
1862.71876	10902.45
1865.86542	10890.05
1869.01003	10884.25
1872.15258	10872.35
1875.29308	10884.85
1878.43152	10857.35
1881.56792	10904.35
1884.70227	10851.75
1887.83457	10853.95
1890.96482	10861.35
1894.09304	10839.85
1897.21921	10824.05
1900.34335	10809.95
1903.46544	10815.35
1906.58551	10788.75
1909.70353	10800.65
1912.81953	10786.45
1915.93349	10741.75
1919.04543	10729.75
1922.15534	10708.45
1925.26322	10633.05
1928.36908	10645.65
1931.47292	10595.15
1934.57473	10576.95
1937.67453	10545.45
1940.77232	10512.75
1943.86808	10499.45
1946.96184	10474.45
1950.05358	10457.75
1953.14331	10404.25
1956.23103	10346.55
1959.31675	10341.45
1962.40046	10306.75
1965.48217	10312.55
1968.56188	10263.45
1971.63959	10224.55
1974.7153	10227.75
1977.78901	10184.55
1980.86073	10136.85
1983.93046	10074.65
1986.99819	10023.25
1990.06394	10036.05
1993.1277	9973.15
1996.18947	9947.55
1999.24925	9908.45
2002.30706	9880.85
2005.36288	9815.25
2008.41672	9826.25
2011.46859	9792.75
2014.51848	9767.75
2017.56639	9728.65
2020.61233	9702.15
2023.6563	9658.75
2026.6983	9665.05
2029.73833	9621.45
2032.7764	9609.25
2035.8125	9574.25
2038.84664	9549.65
2041.87881	9548.45
2044.90903	9542.75
2047.93729	9512.95
2050.96359	9500.65
2053.98794	9482.45
2057.01034	9446.85
2060.03078	9444.05
2063.04927	9416.45
2066.06582	9408.95
2069.08042	9400.35
2072.09307	9393.25
2075.10378	9379.05
2078.11255	9396.65
2081.11938	9405.65
2084.12426	9383.05
2087.12722	9370.55
2090.12824	9369.05
2093.12732	9379.25
2096.12447	9387.05
2099.11969	9398.05
2102.11299	9378.75
2105.10435	9391.95
2108.09379	9371.65
2111.08131	9367.75
2114.0669	9384.45
2117.05057	9376.75
2120.03233	9370.15
2123.01216	9394.35
2125.99008	9404.05
2128.96609	9407.65
2131.94018	9384.45
2134.91236	9389.95
2137.88263	9385.65
2140.851	9402.05
2143.81746	9396.45
2146.78201	9386.75
2149.74466	9367.15
2152.7054	9363.25
2155.66425	9362.45
2158.6212	9333.55
2161.57625	9340.75
2164.52941	9319.65
2167.48067	9322.45
2170.43004	9332.85
2173.37752	9326.65
2176.32311	9305.05
2179.26681	9319.75
2182.20863	9316.95
2185.14856	9304.95
2188.08661	9310.95
2191.02278	9307.05
2193.95707	9307.15
2196.88948	9278.75
2199.82001	9284.75
2202.74867	9263.15
2205.67545	9264.45
2208.60037	9253.85
2211.52341	9233.95
2214.44458	9224.45
2217.36388	9194.75
2220.28132	9177.55
2223.1969	9154.05
2226.11061	9125.35
2229.02246	9127.25
2231.93245	9092.35
2234.84058	9092.35
2237.74686	9047.15
2240.65128	9079.55
2243.55385	9070.45
2246.45456	9071.65
2249.35343	9034.25
2252.25044	9012.95
2255.14561	9022.35
2258.03893	9007.85
2260.93041	9009.35
2263.82004	8979.95
2266.70783	8964.55
2269.59378	8904.05
2272.4779	8925.35
2275.36017	8874.45
2278.24061	8849.45
2281.11922	8847.75
2283.996	8835.85
2286.87094	8823.75
2289.74405	8801.85
2292.61534	8779.35
2295.4848	8764.85
2298.35243	8761.75
2301.21824	8742.85
2304.08223	8753.55
2306.94439	8732.15
2309.80474	8725.55
2312.66327	8729.65
2315.51999	8682.95
2318.37489	8716.45
2321.22797	8716.35
2324.07925	8694.45
2326.92871	8695.05
2329.77637	8681.05
2332.62222	8684.75
2335.46626	8637.55
2338.3085	8645.95
2341.14893	8653.85
2343.98756	8641.25
2346.8244	8662.75
2349.65943	8667.65
2352.49267	8664.05
2355.32411	8688.15
2358.15376	8665.55
2360.98161	8668.15
2363.80768	8665.05
2366.63195	8682.55
2369.45444	8702.45
2372.27514	8694.05
2375.09405	8666.65
2377.91118	8656.55
2380.72652	8625.55
2383.54009	8599.75
2386.35187	8580.75
2389.16188	8554.05
2391.97011	8525.65
2394.77657	8485.65
2397.58125	8472.65
2400.38416	8447.75
2403.18529	8433.35
2405.98466	8411.45
2408.78226	8402.35
2411.57809	8400.65
2414.37216	8389.05
2417.16446	8390.05
2419.955	8342.55
2422.74378	8376.35
2425.5308	8367.95
2428.31606	8357.55
2431.09956	8343.45
2433.88131	8350.75
2436.6613	8371.85
2439.43954	8370.85
2442.21603	8340.05
2444.99077	8346.65
2447.76377	8364.25
2450.53501	8345.95
2453.30451	8371.55
2456.07226	8360.45
2458.83827	8362.15
2461.60254	8336.55
2464.36507	8370.35
2467.12586	8325.75
2469.88492	8338.25
2472.64224	8355.05
2475.39782	8348.35
2478.15167	8381.05
2480.90379	8372.45
2483.65417	8377.75
2486.40283	8412.25
2489.14976	8439.35
2491.89497	8431.35
2494.63845	8418.85
2497.3802	8386.95
2500.12024	8409.25
2502.85855	8378.75
2505.59514	8353.95
2508.33002	8333.95
2511.06318	8300.15
2513.79462	8275.05
2516.52435	8273.95
2519.25237	8233.95
2521.97867	8228.05
2524.70327	8240.25
2527.42616	8225.55
2530.14734	8202.25
2532.86681	8221.65
2535.58458	8194.35
2538.30065	8192.05
2541.01501	8185.45
2543.72768	8198.75
2546.43864	8173.95
2549.14791	8166.35
2551.85548	8152.75
2554.56136	8182.85
2557.26554	8150.55
2559.96803	8139.95
2562.66883	8164.55
2565.36794	8158.55
2568.06536	8116.55
2570.7611	8127.45
2573.45514	8104.95
2576.14751	8087.45
2578.83819	8093.45
2581.52719	8086.95
2584.21451	8094.95
2586.90015	8049.55
2589.58411	8057.15
2592.2664	8053.85
2594.94701	8055.25
2597.62594	8041.75
2600.30321	8040.45
2602.9788	8036.25
2605.65273	8015.55
2608.32498	8041.45
2610.99557	8024.75
2613.66449	8005.05
2616.33175	8015.55
2618.99734	8034.75
2621.66128	8009.15
2624.32355	7981.05
2626.98416	7990.65
2629.64311	7977.45
2632.30041	7967.45
2634.95605	7964.45
2637.61004	7951.45
2640.26238	7949.25
2642.91306	7975.55
2645.56209	7945.95
2648.20948	7927.25
2650.85521	7951.95
2653.4993	7940.65
2656.14175	7953.05
2658.78255	7953.85
2661.42171	7959.95
2664.05923	7998.35
2666.6951	7996.25
2669.32934	7996.65
2671.96194	8013.65
2674.59291	8019.85
2677.22224	8013.85
2679.84993	8007.75
2682.476	7975.95
2685.10043	7968.35
2687.72324	7979.55
2690.34441	7984.35
2692.96396	7962.35
2695.58188	7958.55
2698.19818	7932.75
2700.81285	7939.75
2703.4259	7938.55
2706.03733	7964.05
2708.64714	7955.95
2711.25533	7957.85
2713.86191	7980.45
2716.46687	8004.15
2719.07021	7988.55
2721.67194	7974.35
2724.27206	7991.85
2726.87057	8014.05
2729.46747	7989.65
2732.06276	8011.75
2734.65644	8013.15
2737.24852	7980.85
2739.83899	7958.45
2742.42786	8014.25
2745.01513	7964.65
2747.60079	7976.15
2750.18486	7954.95
2752.76733	7947.15
2755.3482	7919.05
2757.92747	7955.85
2760.50515	7918.45
2763.08123	7925.25
2765.65573	7898.25
2768.22863	7915.35
2770.79994	7885.45
2773.36967	7876.25
2775.9378	7895.75
2778.50435	7898.95
2781.06932	7874.25
2783.6327	7892.15
2786.1945	7903.85
2788.75471	7876.75
2791.31335	7875.75
2793.87041	7863.65
2796.42589	7863.95
2798.97979	7863.25
2801.53212	7834.35
2804.08288	7815.15
2806.63206	7791.95
2809.17967	7813.75
2811.72571	7805.55
2814.27018	7812.95
2816.81308	7807.65
2819.35442	7787.05
2821.89419	7787.45
2824.43239	7819.75
2826.96904	7793.75
2829.50412	7767.75
2832.03763	7753.45
2834.56959	7768.25
2837.1	7734.75
2839.62884	7743.75
2842.15613	7753.35
2844.68186	7768.35
2847.20604	7757.25
2849.72867	7758.85
2852.24974	7763.65
2854.76927	7764.85
2857.28724	7748.95
2859.80367	7734.45
2862.31855	7728.05
2864.83189	7729.45
2867.34368	7735.05
2869.85393	7738.25
2872.36264	7720.15
2874.8698	7731.45
2877.37543	7708.65
2879.87952	7702.05
2882.38207	7717.25
2884.88308	7709.15
2887.38256	7697.55
2889.88051	7684.45
2892.37692	7688.65
2894.8718	7685.35
2897.36515	7708.45
2899.85698	7685.65
2902.34727	7737.85
2904.83604	7722.35
2907.32328	7715.75
2909.809	7712.95
2912.29319	7752.95
2914.77587	7739.35
2917.25702	7751.45
2919.73665	7723.25
2922.21476	7700.85
2924.69136	7701.15
2927.16644	7671.85
2929.64	7672.25
2932.11205	7658.95
2934.58258	7632.45
2937.05161	7628.95
2939.51912	7643.75
2941.98513	7602.85
2944.44962	7592.55
2946.91261	7561.35
2949.37409	7586.75
2951.83407	7592.65
2954.29254	7577.85
2956.74951	7566.85
2959.20498	7574.45
2961.65895	7554.05
2964.11142	7553.55
2966.56239	7540.35
2969.01186	7530.35
2971.45984	7500.05
2973.90632	7498.85
2976.35131	7476.25
2978.7948	7452.05
2981.23681	7449.55
2983.67732	7434.85
2986.11635	7395.15
2988.55388	7391.95
2990.98993	7356.45
2993.4245	7369.05
2995.85758	7342.85
2998.28917	7326.35
3000.71928	7315.55
3003.14791	7301.85
3005.57506	7288.65
3008.00073	7266.85
3010.42493	7248.35
3012.84764	7246.85
3015.26888	7261.15
3017.68865	7228.55
3020.10694	7235.75
3022.52376	7203.45
3024.9391	7169.45
3027.35298	7166.15
3029.76539	7151.65
3032.17632	7145.25
3034.5858	7131.95
3036.9938	7120.55
3039.40034	7123.15
3041.80542	7092.25
3044.20903	7081.45
3046.61118	7085.35
3049.01187	7082.55
3051.4111	7059.75
3053.80888	7039.55
3056.20519	7028.15
3058.60005	7006.85
3060.99345	7004.35
3063.3854	6978.25
3065.7759	6961.55
3068.16494	6950.25
3070.55254	6939.05
3072.93868	6899.05
3075.32338	6904.35
3077.70662	6875.45
3080.08842	6847.05
3082.46878	6874.35
3084.84769	6865.95
3087.22515	6863.65
3089.60118	6877.05
3091.97576	6856.45
3094.3489	6865.65
3096.72061	6848.25
3099.09087	6839.95
3101.4597	6823.15
3103.82709	6851.85
3106.19305	6799.05
3108.55757	6826.75
3110.92066	6795.45
3113.28232	6782.35
3115.64255	6750.95
3118.00134	6738.65
3120.35871	6709.25
3122.71466	6725.85
3125.06917	6704.95
3127.42226	6665.55
3129.77393	6681.95
3132.12417	6666.75
3134.47299	6667.95
3136.82039	6673.55
3139.16636	6654.25
3141.51092	6657.05
3143.85406	6661.65
3146.19579	6659.95
3148.53609	6657.35
3150.87499	6667.35
3153.21246	6671.45
3155.54853	6678.85
3157.88318	6693.95
3160.21642	6659.85
3162.54826	6671.75
3164.87868	6670.45
3167.2077	6655.65
3169.5353	6674.55
3171.86151	6659.35
3174.18631	6653.35
3176.5097	6662.75
3178.83169	6641.95
3181.15228	6643.65
3183.47147	6645.45
3185.78926	6656.55
3188.10565	6609.05
3190.42065	6576.05
3192.73424	6585.85
3195.04645	6577.65
3197.35725	6575.95
3199.66667	6580.15
3201.97469	6589.65
3204.28132	6587.55
3206.58656	6585.55
3208.8904	6588.95
3211.19287	6587.65
3213.49394	6610.65
3215.79363	6609.55
3218.09193	6577.75
3220.38884	6591.75
3222.68438	6586.45
3224.97853	6596.95
3227.2713	6595.25
3229.56269	6592.35
3231.8527	6577.95
3234.14133	6572.75
3236.42858	6575.15
3238.71446	6568.85
3240.99896	6567.65
3243.28209	6550.45
3245.56384	6557.95
3247.84423	6523.55
3250.12324	6538.05
3252.40088	6512.65
3254.67715	6508.75
3256.95205	6497.85
3259.22558	6494.05
3261.49775	6470.25
3263.76855	6470.15
3266.03799	6454.45
3268.30606	6451.55
3270.57277	6439.25
3272.83812	6446.35
3275.10211	6424.65
3277.36474	6421.35
3279.62601	6418.35
3281.88593	6411.75
3284.14448	6428.55
3286.40168	6434.35
3288.65753	6450.45
3290.91202	6438.05
3293.16516	6433.05
3295.41695	6422.75
3297.66738	6377.65
3299.91647	6370.35
3302.16421	6318.85
3304.4106	6301.75
3306.65564	6267.75
3308.89933	6222.25
3311.14169	6186.75
3313.38269	6118.15
3315.62236	6079.75
3317.86068	6027.95
3320.09766	5992.45
3322.3333	5951.95
3324.5676	5949.45
3326.80056	5849.55
3329.03219	5814.15
3331.26248	2.75
3333.49143	-0.65
3335.71905	1.55
