Data from AgNP_FTO_APTES_UA_100uM_CRN_10uM_R6G_10uM_NaF_0.1M_Addition_RamanShift__51__16-16-30-462.txt Node

Date: Thu Mar 24 16:16:30 GMT 2022
User: TCL
Spectrometer: QEP01345
Trigger mode: 4
Integration Time (sec): 7.000000E0
Scans to average: 10
Electric dark correction enabled: true
Nonlinearity correction enabled: false
Boxcar width: 0
XAxis mode: Raman Shifts
Number of Pixels in Spectrum: 1044
>>>>>Begin Spectral Data<<<<<
46.04893	-0.35
50.45542	0.35
54.85868	-0.35
59.25871	-0.55
63.6555	32.95
68.04907	35.45
72.43941	34.45
76.82654	36.35
81.21044	38.25
85.59113	36.85
89.96862	40.75
94.34289	40.45
98.71396	42.55
103.08183	43.95
107.4465	44.65
111.80798	46.85
116.16626	47.75
120.52136	47.95
124.87327	50.05
129.222	55.15
133.56755	58.55
137.90993	61.25
142.24913	72.95
146.58517	74.05
150.91804	85.85
155.24774	113.85
159.57429	138.25
163.89768	175.35
168.21792	239.55
172.53501	326.75
176.84895	458.15
181.15975	648.55
185.46741	913.45
189.77193	1264.15
194.07331	1710.85
198.37157	2220.65
202.6667	2775.75
206.9587	3346.25
211.24758	3960.35
215.53334	4625.15
219.81599	5399.55
224.09553	6289.85
228.37195	7292.45
232.64527	8332.75
236.91549	9290.85
241.18261	10023.05
245.44663	10560.45
249.70755	10847.05
253.96539	11152.65
258.22014	11467.35
262.4718	11730.65
266.72039	11829.45
270.96589	11745.75
275.20832	11441.95
279.44768	10995.05
283.68397	10602.15
287.91719	10413.65
292.14735	10576.25
296.37445	11171.05
300.59849	12173.05
304.81948	13332.25
309.03742	14341.45
313.25231	14588.35
317.46415	13776.55
321.67296	12115.45
325.87872	10634.35
330.08145	9939.85
334.28114	9836.65
338.47781	10119.55
342.67145	10583.35
346.86207	11327.95
351.04966	12491.05
355.23424	13824.45
359.4158	14752.05
363.59435	14995.55
367.76989	14882.05
371.94243	14527.55
376.11196	14142.85
380.27849	13760.05
384.44203	13311.35
388.60257	12864.75
392.76012	12597.45
396.91468	12695.55
401.06626	13165.35
405.21485	13440.85
409.36047	12839.15
413.50311	11569.35
417.64277	10326.05
421.77947	9644.95
425.9132	9325.75
430.04396	9252.05
434.17176	9262.65
438.2966	9462.05
442.41849	9855.05
446.53742	10328.05
450.6534	10724.45
454.76644	10872.35
458.87653	10692.85
462.98368	10387.85
467.08789	10063.45
471.18916	9639.05
475.2875	9244.05
479.38291	8880.65
483.4754	8600.85
487.56496	8424.15
491.6516	8327.95
495.73531	8310.45
499.81612	8355.05
503.89401	8555.75
507.96899	8808.05
512.04106	9133.95
516.11023	9460.15
520.1765	9752.15
524.23987	9762.05
528.30034	9615.85
532.35792	9419.45
536.41261	9158.35
540.46441	8734.45
544.51333	8500.85
548.55936	8571.25
552.60252	8972.75
556.64279	9455.65
560.6802	9715.85
564.71473	10122.65
568.7464	11083.75
572.7752	11451.75
576.80114	10410.05
580.82422	9426.95
584.84444	9026.45
588.86181	9045.45
592.87633	9269.75
596.888	9512.65
600.89682	10019.35
604.9028	12408.05
608.90594	19407.65
612.90624	28838.75
616.90371	27097.05
620.89834	15384.85
624.89015	9926.55
628.87913	8993.35
632.86528	9360.15
636.84862	9739.45
640.82913	9326.65
644.80683	8315.05
648.78172	7703.75
652.75379	7772.45
656.72306	8566.55
660.68952	9490.25
664.65319	9159.25
668.61405	8085.85
672.57211	7544.35
676.52738	7516.95
680.47986	7466.95
684.42955	7280.35
688.37646	7159.05
692.32058	7192.25
696.26192	7292.45
700.20048	7517.75
704.13626	7672.65
708.06928	7613.55
711.99952	7518.05
715.927	7505.85
719.85171	7658.45
723.77365	7754.65
727.69284	7688.55
731.60928	7550.25
735.52295	7520.65
739.43388	7573.15
743.34206	7635.95
747.24749	7617.45
751.15017	7638.25
755.05012	7927.85
758.94733	8922.35
762.8418	11490.45
766.73354	15651.55
770.62254	19322.75
774.50882	20844.45
778.39237	19414.75
782.27321	15388.45
786.15132	11375.25
790.02671	9065.05
793.89938	8056.25
797.76935	7660.35
801.6366	7463.45
805.50115	7373.15
809.36299	7327.25
813.22213	7271.05
817.07857	7270.85
820.93231	7252.65
824.78336	7332.85
828.63172	7426.55
832.47738	7493.15
836.32036	7375.85
840.16066	7204.15
843.99827	7114.05
847.8332	7063.35
851.66546	7040.55
855.49504	7020.35
859.32195	7004.65
863.1462	6948.05
866.96777	6910.55
870.78668	6924.45
874.60293	6979.25
878.41652	7047.35
882.22745	7188.05
886.03573	7260.95
889.84136	7203.05
893.64433	7162.65
897.44466	7145.95
901.24235	7170.25
905.0374	7093.85
908.8298	6979.75
912.61957	6876.35
916.40671	6877.55
920.19121	6947.15
923.97308	7104.25
927.75233	7438.85
931.52895	7744.45
935.30295	7616.55
939.07433	7087.85
942.84309	6722.85
946.60924	6530.05
950.37278	6404.95
954.13371	6323.05
957.89203	6271.25
961.64774	6241.55
965.40086	6207.35
969.15137	6217.75
972.89929	6170.05
976.64461	6144.55
980.38733	6154.65
984.12747	6169.65
987.86502	6221.15
991.59999	6273.95
995.33237	6411.35
999.06217	6632.45
1002.78939	6964.05
1006.51404	7290.25
1010.23611	7556.45
1013.95561	7629.35
1017.67255	7525.05
1021.38692	7322.05
1025.09872	7090.85
1028.80796	6979.75
1032.51465	7032.45
1036.21877	7169.95
1039.92035	7304.35
1043.61937	7335.05
1047.31584	7344.35
1051.00976	7285.05
1054.70114	7174.65
1058.38998	7103.55
1062.07627	7101.25
1065.76003	7117.95
1069.44126	7170.15
1073.11995	7358.35
1076.79611	7629.65
1080.46974	8114.75
1084.14085	8787.45
1087.80943	9365.55
1091.47549	9495.75
1095.13903	9070.55
1098.80005	8388.65
1102.45857	7932.85
1106.11456	7867.45
1109.76805	8147.95
1113.41903	8731.85
1117.06751	9687.75
1120.71348	10919.15
1124.35696	12242.05
1127.99793	12953.85
1131.63641	12158.35
1135.2724	10637.55
1138.90589	9489.45
1142.5369	8815.65
1146.16542	8392.45
1149.79145	8104.55
1153.415	8094.45
1157.03607	8197.95
1160.65467	8574.15
1164.27079	9211.05
1167.88443	10246.05
1171.49561	11894.65
1175.10432	14610.15
1178.71056	18148.05
1182.31434	20755.35
1185.91565	21144.65
1189.51451	19964.15
1193.11091	17802.95
1196.70485	15520.85
1200.29634	13910.15
1203.88538	12688.55
1207.47197	11234.75
1211.05612	9952.15
1214.63782	9227.75
1218.21708	8945.95
1221.79391	8896.85
1225.36829	8931.05
1228.94024	8875.15
1232.50976	8728.15
1236.07685	8647.25
1239.6415	8671.45
1243.20374	8788.55
1246.76355	8928.25
1250.32093	9103.45
1253.8759	9446.75
1257.42845	9976.55
1260.97859	10707.95
1264.52631	11476.15
1268.07163	12158.35
1271.61453	12636.75
1275.15503	12841.25
1278.69312	12864.55
1282.22882	13126.45
1285.76211	13837.65
1289.29301	14801.05
1292.82151	15626.05
1296.34761	16556.85
1299.87133	18251.25
1303.39266	21413.45
1306.9116	26382.45
1310.42815	31628.55
1313.94233	33564.85
1317.45412	30678.25
1320.96354	25875.15
1324.47058	21330.55
1327.97525	17852.55
1331.47754	15802.25
1334.97747	15046.65
1338.47502	15279.05
1341.97022	16453.35
1345.46305	18668.55
1348.95352	21760.65
1352.44163	25457.25
1355.92738	30997.55
1359.41078	39493.55
1362.89183	45980.75
1366.37053	41556.35
1369.84688	30693.15
1373.32088	22336.95
1376.79254	17814.25
1380.26186	15407.55
1383.72883	13910.35
1387.19347	12809.25
1390.65578	11838.45
1394.11575	11042.25
1397.57339	10710.15
1401.0287	10616.85
1404.48168	10600.95
1407.93234	10577.95
1411.38068	10682.45
1414.82669	10929.85
1418.27039	11012.75
1421.71177	10793.25
1425.15083	10517.55
1428.58758	10531.75
1432.02203	10962.35
1435.45416	11227.95
1438.88399	11206.05
1442.31151	11073.55
1445.73673	11143.25
1449.15965	11270.65
1452.58027	11148.05
1455.9986	10865.05
1459.41463	10752.65
1462.82837	11023.55
1466.23982	11521.55
1469.64898	12020.25
1473.05586	12287.95
1476.46045	12372.65
1479.86276	12591.25
1483.26279	13096.15
1486.66054	13896.05
1490.05602	15140.25
1493.44922	16981.15
1496.84016	19904.35
1500.22882	24612.55
1503.61521	31305.25
1506.99934	39065.35
1510.38121	45048.25
1513.76081	45412.35
1517.13816	39212.95
1520.51324	30262.55
1523.88607	22898.25
1527.25665	18492.45
1530.62498	16103.65
1533.99105	14703.95
1537.35488	13795.25
1540.71647	13200.15
1544.07581	12918.35
1547.4329	12879.45
1550.78776	13003.25
1554.14038	13272.55
1557.49077	13763.95
1560.83892	14495.15
1564.18484	15574.65
1567.52853	16771.65
1570.86999	17567.75
1574.20922	17953.15
1577.54624	17612.75
1580.88103	15762.65
1584.2136	13383.05
1587.54395	12017.05
1590.87208	11909.05
1594.19801	12970.65
1597.52172	14593.05
1600.84321	15301.05
1604.16251	14662.35
1607.47959	13535.65
1610.79447	12252.55
1614.10715	10917.65
1617.41763	9789.55
1620.7259	9061.75
1624.03199	8757.15
1627.33587	8832.35
1630.63757	9304.25
1633.93707	10262.95
1637.23439	11969.25
1640.52951	14895.35
1643.82246	19502.45
1647.11321	25140.05
1650.40179	28718.05
1653.68819	26795.65
1656.97241	20696.15
1660.25446	14843.95
1663.53433	11074.15
1666.81203	9058.15
1670.08756	7940.95
1673.36092	7300.75
1676.63211	6872.15
1679.90115	6620.25
1683.16801	6457.85
1686.43272	6297.65
1689.69527	6189.25
1692.95567	6128.45
1696.2139	6106.95
1699.46999	6071.65
1702.72392	6056.95
1705.97571	6010.75
1709.22535	5992.45
1712.47284	6002.35
1715.71819	5993.35
1718.96139	5985.05
1722.20246	5936.05
1725.44139	5862.85
1728.67818	5761.95
1731.91284	5660.75
1735.14537	5606.45
1738.37576	5557.15
1741.60403	5499.25
1744.83017	5474.15
1748.05418	5444.45
1751.27607	5398.15
1754.49584	5392.75
1757.71349	5379.45
1760.92903	5339.35
1764.14244	5335.85
1767.35375	5318.95
1770.56294	5259.45
1773.77002	5208.45
1776.97499	5160.25
1780.17785	5118.05
1783.37861	5085.25
1786.57727	5047.95
1789.77382	5032.35
1792.96828	5038.25
1796.16064	5012.95
1799.3509	5007.95
1802.53907	4982.85
1805.72514	4962.75
1808.90913	4932.05
1812.09102	4908.15
1815.27083	4897.15
1818.44856	4854.95
1821.6242	4845.35
1824.79776	4830.25
1827.96924	4814.65
1831.13864	4804.05
1834.30597	4789.25
1837.47122	4764.05
1840.6344	4744.15
1843.7955	4732.75
1846.95454	4740.05
1850.11151	4708.75
1853.26642	4710.45
1856.41926	4699.95
1859.57004	4709.35
1862.71876	4732.05
1865.86542	4736.35
1869.01003	4732.25
1872.15258	4725.05
1875.29308	4723.95
1878.43152	4728.75
1881.56792	4734.45
1884.70227	4722.65
1887.83457	4715.15
1890.96482	4712.75
1894.09304	4704.65
1897.21921	4678.55
1900.34335	4687.55
1903.46544	4686.25
1906.58551	4679.55
1909.70353	4669.75
1912.81953	4664.55
1915.93349	4658.35
1919.04543	4659.35
1922.15534	4639.65
1925.26322	4616.85
1928.36908	4597.85
1931.47292	4585.45
1934.57473	4542.55
1937.67453	4502.75
1940.77232	4483.05
1943.86808	4468.05
1946.96184	4448.05
1950.05358	4448.35
1953.14331	4431.15
1956.23103	4428.45
1959.31675	4412.05
1962.40046	4389.75
1965.48217	4408.35
1968.56188	4418.35
1971.63959	4423.15
1974.7153	4411.45
1977.78901	4382.15
1980.86073	4361.85
1983.93046	4326.35
1986.99819	4294.45
1990.06394	4251.45
1993.1277	4228.25
1996.18947	4212.35
1999.24925	4205.15
2002.30706	4184.35
2005.36288	4178.75
2008.41672	4140.95
2011.46859	4124.25
2014.51848	4114.95
2017.56639	4089.05
2020.61233	4099.45
2023.6563	4078.45
2026.6983	4060.65
2029.73833	4055.35
2032.7764	4044.35
2035.8125	4043.05
2038.84664	4039.25
2041.87881	4022.45
2044.90903	4020.55
2047.93729	4029.75
2050.96359	4013.55
2053.98794	3991.85
2057.01034	3980.75
2060.03078	3977.85
2063.04927	3962.95
2066.06582	3952.95
2069.08042	3940.75
2072.09307	3933.25
2075.10378	3940.05
2078.11255	3943.75
2081.11938	3938.35
2084.12426	3935.15
2087.12722	3923.85
2090.12824	3922.55
2093.12732	3922.55
2096.12447	3930.45
2099.11969	3937.15
2102.11299	3928.25
2105.10435	3936.65
2108.09379	3923.05
2111.08131	3944.45
2114.0669	3938.25
2117.05057	3952.35
2120.03233	3984.05
2123.01216	3980.25
2125.99008	3996.65
2128.96609	3998.95
2131.94018	3981.15
2134.91236	3982.85
2137.88263	3969.25
2140.851	3962.45
2143.81746	3957.25
2146.78201	3952.55
2149.74466	3925.55
2152.7054	3922.35
2155.66425	3911.45
2158.6212	3889.55
2161.57625	3888.55
2164.52941	3891.75
2167.48067	3884.65
2170.43004	3894.15
2173.37752	3903.45
2176.32311	3876.75
2179.26681	3903.95
2182.20863	3885.65
2185.14856	3901.05
2188.08661	3890.05
2191.02278	3881.65
2193.95707	3866.75
2196.88948	3863.35
2199.82001	3848.75
2202.74867	3860.05
2205.67545	3848.65
2208.60037	3848.55
2211.52341	3842.05
2214.44458	3830.65
2217.36388	3829.25
2220.28132	3828.55
2223.1969	3804.65
2226.11061	3801.25
2229.02246	3783.65
2231.93245	3769.55
2234.84058	3776.55
2237.74686	3759.85
2240.65128	3757.35
2243.55385	3758.95
2246.45456	3761.75
2249.35343	3769.95
2252.25044	3787.95
2255.14561	3796.05
2258.03893	3832.25
2260.93041	3829.05
2263.82004	3833.75
2266.70783	3823.45
2269.59378	3797.25
2272.4779	3788.05
2275.36017	3784.05
2278.24061	3777.95
2281.11922	3760.75
2283.996	3749.15
2286.87094	3724.05
2289.74405	3717.55
2292.61534	3694.55
2295.4848	3679.95
2298.35243	3662.35
2301.21824	3671.55
2304.08223	3673.75
2306.94439	3660.05
2309.80474	3662.05
2312.66327	3662.05
2315.51999	3678.65
2318.37489	3664.55
2321.22797	3671.65
2324.07925	3662.05
2326.92871	3662.65
2329.77637	3675.75
2332.62222	3647.65
2335.46626	3651.05
2338.3085	3678.05
2341.14893	3671.55
2343.98756	3689.35
2346.8244	3692.45
2349.65943	3708.05
2352.49267	3722.55
2355.32411	3752.15
2358.15376	3754.55
2360.98161	3786.75
2363.80768	3779.75
2366.63195	3798.25
2369.45444	3823.35
2372.27514	3822.95
2375.09405	3800.25
2377.91118	3773.35
2380.72652	3750.45
2383.54009	3708.65
2386.35187	3704.95
2389.16188	3653.95
2391.97011	3634.75
2394.77657	3621.35
2397.58125	3617.15
2400.38416	3590.55
2403.18529	3571.15
2405.98466	3563.65
2408.78226	3534.85
2411.57809	3545.55
2414.37216	3529.15
2417.16446	3536.15
2419.955	3551.95
2422.74378	3551.75
2425.5308	3544.45
2428.31606	3528.65
2431.09956	3555.15
2433.88131	3561.25
2436.6613	3558.15
2439.43954	3586.65
2442.21603	3591.45
2444.99077	3598.65
2447.76377	3603.95
2450.53501	3613.05
2453.30451	3618.95
2456.07226	3612.05
2458.83827	3618.45
2461.60254	3608.35
2464.36507	3608.75
2467.12586	3595.45
2469.88492	3607.85
2472.64224	3607.95
2475.39782	3626.15
2478.15167	3658.35
2480.90379	3669.75
2483.65417	3698.15
2486.40283	3721.65
2489.14976	3745.45
2491.89497	3752.35
2494.63845	3749.55
2497.3802	3741.65
2500.12024	3714.35
2502.85855	3697.75
2505.59514	3674.85
2508.33002	3625.45
2511.06318	3602.65
2513.79462	3564.35
2516.52435	3546.55
2519.25237	3517.25
2521.97867	3479.85
2524.70327	3469.45
2527.42616	3475.25
2530.14734	3466.05
2532.86681	3467.05
2535.58458	3471.45
2538.30065	3463.75
2541.01501	3477.75
2543.72768	3491.75
2546.43864	3491.05
2549.14791	3487.95
2551.85548	3504.05
2554.56136	3499.35
2557.26554	3500.65
2559.96803	3494.65
2562.66883	3493.35
2565.36794	3481.95
2568.06536	3500.45
2570.7611	3471.35
2573.45514	3473.55
2576.14751	3463.05
2578.83819	3439.55
2581.52719	3443.45
2584.21451	3443.45
2586.90015	3437.65
2589.58411	3425.05
2592.2664	3441.25
2594.94701	3424.95
2597.62594	3425.85
2600.30321	3416.55
2602.9788	3413.65
2605.65273	3428.35
2608.32498	3421.85
2610.99557	3434.25
2613.66449	3440.95
2616.33175	3430.45
2618.99734	3444.95
2621.66128	3441.95
2624.32355	3445.25
2626.98416	3428.05
2629.64311	3419.25
2632.30041	3405.05
2634.95605	3403.75
2637.61004	3395.65
2640.26238	3388.15
2642.91306	3375.95
2645.56209	3373.95
2648.20948	3368.85
2650.85521	3366.55
2653.4993	3374.85
2656.14175	3380.25
2658.78255	3408.55
2661.42171	3403.15
2664.05923	3410.75
2666.6951	3432.45
2669.32934	3453.25
2671.96194	3449.85
2674.59291	3454.15
2677.22224	3453.25
2679.84993	3446.35
2682.476	3424.35
2685.10043	3432.05
2687.72324	3419.75
2690.34441	3427.55
2692.96396	3417.35
2695.58188	3408.85
2698.19818	3399.55
2700.81285	3414.05
2703.4259	3419.95
2706.03733	3426.05
2708.64714	3437.95
2711.25533	3418.65
2713.86191	3430.65
2716.46687	3441.45
2719.07021	3437.65
2721.67194	3439.15
2724.27206	3441.45
2726.87057	3446.95
2729.46747	3439.65
2732.06276	3430.65
2734.65644	3410.45
2737.24852	3412.05
2739.83899	3395.95
2742.42786	3393.25
2745.01513	3369.05
2747.60079	3364.85
2750.18486	3355.85
2752.76733	3344.55
2755.3482	3328.85
2757.92747	3333.95
2760.50515	3325.15
2763.08123	3323.85
2765.65573	3307.95
2768.22863	3322.25
2770.79994	3315.45
2773.36967	3318.15
2775.9378	3312.65
2778.50435	3307.35
2781.06932	3329.15
2783.6327	3327.95
2786.1945	3347.85
2788.75471	3335.35
2791.31335	3333.45
2793.87041	3345.35
2796.42589	3334.05
2798.97979	3345.65
2801.53212	3342.75
2804.08288	3357.65
2806.63206	3351.15
2809.17967	3367.75
2811.72571	3369.25
2814.27018	3405.95
2816.81308	3413.65
2819.35442	3425.75
2821.89419	3444.05
2824.43239	3440.75
2826.96904	3452.35
2829.50412	3448.85
2832.03763	3450.75
2834.56959	3444.25
2837.1	3434.15
2839.62884	3425.95
2842.15613	3430.65
2844.68186	3445.95
2847.20604	3446.25
2849.72867	3457.45
2852.24974	3467.85
2854.76927	3478.75
2857.28724	3500.75
2859.80367	3499.85
2862.31855	3511.85
2864.83189	3522.85
2867.34368	3536.45
2869.85393	3553.05
2872.36264	3562.95
2874.8698	3562.05
2877.37543	3560.65
2879.87952	3554.55
2882.38207	3532.65
2884.88308	3515.45
2887.38256	3519.55
2889.88051	3518.35
2892.37692	3488.65
2894.8718	3495.75
2897.36515	3495.65
2899.85698	3492.35
2902.34727	3495.75
2904.83604	3484.15
2907.32328	3500.15
2909.809	3489.85
2912.29319	3479.45
2914.77587	3467.15
2917.25702	3462.75
2919.73665	3443.25
2922.21476	3427.35
2924.69136	3415.75
2927.16644	3412.55
2929.64	3380.35
2932.11205	3384.55
2934.58258	3375.55
2937.05161	3376.95
2939.51912	3381.35
2941.98513	3377.85
2944.44962	3370.75
2946.91261	3349.15
2949.37409	3358.05
2951.83407	3369.15
2954.29254	3352.25
2956.74951	3369.55
2959.20498	3373.15
2961.65895	3351.35
2964.11142	3358.65
2966.56239	3358.05
2969.01186	3335.25
2971.45984	3328.55
2973.90632	3320.35
2976.35131	3299.15
2978.7948	3277.95
2981.23681	3266.05
2983.67732	3277.85
2986.11635	3248.95
2988.55388	3251.15
2990.98993	3258.45
2993.4245	3254.25
2995.85758	3251.25
2998.28917	3263.45
3000.71928	3256.75
3003.14791	3258.15
3005.57506	3264.45
3008.00073	3246.05
3010.42493	3265.15
3012.84764	3274.05
3015.26888	3271.65
3017.68865	3264.95
3020.10694	3276.85
3022.52376	3253.45
3024.9391	3225.85
3027.35298	3227.25
3029.76539	3200.55
3032.17632	3193.35
3034.5858	3178.85
3036.9938	3162.85
3039.40034	3155.85
3041.80542	3146.65
3044.20903	3119.05
3046.61118	3129.75
3049.01187	3115.45
3051.4111	3126.75
3053.80888	3107.75
3056.20519	3099.25
3058.60005	3106.55
3060.99345	3101.75
3063.3854	3078.45
3065.7759	3073.05
3068.16494	3067.25
3070.55254	3064.85
3072.93868	3039.25
3075.32338	3035.05
3077.70662	3034.55
3080.08842	3023.35
3082.46878	3015.95
3084.84769	3015.35
3087.22515	3011.75
3089.60118	3012.15
3091.97576	3000.95
3094.3489	2995.15
3096.72061	3008.95
3099.09087	2997.95
3101.4597	3010.05
3103.82709	3006.45
3106.19305	3005.95
3108.55757	3013.55
3110.92066	3004.15
3113.28232	2999.05
3115.64255	2992.45
3118.00134	2987.45
3120.35871	2984.25
3122.71466	2994.15
3125.06917	2981.55
3127.42226	2987.95
3129.77393	2991.45
3132.12417	2994.25
3134.47299	3010.35
3136.82039	2993.95
3139.16636	2983.25
3141.51092	3002.95
3143.85406	3012.85
3146.19579	3014.25
3148.53609	3030.55
3150.87499	3038.95
3153.21246	3045.25
3155.54853	3066.75
3157.88318	3065.35
3160.21642	3070.55
3162.54826	3074.35
3164.87868	3073.15
3167.2077	3067.35
3169.5353	3076.35
3171.86151	3063.95
3174.18631	3067.05
3176.5097	3061.75
3178.83169	3056.45
3181.15228	3066.25
3183.47147	3060.85
3185.78926	3059.75
3188.10565	3062.75
3190.42065	3086.35
3192.73424	3091.05
3195.04645	3097.05
3197.35725	3093.25
3199.66667	3111.05
3201.97469	3112.05
3204.28132	3129.15
3206.58656	3131.05
3208.8904	3135.15
3211.19287	3150.85
3213.49394	3164.65
3215.79363	3174.65
3218.09193	3187.65
3220.38884	3186.25
3222.68438	3197.55
3224.97853	3198.65
3227.2713	3189.25
3229.56269	3196.55
3231.8527	3200.75
3234.14133	3184.55
3236.42858	3195.35
3238.71446	3206.65
3240.99896	3172.25
3243.28209	3180.75
3245.56384	3190.45
3247.84423	3180.35
3250.12324	3172.35
3252.40088	3188.55
3254.67715	3180.25
3256.95205	3192.35
3259.22558	3181.75
3261.49775	3190.15
3263.76855	3159.65
3266.03799	3161.65
3268.30606	3178.65
3270.57277	3153.35
3272.83812	3155.45
3275.10211	3168.15
3277.36474	3151.35
3279.62601	3169.75
3281.88593	3156.05
3284.14448	3187.65
3286.40168	3171.65
3288.65753	3180.15
3290.91202	3185.95
3293.16516	3173.25
3295.41695	3186.45
3297.66738	3157.05
3299.91647	3138.15
3302.16421	3125.75
3304.4106	3103.75
3306.65564	3071.15
3308.89933	3051.95
3311.14169	3032.95
3313.38269	2989.45
3315.62236	2981.05
3317.86068	2947.55
3320.09766	2906.25
3322.3333	2880.65
3324.5676	2879.65
3326.80056	2838.75
3329.03219	2812.25
3331.26248	1.05
3333.49143	0.05
3335.71905	0.85
