Data from AgNP_FTO_APTES_UA_100uM_CRN_100uM_R6G_10uM_NaF_0.1M_Addition_RamanShift__30__18-22-30-602.txt Node

Date: Thu Mar 24 18:22:30 GMT 2022
User: TCL
Spectrometer: QEP01345
Trigger mode: 4
Integration Time (sec): 7.000000E0
Scans to average: 10
Electric dark correction enabled: true
Nonlinearity correction enabled: false
Boxcar width: 0
XAxis mode: Raman Shifts
Number of Pixels in Spectrum: 1044
>>>>>Begin Spectral Data<<<<<
46.04893	-1.45
50.45542	0.55
54.85868	-0.75
59.25871	0.05
63.6555	30.25
68.04907	35.15
72.43941	32.85
76.82654	37.45
81.21044	37.95
85.59113	38.85
89.96862	39.65
94.34289	43.75
98.71396	44.95
103.08183	43.85
107.4465	44.45
111.80798	47.15
116.16626	48.85
120.52136	48.55
124.87327	48.35
129.222	49.35
133.56755	52.55
137.90993	53.75
142.24913	61.85
146.58517	63.25
150.91804	77.45
155.24774	92.95
159.57429	111.25
163.89768	137.65
168.21792	181.85
172.53501	245.05
176.84895	340.05
181.15975	472.95
185.46741	665.45
189.77193	908.25
194.07331	1224.35
198.37157	1580.75
202.6667	1956.35
206.9587	2331.15
211.24758	2721.25
215.53334	3111.95
219.81599	3540.85
224.09553	4028.35
228.37195	4571.05
232.64527	5155.55
236.91549	5747.45
241.18261	6300.05
245.44663	6760.85
249.70755	7130.05
253.96539	7442.35
258.22014	7733.55
262.4718	7948.15
266.72039	8122.25
270.96589	8186.75
275.20832	8168.05
279.44768	8109.95
283.68397	7960.55
287.91719	7904.25
292.14735	7903.55
296.37445	8003.15
300.59849	8196.25
304.81948	8460.85
309.03742	8623.55
313.25231	8599.55
317.46415	8348.65
321.67296	7947.85
325.87872	7554.65
330.08145	7352.15
334.28114	7299.75
338.47781	7410.35
342.67145	7513.45
346.86207	7725.05
351.04966	7998.95
355.23424	8304.75
359.4158	8549.55
363.59435	8643.95
367.76989	8682.25
371.94243	8664.85
376.11196	8636.05
380.27849	8612.15
384.44203	8565.35
388.60257	8542.75
392.76012	8557.05
396.91468	8631.45
401.06626	8811.85
405.21485	8893.55
409.36047	8776.35
413.50311	8433.75
417.64277	8101.05
421.77947	7922.95
425.9132	7874.55
430.04396	7884.25
434.17176	7923.25
438.2966	7998.55
442.41849	8164.95
446.53742	8396.75
450.6534	8616.15
454.76644	8750.65
458.87653	8758.05
462.98368	8701.85
467.08789	8583.25
471.18916	8443.35
475.2875	8309.65
479.38291	8150.95
483.4754	8001.15
487.56496	7937.35
491.6516	7849.65
495.73531	7819.35
499.81612	7788.05
503.89401	7841.95
507.96899	7879.65
512.04106	7917.25
516.11023	7982.35
520.1765	7958.45
524.23987	7934.55
528.30034	7911.25
532.35792	7821.85
536.41261	7712.55
540.46441	7576.05
544.51333	7519.35
548.55936	7585.05
552.60252	7763.45
556.64279	7982.55
560.6802	8081.85
564.71473	8188.75
568.7464	8371.25
572.7752	8628.35
576.80114	8684.35
580.82422	8714.85
584.84444	8832.15
588.86181	9013.35
592.87633	9168.45
596.888	9299.25
600.89682	9278.95
604.9028	9794.45
608.90594	11651.85
612.90624	14012.45
616.90371	13275.25
620.89834	9772.35
624.89015	8079.35
628.87913	7815.15
632.86528	7989.85
636.84862	8148.75
640.82913	8045.95
644.80683	7662.05
648.78172	7350.05
652.75379	7283.45
656.72306	7456.55
660.68952	7773.55
664.65319	7655.65
668.61405	7312.95
672.57211	7163.25
676.52738	7166.15
680.47986	7168.25
684.42955	7092.65
688.37646	7036.45
692.32058	7053.55
696.26192	7108.75
700.20048	7218.65
704.13626	7299.95
708.06928	7297.45
711.99952	7242.65
715.927	7250.85
719.85171	7275.75
723.77365	7290.65
727.69284	7262.75
731.60928	7194.85
735.52295	7177.05
739.43388	7201.35
743.34206	7206.95
747.24749	7232.85
751.15017	7258.75
755.05012	7376.55
758.94733	7713.65
762.8418	8512.25
766.73354	9910.65
770.62254	11260.85
774.50882	11733.55
778.39237	11054.45
782.27321	9671.45
786.15132	8393.95
790.02671	7610.55
793.89938	7209.25
797.76935	7051.85
801.6366	6990.45
805.50115	6948.65
809.36299	6912.05
813.22213	6882.25
817.07857	6855.95
820.93231	6813.85
824.78336	6762.25
828.63172	6797.85
832.47738	6804.75
836.32036	6761.15
840.16066	6738.35
843.99827	6735.25
847.8332	6710.65
851.66546	6705.05
855.49504	6720.95
859.32195	6705.95
863.1462	6688.45
866.96777	6677.55
870.78668	6669.75
874.60293	6689.35
878.41652	6703.05
882.22745	6756.85
886.03573	6804.25
889.84136	6802.85
893.64433	6768.85
897.44466	6745.05
901.24235	6702.65
905.0374	6649.25
908.8298	6613.55
912.61957	6557.45
916.40671	6606.25
920.19121	6685.35
923.97308	6772.35
927.75233	6793.15
931.52895	6806.65
935.30295	6710.05
939.07433	6519.75
942.84309	6383.05
946.60924	6263.25
950.37278	6239.95
954.13371	6211.95
957.89203	6187.35
961.64774	6182.25
965.40086	6180.55
969.15137	6148.45
972.89929	6133.45
976.64461	6105.35
980.38733	6101.45
984.12747	6133.55
987.86502	6148.95
991.59999	6194.05
995.33237	6256.85
999.06217	6394.55
1002.78939	6584.35
1006.51404	6750.45
1010.23611	6902.25
1013.95561	6995.25
1017.67255	6978.35
1021.38692	6870.15
1025.09872	6694.35
1028.80796	6606.85
1032.51465	6610.45
1036.21877	6648.45
1039.92035	6708.35
1043.61937	6744.35
1047.31584	6740.95
1051.00976	6727.95
1054.70114	6709.25
1058.38998	6726.05
1062.07627	6782.85
1065.76003	6824.35
1069.44126	6892.85
1073.11995	7027.25
1076.79611	7135.45
1080.46974	7260.55
1084.14085	7412.35
1087.80943	7562.05
1091.47549	7643.35
1095.13903	7551.75
1098.80005	7344.95
1102.45857	7120.55
1106.11456	7009.85
1109.76805	7028.25
1113.41903	7159.55
1117.06751	7398.45
1120.71348	7681.75
1124.35696	7985.45
1127.99793	8251.25
1131.63641	8239.85
1135.2724	7986.15
1138.90589	7682.05
1142.5369	7507.55
1146.16542	7395.25
1149.79145	7328.85
1153.415	7311.65
1157.03607	7397.05
1160.65467	7587.35
1164.27079	7926.05
1167.88443	8447.15
1171.49561	9218.25
1175.10432	10318.65
1178.71056	11763.15
1182.31434	12985.85
1185.91565	13387.15
1189.51451	13024.45
1193.11091	12276.65
1196.70485	11396.05
1200.29634	10605.45
1203.88538	10038.45
1207.47197	9460.55
1211.05612	8911.95
1214.63782	8555.55
1218.21708	8407.65
1221.79391	8337.15
1225.36829	8372.25
1228.94024	8292.65
1232.50976	8154.75
1236.07685	8010.35
1239.6415	7965.65
1243.20374	7950.35
1246.76355	8003.95
1250.32093	8049.15
1253.8759	8223.35
1257.42845	8459.75
1260.97859	8802.85
1264.52631	9134.95
1268.07163	9479.25
1271.61453	9793.15
1275.15503	10112.35
1278.69312	10296.55
1282.22882	10538.55
1285.76211	10882.55
1289.29301	11328.85
1292.82151	11829.05
1296.34761	12430.45
1299.87133	13284.35
1303.39266	14470.45
1306.9116	15994.55
1310.42815	17504.95
1313.94233	18221.45
1317.45412	17707.25
1320.96354	16581.25
1324.47058	15494.45
1327.97525	14493.65
1331.47754	13808.45
1334.97747	13439.05
1338.47502	13360.15
1341.97022	13534.05
1345.46305	13910.95
1348.95352	14543.75
1352.44163	15444.55
1355.92738	16824.75
1359.41078	18859.45
1362.89183	20838.25
1366.37053	20392.45
1369.84688	17405.55
1373.32088	14375.65
1376.79254	12518.75
1380.26186	11567.45
1383.72883	11073.15
1387.19347	10677.55
1390.65578	10303.25
1394.11575	10097.45
1397.57339	10029.55
1401.0287	10032.95
1404.48168	10079.95
1407.93234	10004.55
1411.38068	9906.15
1414.82669	9724.35
1418.27039	9457.55
1421.71177	9191.85
1425.15083	8896.95
1428.58758	8749.65
1432.02203	8815.85
1435.45416	8983.25
1438.88399	9125.25
1442.31151	9216.25
1445.73673	9318.05
1449.15965	9414.65
1452.58027	9474.55
1455.9986	9454.55
1459.41463	9529.85
1462.82837	9728.85
1466.23982	10032.25
1469.64898	10384.85
1473.05586	10650.35
1476.46045	10805.95
1479.86276	10956.65
1483.26279	11106.35
1486.66054	11326.55
1490.05602	11691.65
1493.44922	12272.95
1496.84016	13114.25
1500.22882	14371.85
1503.61521	16141.75
1506.99934	18010.25
1510.38121	19241.35
1513.76081	19087.85
1517.13816	17547.65
1520.51324	15373.55
1523.88607	13527.85
1527.25665	12426.15
1530.62498	11839.25
1533.99105	11451.55
1537.35488	11140.95
1540.71647	10826.55
1544.07581	10493.25
1547.4329	10236.65
1550.78776	10070.85
1554.14038	9989.65
1557.49077	10035.85
1560.83892	10181.25
1564.18484	10482.65
1567.52853	10914.15
1570.86999	11223.55
1574.20922	11490.75
1577.54624	11442.85
1580.88103	10938.35
1584.2136	10252.75
1587.54395	9947.35
1590.87208	10120.65
1594.19801	10697.55
1597.52172	11474.05
1600.84321	11718.25
1604.16251	11266.65
1607.47959	10477.25
1610.79447	9645.95
1614.10715	8890.05
1617.41763	8196.75
1620.7259	7741.05
1624.03199	7494.95
1627.33587	7481.35
1630.63757	7684.05
1633.93707	8169.95
1637.23439	9072.55
1640.52951	10486.05
1643.82246	12392.55
1647.11321	14365.15
1650.40179	15430.95
1653.68819	14681.95
1656.97241	12507.85
1660.25446	10148.15
1663.53433	8445.25
1666.81203	7407.95
1670.08756	6789.65
1673.36092	6386.25
1676.63211	6155.45
1679.90115	6002.15
1683.16801	5845.35
1686.43272	5735.45
1689.69527	5664.15
1692.95567	5601.15
1696.2139	5564.15
1699.46999	5521.15
1702.72392	5479.65
1705.97571	5458.15
1709.22535	5425.45
1712.47284	5422.05
1715.71819	5411.25
1718.96139	5351.85
1722.20246	5349.25
1725.44139	5308.55
1728.67818	5257.35
1731.91284	5209.75
1735.14537	5150.95
1738.37576	5129.75
1741.60403	5104.55
1744.83017	5088.75
1748.05418	5053.45
1751.27607	5041.15
1754.49584	5019.95
1757.71349	4999.35
1760.92903	5007.75
1764.14244	5002.65
1767.35375	4981.95
1770.56294	4971.55
1773.77002	4934.35
1776.97499	4918.05
1780.17785	4898.35
1783.37861	4869.15
1786.57727	4870.45
1789.77382	4864.95
1792.96828	4865.45
1796.16064	4853.95
1799.3509	4828.35
1802.53907	4812.75
1805.72514	4797.35
1808.90913	4788.55
1812.09102	4750.45
1815.27083	4755.25
1818.44856	4740.15
1821.6242	4721.85
1824.79776	4709.15
1827.96924	4701.85
1831.13864	4686.45
1834.30597	4671.45
1837.47122	4666.25
1840.6344	4671.85
1843.7955	4663.75
1846.95454	4655.05
1850.11151	4648.45
1853.26642	4633.85
1856.41926	4620.75
1859.57004	4619.65
1862.71876	4614.05
1865.86542	4609.15
1869.01003	4618.95
1872.15258	4597.95
1875.29308	4593.15
1878.43152	4588.05
1881.56792	4610.95
1884.70227	4580.05
1887.83457	4592.65
1890.96482	4574.05
1894.09304	4574.15
1897.21921	4550.05
1900.34335	4549.15
1903.46544	4545.65
1906.58551	4557.95
1909.70353	4550.75
1912.81953	4533.05
1915.93349	4526.65
1919.04543	4508.05
1922.15534	4506.25
1925.26322	4484.65
1928.36908	4483.25
1931.47292	4459.95
1934.57473	4431.45
1937.67453	4430.75
1940.77232	4408.75
1943.86808	4425.15
1946.96184	4400.45
1950.05358	4351.55
1953.14331	4364.75
1956.23103	4342.75
1959.31675	4330.25
1962.40046	4325.15
1965.48217	4312.85
1968.56188	4305.35
1971.63959	4289.35
1974.7153	4277.55
1977.78901	4281.85
1980.86073	4264.05
1983.93046	4239.55
1986.99819	4205.85
1990.06394	4199.45
1993.1277	4181.95
1996.18947	4173.35
1999.24925	4143.35
2002.30706	4139.05
2005.36288	4123.35
2008.41672	4086.65
2011.46859	4094.35
2014.51848	4076.75
2017.56639	4064.25
2020.61233	4058.05
2023.6563	4046.25
2026.6983	4028.15
2029.73833	4028.45
2032.7764	4015.35
2035.8125	3997.15
2038.84664	3995.65
2041.87881	3969.95
2044.90903	3977.75
2047.93729	3956.55
2050.96359	3969.35
2053.98794	3956.05
2057.01034	3930.15
2060.03078	3929.45
2063.04927	3927.95
2066.06582	3924.15
2069.08042	3921.55
2072.09307	3907.15
2075.10378	3902.45
2078.11255	3896.15
2081.11938	3916.85
2084.12426	3910.35
2087.12722	3903.15
2090.12824	3901.25
2093.12732	3894.35
2096.12447	3907.05
2099.11969	3909.15
2102.11299	3891.35
2105.10435	3917.05
2108.09379	3904.15
2111.08131	3911.75
2114.0669	3894.85
2117.05057	3921.05
2120.03233	3911.95
2123.01216	3922.15
2125.99008	3902.25
2128.96609	3912.95
2131.94018	3910.55
2134.91236	3904.25
2137.88263	3923.25
2140.851	3908.05
2143.81746	3916.95
2146.78201	3906.65
2149.74466	3904.15
2152.7054	3904.65
2155.66425	3882.25
2158.6212	3896.75
2161.57625	3885.95
2164.52941	3883.85
2167.48067	3880.15
2170.43004	3875.15
2173.37752	3886.15
2176.32311	3870.85
2179.26681	3877.25
2182.20863	3871.85
2185.14856	3872.05
2188.08661	3864.95
2191.02278	3876.55
2193.95707	3856.15
2196.88948	3843.15
2199.82001	3867.35
2202.74867	3848.75
2205.67545	3840.85
2208.60037	3827.85
2211.52341	3825.55
2214.44458	3813.55
2217.36388	3815.65
2220.28132	3810.35
2223.1969	3784.55
2226.11061	3794.25
2229.02246	3781.75
2231.93245	3770.55
2234.84058	3768.35
2237.74686	3767.15
2240.65128	3767.25
2243.55385	3759.85
2246.45456	3751.65
2249.35343	3739.05
2252.25044	3742.95
2255.14561	3733.05
2258.03893	3735.15
2260.93041	3733.65
2263.82004	3723.55
2266.70783	3721.65
2269.59378	3694.65
2272.4779	3696.25
2275.36017	3685.25
2278.24061	3683.65
2281.11922	3678.25
2283.996	3656.65
2286.87094	3644.45
2289.74405	3639.95
2292.61534	3646.05
2295.4848	3640.95
2298.35243	3630.35
2301.21824	3630.65
2304.08223	3632.55
2306.94439	3616.25
2309.80474	3621.95
2312.66327	3609.15
2315.51999	3615.35
2318.37489	3612.55
2321.22797	3613.55
2324.07925	3604.95
2326.92871	3601.75
2329.77637	3611.35
2332.62222	3605.65
2335.46626	3579.85
2338.3085	3585.65
2341.14893	3584.55
2343.98756	3603.45
2346.8244	3592.65
2349.65943	3588.65
2352.49267	3602.35
2355.32411	3598.15
2358.15376	3614.85
2360.98161	3605.35
2363.80768	3615.25
2366.63195	3611.05
2369.45444	3622.15
2372.27514	3625.45
2375.09405	3603.55
2377.91118	3608.85
2380.72652	3578.25
2383.54009	3572.55
2386.35187	3562.25
2389.16188	3541.85
2391.97011	3535.55
2394.77657	3514.25
2397.58125	3510.25
2400.38416	3503.15
2403.18529	3494.65
2405.98466	3485.85
2408.78226	3477.85
2411.57809	3473.75
2414.37216	3464.05
2417.16446	3462.25
2419.955	3456.05
2422.74378	3457.95
2425.5308	3451.85
2428.31606	3447.05
2431.09956	3450.45
2433.88131	3463.95
2436.6613	3449.45
2439.43954	3441.45
2442.21603	3454.75
2444.99077	3444.35
2447.76377	3445.65
2450.53501	3448.75
2453.30451	3452.15
2456.07226	3453.45
2458.83827	3449.75
2461.60254	3441.85
2464.36507	3444.15
2467.12586	3447.45
2469.88492	3441.65
2472.64224	3450.75
2475.39782	3446.55
2478.15167	3469.35
2480.90379	3458.15
2483.65417	3472.05
2486.40283	3478.55
2489.14976	3489.85
2491.89497	3475.95
2494.63845	3479.75
2497.3802	3479.05
2500.12024	3467.05
2502.85855	3473.95
2505.59514	3457.25
2508.33002	3448.35
2511.06318	3437.55
2513.79462	3409.75
2516.52435	3408.95
2519.25237	3401.05
2521.97867	3394.45
2524.70327	3387.95
2527.42616	3382.35
2530.14734	3367.15
2532.86681	3373.25
2535.58458	3375.05
2538.30065	3370.35
2541.01501	3386.35
2543.72768	3386.25
2546.43864	3365.25
2549.14791	3382.45
2551.85548	3373.55
2554.56136	3362.35
2557.26554	3344.05
2559.96803	3344.15
2562.66883	3344.55
2565.36794	3364.65
2568.06536	3338.75
2570.7611	3335.35
2573.45514	3334.45
2576.14751	3329.85
2578.83819	3320.55
2581.52719	3324.55
2584.21451	3316.55
2586.90015	3309.75
2589.58411	3310.05
2592.2664	3305.95
2594.94701	3313.95
2597.62594	3301.15
2600.30321	3300.15
2602.9788	3294.85
2605.65273	3293.55
2608.32498	3283.75
2610.99557	3292.35
2613.66449	3288.85
2616.33175	3288.15
2618.99734	3285.75
2621.66128	3290.15
2624.32355	3285.15
2626.98416	3291.05
2629.64311	3273.55
2632.30041	3270.95
2634.95605	3272.45
2637.61004	3277.15
2640.26238	3260.75
2642.91306	3261.45
2645.56209	3262.45
2648.20948	3256.15
2650.85521	3273.45
2653.4993	3257.15
2656.14175	3262.75
2658.78255	3267.45
2661.42171	3268.25
2664.05923	3270.75
2666.6951	3268.95
2669.32934	3289.15
2671.96194	3281.95
2674.59291	3278.15
2677.22224	3274.55
2679.84993	3274.25
2682.476	3268.05
2685.10043	3252.65
2687.72324	3263.25
2690.34441	3271.15
2692.96396	3262.65
2695.58188	3262.65
2698.19818	3249.75
2700.81285	3264.95
2703.4259	3259.25
2706.03733	3252.45
2708.64714	3257.05
2711.25533	3270.85
2713.86191	3264.35
2716.46687	3284.45
2719.07021	3279.05
2721.67194	3284.65
2724.27206	3270.45
2726.87057	3295.35
2729.46747	3272.05
2732.06276	3280.85
2734.65644	3261.95
2737.24852	3269.45
2739.83899	3259.65
2742.42786	3270.55
2745.01513	3252.45
2747.60079	3245.35
2750.18486	3246.05
2752.76733	3239.75
2755.3482	3245.35
2757.92747	3235.45
2760.50515	3232.25
2763.08123	3233.45
2765.65573	3231.85
2768.22863	3233.25
2770.79994	3229.55
2773.36967	3228.35
2775.9378	3226.25
2778.50435	3233.85
2781.06932	3239.15
2783.6327	3231.45
2786.1945	3235.85
2788.75471	3225.75
2791.31335	3224.95
2793.87041	3223.75
2796.42589	3225.75
2798.97979	3218.55
2801.53212	3204.95
2804.08288	3199.45
2806.63206	3192.05
2809.17967	3202.35
2811.72571	3209.75
2814.27018	3203.35
2816.81308	3192.25
2819.35442	3193.75
2821.89419	3192.15
2824.43239	3189.75
2826.96904	3192.35
2829.50412	3186.75
2832.03763	3179.85
2834.56959	3178.25
2837.1	3189.65
2839.62884	3186.15
2842.15613	3186.65
2844.68186	3190.95
2847.20604	3204.35
2849.72867	3205.05
2852.24974	3198.95
2854.76927	3203.45
2857.28724	3189.65
2859.80367	3204.35
2862.31855	3212.55
2864.83189	3206.75
2867.34368	3210.15
2869.85393	3212.65
2872.36264	3193.05
2874.8698	3206.15
2877.37543	3206.05
2879.87952	3217.05
2882.38207	3196.95
2884.88308	3212.35
2887.38256	3208.55
2889.88051	3211.65
2892.37692	3203.65
2894.8718	3196.85
2897.36515	3204.85
2899.85698	3211.25
2902.34727	3200.15
2904.83604	3204.75
2907.32328	3217.05
2909.809	3218.25
2912.29319	3216.95
2914.77587	3221.15
2917.25702	3218.65
2919.73665	3204.35
2922.21476	3204.55
2924.69136	3204.95
2927.16644	3216.15
2929.64	3213.15
2932.11205	3189.45
2934.58258	3187.95
2937.05161	3186.25
2939.51912	3186.55
2941.98513	3181.85
2944.44962	3164.05
2946.91261	3157.35
2949.37409	3156.55
2951.83407	3161.25
2954.29254	3158.75
2956.74951	3158.55
2959.20498	3153.55
2961.65895	3155.85
2964.11142	3160.15
2966.56239	3131.95
2969.01186	3131.75
2971.45984	3121.85
2973.90632	3115.95
2976.35131	3102.75
2978.7948	3095.65
2981.23681	3081.95
2983.67732	3093.25
2986.11635	3092.85
2988.55388	3085.25
2990.98993	3068.35
2993.4245	3079.95
2995.85758	3055.55
2998.28917	3053.05
3000.71928	3056.05
3003.14791	3056.45
3005.57506	3074.45
3008.00073	3040.35
3010.42493	3063.55
3012.84764	3041.65
3015.26888	3050.25
3017.68865	3037.25
3020.10694	3042.25
3022.52376	3031.05
3024.9391	3028.05
3027.35298	3013.05
3029.76539	3013.45
3032.17632	3004.15
3034.5858	3001.75
3036.9938	2987.05
3039.40034	2988.35
3041.80542	2994.45
3044.20903	2978.05
3046.61118	2995.35
3049.01187	3001.15
3051.4111	2984.85
3053.80888	2985.35
3056.20519	2976.45
3058.60005	2968.45
3060.99345	2974.95
3063.3854	2949.75
3065.7759	2949.05
3068.16494	2950.35
3070.55254	2939.85
3072.93868	2947.65
3075.32338	2937.65
3077.70662	2929.25
3080.08842	2927.95
3082.46878	2937.25
3084.84769	2925.95
3087.22515	2933.65
3089.60118	2940.65
3091.97576	2936.65
3094.3489	2925.35
3096.72061	2934.85
3099.09087	2934.55
3101.4597	2946.35
3103.82709	2930.35
3106.19305	2937.15
3108.55757	2929.75
3110.92066	2938.95
3113.28232	2944.45
3115.64255	2933.95
3118.00134	2930.45
3120.35871	2917.65
3122.71466	2920.25
3125.06917	2923.15
3127.42226	2926.85
3129.77393	2928.15
3132.12417	2917.55
3134.47299	2926.45
3136.82039	2928.15
3139.16636	2914.95
3141.51092	2917.95
3143.85406	2921.75
3146.19579	2926.25
3148.53609	2933.35
3150.87499	2930.05
3153.21246	2949.65
3155.54853	2950.45
3157.88318	2955.35
3160.21642	2972.25
3162.54826	2966.95
3164.87868	2975.95
3167.2077	2965.45
3169.5353	2969.35
3171.86151	2994.95
3174.18631	2977.95
3176.5097	2975.55
3178.83169	2989.05
3181.15228	2976.75
3183.47147	2982.75
3185.78926	2978.15
3188.10565	2986.95
3190.42065	2996.35
3192.73424	2988.35
3195.04645	2983.55
3197.35725	2989.95
3199.66667	2994.55
3201.97469	2991.45
3204.28132	2997.55
3206.58656	3010.85
3208.8904	3002.85
3211.19287	2992.05
3213.49394	3007.75
3215.79363	3012.25
3218.09193	3024.35
3220.38884	3024.25
3222.68438	3025.15
3224.97853	3032.55
3227.2713	3033.35
3229.56269	3020.45
3231.8527	3042.55
3234.14133	3027.85
3236.42858	3014.05
3238.71446	3009.45
3240.99896	3012.55
3243.28209	3008.45
3245.56384	3002.85
3247.84423	3001.85
3250.12324	2999.05
3252.40088	2994.75
3254.67715	3004.75
3256.95205	2992.55
3259.22558	2986.55
3261.49775	2982.05
3263.76855	2996.25
3266.03799	2986.35
3268.30606	2981.05
3270.57277	2975.25
3272.83812	2981.85
3275.10211	2976.85
3277.36474	2970.55
3279.62601	2968.85
3281.88593	2967.25
3284.14448	2986.95
3286.40168	2987.95
3288.65753	2979.95
3290.91202	2970.65
3293.16516	2973.75
3295.41695	2977.45
3297.66738	2947.85
3299.91647	2946.95
3302.16421	2922.25
3304.4106	2922.25
3306.65564	2913.25
3308.89933	2882.15
3311.14169	2867.95
3313.38269	2829.05
3315.62236	2828.75
3317.86068	2819.35
3320.09766	2783.45
3322.3333	2770.65
3324.5676	2765.25
3326.80056	2723.65
3329.03219	2694.05
3331.26248	1.85
3333.49143	-2.35
3335.71905	2.15
