Data from AgNP_FTO_APTES_UA_100uM_CRN_10uM_R6G_10uM_NaF_0.1M_Addition_RamanShift__46__16-10-40-456.txt Node

Date: Thu Mar 24 16:10:40 GMT 2022
User: TCL
Spectrometer: QEP01345
Trigger mode: 4
Integration Time (sec): 7.000000E0
Scans to average: 10
Electric dark correction enabled: true
Nonlinearity correction enabled: false
Boxcar width: 0
XAxis mode: Raman Shifts
Number of Pixels in Spectrum: 1044
>>>>>Begin Spectral Data<<<<<
46.04893	-0.95
50.45542	-0.95
54.85868	0.65
59.25871	-0.75
63.6555	29.55
68.04907	33.15
72.43941	31.15
76.82654	33.75
81.21044	37.85
85.59113	37.65
89.96862	37.85
94.34289	39.95
98.71396	43.85
103.08183	39.75
107.4465	43.85
111.80798	45.65
116.16626	46.75
120.52136	46.75
124.87327	46.45
129.222	49.95
133.56755	53.75
137.90993	57.75
142.24913	64.35
146.58517	66.95
150.91804	82.45
155.24774	97.45
159.57429	123.95
163.89768	164.55
168.21792	211.45
172.53501	305.65
176.84895	413.55
181.15975	581.75
185.46741	819.65
189.77193	1131.95
194.07331	1525.95
198.37157	1972.75
202.6667	2467.75
206.9587	2960.95
211.24758	3469.75
215.53334	4020.65
219.81599	4674.75
224.09553	5400.65
228.37195	6217.55
232.64527	7103.25
236.91549	7920.45
241.18261	8630.95
245.44663	9130.35
249.70755	9456.35
253.96539	9711.65
258.22014	10010.75
262.4718	10286.95
266.72039	10471.55
270.96589	10470.45
275.20832	10302.15
279.44768	9999.65
283.68397	9684.55
287.91719	9539.15
292.14735	9605.25
296.37445	9946.65
300.59849	10589.05
304.81948	11367.65
309.03742	11970.15
313.25231	12109.55
317.46415	11569.55
321.67296	10478.15
325.87872	9501.35
330.08145	9035.55
334.28114	8949.55
338.47781	9159.55
342.67145	9457.65
346.86207	9934.05
351.04966	10687.65
355.23424	11524.35
359.4158	12168.85
363.59435	12376.85
367.76989	12374.25
371.94243	12216.75
376.11196	12016.25
380.27849	11846.25
384.44203	11571.35
388.60257	11347.25
392.76012	11209.55
396.91468	11274.15
401.06626	11626.15
405.21485	11820.85
409.36047	11404.05
413.50311	10547.55
417.64277	9684.95
421.77947	9207.15
425.9132	9000.75
430.04396	8980.75
434.17176	9014.05
438.2966	9172.15
442.41849	9515.35
446.53742	9901.25
450.6534	10243.05
454.76644	10398.65
458.87653	10341.05
462.98368	10092.05
467.08789	9815.05
471.18916	9555.05
475.2875	9212.35
479.38291	8943.65
483.4754	8719.35
487.56496	8554.15
491.6516	8423.75
495.73531	8400.75
499.81612	8436.85
503.89401	8556.25
507.96899	8746.45
512.04106	8932.35
516.11023	9161.45
520.1765	9290.55
524.23987	9332.25
528.30034	9231.75
532.35792	9094.75
536.41261	8874.75
540.46441	8594.15
544.51333	8393.95
548.55936	8448.15
552.60252	8745.05
556.64279	9098.95
560.6802	9317.55
564.71473	9545.75
568.7464	10145.85
572.7752	10419.35
576.80114	9965.65
580.82422	9476.15
584.84444	9366.25
588.86181	9551.95
592.87633	9910.15
596.888	10191.55
600.89682	10425.65
604.9028	11824.55
608.90594	16553.45
612.90624	22911.75
616.90371	21646.25
620.89834	13456.85
624.89015	9529.55
628.87913	8846.75
632.86528	9084.15
636.84862	9374.15
640.82913	9120.85
644.80683	8391.25
648.78172	7870.45
652.75379	7869.65
656.72306	8412.35
660.68952	9102.95
664.65319	8904.35
668.61405	8102.55
672.57211	7772.75
676.52738	7766.95
680.47986	7709.55
684.42955	7562.95
688.37646	7429.95
692.32058	7448.45
696.26192	7572.95
700.20048	7722.95
704.13626	7834.95
708.06928	7794.85
711.99952	7698.35
715.927	7715.15
719.85171	7827.75
723.77365	7891.35
727.69284	7801.85
731.60928	7719.55
735.52295	7714.85
739.43388	7769.85
743.34206	7832.75
747.24749	7815.45
751.15017	7821.35
755.05012	8003.55
758.94733	8671.35
762.8418	10465.05
766.73354	13415.95
770.62254	16275.75
774.50882	17473.05
778.39237	16377.25
782.27321	13463.45
786.15132	10561.35
790.02671	8844.35
793.89938	8062.25
797.76935	7728.45
801.6366	7578.35
805.50115	7510.55
809.36299	7445.45
813.22213	7390.65
817.07857	7345.65
820.93231	7317.15
824.78336	7363.55
828.63172	7432.35
832.47738	7444.05
836.32036	7395.25
840.16066	7301.45
843.99827	7254.35
847.8332	7243.55
851.66546	7226.55
855.49504	7227.85
859.32195	7205.85
863.1462	7170.35
866.96777	7154.15
870.78668	7136.05
874.60293	7177.85
878.41652	7232.15
882.22745	7321.45
886.03573	7389.65
889.84136	7374.65
893.64433	7290.65
897.44466	7267.35
901.24235	7247.95
905.0374	7194.95
908.8298	7079.75
912.61957	7021.45
916.40671	7016.05
920.19121	7113.15
923.97308	7271.05
927.75233	7475.45
931.52895	7667.55
935.30295	7521.75
939.07433	7156.55
942.84309	6882.85
946.60924	6736.05
950.37278	6640.35
954.13371	6587.95
957.89203	6550.25
961.64774	6498.25
965.40086	6472.25
969.15137	6435.55
972.89929	6422.95
976.64461	6416.05
980.38733	6398.75
984.12747	6439.55
987.86502	6472.25
991.59999	6544.35
995.33237	6685.45
999.06217	6920.85
1002.78939	7207.95
1006.51404	7505.45
1010.23611	7720.75
1013.95561	7822.75
1017.67255	7785.15
1021.38692	7585.05
1025.09872	7345.75
1028.80796	7229.95
1032.51465	7283.95
1036.21877	7424.95
1039.92035	7515.15
1043.61937	7544.65
1047.31584	7509.35
1051.00976	7430.95
1054.70114	7340.55
1058.38998	7284.25
1062.07627	7309.35
1065.76003	7317.85
1069.44126	7393.65
1073.11995	7550.35
1076.79611	7753.15
1080.46974	8076.25
1084.14085	8523.75
1087.80943	8946.65
1091.47549	9068.15
1095.13903	8780.65
1098.80005	8297.45
1102.45857	7976.85
1106.11456	7895.85
1109.76805	8057.65
1113.41903	8461.55
1117.06751	9094.85
1120.71348	9885.05
1124.35696	10741.65
1127.99793	11306.95
1131.63641	10942.75
1135.2724	9998.55
1138.90589	9208.15
1142.5369	8721.85
1146.16542	8391.35
1149.79145	8193.55
1153.415	8168.75
1157.03607	8281.45
1160.65467	8580.95
1164.27079	9134.75
1167.88443	9967.55
1171.49561	11298.95
1175.10432	13374.75
1178.71056	16184.25
1182.31434	18461.75
1185.91565	18919.15
1189.51451	17836.55
1193.11091	16161.45
1196.70485	14385.65
1200.29634	13121.15
1203.88538	12123.25
1207.47197	10976.45
1211.05612	9989.95
1214.63782	9431.65
1218.21708	9243.45
1221.79391	9236.35
1225.36829	9298.05
1228.94024	9243.35
1232.50976	9050.45
1236.07685	8862.55
1239.6415	8819.45
1243.20374	8869.85
1246.76355	8954.95
1250.32093	9086.95
1253.8759	9370.35
1257.42845	9786.15
1260.97859	10323.15
1264.52631	10967.85
1268.07163	11574.35
1271.61453	12099.45
1275.15503	12453.75
1278.69312	12637.85
1282.22882	12890.75
1285.76211	13439.75
1289.29301	14230.65
1292.82151	14998.45
1296.34761	15928.15
1299.87133	17348.05
1303.39266	19780.35
1306.9116	23383.85
1310.42815	27169.75
1313.94233	28585.25
1317.45412	26641.55
1320.96354	23359.25
1324.47058	20159.95
1327.97525	17650.75
1331.47754	16101.25
1334.97747	15422.45
1338.47502	15508.45
1341.97022	16136.35
1345.46305	17480.05
1348.95352	19557.85
1352.44163	22193.15
1355.92738	26022.95
1359.41078	31822.35
1362.89183	36721.75
1366.37053	34290.45
1369.84688	26502.15
1373.32088	19971.25
1376.79254	16437.65
1380.26186	14669.65
1383.72883	13531.25
1387.19347	12638.85
1390.65578	11886.35
1394.11575	11387.55
1397.57339	11217.85
1401.0287	11250.05
1404.48168	11323.65
1407.93234	11304.65
1411.38068	11297.35
1414.82669	11293.85
1418.27039	11217.95
1421.71177	10915.95
1425.15083	10558.25
1428.58758	10493.05
1432.02203	10772.95
1435.45416	11088.25
1438.88399	11182.65
1442.31151	11176.65
1445.73673	11252.85
1449.15965	11367.45
1452.58027	11281.75
1455.9986	11107.15
1459.41463	11090.05
1462.82837	11347.55
1466.23982	11832.05
1469.64898	12282.35
1473.05586	12573.35
1476.46045	12745.35
1479.86276	12910.85
1483.26279	13240.35
1486.66054	13794.55
1490.05602	14649.55
1493.44922	15943.85
1496.84016	17946.95
1500.22882	21144.45
1503.61521	25628.05
1506.99934	30792.65
1510.38121	34554.45
1513.76081	34537.35
1517.13816	30264.25
1520.51324	24296.35
1523.88607	19400.35
1527.25665	16439.75
1530.62498	14861.15
1533.99105	13986.05
1537.35488	13326.75
1540.71647	12861.95
1544.07581	12555.55
1547.4329	12400.45
1550.78776	12366.15
1554.14038	12461.65
1557.49077	12733.25
1560.83892	13189.25
1564.18484	13931.35
1567.52853	14826.85
1570.86999	15558.85
1574.20922	15921.85
1577.54624	15707.85
1580.88103	14376.75
1584.2136	12674.15
1587.54395	11753.35
1590.87208	11866.85
1594.19801	12849.55
1597.52172	14252.85
1600.84321	14895.95
1604.16251	14209.55
1607.47959	13056.15
1610.79447	11778.45
1614.10715	10540.25
1617.41763	9563.05
1620.7259	8929.55
1624.03199	8672.75
1627.33587	8705.65
1630.63757	9104.15
1633.93707	9922.15
1637.23439	11384.95
1640.52951	13828.15
1643.82246	17434.95
1647.11321	21516.65
1650.40179	23959.75
1653.68819	22492.15
1656.97241	17882.35
1660.25446	13360.35
1663.53433	10422.05
1666.81203	8748.95
1670.08756	7810.55
1673.36092	7257.85
1676.63211	6915.75
1679.90115	6687.95
1683.16801	6508.75
1686.43272	6387.05
1689.69527	6283.75
1692.95567	6225.35
1696.2139	6197.95
1699.46999	6161.15
1702.72392	6131.45
1705.97571	6114.05
1709.22535	6078.15
1712.47284	6079.75
1715.71819	6070.85
1718.96139	6028.05
1722.20246	6011.55
1725.44139	5947.05
1728.67818	5858.65
1731.91284	5795.35
1735.14537	5720.35
1738.37576	5673.55
1741.60403	5647.45
1744.83017	5611.25
1748.05418	5558.65
1751.27607	5554.95
1754.49584	5533.55
1757.71349	5521.15
1760.92903	5530.05
1764.14244	5509.75
1767.35375	5476.15
1770.56294	5463.05
1773.77002	5405.75
1776.97499	5386.95
1780.17785	5317.05
1783.37861	5318.05
1786.57727	5278.15
1789.77382	5261.25
1792.96828	5269.15
1796.16064	5237.35
1799.3509	5230.55
1802.53907	5202.85
1805.72514	5181.45
1808.90913	5150.35
1812.09102	5154.05
1815.27083	5112.55
1818.44856	5113.15
1821.6242	5070.35
1824.79776	5075.05
1827.96924	5035.35
1831.13864	5042.95
1834.30597	5036.25
1837.47122	5024.55
1840.6344	5015.45
1843.7955	5013.65
1846.95454	4985.35
1850.11151	4987.75
1853.26642	4963.05
1856.41926	4960.45
1859.57004	4962.65
1862.71876	4969.75
1865.86542	4974.25
1869.01003	4964.15
1872.15258	4976.65
1875.29308	4959.45
1878.43152	4970.35
1881.56792	4991.65
1884.70227	4979.75
1887.83457	4954.05
1890.96482	4942.45
1894.09304	4940.55
1897.21921	4940.25
1900.34335	4935.95
1903.46544	4936.75
1906.58551	4925.45
1909.70353	4932.65
1912.81953	4922.45
1915.93349	4900.15
1919.04543	4898.75
1922.15534	4872.35
1925.26322	4862.85
1928.36908	4848.15
1931.47292	4817.95
1934.57473	4801.05
1937.67453	4765.75
1940.77232	4758.05
1943.86808	4734.95
1946.96184	4720.45
1950.05358	4710.05
1953.14331	4695.05
1956.23103	4699.25
1959.31675	4675.45
1962.40046	4674.75
1965.48217	4659.05
1968.56188	4647.85
1971.63959	4641.05
1974.7153	4640.55
1977.78901	4619.75
1980.86073	4606.65
1983.93046	4577.15
1986.99819	4533.35
1990.06394	4529.45
1993.1277	4498.85
1996.18947	4483.15
1999.24925	4454.95
2002.30706	4454.15
2005.36288	4441.05
2008.41672	4412.15
2011.46859	4397.45
2014.51848	4371.75
2017.56639	4351.55
2020.61233	4349.05
2023.6563	4354.85
2026.6983	4326.35
2029.73833	4325.65
2032.7764	4309.35
2035.8125	4308.55
2038.84664	4282.45
2041.87881	4289.25
2044.90903	4301.95
2047.93729	4291.95
2050.96359	4265.35
2053.98794	4262.45
2057.01034	4240.25
2060.03078	4257.25
2063.04927	4232.35
2066.06582	4225.15
2069.08042	4225.95
2072.09307	4213.35
2075.10378	4216.85
2078.11255	4210.45
2081.11938	4218.85
2084.12426	4199.75
2087.12722	4197.35
2090.12824	4226.95
2093.12732	4201.05
2096.12447	4223.45
2099.11969	4198.15
2102.11299	4188.95
2105.10435	4212.95
2108.09379	4212.15
2111.08131	4203.45
2114.0669	4214.25
2117.05057	4223.85
2120.03233	4227.05
2123.01216	4235.45
2125.99008	4221.25
2128.96609	4244.55
2131.94018	4241.15
2134.91236	4239.15
2137.88263	4223.85
2140.851	4226.35
2143.81746	4231.95
2146.78201	4222.85
2149.74466	4206.25
2152.7054	4196.55
2155.66425	4198.45
2158.6212	4189.85
2161.57625	4192.25
2164.52941	4170.65
2167.48067	4166.65
2170.43004	4176.65
2173.37752	4163.75
2176.32311	4179.15
2179.26681	4174.75
2182.20863	4173.15
2185.14856	4180.65
2188.08661	4179.75
2191.02278	4187.55
2193.95707	4159.05
2196.88948	4163.95
2199.82001	4145.85
2202.74867	4147.65
2205.67545	4134.35
2208.60037	4134.55
2211.52341	4133.05
2214.44458	4119.45
2217.36388	4111.75
2220.28132	4108.05
2223.1969	4096.65
2226.11061	4095.45
2229.02246	4073.65
2231.93245	4071.65
2234.84058	4058.75
2237.74686	4048.95
2240.65128	4044.95
2243.55385	4063.75
2246.45456	4042.35
2249.35343	4054.05
2252.25044	4054.55
2255.14561	4058.95
2258.03893	4066.55
2260.93041	4080.15
2263.82004	4072.75
2266.70783	4061.05
2269.59378	4056.85
2272.4779	4043.85
2275.36017	4022.35
2278.24061	4011.25
2281.11922	4001.25
2283.996	3991.35
2286.87094	3989.15
2289.74405	3966.15
2292.61534	3961.65
2295.4848	3942.65
2298.35243	3935.55
2301.21824	3936.85
2304.08223	3929.85
2306.94439	3929.55
2309.80474	3931.95
2312.66327	3944.25
2315.51999	3933.55
2318.37489	3943.35
2321.22797	3938.55
2324.07925	3942.45
2326.92871	3925.35
2329.77637	3926.25
2332.62222	3938.85
2335.46626	3922.35
2338.3085	3930.85
2341.14893	3913.55
2343.98756	3933.85
2346.8244	3937.95
2349.65943	3945.35
2352.49267	3980.05
2355.32411	3999.45
2358.15376	3999.55
2360.98161	4009.55
2363.80768	4016.95
2366.63195	4018.05
2369.45444	4029.05
2372.27514	4024.15
2375.09405	4010.45
2377.91118	4005.25
2380.72652	3966.55
2383.54009	3949.65
2386.35187	3928.65
2389.16188	3896.05
2391.97011	3865.95
2394.77657	3857.95
2397.58125	3847.65
2400.38416	3836.25
2403.18529	3814.85
2405.98466	3808.25
2408.78226	3790.65
2411.57809	3800.45
2414.37216	3786.75
2417.16446	3805.35
2419.955	3785.05
2422.74378	3788.35
2425.5308	3783.75
2428.31606	3792.25
2431.09956	3805.85
2433.88131	3801.35
2436.6613	3791.85
2439.43954	3799.65
2442.21603	3815.95
2444.99077	3803.55
2447.76377	3827.55
2450.53501	3830.35
2453.30451	3814.85
2456.07226	3835.55
2458.83827	3822.95
2461.60254	3831.35
2464.36507	3842.65
2467.12586	3809.95
2469.88492	3822.05
2472.64224	3831.55
2475.39782	3847.85
2478.15167	3856.35
2480.90379	3879.15
2483.65417	3900.95
2486.40283	3921.05
2489.14976	3943.65
2491.89497	3927.25
2494.63845	3955.45
2497.3802	3933.05
2500.12024	3918.45
2502.85855	3889.55
2505.59514	3872.75
2508.33002	3852.25
2511.06318	3831.05
2513.79462	3790.25
2516.52435	3770.55
2519.25237	3773.15
2521.97867	3749.45
2524.70327	3749.65
2527.42616	3715.35
2530.14734	3717.55
2532.86681	3727.55
2535.58458	3716.75
2538.30065	3710.55
2541.01501	3724.85
2543.72768	3720.45
2546.43864	3738.35
2549.14791	3732.05
2551.85548	3730.55
2554.56136	3725.45
2557.26554	3734.45
2559.96803	3723.75
2562.66883	3732.65
2565.36794	3732.35
2568.06536	3728.25
2570.7611	3722.85
2573.45514	3709.15
2576.14751	3699.25
2578.83819	3699.25
2581.52719	3690.85
2584.21451	3690.55
2586.90015	3683.25
2589.58411	3682.15
2592.2664	3689.45
2594.94701	3677.55
2597.62594	3662.35
2600.30321	3683.45
2602.9788	3674.85
2605.65273	3660.65
2608.32498	3658.55
2610.99557	3662.65
2613.66449	3694.95
2616.33175	3678.25
2618.99734	3685.85
2621.66128	3679.85
2624.32355	3675.95
2626.98416	3669.55
2629.64311	3654.45
2632.30041	3665.75
2634.95605	3649.15
2637.61004	3661.85
2640.26238	3645.45
2642.91306	3647.45
2645.56209	3637.55
2648.20948	3639.35
2650.85521	3639.65
2653.4993	3632.35
2656.14175	3639.05
2658.78255	3649.65
2661.42171	3664.65
2664.05923	3684.75
2666.6951	3666.35
2669.32934	3684.65
2671.96194	3683.35
2674.59291	3686.25
2677.22224	3682.55
2679.84993	3695.05
2682.476	3677.75
2685.10043	3674.35
2687.72324	3660.25
2690.34441	3667.85
2692.96396	3664.35
2695.58188	3675.15
2698.19818	3642.65
2700.81285	3646.15
2703.4259	3660.95
2706.03733	3672.45
2708.64714	3661.25
2711.25533	3671.35
2713.86191	3670.75
2716.46687	3683.95
2719.07021	3685.45
2721.67194	3684.65
2724.27206	3672.25
2726.87057	3686.25
2729.46747	3673.35
2732.06276	3670.45
2734.65644	3660.55
2737.24852	3653.05
2739.83899	3639.55
2742.42786	3628.75
2745.01513	3630.55
2747.60079	3632.05
2750.18486	3604.15
2752.76733	3609.45
2755.3482	3608.15
2757.92747	3603.75
2760.50515	3593.85
2763.08123	3585.45
2765.65573	3583.85
2768.22863	3585.75
2770.79994	3582.05
2773.36967	3582.65
2775.9378	3588.95
2778.50435	3576.15
2781.06932	3595.35
2783.6327	3610.45
2786.1945	3592.15
2788.75471	3600.15
2791.31335	3601.15
2793.87041	3611.35
2796.42589	3598.85
2798.97979	3604.85
2801.53212	3597.55
2804.08288	3593.05
2806.63206	3597.85
2809.17967	3599.75
2811.72571	3608.85
2814.27018	3621.15
2816.81308	3626.45
2819.35442	3634.05
2821.89419	3639.95
2824.43239	3649.45
2826.96904	3636.15
2829.50412	3638.35
2832.03763	3632.95
2834.56959	3625.55
2837.1	3634.15
2839.62884	3642.05
2842.15613	3644.05
2844.68186	3648.45
2847.20604	3642.75
2849.72867	3644.65
2852.24974	3667.05
2854.76927	3666.85
2857.28724	3681.35
2859.80367	3665.05
2862.31855	3693.45
2864.83189	3684.15
2867.34368	3688.95
2869.85393	3700.35
2872.36264	3707.95
2874.8698	3711.25
2877.37543	3720.05
2879.87952	3710.75
2882.38207	3691.55
2884.88308	3692.85
2887.38256	3674.15
2889.88051	3671.15
2892.37692	3670.85
2894.8718	3675.55
2897.36515	3684.95
2899.85698	3676.45
2902.34727	3672.65
2904.83604	3681.55
2907.32328	3673.85
2909.809	3666.65
2912.29319	3666.05
2914.77587	3676.55
2917.25702	3664.15
2919.73665	3657.85
2922.21476	3640.15
2924.69136	3636.55
2927.16644	3619.75
2929.64	3609.95
2932.11205	3603.45
2934.58258	3598.25
2937.05161	3597.25
2939.51912	3602.85
2941.98513	3589.95
2944.44962	3583.85
2946.91261	3581.95
2949.37409	3573.35
2951.83407	3582.45
2954.29254	3575.95
2956.74951	3566.05
2959.20498	3566.35
2961.65895	3565.85
2964.11142	3569.65
2966.56239	3567.15
2969.01186	3547.15
2971.45984	3538.35
2973.90632	3542.45
2976.35131	3495.85
2978.7948	3504.05
2981.23681	3498.45
2983.67732	3470.65
2986.11635	3457.35
2988.55388	3449.95
2990.98993	3446.75
2993.4245	3463.65
2995.85758	3464.75
2998.28917	3457.25
3000.71928	3469.85
3003.14791	3449.55
3005.57506	3463.25
3008.00073	3449.35
3010.42493	3455.65
3012.84764	3444.85
3015.26888	3435.95
3017.68865	3444.05
3020.10694	3438.85
3022.52376	3425.55
3024.9391	3407.05
3027.35298	3404.15
3029.76539	3396.15
3032.17632	3380.55
3034.5858	3368.75
3036.9938	3370.25
3039.40034	3356.35
3041.80542	3339.55
3044.20903	3336.05
3046.61118	3342.15
3049.01187	3331.15
3051.4111	3324.85
3053.80888	3327.05
3056.20519	3320.15
3058.60005	3311.15
3060.99345	3307.55
3063.3854	3303.75
3065.7759	3284.75
3068.16494	3290.75
3070.55254	3270.75
3072.93868	3279.15
3075.32338	3253.45
3077.70662	3241.45
3080.08842	3241.15
3082.46878	3238.35
3084.84769	3239.25
3087.22515	3236.95
3089.60118	3230.65
3091.97576	3242.15
3094.3489	3231.65
3096.72061	3243.85
3099.09087	3241.45
3101.4597	3237.75
3103.82709	3245.35
3106.19305	3244.75
3108.55757	3237.35
3110.92066	3228.55
3113.28232	3230.05
3115.64255	3220.65
3118.00134	3224.55
3120.35871	3214.95
3122.71466	3197.65
3125.06917	3204.45
3127.42226	3216.45
3129.77393	3203.15
3132.12417	3204.65
3134.47299	3214.35
3136.82039	3221.15
3139.16636	3219.25
3141.51092	3217.05
3143.85406	3220.75
3146.19579	3225.85
3148.53609	3240.45
3150.87499	3256.05
3153.21246	3256.45
3155.54853	3263.25
3157.88318	3255.55
3160.21642	3251.05
3162.54826	3265.15
3164.87868	3258.65
3167.2077	3256.35
3169.5353	3250.55
3171.86151	3263.95
3174.18631	3259.15
3176.5097	3266.05
3178.83169	3243.95
3181.15228	3246.95
3183.47147	3250.85
3185.78926	3261.15
3188.10565	3250.85
3190.42065	3253.85
3192.73424	3269.65
3195.04645	3269.65
3197.35725	3277.95
3199.66667	3268.85
3201.97469	3287.75
3204.28132	3289.15
3206.58656	3303.15
3208.8904	3294.15
3211.19287	3314.65
3213.49394	3317.65
3215.79363	3316.45
3218.09193	3331.05
3220.38884	3344.95
3222.68438	3341.65
3224.97853	3341.05
3227.2713	3346.35
3229.56269	3339.35
3231.8527	3333.75
3234.14133	3345.45
3236.42858	3341.35
3238.71446	3335.55
3240.99896	3337.95
3243.28209	3320.55
3245.56384	3329.35
3247.84423	3329.05
3250.12324	3336.95
3252.40088	3321.45
3254.67715	3331.75
3256.95205	3339.35
3259.22558	3325.45
3261.49775	3345.75
3263.76855	3318.15
3266.03799	3324.95
3268.30606	3335.15
3270.57277	3334.25
3272.83812	3337.25
3275.10211	3323.65
3277.36474	3327.85
3279.62601	3345.35
3281.88593	3327.75
3284.14448	3341.55
3286.40168	3340.85
3288.65753	3361.05
3290.91202	3354.25
3293.16516	3348.25
3295.41695	3349.45
3297.66738	3331.95
3299.91647	3320.35
3302.16421	3297.75
3304.4106	3283.95
3306.65564	3274.15
3308.89933	3226.15
3311.14169	3218.55
3313.38269	3191.85
3315.62236	3161.35
3317.86068	3125.25
3320.09766	3107.55
3322.3333	3096.15
3324.5676	3091.55
3326.80056	3022.75
3329.03219	3005.25
3331.26248	1.95
3333.49143	-0.95
3335.71905	0.95
