Data from AgNP_FTO_APTES_UA_100uM_CRN_50uM_R6G_10uM_NaF_0.1M_Addition_RamanShift__23__17-34-40-549.txt Node

Date: Thu Mar 24 17:34:40 GMT 2022
User: TCL
Spectrometer: QEP01345
Trigger mode: 4
Integration Time (sec): 7.000000E0
Scans to average: 10
Electric dark correction enabled: true
Nonlinearity correction enabled: false
Boxcar width: 0
XAxis mode: Raman Shifts
Number of Pixels in Spectrum: 1044
>>>>>Begin Spectral Data<<<<<
46.04893	-1.65
50.45542	0.15
54.85868	-0.05
59.25871	0.05
63.6555	32.35
68.04907	37.05
72.43941	36.15
76.82654	38.05
81.21044	40.75
85.59113	42.75
89.96862	47.45
94.34289	44.55
98.71396	44.35
103.08183	47.95
107.4465	48.15
111.80798	50.85
116.16626	51.85
120.52136	54.45
124.87327	52.65
129.222	59.05
133.56755	63.65
137.90993	64.05
142.24913	76.25
146.58517	77.45
150.91804	93.45
155.24774	111.45
159.57429	139.85
163.89768	183.45
168.21792	240.45
172.53501	332.55
176.84895	469.55
181.15975	666.45
185.46741	935.25
189.77193	1283.65
194.07331	1724.45
198.37157	2222.15
202.6667	2754.95
206.9587	3279.45
211.24758	3806.75
215.53334	4333.35
219.81599	4903.75
224.09553	5567.55
228.37195	6270.45
232.64527	7060.65
236.91549	7898.25
241.18261	8687.85
245.44663	9399.35
249.70755	9989.65
253.96539	10467.05
258.22014	10911.45
262.4718	11262.25
266.72039	11534.15
270.96589	11685.65
275.20832	11688.45
279.44768	11627.85
283.68397	11490.85
287.91719	11400.95
292.14735	11371.45
296.37445	11437.15
300.59849	11597.45
304.81948	11779.45
309.03742	11864.75
313.25231	11796.25
317.46415	11527.65
321.67296	11143.55
325.87872	10779.45
330.08145	10602.35
334.28114	10610.35
338.47781	10702.45
342.67145	10867.75
346.86207	11100.85
351.04966	11367.65
355.23424	11639.85
359.4158	11849.45
363.59435	11971.15
367.76989	12054.75
371.94243	12065.95
376.11196	12086.65
380.27849	12080.85
384.44203	12100.85
388.60257	12157.15
392.76012	12205.15
396.91468	12306.85
401.06626	12504.05
405.21485	12631.75
409.36047	12516.45
413.50311	12167.55
417.64277	11875.75
421.77947	11716.45
425.9132	11719.45
430.04396	11775.35
434.17176	11864.55
438.2966	11985.75
442.41849	12199.45
446.53742	12496.05
450.6534	12790.55
454.76644	12993.75
458.87653	13047.55
462.98368	12982.65
467.08789	12836.45
471.18916	12702.55
475.2875	12537.95
479.38291	12403.95
483.4754	12244.75
487.56496	12084.15
491.6516	11947.45
495.73531	11876.85
499.81612	11840.15
503.89401	11915.05
507.96899	11932.85
512.04106	11963.45
516.11023	11966.55
520.1765	11942.25
524.23987	11891.95
528.30034	11840.55
532.35792	11747.75
536.41261	11618.25
540.46441	11543.65
544.51333	11491.55
548.55936	11609.15
552.60252	11835.35
556.64279	12086.35
560.6802	12250.65
564.71473	12362.55
568.7464	12517.45
572.7752	12808.95
576.80114	13021.65
580.82422	13119.55
584.84444	13260.55
588.86181	13459.35
592.87633	13705.25
596.888	13893.95
600.89682	13952.45
604.9028	14433.95
608.90594	16105.95
612.90624	18209.85
616.90371	17231.35
620.89834	13765.65
624.89015	12093.05
628.87913	11848.65
632.86528	12044.45
636.84862	12228.05
640.82913	12089.25
644.80683	11715.95
648.78172	11407.65
652.75379	11301.35
656.72306	11434.55
660.68952	11737.65
664.65319	11641.75
668.61405	11281.15
672.57211	11163.45
676.52738	11189.05
680.47986	11192.25
684.42955	11111.95
688.37646	11071.85
692.32058	11071.15
696.26192	11160.45
700.20048	11281.85
704.13626	11372.65
708.06928	11372.75
711.99952	11288.65
715.927	11282.65
719.85171	11291.25
723.77365	11290.85
727.69284	11248.25
731.60928	11172.45
735.52295	11164.95
739.43388	11189.45
743.34206	11217.05
747.24749	11236.25
751.15017	11289.85
755.05012	11438.45
758.94733	11809.35
762.8418	12670.65
766.73354	14125.85
770.62254	15559.85
774.50882	16008.15
778.39237	15184.25
782.27321	13660.25
786.15132	12365.05
790.02671	11605.65
793.89938	11206.15
797.76935	10999.95
801.6366	10898.35
805.50115	10873.45
809.36299	10823.25
813.22213	10798.25
817.07857	10768.95
820.93231	10756.35
824.78336	10684.85
828.63172	10681.55
832.47738	10655.55
836.32036	10632.05
840.16066	10620.45
843.99827	10598.15
847.8332	10575.65
851.66546	10614.15
855.49504	10583.15
859.32195	10593.35
863.1462	10564.05
866.96777	10563.55
870.78668	10554.55
874.60293	10579.05
878.41652	10608.45
882.22745	10637.55
886.03573	10689.35
889.84136	10692.75
893.64433	10624.35
897.44466	10587.15
901.24235	10540.75
905.0374	10498.75
908.8298	10474.55
912.61957	10432.35
916.40671	10484.45
920.19121	10593.35
923.97308	10662.65
927.75233	10637.05
931.52895	10580.25
935.30295	10452.75
939.07433	10269.05
942.84309	10116.65
946.60924	10012.95
950.37278	9972.15
954.13371	9959.85
957.89203	9930.45
961.64774	9958.45
965.40086	9920.85
969.15137	9912.65
972.89929	9865.45
976.64461	9823.75
980.38733	9806.95
984.12747	9797.55
987.86502	9846.85
991.59999	9907.35
995.33237	9974.45
999.06217	10143.55
1002.78939	10346.45
1006.51404	10557.45
1010.23611	10750.95
1013.95561	10891.65
1017.67255	10872.25
1021.38692	10750.15
1025.09872	10567.75
1028.80796	10384.65
1032.51465	10289.55
1036.21877	10319.55
1039.92035	10383.45
1043.61937	10418.15
1047.31584	10486.85
1051.00976	10512.15
1054.70114	10518.25
1058.38998	10575.15
1062.07627	10670.95
1065.76003	10723.65
1069.44126	10866.35
1073.11995	10974.35
1076.79611	11139.35
1080.46974	11261.75
1084.14085	11388.95
1087.80943	11559.25
1091.47549	11626.25
1095.13903	11586.85
1098.80005	11383.55
1102.45857	11147.25
1106.11456	11023.85
1109.76805	10959.25
1113.41903	11081.05
1117.06751	11302.45
1120.71348	11583.75
1124.35696	11885.35
1127.99793	12099.85
1131.63641	12163.95
1135.2724	11982.35
1138.90589	11726.25
1142.5369	11569.85
1146.16542	11438.45
1149.79145	11429.35
1153.415	11388.55
1157.03607	11511.85
1160.65467	11742.25
1164.27079	12147.95
1167.88443	12723.25
1171.49561	13613.75
1175.10432	14884.65
1178.71056	16460.45
1182.31434	17841.65
1185.91565	18333.45
1189.51451	18050.75
1193.11091	17398.25
1196.70485	16559.15
1200.29634	15717.35
1203.88538	14988.15
1207.47197	14354.15
1211.05612	13710.65
1214.63782	13322.55
1218.21708	13094.65
1221.79391	12963.65
1225.36829	12970.05
1228.94024	12848.25
1232.50976	12627.25
1236.07685	12457.65
1239.6415	12342.85
1243.20374	12331.95
1246.76355	12376.45
1250.32093	12451.75
1253.8759	12658.75
1257.42845	12947.85
1260.97859	13317.25
1264.52631	13672.65
1268.07163	14070.25
1271.61453	14462.05
1275.15503	14765.25
1278.69312	15029.35
1282.22882	15263.05
1285.76211	15659.45
1289.29301	16146.85
1292.82151	16799.75
1296.34761	17533.95
1299.87133	18533.65
1303.39266	19805.85
1306.9116	21275.45
1310.42815	22771.35
1313.94233	23568.95
1317.45412	23304.75
1320.96354	22487.95
1324.47058	21600.35
1327.97525	20702.35
1331.47754	20008.45
1334.97747	19618.15
1338.47502	19572.75
1341.97022	19821.25
1345.46305	20258.25
1348.95352	20836.05
1352.44163	21556.85
1355.92738	22662.55
1359.41078	24448.05
1362.89183	26155.75
1366.37053	25790.25
1369.84688	22915.75
1373.32088	19762.65
1376.79254	17682.15
1380.26186	16669.05
1383.72883	16218.45
1387.19347	15909.95
1390.65578	15603.05
1394.11575	15340.45
1397.57339	15250.85
1401.0287	15253.75
1404.48168	15343.65
1407.93234	15270.45
1411.38068	15093.65
1414.82669	14764.15
1418.27039	14339.55
1421.71177	13872.15
1425.15083	13423.65
1428.58758	13182.95
1432.02203	13207.25
1435.45416	13394.85
1438.88399	13632.55
1442.31151	13823.95
1445.73673	14016.45
1449.15965	14165.35
1452.58027	14260.25
1455.9986	14307.15
1459.41463	14419.95
1462.82837	14733.95
1466.23982	15121.35
1469.64898	15538.45
1473.05586	15939.85
1476.46045	16133.05
1479.86276	16259.65
1483.26279	16311.35
1486.66054	16437.15
1490.05602	16746.65
1493.44922	17245.75
1496.84016	17922.25
1500.22882	19088.55
1503.61521	20684.75
1506.99934	22249.65
1510.38121	23254.45
1513.76081	23133.65
1517.13816	21796.25
1520.51324	19990.95
1523.88607	18472.15
1527.25665	17500.15
1530.62498	17033.55
1533.99105	16735.75
1537.35488	16417.95
1540.71647	16024.35
1544.07581	15576.15
1547.4329	15168.15
1550.78776	14852.15
1554.14038	14669.35
1557.49077	14665.85
1560.83892	14811.35
1564.18484	15073.65
1567.52853	15474.55
1570.86999	15796.75
1574.20922	16040.75
1577.54624	16063.85
1580.88103	15565.45
1584.2136	14945.65
1587.54395	14734.85
1590.87208	14957.85
1594.19801	15716.85
1597.52172	16632.85
1600.84321	16959.35
1604.16251	16405.45
1607.47959	15461.75
1610.79447	14446.15
1614.10715	13451.35
1617.41763	12535.75
1620.7259	11872.65
1624.03199	11496.85
1627.33587	11419.25
1630.63757	11630.45
1633.93707	12192.65
1637.23439	13298.45
1640.52951	15011.85
1643.82246	17263.75
1647.11321	19391.25
1650.40179	20335.55
1653.68819	19359.95
1656.97241	16913.75
1660.25446	14288.75
1663.53433	12345.15
1666.81203	11111.05
1670.08756	10333.55
1673.36092	9875.45
1676.63211	9557.85
1679.90115	9343.85
1683.16801	9165.45
1686.43272	9046.95
1689.69527	8926.85
1692.95567	8844.25
1696.2139	8798.45
1699.46999	8755.05
1702.72392	8682.75
1705.97571	8665.95
1709.22535	8643.25
1712.47284	8574.85
1715.71819	8559.65
1718.96139	8531.75
1722.20246	8469.15
1725.44139	8445.95
1728.67818	8394.95
1731.91284	8296.35
1735.14537	8229.05
1738.37576	8205.85
1741.60403	8175.35
1744.83017	8124.65
1748.05418	8103.45
1751.27607	8078.45
1754.49584	8067.15
1757.71349	8039.45
1760.92903	8021.95
1764.14244	8062.45
1767.35375	8014.25
1770.56294	7989.25
1773.77002	7950.65
1776.97499	7917.55
1780.17785	7909.85
1783.37861	7882.35
1786.57727	7870.05
1789.77382	7845.85
1792.96828	7846.75
1796.16064	7812.15
1799.3509	7765.35
1802.53907	7759.95
1805.72514	7731.95
1808.90913	7715.05
1812.09102	7697.65
1815.27083	7667.15
1818.44856	7651.05
1821.6242	7640.75
1824.79776	7627.15
1827.96924	7599.25
1831.13864	7574.15
1834.30597	7584.65
1837.47122	7568.75
1840.6344	7549.85
1843.7955	7536.45
1846.95454	7534.55
1850.11151	7522.15
1853.26642	7513.05
1856.41926	7484.55
1859.57004	7503.95
1862.71876	7477.15
1865.86542	7464.85
1869.01003	7464.05
1872.15258	7460.05
1875.29308	7441.15
1878.43152	7431.65
1881.56792	7431.15
1884.70227	7417.95
1887.83457	7415.05
1890.96482	7413.85
1894.09304	7390.45
1897.21921	7365.95
1900.34335	7341.35
1903.46544	7368.95
1906.58551	7344.35
1909.70353	7343.05
1912.81953	7328.65
1915.93349	7331.35
1919.04543	7307.85
1922.15534	7273.15
1925.26322	7270.45
1928.36908	7246.75
1931.47292	7238.25
1934.57473	7191.75
1937.67453	7201.85
1940.77232	7154.55
1943.86808	7124.65
1946.96184	7129.75
1950.05358	7096.85
1953.14331	7067.75
1956.23103	7046.65
1959.31675	7014.95
1962.40046	7011.45
1965.48217	6982.75
1968.56188	6950.85
1971.63959	6951.75
1974.7153	6944.35
1977.78901	6924.45
1980.86073	6867.25
1983.93046	6841.05
1986.99819	6830.15
1990.06394	6796.35
1993.1277	6782.55
1996.18947	6765.45
1999.24925	6736.35
2002.30706	6719.65
2005.36288	6691.75
2008.41672	6662.05
2011.46859	6627.45
2014.51848	6601.55
2017.56639	6591.75
2020.61233	6560.05
2023.6563	6565.45
2026.6983	6546.95
2029.73833	6522.05
2032.7764	6493.15
2035.8125	6480.35
2038.84664	6450.95
2041.87881	6437.95
2044.90903	6443.65
2047.93729	6403.85
2050.96359	6399.05
2053.98794	6398.85
2057.01034	6391.25
2060.03078	6394.25
2063.04927	6365.35
2066.06582	6347.05
2069.08042	6361.95
2072.09307	6336.95
2075.10378	6348.75
2078.11255	6345.35
2081.11938	6346.85
2084.12426	6346.35
2087.12722	6317.05
2090.12824	6315.35
2093.12732	6314.45
2096.12447	6320.55
2099.11969	6327.75
2102.11299	6334.25
2105.10435	6307.75
2108.09379	6321.55
2111.08131	6337.35
2114.0669	6330.05
2117.05057	6341.55
2120.03233	6339.75
2123.01216	6350.75
2125.99008	6323.65
2128.96609	6340.05
2131.94018	6323.35
2134.91236	6326.05
2137.88263	6324.15
2140.851	6332.15
2143.81746	6316.25
2146.78201	6314.15
2149.74466	6308.65
2152.7054	6314.75
2155.66425	6294.95
2158.6212	6297.75
2161.57625	6281.55
2164.52941	6294.55
2167.48067	6271.95
2170.43004	6279.25
2173.37752	6267.65
2176.32311	6266.25
2179.26681	6273.45
2182.20863	6261.65
2185.14856	6274.75
2188.08661	6256.25
2191.02278	6256.25
2193.95707	6244.55
2196.88948	6242.85
2199.82001	6238.75
2202.74867	6222.15
2205.67545	6213.15
2208.60037	6187.25
2211.52341	6190.45
2214.44458	6175.35
2217.36388	6161.65
2220.28132	6154.55
2223.1969	6129.15
2226.11061	6127.45
2229.02246	6107.95
2231.93245	6087.15
2234.84058	6084.95
2237.74686	6088.65
2240.65128	6088.35
2243.55385	6050.85
2246.45456	6068.05
2249.35343	6020.15
2252.25044	6045.35
2255.14561	6023.15
2258.03893	6032.05
2260.93041	5989.45
2263.82004	5986.55
2266.70783	5977.65
2269.59378	5946.55
2272.4779	5956.85
2275.36017	5910.95
2278.24061	5928.05
2281.11922	5898.85
2283.996	5878.35
2286.87094	5876.45
2289.74405	5879.75
2292.61534	5863.75
2295.4848	5840.25
2298.35243	5840.95
2301.21824	5835.45
2304.08223	5826.35
2306.94439	5829.85
2309.80474	5824.95
2312.66327	5815.65
2315.51999	5797.65
2318.37489	5779.55
2321.22797	5786.75
2324.07925	5788.35
2326.92871	5762.85
2329.77637	5778.15
2332.62222	5766.95
2335.46626	5743.05
2338.3085	5735.65
2341.14893	5732.15
2343.98756	5737.45
2346.8244	5747.95
2349.65943	5738.45
2352.49267	5734.65
2355.32411	5738.85
2358.15376	5745.85
2360.98161	5736.25
2363.80768	5744.85
2366.63195	5742.25
2369.45444	5750.45
2372.27514	5734.65
2375.09405	5731.75
2377.91118	5715.05
2380.72652	5698.95
2383.54009	5692.35
2386.35187	5665.85
2389.16188	5651.35
2391.97011	5633.75
2394.77657	5623.55
2397.58125	5584.65
2400.38416	5593.15
2403.18529	5562.35
2405.98466	5555.35
2408.78226	5548.65
2411.57809	5535.55
2414.37216	5541.65
2417.16446	5529.05
2419.955	5542.45
2422.74378	5532.95
2425.5308	5529.35
2428.31606	5494.45
2431.09956	5500.75
2433.88131	5511.25
2436.6613	5495.95
2439.43954	5502.75
2442.21603	5491.85
2444.99077	5471.95
2447.76377	5475.75
2450.53501	5486.85
2453.30451	5489.95
2456.07226	5464.65
2458.83827	5467.95
2461.60254	5476.75
2464.36507	5472.35
2467.12586	5468.85
2469.88492	5453.15
2472.64224	5467.95
2475.39782	5452.45
2478.15167	5450.55
2480.90379	5470.75
2483.65417	5485.05
2486.40283	5487.95
2489.14976	5498.15
2491.89497	5493.75
2494.63845	5488.45
2497.3802	5485.55
2500.12024	5469.35
2502.85855	5455.35
2505.59514	5462.35
2508.33002	5432.55
2511.06318	5401.25
2513.79462	5406.85
2516.52435	5391.95
2519.25237	5398.15
2521.97867	5386.05
2524.70327	5375.85
2527.42616	5368.45
2530.14734	5380.25
2532.86681	5354.65
2535.58458	5351.15
2538.30065	5330.85
2541.01501	5333.35
2543.72768	5325.25
2546.43864	5331.05
2549.14791	5313.05
2551.85548	5313.65
2554.56136	5306.05
2557.26554	5274.85
2559.96803	5281.85
2562.66883	5266.55
2565.36794	5277.45
2568.06536	5264.25
2570.7611	5252.65
2573.45514	5219.75
2576.14751	5219.55
2578.83819	5227.85
2581.52719	5243.05
2584.21451	5230.25
2586.90015	5216.25
2589.58411	5191.55
2592.2664	5208.85
2594.94701	5206.15
2597.62594	5178.85
2600.30321	5155.15
2602.9788	5164.55
2605.65273	5169.45
2608.32498	5178.85
2610.99557	5154.15
2613.66449	5154.85
2616.33175	5154.65
2618.99734	5154.75
2621.66128	5152.65
2624.32355	5152.65
2626.98416	5131.55
2629.64311	5133.55
2632.30041	5148.35
2634.95605	5127.55
2637.61004	5125.75
2640.26238	5117.45
2642.91306	5126.65
2645.56209	5113.35
2648.20948	5100.05
2650.85521	5111.45
2653.4993	5108.05
2656.14175	5084.65
2658.78255	5108.75
2661.42171	5105.85
2664.05923	5118.95
2666.6951	5120.45
2669.32934	5126.95
2671.96194	5130.05
2674.59291	5132.35
2677.22224	5108.15
2679.84993	5125.95
2682.476	5112.45
2685.10043	5089.35
2687.72324	5095.75
2690.34441	5099.25
2692.96396	5100.15
2695.58188	5094.85
2698.19818	5072.65
2700.81285	5084.95
2703.4259	5100.45
2706.03733	5093.35
2708.64714	5100.05
2711.25533	5098.35
2713.86191	5091.35
2716.46687	5102.35
2719.07021	5120.45
2721.67194	5113.45
2724.27206	5110.35
2726.87057	5126.65
2729.46747	5115.85
2732.06276	5125.85
2734.65644	5113.15
2737.24852	5104.15
2739.83899	5094.25
2742.42786	5083.75
2745.01513	5075.35
2747.60079	5079.35
2750.18486	5072.85
2752.76733	5072.05
2755.3482	5057.85
2757.92747	5048.25
2760.50515	5050.85
2763.08123	5035.95
2765.65573	5035.05
2768.22863	5040.75
2770.79994	5037.25
2773.36967	5040.05
2775.9378	5036.55
2778.50435	5024.85
2781.06932	5019.85
2783.6327	5039.85
2786.1945	5016.95
2788.75471	5030.55
2791.31335	5012.75
2793.87041	5011.45
2796.42589	5006.95
2798.97979	5004.35
2801.53212	4994.95
2804.08288	4970.75
2806.63206	4961.45
2809.17967	4965.85
2811.72571	4948.25
2814.27018	4949.35
2816.81308	4931.15
2819.35442	4933.25
2821.89419	4924.35
2824.43239	4921.75
2826.96904	4927.95
2829.50412	4927.25
2832.03763	4903.15
2834.56959	4888.55
2837.1	4891.65
2839.62884	4905.25
2842.15613	4909.95
2844.68186	4922.95
2847.20604	4912.95
2849.72867	4938.35
2852.24974	4915.05
2854.76927	4926.95
2857.28724	4914.85
2859.80367	4910.25
2862.31855	4913.85
2864.83189	4912.05
2867.34368	4900.75
2869.85393	4910.35
2872.36264	4898.45
2874.8698	4900.35
2877.37543	4890.35
2879.87952	4900.35
2882.38207	4887.75
2884.88308	4883.35
2887.38256	4903.05
2889.88051	4881.95
2892.37692	4897.15
2894.8718	4892.85
2897.36515	4915.15
2899.85698	4901.15
2902.34727	4887.45
2904.83604	4898.85
2907.32328	4908.65
2909.809	4920.55
2912.29319	4918.15
2914.77587	4907.85
2917.25702	4912.15
2919.73665	4917.85
2922.21476	4907.45
2924.69136	4895.35
2927.16644	4898.65
2929.64	4879.95
2932.11205	4870.55
2934.58258	4843.05
2937.05161	4858.25
2939.51912	4866.95
2941.98513	4851.85
2944.44962	4835.15
2946.91261	4812.35
2949.37409	4806.75
2951.83407	4822.95
2954.29254	4805.05
2956.74951	4819.35
2959.20498	4812.15
2961.65895	4817.45
2964.11142	4805.25
2966.56239	4786.45
2969.01186	4775.95
2971.45984	4774.75
2973.90632	4764.65
2976.35131	4742.25
2978.7948	4731.35
2981.23681	4732.45
2983.67732	4714.15
2986.11635	4716.25
2988.55388	4695.15
2990.98993	4688.95
2993.4245	4685.35
2995.85758	4678.45
2998.28917	4652.95
3000.71928	4653.75
3003.14791	4636.25
3005.57506	4639.45
3008.00073	4644.35
3010.42493	4643.85
3012.84764	4616.45
3015.26888	4622.15
3017.68865	4602.05
3020.10694	4612.65
3022.52376	4589.45
3024.9391	4593.55
3027.35298	4575.15
3029.76539	4565.15
3032.17632	4547.35
3034.5858	4556.85
3036.9938	4569.55
3039.40034	4548.35
3041.80542	4557.25
3044.20903	4545.55
3046.61118	4561.75
3049.01187	4535.85
3051.4111	4538.25
3053.80888	4511.25
3056.20519	4516.95
3058.60005	4498.05
3060.99345	4484.75
3063.3854	4495.95
3065.7759	4472.25
3068.16494	4478.45
3070.55254	4464.45
3072.93868	4456.45
3075.32338	4436.25
3077.70662	4430.85
3080.08842	4425.05
3082.46878	4427.65
3084.84769	4434.85
3087.22515	4433.35
3089.60118	4412.75
3091.97576	4426.35
3094.3489	4415.85
3096.72061	4411.15
3099.09087	4421.15
3101.4597	4426.25
3103.82709	4415.15
3106.19305	4412.65
3108.55757	4408.25
3110.92066	4408.85
3113.28232	4410.35
3115.64255	4399.05
3118.00134	4384.15
3120.35871	4388.05
3122.71466	4367.35
3125.06917	4360.95
3127.42226	4366.75
3129.77393	4364.05
3132.12417	4362.35
3134.47299	4361.15
3136.82039	4353.35
3139.16636	4351.65
3141.51092	4361.25
3143.85406	4370.25
3146.19579	4366.65
3148.53609	4372.25
3150.87499	4385.55
3153.21246	4386.65
3155.54853	4395.15
3157.88318	4397.35
3160.21642	4398.85
3162.54826	4396.45
3164.87868	4393.15
3167.2077	4404.95
3169.5353	4389.45
3171.86151	4414.35
3174.18631	4391.35
3176.5097	4394.55
3178.83169	4387.05
3181.15228	4376.75
3183.47147	4373.65
3185.78926	4388.85
3188.10565	4399.55
3190.42065	4387.75
3192.73424	4368.95
3195.04645	4369.05
3197.35725	4381.25
3199.66667	4381.65
3201.97469	4386.35
3204.28132	4381.05
3206.58656	4392.45
3208.8904	4374.85
3211.19287	4380.85
3213.49394	4393.95
3215.79363	4397.15
3218.09193	4407.85
3220.38884	4409.65
3222.68438	4403.85
3224.97853	4416.05
3227.2713	4411.75
3229.56269	4405.05
3231.8527	4410.25
3234.14133	4409.05
3236.42858	4394.15
3238.71446	4388.25
3240.99896	4376.75
3243.28209	4352.05
3245.56384	4374.55
3247.84423	4364.75
3250.12324	4361.65
3252.40088	4352.65
3254.67715	4344.65
3256.95205	4349.45
3259.22558	4339.55
3261.49775	4334.75
3263.76855	4328.65
3266.03799	4316.35
3268.30606	4319.05
3270.57277	4323.05
3272.83812	4303.05
3275.10211	4301.25
3277.36474	4291.45
3279.62601	4305.75
3281.88593	4307.45
3284.14448	4300.15
3286.40168	4307.45
3288.65753	4290.45
3290.91202	4295.95
3293.16516	4286.85
3295.41695	4280.35
3297.66738	4256.55
3299.91647	4240.25
3302.16421	4216.15
3304.4106	4190.55
3306.65564	4178.05
3308.89933	4146.95
3311.14169	4127.65
3313.38269	4090.85
3315.62236	4078.85
3317.86068	4037.55
3320.09766	4015.45
3322.3333	3971.85
3324.5676	3971.35
3326.80056	3902.45
3329.03219	3899.85
3331.26248	0.75
3333.49143	-1.45
3335.71905	0.85
