Data from AgNP_FTO_APTES_UA_100uM_CRN_10uM_R6G_10uM_NaF_0.1M_Addition_RamanShift__25__15-46-10-428.txt Node

Date: Thu Mar 24 15:46:10 GMT 2022
User: TCL
Spectrometer: QEP01345
Trigger mode: 4
Integration Time (sec): 7.000000E0
Scans to average: 10
Electric dark correction enabled: true
Nonlinearity correction enabled: false
Boxcar width: 0
XAxis mode: Raman Shifts
Number of Pixels in Spectrum: 1044
>>>>>Begin Spectral Data<<<<<
46.04893	-0.55
50.45542	-0.75
54.85868	0.05
59.25871	-1.25
63.6555	26.95
68.04907	27.75
72.43941	28.55
76.82654	30.95
81.21044	31.45
85.59113	31.55
89.96862	32.65
94.34289	31.55
98.71396	37.65
103.08183	34.15
107.4465	38.95
111.80798	39.25
116.16626	38.65
120.52136	41.25
124.87327	39.15
129.222	40.85
133.56755	43.15
137.90993	44.25
142.24913	54.25
146.58517	53.35
150.91804	63.85
155.24774	75.95
159.57429	92.65
163.89768	117.45
168.21792	159.95
172.53501	216.45
176.84895	300.75
181.15975	421.25
185.46741	587.15
189.77193	811.15
194.07331	1089.65
198.37157	1418.55
202.6667	1747.85
206.9587	2100.55
211.24758	2457.15
215.53334	2816.35
219.81599	3225.25
224.09553	3707.15
228.37195	4216.15
232.64527	4785.65
236.91549	5332.45
241.18261	5836.45
245.44663	6217.85
249.70755	6489.45
253.96539	6742.45
258.22014	6978.45
262.4718	7155.65
266.72039	7292.15
270.96589	7363.15
275.20832	7304.45
279.44768	7140.85
283.68397	6972.65
287.91719	6855.75
292.14735	6831.45
296.37445	6965.65
300.59849	7236.75
304.81948	7581.95
309.03742	7935.25
313.25231	8034.95
317.46415	7761.15
321.67296	7297.05
325.87872	6845.15
330.08145	6607.95
334.28114	6593.55
338.47781	6701.85
342.67145	6877.25
346.86207	7137.85
351.04966	7526.55
355.23424	7907.45
359.4158	8230.55
363.59435	8343.15
367.76989	8319.35
371.94243	8242.55
376.11196	8170.85
380.27849	8154.25
384.44203	8074.15
388.60257	7996.75
392.76012	7972.35
396.91468	8035.55
401.06626	8212.55
405.21485	8331.05
409.36047	8191.65
413.50311	7774.95
417.64277	7365.75
421.77947	7149.95
425.9132	7071.75
430.04396	7043.15
434.17176	7139.85
438.2966	7289.15
442.41849	7570.15
446.53742	7926.15
450.6534	8272.45
454.76644	8446.95
458.87653	8430.55
462.98368	8259.15
467.08789	8005.95
471.18916	7785.65
475.2875	7565.35
479.38291	7286.85
483.4754	7053.65
487.56496	6907.35
491.6516	6816.45
495.73531	6774.45
499.81612	6788.55
503.89401	6871.15
507.96899	6939.95
512.04106	7012.65
516.11023	7114.25
520.1765	7159.95
524.23987	7227.35
528.30034	7258.05
532.35792	7248.75
536.41261	7144.35
540.46441	6989.95
544.51333	6884.15
548.55936	6899.25
552.60252	7009.65
556.64279	7202.95
560.6802	7343.35
564.71473	7430.75
568.7464	7661.65
572.7752	7838.35
576.80114	7698.25
580.82422	7562.35
584.84444	7678.35
588.86181	8050.05
592.87633	8625.45
596.888	9107.25
600.89682	9047.25
604.9028	9405.35
608.90594	11628.75
612.90624	14803.55
616.90371	14058.95
620.89834	9694.05
624.89015	7520.85
628.87913	7108.05
632.86528	7203.15
636.84862	7337.35
640.82913	7192.45
644.80683	6781.65
648.78172	6509.25
652.75379	6503.25
656.72306	6808.35
660.68952	7205.75
664.65319	7094.75
668.61405	6684.95
672.57211	6491.65
676.52738	6505.95
680.47986	6486.45
684.42955	6387.05
688.37646	6293.95
692.32058	6329.55
696.26192	6416.35
700.20048	6539.25
704.13626	6624.65
708.06928	6596.45
711.99952	6527.75
715.927	6539.45
719.85171	6626.35
723.77365	6647.75
727.69284	6617.25
731.60928	6594.95
735.52295	6655.55
739.43388	6697.75
743.34206	6705.05
747.24749	6672.95
751.15017	6671.65
755.05012	6721.25
758.94733	7041.25
762.8418	7858.25
766.73354	9351.15
770.62254	10797.75
774.50882	11483.05
778.39237	11034.15
782.27321	9649.85
786.15132	8157.15
790.02671	7185.65
793.89938	6738.25
797.76935	6542.45
801.6366	6460.65
805.50115	6408.35
809.36299	6366.25
813.22213	6334.15
817.07857	6310.55
820.93231	6317.35
824.78336	6340.65
828.63172	6372.35
832.47738	6387.35
836.32036	6355.25
840.16066	6313.45
843.99827	6295.35
847.8332	6249.15
851.66546	6296.15
855.49504	6285.85
859.32195	6280.45
863.1462	6278.85
866.96777	6268.05
870.78668	6260.65
874.60293	6290.55
878.41652	6343.35
882.22745	6409.35
886.03573	6459.55
889.84136	6432.25
893.64433	6406.55
897.44466	6375.05
901.24235	6374.65
905.0374	6308.25
908.8298	6242.15
912.61957	6195.85
916.40671	6199.15
920.19121	6235.45
923.97308	6314.35
927.75233	6452.95
931.52895	6538.25
935.30295	6442.95
939.07433	6251.05
942.84309	6077.05
946.60924	5994.15
950.37278	5945.95
954.13371	5922.45
957.89203	5912.65
961.64774	5906.55
965.40086	5892.75
969.15137	5893.85
972.89929	5876.75
976.64461	5882.25
980.38733	5902.05
984.12747	5899.75
987.86502	5948.55
991.59999	5989.25
995.33237	6115.55
999.06217	6281.25
1002.78939	6496.05
1006.51404	6694.55
1010.23611	6852.45
1013.95561	6956.75
1017.67255	6918.75
1021.38692	6739.45
1025.09872	6515.85
1028.80796	6354.05
1032.51465	6356.05
1036.21877	6398.85
1039.92035	6422.95
1043.61937	6439.65
1047.31584	6456.85
1051.00976	6433.25
1054.70114	6432.85
1058.38998	6404.75
1062.07627	6417.05
1065.76003	6448.25
1069.44126	6491.75
1073.11995	6627.25
1076.79611	6788.75
1080.46974	6985.05
1084.14085	7213.05
1087.80943	7424.25
1091.47549	7498.35
1095.13903	7375.35
1098.80005	7111.75
1102.45857	6884.95
1106.11456	6828.85
1109.76805	6892.85
1113.41903	7051.45
1117.06751	7300.85
1120.71348	7685.35
1124.35696	8130.95
1127.99793	8413.05
1131.63641	8334.65
1135.2724	7930.95
1138.90589	7572.85
1142.5369	7383.15
1146.16542	7248.95
1149.79145	7145.65
1153.415	7112.45
1157.03607	7145.65
1160.65467	7310.25
1164.27079	7599.35
1167.88443	8115.55
1171.49561	8904.25
1175.10432	10184.15
1178.71056	11897.65
1182.31434	13363.95
1185.91565	13795.65
1189.51451	13289.65
1193.11091	12295.85
1196.70485	11188.85
1200.29634	10285.75
1203.88538	9571.25
1207.47197	8847.55
1211.05612	8280.85
1214.63782	7989.85
1218.21708	7912.05
1221.79391	7974.35
1225.36829	8069.55
1228.94024	8032.65
1232.50976	7893.55
1236.07685	7765.65
1239.6415	7771.45
1243.20374	7882.65
1246.76355	7911.05
1250.32093	8006.45
1253.8759	8160.65
1257.42845	8470.65
1260.97859	8897.35
1264.52631	9437.25
1268.07163	9860.95
1271.61453	10180.15
1275.15503	10266.45
1278.69312	10249.55
1282.22882	10365.45
1285.76211	10726.95
1289.29301	11268.95
1292.82151	11863.25
1296.34761	12480.85
1299.87133	13311.85
1303.39266	14581.75
1306.9116	16451.75
1310.42815	18427.35
1313.94233	19329.55
1317.45412	18570.05
1320.96354	17016.35
1324.47058	15450.05
1327.97525	14021.05
1331.47754	12940.75
1334.97747	12420.85
1338.47502	12316.55
1341.97022	12529.55
1345.46305	13074.05
1348.95352	14019.45
1352.44163	15407.85
1355.92738	17485.85
1359.41078	20616.05
1362.89183	23428.75
1366.37053	22670.25
1369.84688	18665.05
1373.32088	14760.85
1376.79254	12718.55
1380.26186	11860.85
1383.72883	11359.35
1387.19347	10702.55
1390.65578	10013.85
1394.11575	9518.25
1397.57339	9310.65
1401.0287	9298.55
1404.48168	9331.25
1407.93234	9391.15
1411.38068	9458.55
1414.82669	9555.95
1418.27039	9556.85
1421.71177	9345.05
1425.15083	9079.25
1428.58758	8994.75
1432.02203	9258.35
1435.45416	9653.05
1438.88399	9911.65
1442.31151	9991.55
1445.73673	10024.35
1449.15965	10071.75
1452.58027	9930.95
1455.9986	9635.05
1459.41463	9434.75
1462.82837	9512.35
1466.23982	9901.45
1469.64898	10369.75
1473.05586	10782.55
1476.46045	11152.75
1479.86276	11521.95
1483.26279	11896.05
1486.66054	12330.85
1490.05602	12981.05
1493.44922	13712.15
1496.84016	14501.45
1500.22882	15447.35
1503.61521	16929.75
1506.99934	18857.75
1510.38121	20319.35
1513.76081	20273.85
1517.13816	18362.35
1520.51324	15527.45
1523.88607	13149.65
1527.25665	11727.55
1530.62498	11067.15
1533.99105	10660.65
1537.35488	10371.45
1540.71647	10143.15
1544.07581	9961.75
1547.4329	9836.55
1550.78776	9701.25
1554.14038	9542.55
1557.49077	9487.25
1560.83892	9578.85
1564.18484	9924.35
1567.52853	10454.95
1570.86999	10961.75
1574.20922	11279.75
1577.54624	11184.45
1580.88103	10525.35
1584.2136	9704.75
1587.54395	9336.45
1590.87208	9643.15
1594.19801	10563.55
1597.52172	11883.45
1600.84321	12687.85
1604.16251	12357.55
1607.47959	11231.25
1610.79447	9847.05
1614.10715	8674.25
1617.41763	7900.15
1620.7259	7453.65
1624.03199	7292.65
1627.33587	7307.35
1630.63757	7579.85
1633.93707	8147.65
1637.23439	9198.05
1640.52951	11018.75
1643.82246	13633.45
1647.11321	16372.35
1650.40179	17549.55
1653.68819	16195.25
1656.97241	13166.25
1660.25446	10292.85
1663.53433	8382.25
1666.81203	7338.45
1670.08756	6771.65
1673.36092	6415.35
1676.63211	6202.85
1679.90115	6048.55
1683.16801	5930.25
1686.43272	5834.85
1689.69527	5769.85
1692.95567	5732.55
1696.2139	5723.15
1699.46999	5735.95
1702.72392	5683.35
1705.97571	5664.35
1709.22535	5606.65
1712.47284	5607.85
1715.71819	5594.15
1718.96139	5563.95
1722.20246	5551.55
1725.44139	5517.35
1728.67818	5470.85
1731.91284	5429.75
1735.14537	5360.65
1738.37576	5358.75
1741.60403	5319.95
1744.83017	5302.95
1748.05418	5289.25
1751.27607	5280.85
1754.49584	5269.65
1757.71349	5278.95
1760.92903	5266.35
1764.14244	5256.45
1767.35375	5250.85
1770.56294	5227.55
1773.77002	5209.55
1776.97499	5179.25
1780.17785	5138.45
1783.37861	5134.75
1786.57727	5122.15
1789.77382	5109.45
1792.96828	5092.15
1796.16064	5083.15
1799.3509	5069.85
1802.53907	5063.25
1805.72514	5042.75
1808.90913	5014.35
1812.09102	5005.15
1815.27083	5000.55
1818.44856	4975.35
1821.6242	4972.85
1824.79776	4955.95
1827.96924	4951.85
1831.13864	4940.55
1834.30597	4933.05
1837.47122	4934.45
1840.6344	4913.35
1843.7955	4909.95
1846.95454	4892.25
1850.11151	4882.75
1853.26642	4884.35
1856.41926	4878.35
1859.57004	4869.45
1862.71876	4872.95
1865.86542	4868.35
1869.01003	4869.85
1872.15258	4854.95
1875.29308	4877.75
1878.43152	4873.25
1881.56792	4880.65
1884.70227	4854.65
1887.83457	4881.55
1890.96482	4859.45
1894.09304	4844.15
1897.21921	4835.75
1900.34335	4835.55
1903.46544	4846.35
1906.58551	4829.85
1909.70353	4835.65
1912.81953	4834.25
1915.93349	4810.05
1919.04543	4814.75
1922.15534	4793.95
1925.26322	4771.25
1928.36908	4761.05
1931.47292	4750.15
1934.57473	4747.75
1937.67453	4728.15
1940.77232	4703.55
1943.86808	4696.65
1946.96184	4696.45
1950.05358	4691.55
1953.14331	4655.95
1956.23103	4646.45
1959.31675	4631.95
1962.40046	4625.35
1965.48217	4611.25
1968.56188	4587.85
1971.63959	4588.35
1974.7153	4587.55
1977.78901	4558.05
1980.86073	4531.25
1983.93046	4531.25
1986.99819	4505.05
1990.06394	4502.75
1993.1277	4481.35
1996.18947	4457.45
1999.24925	4446.55
2002.30706	4427.95
2005.36288	4420.55
2008.41672	4404.35
2011.46859	4392.45
2014.51848	4375.95
2017.56639	4354.65
2020.61233	4348.65
2023.6563	4337.45
2026.6983	4319.15
2029.73833	4327.45
2032.7764	4308.55
2035.8125	4311.45
2038.84664	4305.45
2041.87881	4303.05
2044.90903	4286.25
2047.93729	4285.85
2050.96359	4286.95
2053.98794	4265.85
2057.01034	4260.45
2060.03078	4264.85
2063.04927	4248.05
2066.06582	4237.05
2069.08042	4237.35
2072.09307	4232.65
2075.10378	4241.85
2078.11255	4231.45
2081.11938	4237.65
2084.12426	4224.15
2087.12722	4235.95
2090.12824	4234.45
2093.12732	4253.15
2096.12447	4231.85
2099.11969	4241.45
2102.11299	4238.25
2105.10435	4235.35
2108.09379	4214.65
2111.08131	4234.35
2114.0669	4238.75
2117.05057	4229.35
2120.03233	4238.95
2123.01216	4243.25
2125.99008	4252.65
2128.96609	4245.65
2131.94018	4244.55
2134.91236	4258.35
2137.88263	4244.75
2140.851	4228.15
2143.81746	4255.35
2146.78201	4262.95
2149.74466	4245.85
2152.7054	4243.45
2155.66425	4234.05
2158.6212	4234.95
2161.57625	4220.05
2164.52941	4220.45
2167.48067	4222.45
2170.43004	4217.15
2173.37752	4223.75
2176.32311	4212.25
2179.26681	4228.55
2182.20863	4208.85
2185.14856	4232.15
2188.08661	4221.45
2191.02278	4232.75
2193.95707	4227.45
2196.88948	4215.55
2199.82001	4204.45
2202.74867	4197.05
2205.67545	4198.35
2208.60037	4202.55
2211.52341	4189.85
2214.44458	4175.25
2217.36388	4171.65
2220.28132	4154.15
2223.1969	4143.65
2226.11061	4141.75
2229.02246	4135.95
2231.93245	4147.75
2234.84058	4131.05
2237.74686	4123.95
2240.65128	4118.85
2243.55385	4122.25
2246.45456	4117.45
2249.35343	4115.75
2252.25044	4119.15
2255.14561	4116.85
2258.03893	4115.55
2260.93041	4118.95
2263.82004	4102.55
2266.70783	4087.85
2269.59378	4091.85
2272.4779	4081.05
2275.36017	4053.95
2278.24061	4048.25
2281.11922	4054.65
2283.996	4040.25
2286.87094	4030.15
2289.74405	4018.85
2292.61534	4012.35
2295.4848	4008.15
2298.35243	4002.85
2301.21824	3991.25
2304.08223	3988.15
2306.94439	3984.75
2309.80474	3982.25
2312.66327	3986.55
2315.51999	3985.15
2318.37489	3987.55
2321.22797	3995.25
2324.07925	3982.25
2326.92871	3961.15
2329.77637	3980.25
2332.62222	3974.95
2335.46626	3962.45
2338.3085	3968.05
2341.14893	3959.35
2343.98756	3963.35
2346.8244	3956.85
2349.65943	3953.25
2352.49267	3958.45
2355.32411	3969.85
2358.15376	3981.75
2360.98161	3972.75
2363.80768	3990.25
2366.63195	3993.55
2369.45444	3990.55
2372.27514	3994.65
2375.09405	3989.25
2377.91118	3992.45
2380.72652	3952.55
2383.54009	3957.05
2386.35187	3941.15
2389.16188	3925.05
2391.97011	3908.85
2394.77657	3897.55
2397.58125	3892.75
2400.38416	3883.65
2403.18529	3864.85
2405.98466	3855.25
2408.78226	3851.55
2411.57809	3844.75
2414.37216	3845.65
2417.16446	3838.65
2419.955	3833.35
2422.74378	3816.85
2425.5308	3835.25
2428.31606	3847.15
2431.09956	3834.65
2433.88131	3832.55
2436.6613	3829.85
2439.43954	3823.85
2442.21603	3839.45
2444.99077	3820.35
2447.76377	3845.15
2450.53501	3852.15
2453.30451	3856.05
2456.07226	3868.35
2458.83827	3853.75
2461.60254	3843.85
2464.36507	3857.95
2467.12586	3855.45
2469.88492	3838.35
2472.64224	3845.55
2475.39782	3850.25
2478.15167	3848.95
2480.90379	3877.85
2483.65417	3868.55
2486.40283	3907.95
2489.14976	3904.15
2491.89497	3906.25
2494.63845	3913.35
2497.3802	3907.25
2500.12024	3886.35
2502.85855	3889.65
2505.59514	3880.25
2508.33002	3854.05
2511.06318	3849.35
2513.79462	3835.15
2516.52435	3819.85
2519.25237	3797.85
2521.97867	3789.65
2524.70327	3798.55
2527.42616	3790.15
2530.14734	3783.85
2532.86681	3786.75
2535.58458	3784.85
2538.30065	3775.75
2541.01501	3785.45
2543.72768	3784.65
2546.43864	3776.25
2549.14791	3773.25
2551.85548	3774.15
2554.56136	3789.95
2557.26554	3774.85
2559.96803	3768.95
2562.66883	3771.55
2565.36794	3760.85
2568.06536	3758.35
2570.7611	3764.15
2573.45514	3750.95
2576.14751	3745.25
2578.83819	3739.55
2581.52719	3736.15
2584.21451	3730.75
2586.90015	3713.45
2589.58411	3716.85
2592.2664	3713.35
2594.94701	3720.55
2597.62594	3723.75
2600.30321	3693.45
2602.9788	3718.75
2605.65273	3704.95
2608.32498	3709.95
2610.99557	3695.95
2613.66449	3698.45
2616.33175	3704.75
2618.99734	3710.75
2621.66128	3708.05
2624.32355	3696.35
2626.98416	3691.55
2629.64311	3689.15
2632.30041	3688.65
2634.95605	3686.85
2637.61004	3674.35
2640.26238	3665.35
2642.91306	3665.25
2645.56209	3669.45
2648.20948	3662.25
2650.85521	3679.65
2653.4993	3682.25
2656.14175	3677.05
2658.78255	3688.85
2661.42171	3698.65
2664.05923	3696.85
2666.6951	3707.05
2669.32934	3705.75
2671.96194	3698.65
2674.59291	3704.75
2677.22224	3707.25
2679.84993	3697.45
2682.476	3699.95
2685.10043	3696.35
2687.72324	3692.45
2690.34441	3705.25
2692.96396	3694.85
2695.58188	3692.05
2698.19818	3685.75
2700.81285	3693.95
2703.4259	3701.85
2706.03733	3721.45
2708.64714	3707.55
2711.25533	3704.75
2713.86191	3703.85
2716.46687	3704.75
2719.07021	3713.15
2721.67194	3720.65
2724.27206	3714.35
2726.87057	3719.95
2729.46747	3712.65
2732.06276	3716.65
2734.65644	3715.55
2737.24852	3703.85
2739.83899	3718.55
2742.42786	3713.35
2745.01513	3694.15
2747.60079	3693.35
2750.18486	3685.35
2752.76733	3678.75
2755.3482	3680.25
2757.92747	3676.05
2760.50515	3678.65
2763.08123	3674.85
2765.65573	3679.65
2768.22863	3669.15
2770.79994	3662.55
2773.36967	3659.05
2775.9378	3672.45
2778.50435	3665.45
2781.06932	3658.45
2783.6327	3668.45
2786.1945	3675.25
2788.75471	3670.65
2791.31335	3654.55
2793.87041	3670.65
2796.42589	3659.25
2798.97979	3661.25
2801.53212	3650.05
2804.08288	3644.05
2806.63206	3649.95
2809.17967	3635.45
2811.72571	3640.05
2814.27018	3654.55
2816.81308	3639.85
2819.35442	3641.95
2821.89419	3635.35
2824.43239	3652.25
2826.96904	3639.05
2829.50412	3648.15
2832.03763	3629.15
2834.56959	3635.05
2837.1	3647.75
2839.62884	3635.75
2842.15613	3629.95
2844.68186	3648.35
2847.20604	3649.15
2849.72867	3663.55
2852.24974	3653.25
2854.76927	3664.35
2857.28724	3637.45
2859.80367	3657.75
2862.31855	3640.85
2864.83189	3658.75
2867.34368	3664.15
2869.85393	3644.25
2872.36264	3643.75
2874.8698	3650.95
2877.37543	3643.75
2879.87952	3637.85
2882.38207	3639.25
2884.88308	3621.25
2887.38256	3636.75
2889.88051	3628.25
2892.37692	3614.65
2894.8718	3612.65
2897.36515	3637.65
2899.85698	3622.95
2902.34727	3635.25
2904.83604	3629.35
2907.32328	3643.85
2909.809	3649.35
2912.29319	3659.05
2914.77587	3655.05
2917.25702	3636.35
2919.73665	3620.85
2922.21476	3628.85
2924.69136	3634.55
2927.16644	3622.35
2929.64	3635.45
2932.11205	3618.95
2934.58258	3601.45
2937.05161	3608.25
2939.51912	3599.65
2941.98513	3600.15
2944.44962	3588.45
2946.91261	3563.95
2949.37409	3575.25
2951.83407	3575.75
2954.29254	3579.55
2956.74951	3578.15
2959.20498	3570.05
2961.65895	3555.45
2964.11142	3578.25
2966.56239	3573.65
2969.01186	3561.75
2971.45984	3566.75
2973.90632	3548.25
2976.35131	3542.45
2978.7948	3543.85
2981.23681	3527.85
2983.67732	3510.65
2986.11635	3500.95
2988.55388	3490.05
2990.98993	3501.05
2993.4245	3500.95
2995.85758	3479.05
2998.28917	3483.95
3000.71928	3464.35
3003.14791	3460.85
3005.57506	3471.75
3008.00073	3467.55
3010.42493	3460.75
3012.84764	3459.45
3015.26888	3448.85
3017.68865	3445.95
3020.10694	3442.05
3022.52376	3438.35
3024.9391	3435.05
3027.35298	3427.35
3029.76539	3421.85
3032.17632	3414.75
3034.5858	3403.15
3036.9938	3401.75
3039.40034	3394.15
3041.80542	3384.25
3044.20903	3375.75
3046.61118	3394.15
3049.01187	3376.15
3051.4111	3376.65
3053.80888	3377.15
3056.20519	3370.45
3058.60005	3360.45
3060.99345	3368.35
3063.3854	3351.85
3065.7759	3347.25
3068.16494	3342.75
3070.55254	3343.95
3072.93868	3341.85
3075.32338	3306.05
3077.70662	3330.85
3080.08842	3317.35
3082.46878	3312.25
3084.84769	3315.25
3087.22515	3320.85
3089.60118	3316.95
3091.97576	3309.45
3094.3489	3321.45
3096.72061	3325.25
3099.09087	3329.85
3101.4597	3321.45
3103.82709	3336.95
3106.19305	3316.25
3108.55757	3306.45
3110.92066	3310.35
3113.28232	3311.85
3115.64255	3301.25
3118.00134	3286.75
3120.35871	3298.35
3122.71466	3300.65
3125.06917	3286.85
3127.42226	3287.45
3129.77393	3292.55
3132.12417	3290.85
3134.47299	3315.95
3136.82039	3294.45
3139.16636	3291.15
3141.51092	3302.15
3143.85406	3302.25
3146.19579	3308.55
3148.53609	3302.85
3150.87499	3309.45
3153.21246	3315.05
3155.54853	3325.55
3157.88318	3323.05
3160.21642	3314.15
3162.54826	3318.15
3164.87868	3320.55
3167.2077	3328.95
3169.5353	3326.75
3171.86151	3332.85
3174.18631	3334.55
3176.5097	3339.55
3178.83169	3315.85
3181.15228	3329.85
3183.47147	3320.55
3185.78926	3340.75
3188.10565	3327.15
3190.42065	3341.85
3192.73424	3343.25
3195.04645	3317.35
3197.35725	3339.45
3199.66667	3333.15
3201.97469	3336.75
3204.28132	3339.95
3206.58656	3354.85
3208.8904	3347.05
3211.19287	3359.55
3213.49394	3353.85
3215.79363	3359.65
3218.09193	3369.85
3220.38884	3381.25
3222.68438	3377.65
3224.97853	3384.45
3227.2713	3385.75
3229.56269	3367.45
3231.8527	3374.15
3234.14133	3377.55
3236.42858	3365.05
3238.71446	3356.95
3240.99896	3349.95
3243.28209	3366.05
3245.56384	3354.05
3247.84423	3357.45
3250.12324	3336.35
3252.40088	3360.05
3254.67715	3338.65
3256.95205	3336.85
3259.22558	3351.45
3261.49775	3335.15
3263.76855	3339.75
3266.03799	3334.85
3268.30606	3341.55
3270.57277	3328.35
3272.83812	3329.55
3275.10211	3308.15
3277.36474	3313.65
3279.62601	3320.45
3281.88593	3313.65
3284.14448	3327.55
3286.40168	3323.95
3288.65753	3334.85
3290.91202	3335.15
3293.16516	3330.65
3295.41695	3325.45
3297.66738	3304.25
3299.91647	3302.45
3302.16421	3282.75
3304.4106	3270.25
3306.65564	3251.45
3308.89933	3230.05
3311.14169	3202.15
3313.38269	3173.75
3315.62236	3153.25
3317.86068	3125.65
3320.09766	3117.65
3322.3333	3096.15
3324.5676	3076.65
3326.80056	3041.35
3329.03219	3023.75
3331.26248	1.95
3333.49143	-0.65
3335.71905	1.05
