Data from AgNP_FTO_APTES_UA_100uM_CRN_20uM_R6G_10uM_NaF_0.1M_Addition_RamanShift__27__16-57-20-508.txt Node

Date: Thu Mar 24 16:57:20 GMT 2022
User: TCL
Spectrometer: QEP01345
Trigger mode: 4
Integration Time (sec): 7.000000E0
Scans to average: 10
Electric dark correction enabled: true
Nonlinearity correction enabled: false
Boxcar width: 0
XAxis mode: Raman Shifts
Number of Pixels in Spectrum: 1044
>>>>>Begin Spectral Data<<<<<
46.04893	-2.65
50.45542	0.35
54.85868	0.05
59.25871	-0.35
63.6555	44.45
68.04907	44.45
72.43941	44.45
76.82654	44.55
81.21044	49.95
85.59113	50.85
89.96862	53.85
94.34289	53.55
98.71396	55.05
103.08183	56.95
107.4465	58.25
111.80798	63.15
116.16626	63.35
120.52136	64.55
124.87327	64.95
129.222	73.45
133.56755	79.15
137.90993	79.95
142.24913	90.65
146.58517	101.05
150.91804	118.85
155.24774	147.55
159.57429	183.25
163.89768	238.45
168.21792	321.35
172.53501	441.75
176.84895	619.05
181.15975	874.35
185.46741	1218.35
189.77193	1695.95
194.07331	2269.15
198.37157	2932.65
202.6667	3641.65
206.9587	4340.25
211.24758	5076.95
215.53334	5840.85
219.81599	6692.75
224.09553	7652.45
228.37195	8734.95
232.64527	9915.15
236.91549	11080.55
241.18261	12112.75
245.44663	12970.55
249.70755	13596.35
253.96539	14141.35
258.22014	14600.05
262.4718	15063.85
266.72039	15386.95
270.96589	15478.75
275.20832	15387.55
279.44768	15126.25
283.68397	14856.65
287.91719	14644.25
292.14735	14698.45
296.37445	15032.55
300.59849	15531.35
304.81948	16196.95
309.03742	16659.85
313.25231	16722.25
317.46415	16168.15
321.67296	15210.95
325.87872	14315.15
330.08145	13824.85
334.28114	13749.65
338.47781	13955.65
342.67145	14265.95
346.86207	14736.15
351.04966	15450.65
355.23424	16205.75
359.4158	16746.95
363.59435	17069.95
367.76989	17083.65
371.94243	17059.15
376.11196	16967.75
380.27849	16845.75
384.44203	16711.25
388.60257	16588.15
392.76012	16496.05
396.91468	16652.55
401.06626	16968.05
405.21485	17226.75
409.36047	16837.05
413.50311	15993.45
417.64277	15235.95
421.77947	14796.65
425.9132	14661.25
430.04396	14680.95
434.17176	14846.35
438.2966	15091.25
442.41849	15542.05
446.53742	16123.25
450.6534	16690.75
454.76644	17052.05
458.87653	16980.55
462.98368	16711.75
467.08789	16343.35
471.18916	15951.95
475.2875	15551.55
479.38291	15240.35
483.4754	14940.35
487.56496	14655.55
491.6516	14446.95
495.73531	14296.35
499.81612	14278.55
503.89401	14406.15
507.96899	14541.55
512.04106	14615.75
516.11023	14780.05
520.1765	14847.55
524.23987	14828.15
528.30034	14756.45
532.35792	14624.45
536.41261	14385.95
540.46441	14074.85
544.51333	13914.95
548.55936	14086.95
552.60252	14493.45
556.64279	15014.45
560.6802	15319.15
564.71473	15527.45
568.7464	16060.45
572.7752	16481.45
576.80114	16335.45
580.82422	16076.25
584.84444	16181.65
588.86181	16657.35
592.87633	17306.55
596.888	17704.95
600.89682	17722.05
604.9028	18962.65
608.90594	23320.25
612.90624	29100.55
616.90371	27402.45
620.89834	19190.65
624.89015	15273.75
628.87913	14649.15
632.86528	14921.75
636.84862	15148.65
640.82913	14844.45
644.80683	14008.95
648.78172	13411.55
652.75379	13366.85
656.72306	13864.95
660.68952	14575.25
664.65319	14353.75
668.61405	13549.35
672.57211	13209.45
676.52738	13233.05
680.47986	13189.15
684.42955	13001.95
688.37646	12902.55
692.32058	12940.75
696.26192	13105.05
700.20048	13320.15
704.13626	13479.05
708.06928	13407.55
711.99952	13305.55
715.927	13262.95
719.85171	13361.65
723.77365	13432.35
727.69284	13338.75
731.60928	13194.25
735.52295	13206.35
739.43388	13260.65
743.34206	13346.45
747.24749	13366.35
751.15017	13438.55
755.05012	13659.85
758.94733	14440.85
762.8418	16295.05
766.73354	19499.15
770.62254	22536.45
774.50882	23647.45
778.39237	22238.15
782.27321	19082.95
786.15132	16065.35
790.02671	14312.85
793.89938	13475.85
797.76935	13129.25
801.6366	12989.75
805.50115	12871.75
809.36299	12801.85
813.22213	12702.15
817.07857	12668.85
820.93231	12618.05
824.78336	12625.15
828.63172	12645.25
832.47738	12655.75
836.32036	12585.65
840.16066	12549.35
843.99827	12556.15
847.8332	12511.15
851.66546	12455.75
855.49504	12488.45
859.32195	12475.45
863.1462	12384.45
866.96777	12384.25
870.78668	12379.45
874.60293	12404.05
878.41652	12416.25
882.22745	12580.35
886.03573	12668.65
889.84136	12629.35
893.64433	12545.55
897.44466	12481.25
901.24235	12428.05
905.0374	12346.25
908.8298	12255.15
912.61957	12199.35
916.40671	12252.35
920.19121	12429.85
923.97308	12636.75
927.75233	12769.85
931.52895	12812.15
935.30295	12615.65
939.07433	12234.35
942.84309	11897.45
946.60924	11739.65
950.37278	11628.45
954.13371	11596.05
957.89203	11550.05
961.64774	11540.25
965.40086	11514.75
969.15137	11459.45
972.89929	11391.55
976.64461	11387.25
980.38733	11365.05
984.12747	11402.35
987.86502	11508.25
991.59999	11647.05
995.33237	11819.35
999.06217	12213.65
1002.78939	12701.75
1006.51404	13113.45
1010.23611	13412.25
1013.95561	13591.25
1017.67255	13530.65
1021.38692	13260.75
1025.09872	12953.55
1028.80796	12784.55
1032.51465	12866.35
1036.21877	13111.05
1039.92035	13195.15
1043.61937	13179.75
1047.31584	13067.15
1051.00976	12930.85
1054.70114	12820.25
1058.38998	12771.65
1062.07627	12820.15
1065.76003	12900.45
1069.44126	12984.45
1073.11995	13164.15
1076.79611	13431.05
1080.46974	13778.75
1084.14085	14184.65
1087.80943	14620.75
1091.47549	14776.65
1095.13903	14528.65
1098.80005	14030.55
1102.45857	13604.15
1106.11456	13452.45
1109.76805	13602.45
1113.41903	14001.25
1117.06751	14603.85
1120.71348	15352.25
1124.35696	16114.85
1127.99793	16643.05
1131.63641	16410.85
1135.2724	15644.35
1138.90589	14934.45
1142.5369	14528.35
1146.16542	14250.25
1149.79145	14134.25
1153.415	14140.05
1157.03607	14332.05
1160.65467	14769.15
1164.27079	15544.55
1167.88443	16708.25
1171.49561	18442.25
1175.10432	21035.35
1178.71056	24393.35
1182.31434	27258.05
1185.91565	28035.15
1189.51451	26934.45
1193.11091	25042.45
1196.70485	23019.25
1200.29634	21374.35
1203.88538	20069.05
1207.47197	18711.75
1211.05612	17580.75
1214.63782	16898.95
1218.21708	16634.35
1221.79391	16719.75
1225.36829	16828.65
1228.94024	16642.75
1232.50976	16225.05
1236.07685	15820.75
1239.6415	15643.55
1243.20374	15657.95
1246.76355	15749.35
1250.32093	15957.15
1253.8759	16345.65
1257.42845	16874.35
1260.97859	17560.95
1264.52631	18304.55
1268.07163	19116.65
1271.61453	19823.35
1275.15503	20419.25
1278.69312	20809.25
1282.22882	21323.05
1285.76211	22113.65
1289.29301	23111.55
1292.82151	24270.75
1296.34761	25696.45
1299.87133	27669.35
1303.39266	30620.55
1306.9116	34537.75
1310.42815	38601.05
1313.94233	40460.85
1317.45412	39086.15
1320.96354	36148.35
1324.47058	33055.05
1327.97525	30405.95
1331.47754	28613.45
1334.97747	27770.55
1338.47502	27640.15
1341.97022	28132.95
1345.46305	29126.95
1348.95352	30710.65
1352.44163	33012.35
1355.92738	36667.65
1359.41078	42181.95
1362.89183	46912.45
1366.37053	45001.25
1369.84688	37328.35
1373.32088	30016.65
1376.79254	25924.15
1380.26186	23958.35
1383.72883	22912.25
1387.19347	22110.25
1390.65578	21432.55
1394.11575	21019.55
1397.57339	21070.25
1401.0287	21330.85
1404.48168	21585.05
1407.93234	21547.15
1411.38068	21302.35
1414.82669	20942.65
1418.27039	20326.15
1421.71177	19474.85
1425.15083	18768.85
1428.58758	18467.15
1432.02203	18782.55
1435.45416	19236.35
1438.88399	19651.55
1442.31151	19893.35
1445.73673	20121.75
1449.15965	20308.05
1452.58027	20281.45
1455.9986	20154.25
1459.41463	20176.75
1462.82837	20607.35
1466.23982	21274.95
1469.64898	21931.45
1473.05586	22380.85
1476.46045	22691.15
1479.86276	22862.65
1483.26279	23024.55
1486.66054	23418.05
1490.05602	24194.45
1493.44922	25340.15
1496.84016	27018.35
1500.22882	29829.35
1503.61521	33900.05
1506.99934	38350.75
1510.38121	41464.35
1513.76081	41231.85
1517.13816	37442.75
1520.51324	32155.65
1523.88607	27848.85
1527.25665	25314.25
1530.62498	24091.15
1533.99105	23428.25
1537.35488	22876.05
1540.71647	22338.85
1544.07581	21767.95
1547.4329	21246.45
1550.78776	20895.85
1554.14038	20633.85
1557.49077	20745.35
1560.83892	21030.25
1564.18484	21772.35
1567.52853	22575.25
1570.86999	23324.65
1574.20922	23850.45
1577.54624	23734.05
1580.88103	22532.05
1584.2136	21057.05
1587.54395	20453.85
1590.87208	21050.55
1594.19801	22687.05
1597.52172	24798.75
1600.84321	25684.55
1604.16251	24667.65
1607.47959	22695.55
1610.79447	20491.55
1614.10715	18458.35
1617.41763	16845.95
1620.7259	15744.75
1624.03199	15238.15
1627.33587	15255.15
1630.63757	15826.65
1633.93707	17039.15
1637.23439	19176.65
1640.52951	22540.35
1643.82246	27091.65
1647.11321	31561.55
1650.40179	33588.05
1653.68819	31272.05
1656.97241	25796.45
1660.25446	20422.85
1663.53433	16758.45
1666.81203	14601.25
1670.08756	13368.65
1673.36092	12587.85
1676.63211	12068.85
1679.90115	11723.45
1683.16801	11499.25
1686.43272	11308.45
1689.69527	11152.75
1692.95567	11020.75
1696.2139	10949.65
1699.46999	10902.05
1702.72392	10835.15
1705.97571	10806.05
1709.22535	10775.75
1712.47284	10762.55
1715.71819	10735.95
1718.96139	10702.75
1722.20246	10647.55
1725.44139	10570.85
1728.67818	10445.55
1731.91284	10343.75
1735.14537	10248.45
1738.37576	10224.95
1741.60403	10129.15
1744.83017	10119.05
1748.05418	10099.75
1751.27607	10034.25
1754.49584	10011.55
1757.71349	9993.65
1760.92903	9955.45
1764.14244	9966.75
1767.35375	9935.55
1770.56294	9907.95
1773.77002	9829.35
1776.97499	9813.05
1780.17785	9786.15
1783.37861	9738.55
1786.57727	9714.75
1789.77382	9700.25
1792.96828	9693.35
1796.16064	9654.45
1799.3509	9648.15
1802.53907	9600.65
1805.72514	9555.65
1808.90913	9546.25
1812.09102	9492.15
1815.27083	9473.95
1818.44856	9465.15
1821.6242	9429.95
1824.79776	9409.95
1827.96924	9397.65
1831.13864	9388.75
1834.30597	9348.65
1837.47122	9328.65
1840.6344	9316.55
1843.7955	9315.55
1846.95454	9285.85
1850.11151	9290.15
1853.26642	9278.95
1856.41926	9294.05
1859.57004	9255.75
1862.71876	9255.25
1865.86542	9258.85
1869.01003	9253.95
1872.15258	9232.75
1875.29308	9231.75
1878.43152	9227.75
1881.56792	9246.45
1884.70227	9228.25
1887.83457	9228.95
1890.96482	9245.55
1894.09304	9184.25
1897.21921	9199.75
1900.34335	9202.65
1903.46544	9190.15
1906.58551	9220.85
1909.70353	9181.75
1912.81953	9165.15
1915.93349	9153.15
1919.04543	9131.65
1922.15534	9082.25
1925.26322	9078.65
1928.36908	9042.85
1931.47292	9016.05
1934.57473	8991.95
1937.67453	8972.45
1940.77232	8953.65
1943.86808	8919.35
1946.96184	8893.65
1950.05358	8847.15
1953.14331	8837.95
1956.23103	8818.95
1959.31675	8772.55
1962.40046	8759.45
1965.48217	8766.15
1968.56188	8740.65
1971.63959	8726.35
1974.7153	8721.95
1977.78901	8670.75
1980.86073	8641.35
1983.93046	8596.15
1986.99819	8568.35
1990.06394	8526.45
1993.1277	8494.75
1996.18947	8493.65
1999.24925	8443.15
2002.30706	8378.15
2005.36288	8378.55
2008.41672	8349.35
2011.46859	8314.25
2014.51848	8301.65
2017.56639	8286.65
2020.61233	8249.05
2023.6563	8240.15
2026.6983	8223.05
2029.73833	8185.85
2032.7764	8160.55
2035.8125	8147.55
2038.84664	8137.05
2041.87881	8124.95
2044.90903	8109.65
2047.93729	8090.55
2050.96359	8099.25
2053.98794	8067.65
2057.01034	8048.15
2060.03078	8047.05
2063.04927	8027.25
2066.06582	8010.25
2069.08042	8027.05
2072.09307	8016.75
2075.10378	7995.45
2078.11255	8014.75
2081.11938	8014.15
2084.12426	8001.65
2087.12722	7986.15
2090.12824	8015.65
2093.12732	8004.35
2096.12447	7988.55
2099.11969	7989.95
2102.11299	7976.55
2105.10435	8011.65
2108.09379	7996.85
2111.08131	7994.95
2114.0669	8011.55
2117.05057	8009.55
2120.03233	8002.75
2123.01216	8035.55
2125.99008	8048.05
2128.96609	8054.45
2131.94018	8034.75
2134.91236	8029.25
2137.88263	8050.85
2140.851	8033.95
2143.81746	8051.15
2146.78201	8027.15
2149.74466	8004.65
2152.7054	8012.95
2155.66425	7982.35
2158.6212	7980.65
2161.57625	7983.05
2164.52941	7976.85
2167.48067	7966.65
2170.43004	7986.05
2173.37752	7976.35
2176.32311	7952.35
2179.26681	7975.25
2182.20863	7972.45
2185.14856	7963.85
2188.08661	7980.85
2191.02278	7950.35
2193.95707	7988.25
2196.88948	7969.55
2199.82001	7957.85
2202.74867	7961.35
2205.67545	7942.25
2208.60037	7946.15
2211.52341	7931.85
2214.44458	7933.05
2217.36388	7891.35
2220.28132	7897.95
2223.1969	7892.25
2226.11061	7840.85
2229.02246	7832.65
2231.93245	7836.45
2234.84058	7807.95
2237.74686	7789.15
2240.65128	7784.35
2243.55385	7789.65
2246.45456	7778.05
2249.35343	7780.75
2252.25044	7755.55
2255.14561	7772.35
2258.03893	7776.25
2260.93041	7740.65
2263.82004	7723.35
2266.70783	7716.45
2269.59378	7679.65
2272.4779	7693.35
2275.36017	7662.65
2278.24061	7649.35
2281.11922	7637.15
2283.996	7620.35
2286.87094	7616.15
2289.74405	7555.75
2292.61534	7571.75
2295.4848	7556.55
2298.35243	7534.15
2301.21824	7532.65
2304.08223	7537.25
2306.94439	7544.85
2309.80474	7547.35
2312.66327	7574.15
2315.51999	7554.55
2318.37489	7559.05
2321.22797	7554.25
2324.07925	7527.85
2326.92871	7537.15
2329.77637	7536.45
2332.62222	7516.45
2335.46626	7511.45
2338.3085	7504.05
2341.14893	7513.45
2343.98756	7523.55
2346.8244	7543.55
2349.65943	7542.65
2352.49267	7581.05
2355.32411	7583.05
2358.15376	7561.85
2360.98161	7586.45
2363.80768	7587.35
2366.63195	7594.95
2369.45444	7587.45
2372.27514	7589.65
2375.09405	7554.65
2377.91118	7556.65
2380.72652	7536.35
2383.54009	7476.55
2386.35187	7460.45
2389.16188	7444.85
2391.97011	7412.15
2394.77657	7397.65
2397.58125	7380.35
2400.38416	7355.45
2403.18529	7340.65
2405.98466	7329.45
2408.78226	7310.25
2411.57809	7297.05
2414.37216	7274.45
2417.16446	7294.65
2419.955	7285.65
2422.74378	7272.15
2425.5308	7257.05
2428.31606	7259.55
2431.09956	7256.35
2433.88131	7257.15
2436.6613	7265.25
2439.43954	7276.85
2442.21603	7237.55
2444.99077	7249.05
2447.76377	7266.35
2450.53501	7278.55
2453.30451	7293.55
2456.07226	7273.85
2458.83827	7270.15
2461.60254	7275.05
2464.36507	7253.45
2467.12586	7273.55
2469.88492	7293.85
2472.64224	7300.35
2475.39782	7302.35
2478.15167	7324.55
2480.90379	7340.65
2483.65417	7356.65
2486.40283	7375.35
2489.14976	7393.65
2491.89497	7392.95
2494.63845	7375.95
2497.3802	7405.05
2500.12024	7368.75
2502.85855	7360.55
2505.59514	7345.35
2508.33002	7323.55
2511.06318	7301.55
2513.79462	7263.55
2516.52435	7234.45
2519.25237	7238.45
2521.97867	7213.05
2524.70327	7197.85
2527.42616	7192.25
2530.14734	7213.55
2532.86681	7208.55
2535.58458	7162.75
2538.30065	7177.15
2541.01501	7184.95
2543.72768	7186.45
2546.43864	7185.65
2549.14791	7179.25
2551.85548	7190.25
2554.56136	7165.35
2557.26554	7144.95
2559.96803	7157.75
2562.66883	7156.85
2565.36794	7138.65
2568.06536	7128.85
2570.7611	7131.55
2573.45514	7108.05
2576.14751	7120.25
2578.83819	7123.65
2581.52719	7110.45
2584.21451	7093.75
2586.90015	7094.15
2589.58411	7109.25
2592.2664	7112.65
2594.94701	7100.75
2597.62594	7112.15
2600.30321	7069.45
2602.9788	7080.15
2605.65273	7075.75
2608.32498	7074.15
2610.99557	7064.55
2613.66449	7085.75
2616.33175	7093.45
2618.99734	7102.65
2621.66128	7093.55
2624.32355	7081.15
2626.98416	7080.85
2629.64311	7102.75
2632.30041	7077.15
2634.95605	7085.35
2637.61004	7086.45
2640.26238	7070.45
2642.91306	7075.05
2645.56209	7053.85
2648.20948	7039.95
2650.85521	7029.95
2653.4993	7050.85
2656.14175	7060.05
2658.78255	7054.15
2661.42171	7088.75
2664.05923	7109.95
2666.6951	7104.25
2669.32934	7106.35
2671.96194	7096.65
2674.59291	7128.75
2677.22224	7093.35
2679.84993	7091.35
2682.476	7067.85
2685.10043	7064.25
2687.72324	7068.55
2690.34441	7059.95
2692.96396	7080.05
2695.58188	7063.35
2698.19818	7037.35
2700.81285	7047.65
2703.4259	7051.85
2706.03733	7041.05
2708.64714	7064.15
2711.25533	7079.25
2713.86191	7056.15
2716.46687	7102.65
2719.07021	7100.15
2721.67194	7076.85
2724.27206	7083.35
2726.87057	7099.85
2729.46747	7110.55
2732.06276	7100.55
2734.65644	7090.35
2737.24852	7090.55
2739.83899	7046.55
2742.42786	7064.15
2745.01513	7053.75
2747.60079	7071.65
2750.18486	7050.35
2752.76733	7039.05
2755.3482	7030.75
2757.92747	7028.15
2760.50515	7022.85
2763.08123	7021.65
2765.65573	7026.05
2768.22863	7028.15
2770.79994	7017.95
2773.36967	7016.95
2775.9378	7034.65
2778.50435	7010.95
2781.06932	7026.35
2783.6327	7030.55
2786.1945	7038.35
2788.75471	7033.95
2791.31335	7007.15
2793.87041	7008.45
2796.42589	7008.35
2798.97979	7001.65
2801.53212	6977.55
2804.08288	6994.95
2806.63206	6966.95
2809.17967	6994.05
2811.72571	6964.45
2814.27018	6997.15
2816.81308	6960.55
2819.35442	6964.65
2821.89419	6965.35
2824.43239	6978.05
2826.96904	6952.35
2829.50412	6958.25
2832.03763	6955.25
2834.56959	6948.75
2837.1	6946.25
2839.62884	6953.45
2842.15613	6945.15
2844.68186	6940.55
2847.20604	6940.85
2849.72867	6951.85
2852.24974	6978.95
2854.76927	6967.75
2857.28724	6973.75
2859.80367	6968.35
2862.31855	6967.05
2864.83189	6975.05
2867.34368	6994.55
2869.85393	6986.05
2872.36264	6994.55
2874.8698	6998.85
2877.37543	7010.25
2879.87952	6994.95
2882.38207	6971.05
2884.88308	6982.35
2887.38256	6969.75
2889.88051	6968.35
2892.37692	6983.95
2894.8718	6955.25
2897.36515	6993.25
2899.85698	6986.25
2902.34727	6976.45
2904.83604	6990.65
2907.32328	7011.55
2909.809	7020.25
2912.29319	7018.35
2914.77587	7007.75
2917.25702	7005.85
2919.73665	6982.55
2922.21476	6983.05
2924.69136	6972.75
2927.16644	6972.75
2929.64	6960.95
2932.11205	6932.15
2934.58258	6915.35
2937.05161	6913.95
2939.51912	6911.75
2941.98513	6874.55
2944.44962	6875.95
2946.91261	6851.65
2949.37409	6849.65
2951.83407	6870.15
2954.29254	6869.05
2956.74951	6874.15
2959.20498	6858.55
2961.65895	6862.25
2964.11142	6851.15
2966.56239	6827.25
2969.01186	6826.75
2971.45984	6818.25
2973.90632	6800.45
2976.35131	6761.95
2978.7948	6752.05
2981.23681	6726.25
2983.67732	6704.65
2986.11635	6709.35
2988.55388	6698.35
2990.98993	6655.45
2993.4245	6659.75
2995.85758	6661.45
2998.28917	6655.05
3000.71928	6638.95
3003.14791	6634.15
3005.57506	6647.55
3008.00073	6610.25
3010.42493	6629.45
3012.84764	6600.75
3015.26888	6604.65
3017.68865	6588.85
3020.10694	6586.65
3022.52376	6560.95
3024.9391	6549.95
3027.35298	6529.95
3029.76539	6545.05
3032.17632	6503.25
3034.5858	6493.55
3036.9938	6485.95
3039.40034	6483.45
3041.80542	6482.95
3044.20903	6460.45
3046.61118	6465.55
3049.01187	6453.25
3051.4111	6439.25
3053.80888	6421.35
3056.20519	6409.35
3058.60005	6386.25
3060.99345	6394.65
3063.3854	6364.05
3065.7759	6347.05
3068.16494	6326.35
3070.55254	6305.75
3072.93868	6312.55
3075.32338	6283.45
3077.70662	6283.25
3080.08842	6253.35
3082.46878	6273.25
3084.84769	6261.25
3087.22515	6262.25
3089.60118	6285.75
3091.97576	6259.45
3094.3489	6242.75
3096.72061	6250.15
3099.09087	6256.25
3101.4597	6243.25
3103.82709	6264.95
3106.19305	6233.85
3108.55757	6246.65
3110.92066	6225.35
3113.28232	6218.15
3115.64255	6199.85
3118.00134	6194.15
3120.35871	6176.15
3122.71466	6160.45
3125.06917	6146.15
3127.42226	6141.15
3129.77393	6148.25
3132.12417	6139.25
3134.47299	6152.05
3136.82039	6133.45
3139.16636	6121.65
3141.51092	6128.45
3143.85406	6155.05
3146.19579	6146.65
3148.53609	6144.25
3150.87499	6158.45
3153.21246	6153.15
3155.54853	6173.85
3157.88318	6166.75
3160.21642	6159.55
3162.54826	6162.75
3164.87868	6156.15
3167.2077	6137.75
3169.5353	6156.35
3171.86151	6163.75
3174.18631	6147.55
3176.5097	6153.55
3178.83169	6134.55
3181.15228	6130.65
3183.47147	6109.25
3185.78926	6153.05
3188.10565	6126.35
3190.42065	6112.65
3192.73424	6141.55
3195.04645	6144.25
3197.35725	6122.45
3199.66667	6142.95
3201.97469	6142.75
3204.28132	6152.15
3206.58656	6139.55
3208.8904	6149.75
3211.19287	6136.65
3213.49394	6155.55
3215.79363	6158.55
3218.09193	6167.85
3220.38884	6176.35
3222.68438	6200.85
3224.97853	6191.15
3227.2713	6183.65
3229.56269	6167.15
3231.8527	6194.25
3234.14133	6189.95
3236.42858	6163.45
3238.71446	6170.55
3240.99896	6152.25
3243.28209	6160.05
3245.56384	6146.85
3247.84423	6143.65
3250.12324	6140.85
3252.40088	6144.95
3254.67715	6130.35
3256.95205	6150.35
3259.22558	6140.75
3261.49775	6141.45
3263.76855	6110.05
3266.03799	6104.95
3268.30606	6099.65
3270.57277	6118.95
3272.83812	6086.35
3275.10211	6078.15
3277.36474	6089.75
3279.62601	6082.85
3281.88593	6075.85
3284.14448	6084.35
3286.40168	6111.95
3288.65753	6101.55
3290.91202	6117.25
3293.16516	6106.45
3295.41695	6076.35
3297.66738	6056.75
3299.91647	6039.75
3302.16421	5992.05
3304.4106	5989.15
3306.65564	5956.25
3308.89933	5896.25
3311.14169	5854.25
3313.38269	5813.35
3315.62236	5799.65
3317.86068	5736.35
3320.09766	5681.65
3322.3333	5652.25
3324.5676	5643.95
3326.80056	5539.15
3329.03219	5504.45
3331.26248	2.45
3333.49143	-2.05
3335.71905	2.05
