Data from AgNP_FTO_APTES_UA_100uM_CRN_100uM_R6G_10uM_NaF_0.1M_Addition_RamanShift__29__18-21-20-600.txt Node

Date: Thu Mar 24 18:21:20 GMT 2022
User: TCL
Spectrometer: QEP01345
Trigger mode: 4
Integration Time (sec): 7.000000E0
Scans to average: 10
Electric dark correction enabled: true
Nonlinearity correction enabled: false
Boxcar width: 0
XAxis mode: Raman Shifts
Number of Pixels in Spectrum: 1044
>>>>>Begin Spectral Data<<<<<
46.04893	-1.55
50.45542	-0.35
54.85868	0.45
59.25871	-0.45
63.6555	32.25
68.04907	36.65
72.43941	35.35
76.82654	38.05
81.21044	41.25
85.59113	41.15
89.96862	43.95
94.34289	39.55
98.71396	46.05
103.08183	47.95
107.4465	50.25
111.80798	49.25
116.16626	48.85
120.52136	49.25
124.87327	51.85
129.222	52.75
133.56755	56.35
137.90993	56.65
142.24913	63.25
146.58517	67.25
150.91804	77.35
155.24774	93.55
159.57429	108.95
163.89768	138.75
168.21792	186.85
172.53501	250.05
176.84895	343.85
181.15975	482.45
185.46741	681.05
189.77193	930.85
194.07331	1246.65
198.37157	1612.95
202.6667	1992.05
206.9587	2377.85
211.24758	2769.95
215.53334	3168.05
219.81599	3587.45
224.09553	4063.15
228.37195	4614.75
232.64527	5179.55
236.91549	5787.45
241.18261	6351.55
245.44663	6863.05
249.70755	7289.65
253.96539	7623.85
258.22014	7885.15
262.4718	8138.25
266.72039	8307.05
270.96589	8370.25
275.20832	8375.45
279.44768	8289.65
283.68397	8160.15
287.91719	8107.15
292.14735	8077.15
296.37445	8173.55
300.59849	8310.35
304.81948	8513.15
309.03742	8646.35
313.25231	8640.45
317.46415	8425.95
321.67296	8055.35
325.87872	7732.35
330.08145	7559.55
334.28114	7530.05
338.47781	7593.85
342.67145	7745.25
346.86207	7903.15
351.04966	8166.15
355.23424	8414.15
359.4158	8638.75
363.59435	8719.85
367.76989	8757.35
371.94243	8752.35
376.11196	8744.25
380.27849	8715.35
384.44203	8691.35
388.60257	8697.55
392.76012	8731.25
396.91468	8827.75
401.06626	8961.65
405.21485	9071.75
409.36047	8954.35
413.50311	8674.15
417.64277	8425.45
421.77947	8244.95
425.9132	8208.85
430.04396	8233.25
434.17176	8297.85
438.2966	8351.55
442.41849	8529.65
446.53742	8767.05
450.6534	8972.45
454.76644	9133.55
458.87653	9160.35
462.98368	9066.65
467.08789	8961.15
471.18916	8833.85
475.2875	8696.75
479.38291	8562.15
483.4754	8438.25
487.56496	8337.95
491.6516	8253.85
495.73531	8226.35
499.81612	8183.35
503.89401	8239.75
507.96899	8259.95
512.04106	8294.05
516.11023	8297.95
520.1765	8288.65
524.23987	8285.85
528.30034	8234.95
532.35792	8182.35
536.41261	8101.35
540.46441	7952.75
544.51333	7901.45
548.55936	7958.85
552.60252	8160.05
556.64279	8348.45
560.6802	8467.15
564.71473	8534.55
568.7464	8707.95
572.7752	8950.85
576.80114	9041.25
580.82422	9139.45
584.84444	9281.75
588.86181	9434.95
592.87633	9685.85
596.888	9812.45
600.89682	9785.45
604.9028	10171.25
608.90594	11719.45
612.90624	13723.25
616.90371	12989.35
620.89834	9904.95
624.89015	8391.85
628.87913	8179.05
632.86528	8346.45
636.84862	8495.15
640.82913	8398.45
644.80683	8010.25
648.78172	7781.05
652.75379	7685.45
656.72306	7848.95
660.68952	8096.75
664.65319	8001.95
668.61405	7697.95
672.57211	7577.05
676.52738	7592.55
680.47986	7604.55
684.42955	7512.15
688.37646	7453.35
692.32058	7492.55
696.26192	7545.15
700.20048	7636.25
704.13626	7716.55
708.06928	7718.05
711.99952	7676.05
715.927	7646.35
719.85171	7683.25
723.77365	7699.65
727.69284	7667.25
731.60928	7620.05
735.52295	7612.35
739.43388	7623.85
743.34206	7648.35
747.24749	7649.15
751.15017	7674.35
755.05012	7789.15
758.94733	8097.75
762.8418	8819.15
766.73354	10072.35
770.62254	11277.35
774.50882	11684.55
778.39237	11014.35
782.27321	9772.55
786.15132	8643.35
790.02671	7933.85
793.89938	7592.85
797.76935	7478.55
801.6366	7389.75
805.50115	7335.75
809.36299	7315.35
813.22213	7296.35
817.07857	7263.25
820.93231	7212.35
824.78336	7207.45
828.63172	7175.15
832.47738	7192.25
836.32036	7161.55
840.16066	7157.65
843.99827	7143.55
847.8332	7125.75
851.66546	7143.55
855.49504	7121.65
859.32195	7116.85
863.1462	7089.85
866.96777	7077.65
870.78668	7099.35
874.60293	7099.65
878.41652	7114.45
882.22745	7174.85
886.03573	7215.35
889.84136	7216.05
893.64433	7166.05
897.44466	7160.55
901.24235	7099.25
905.0374	7054.65
908.8298	7008.35
912.61957	6990.65
916.40671	7003.95
920.19121	7087.05
923.97308	7162.55
927.75233	7200.25
931.52895	7187.95
935.30295	7061.75
939.07433	6900.85
942.84309	6770.35
946.60924	6690.25
950.37278	6645.05
954.13371	6625.95
957.89203	6617.25
961.64774	6611.35
965.40086	6585.35
969.15137	6571.35
972.89929	6548.55
976.64461	6524.05
980.38733	6523.15
984.12747	6518.25
987.86502	6556.35
991.59999	6599.65
995.33237	6658.65
999.06217	6791.35
1002.78939	6972.25
1006.51404	7140.15
1010.23611	7301.45
1013.95561	7381.95
1017.67255	7360.45
1021.38692	7259.85
1025.09872	7104.95
1028.80796	6984.25
1032.51465	6981.35
1036.21877	6990.85
1039.92035	7043.65
1043.61937	7076.35
1047.31584	7068.55
1051.00976	7055.55
1054.70114	7060.75
1058.38998	7095.25
1062.07627	7134.95
1065.76003	7199.35
1069.44126	7287.45
1073.11995	7380.25
1076.79611	7535.35
1080.46974	7619.55
1084.14085	7752.35
1087.80943	7881.25
1091.47549	7945.75
1095.13903	7876.05
1098.80005	7699.85
1102.45857	7483.95
1106.11456	7371.45
1109.76805	7365.35
1113.41903	7474.35
1117.06751	7674.15
1120.71348	7895.15
1124.35696	8190.75
1127.99793	8440.25
1131.63641	8453.05
1135.2724	8214.75
1138.90589	7986.65
1142.5369	7832.05
1146.16542	7754.15
1149.79145	7666.25
1153.415	7662.45
1157.03607	7766.55
1160.65467	7939.45
1164.27079	8257.85
1167.88443	8755.55
1171.49561	9465.55
1175.10432	10521.65
1178.71056	11857.95
1182.31434	12964.55
1185.91565	13334.65
1189.51451	13033.65
1193.11091	12374.35
1196.70485	11574.75
1200.29634	10860.25
1203.88538	10305.65
1207.47197	9742.15
1211.05612	9254.35
1214.63782	8952.65
1218.21708	8804.85
1221.79391	8768.95
1225.36829	8761.05
1228.94024	8685.35
1232.50976	8532.85
1236.07685	8421.15
1239.6415	8337.85
1243.20374	8313.85
1246.76355	8358.85
1250.32093	8439.75
1253.8759	8572.65
1257.42845	8811.05
1260.97859	9103.05
1264.52631	9430.25
1268.07163	9760.35
1271.61453	10079.35
1275.15503	10336.35
1278.69312	10560.75
1282.22882	10805.55
1285.76211	11143.95
1289.29301	11601.25
1292.82151	12067.35
1296.34761	12654.25
1299.87133	13447.25
1303.39266	14544.45
1306.9116	15900.55
1310.42815	17262.45
1313.94233	17933.35
1317.45412	17490.15
1320.96354	16604.35
1324.47058	15650.35
1327.97525	14774.75
1331.47754	14141.35
1334.97747	13804.95
1338.47502	13679.95
1341.97022	13833.95
1345.46305	14162.15
1348.95352	14687.55
1352.44163	15377.45
1355.92738	16542.75
1359.41078	18310.95
1362.89183	19973.25
1366.37053	19615.75
1369.84688	17088.95
1373.32088	14320.15
1376.79254	12626.85
1380.26186	11774.45
1383.72883	11324.55
1387.19347	10998.55
1390.65578	10656.95
1394.11575	10447.95
1397.57339	10381.55
1401.0287	10436.75
1404.48168	10481.35
1407.93234	10460.15
1411.38068	10334.75
1414.82669	10126.95
1418.27039	9859.95
1421.71177	9552.75
1425.15083	9241.85
1428.58758	9070.75
1432.02203	9140.75
1435.45416	9312.15
1438.88399	9457.55
1442.31151	9561.05
1445.73673	9678.95
1449.15965	9798.95
1452.58027	9842.55
1455.9986	9850.85
1459.41463	9897.15
1462.82837	10103.65
1466.23982	10435.35
1469.64898	10748.65
1473.05586	11038.05
1476.46045	11225.75
1479.86276	11351.35
1483.26279	11471.75
1486.66054	11658.25
1490.05602	12009.05
1493.44922	12516.15
1496.84016	13226.35
1500.22882	14288.95
1503.61521	15714.75
1506.99934	17235.45
1510.38121	18250.95
1513.76081	18102.35
1517.13816	16782.45
1520.51324	14955.05
1523.88607	13418.25
1527.25665	12459.75
1530.62498	11981.95
1533.99105	11665.05
1537.35488	11360.35
1540.71647	11035.05
1544.07581	10722.75
1547.4329	10461.45
1550.78776	10273.65
1554.14038	10133.45
1557.49077	10174.05
1560.83892	10341.75
1564.18484	10581.05
1567.52853	10934.95
1570.86999	11264.45
1574.20922	11508.15
1577.54624	11449.85
1580.88103	10977.85
1584.2136	10396.15
1587.54395	10193.75
1590.87208	10399.75
1594.19801	10978.15
1597.52172	11694.25
1600.84321	12025.15
1604.16251	11567.15
1607.47959	10782.85
1610.79447	9939.05
1614.10715	9163.05
1617.41763	8506.55
1620.7259	8033.25
1624.03199	7797.95
1627.33587	7743.95
1630.63757	7934.95
1633.93707	8447.85
1637.23439	9312.05
1640.52951	10706.85
1643.82246	12549.55
1647.11321	14403.55
1650.40179	15314.65
1653.68819	14533.65
1656.97241	12483.25
1660.25446	10258.55
1663.53433	8647.25
1666.81203	7644.25
1670.08756	7044.65
1673.36092	6660.55
1676.63211	6445.25
1679.90115	6276.45
1683.16801	6138.05
1686.43272	6027.55
1689.69527	5964.75
1692.95567	5895.85
1696.2139	5858.95
1699.46999	5830.35
1702.72392	5776.05
1705.97571	5760.75
1709.22535	5714.55
1712.47284	5724.55
1715.71819	5701.75
1718.96139	5637.25
1722.20246	5611.65
1725.44139	5584.15
1728.67818	5527.05
1731.91284	5483.55
1735.14537	5438.45
1738.37576	5418.55
1741.60403	5391.55
1744.83017	5375.55
1748.05418	5343.95
1751.27607	5325.95
1754.49584	5288.45
1757.71349	5301.55
1760.92903	5291.15
1764.14244	5274.05
1767.35375	5263.75
1770.56294	5253.35
1773.77002	5203.55
1776.97499	5192.25
1780.17785	5211.15
1783.37861	5182.45
1786.57727	5166.05
1789.77382	5138.05
1792.96828	5135.15
1796.16064	5126.45
1799.3509	5115.75
1802.53907	5114.55
1805.72514	5069.95
1808.90913	5054.85
1812.09102	5049.25
1815.27083	5033.55
1818.44856	5016.35
1821.6242	5003.75
1824.79776	4982.65
1827.96924	4986.25
1831.13864	4953.35
1834.30597	4973.85
1837.47122	4944.65
1840.6344	4931.95
1843.7955	4953.35
1846.95454	4919.15
1850.11151	4929.35
1853.26642	4921.85
1856.41926	4920.75
1859.57004	4916.35
1862.71876	4882.85
1865.86542	4884.75
1869.01003	4918.55
1872.15258	4875.35
1875.29308	4892.45
1878.43152	4878.05
1881.56792	4876.65
1884.70227	4852.45
1887.83457	4862.55
1890.96482	4852.55
1894.09304	4841.75
1897.21921	4851.95
1900.34335	4832.25
1903.46544	4832.55
1906.58551	4840.15
1909.70353	4831.05
1912.81953	4809.55
1915.93349	4796.35
1919.04543	4788.25
1922.15534	4770.35
1925.26322	4770.95
1928.36908	4735.25
1931.47292	4738.45
1934.57473	4707.75
1937.67453	4718.45
1940.77232	4693.45
1943.86808	4676.45
1946.96184	4653.95
1950.05358	4632.75
1953.14331	4630.65
1956.23103	4633.15
1959.31675	4597.35
1962.40046	4589.55
1965.48217	4580.85
1968.56188	4560.25
1971.63959	4552.05
1974.7153	4543.95
1977.78901	4537.75
1980.86073	4496.95
1983.93046	4481.45
1986.99819	4459.55
1990.06394	4454.25
1993.1277	4431.25
1996.18947	4421.15
1999.24925	4390.75
2002.30706	4382.95
2005.36288	4367.95
2008.41672	4338.55
2011.46859	4335.35
2014.51848	4329.55
2017.56639	4307.75
2020.61233	4305.85
2023.6563	4287.75
2026.6983	4278.25
2029.73833	4273.85
2032.7764	4249.65
2035.8125	4227.95
2038.84664	4211.85
2041.87881	4234.05
2044.90903	4197.45
2047.93729	4188.85
2050.96359	4214.65
2053.98794	4185.25
2057.01034	4192.45
2060.03078	4159.65
2063.04927	4154.85
2066.06582	4159.25
2069.08042	4157.95
2072.09307	4136.15
2075.10378	4141.25
2078.11255	4138.25
2081.11938	4146.75
2084.12426	4148.45
2087.12722	4134.05
2090.12824	4119.95
2093.12732	4142.05
2096.12447	4139.35
2099.11969	4132.55
2102.11299	4133.05
2105.10435	4139.05
2108.09379	4136.05
2111.08131	4140.65
2114.0669	4139.45
2117.05057	4140.75
2120.03233	4148.35
2123.01216	4139.95
2125.99008	4142.65
2128.96609	4151.85
2131.94018	4141.65
2134.91236	4137.15
2137.88263	4138.05
2140.851	4156.75
2143.81746	4151.25
2146.78201	4136.65
2149.74466	4125.45
2152.7054	4125.55
2155.66425	4117.45
2158.6212	4117.65
2161.57625	4118.45
2164.52941	4115.05
2167.48067	4103.65
2170.43004	4100.05
2173.37752	4108.65
2176.32311	4092.35
2179.26681	4110.85
2182.20863	4090.95
2185.14856	4122.45
2188.08661	4098.75
2191.02278	4105.85
2193.95707	4092.35
2196.88948	4087.25
2199.82001	4084.25
2202.74867	4088.55
2205.67545	4069.75
2208.60037	4040.75
2211.52341	4041.25
2214.44458	4036.15
2217.36388	4038.55
2220.28132	4017.65
2223.1969	4007.75
2226.11061	4003.95
2229.02246	3990.95
2231.93245	4003.55
2234.84058	3979.95
2237.74686	3992.35
2240.65128	3984.55
2243.55385	3984.45
2246.45456	3971.05
2249.35343	3961.05
2252.25044	3969.95
2255.14561	3943.95
2258.03893	3959.75
2260.93041	3935.15
2263.82004	3940.05
2266.70783	3923.15
2269.59378	3916.65
2272.4779	3916.95
2275.36017	3900.85
2278.24061	3894.65
2281.11922	3873.95
2283.996	3876.35
2286.87094	3860.95
2289.74405	3857.15
2292.61534	3848.95
2295.4848	3823.95
2298.35243	3828.05
2301.21824	3820.25
2304.08223	3831.25
2306.94439	3830.95
2309.80474	3832.25
2312.66327	3820.25
2315.51999	3793.75
2318.37489	3823.75
2321.22797	3804.95
2324.07925	3801.15
2326.92871	3801.85
2329.77637	3807.65
2332.62222	3795.85
2335.46626	3783.15
2338.3085	3773.05
2341.14893	3786.05
2343.98756	3779.95
2346.8244	3777.75
2349.65943	3763.05
2352.49267	3775.85
2355.32411	3774.55
2358.15376	3798.05
2360.98161	3793.55
2363.80768	3788.35
2366.63195	3798.15
2369.45444	3806.55
2372.27514	3795.75
2375.09405	3784.45
2377.91118	3777.75
2380.72652	3766.85
2383.54009	3754.05
2386.35187	3742.95
2389.16188	3736.05
2391.97011	3717.55
2394.77657	3706.65
2397.58125	3691.35
2400.38416	3688.55
2403.18529	3677.45
2405.98466	3665.85
2408.78226	3641.15
2411.57809	3655.75
2414.37216	3639.25
2417.16446	3647.45
2419.955	3636.85
2422.74378	3635.45
2425.5308	3632.75
2428.31606	3628.35
2431.09956	3615.85
2433.88131	3622.15
2436.6613	3613.45
2439.43954	3619.75
2442.21603	3638.55
2444.99077	3623.95
2447.76377	3625.55
2450.53501	3630.25
2453.30451	3617.15
2456.07226	3630.25
2458.83827	3618.95
2461.60254	3618.75
2464.36507	3615.45
2467.12586	3596.35
2469.88492	3619.65
2472.64224	3625.45
2475.39782	3609.25
2478.15167	3620.45
2480.90379	3635.05
2483.65417	3642.55
2486.40283	3635.95
2489.14976	3650.25
2491.89497	3636.75
2494.63845	3654.55
2497.3802	3649.25
2500.12024	3636.05
2502.85855	3628.35
2505.59514	3623.85
2508.33002	3616.15
2511.06318	3607.15
2513.79462	3585.85
2516.52435	3569.35
2519.25237	3567.05
2521.97867	3562.55
2524.70327	3561.35
2527.42616	3547.25
2530.14734	3547.35
2532.86681	3542.05
2535.58458	3549.15
2538.30065	3530.65
2541.01501	3537.65
2543.72768	3537.85
2546.43864	3548.05
2549.14791	3528.25
2551.85548	3532.65
2554.56136	3521.05
2557.26554	3513.85
2559.96803	3507.05
2562.66883	3493.35
2565.36794	3496.55
2568.06536	3512.95
2570.7611	3501.65
2573.45514	3480.25
2576.14751	3478.35
2578.83819	3483.35
2581.52719	3485.95
2584.21451	3475.65
2586.90015	3462.15
2589.58411	3470.25
2592.2664	3451.45
2594.94701	3480.35
2597.62594	3460.15
2600.30321	3446.15
2602.9788	3433.45
2605.65273	3430.95
2608.32498	3426.05
2610.99557	3437.45
2613.66449	3436.25
2616.33175	3425.25
2618.99734	3431.55
2621.66128	3437.15
2624.32355	3444.85
2626.98416	3425.45
2629.64311	3425.25
2632.30041	3417.85
2634.95605	3414.55
2637.61004	3410.35
2640.26238	3406.25
2642.91306	3426.35
2645.56209	3407.55
2648.20948	3412.45
2650.85521	3424.55
2653.4993	3415.15
2656.14175	3411.95
2658.78255	3415.85
2661.42171	3425.75
2664.05923	3433.05
2666.6951	3422.65
2669.32934	3431.15
2671.96194	3429.55
2674.59291	3433.15
2677.22224	3428.85
2679.84993	3420.55
2682.476	3411.15
2685.10043	3411.45
2687.72324	3411.65
2690.34441	3403.55
2692.96396	3416.05
2695.58188	3403.25
2698.19818	3405.65
2700.81285	3406.95
2703.4259	3406.35
2706.03733	3404.95
2708.64714	3402.15
2711.25533	3425.05
2713.86191	3418.45
2716.46687	3425.15
2719.07021	3424.05
2721.67194	3420.65
2724.27206	3419.55
2726.87057	3428.35
2729.46747	3431.05
2732.06276	3415.65
2734.65644	3421.25
2737.24852	3415.65
2739.83899	3419.25
2742.42786	3403.55
2745.01513	3406.35
2747.60079	3400.15
2750.18486	3384.85
2752.76733	3394.85
2755.3482	3392.45
2757.92747	3379.15
2760.50515	3380.35
2763.08123	3372.45
2765.65573	3376.95
2768.22863	3372.95
2770.79994	3372.05
2773.36967	3376.45
2775.9378	3378.35
2778.50435	3373.55
2781.06932	3371.05
2783.6327	3376.95
2786.1945	3382.05
2788.75471	3373.45
2791.31335	3363.55
2793.87041	3356.15
2796.42589	3356.05
2798.97979	3355.95
2801.53212	3344.85
2804.08288	3344.95
2806.63206	3336.65
2809.17967	3341.95
2811.72571	3348.05
2814.27018	3338.15
2816.81308	3337.55
2819.35442	3328.45
2821.89419	3320.15
2824.43239	3320.85
2826.96904	3314.15
2829.50412	3309.35
2832.03763	3315.35
2834.56959	3315.25
2837.1	3303.65
2839.62884	3330.85
2842.15613	3322.75
2844.68186	3326.45
2847.20604	3325.95
2849.72867	3333.15
2852.24974	3314.75
2854.76927	3321.65
2857.28724	3318.75
2859.80367	3309.25
2862.31855	3322.45
2864.83189	3346.75
2867.34368	3331.45
2869.85393	3319.65
2872.36264	3326.45
2874.8698	3322.05
2877.37543	3323.05
2879.87952	3322.85
2882.38207	3315.55
2884.88308	3311.85
2887.38256	3317.85
2889.88051	3323.45
2892.37692	3318.75
2894.8718	3307.45
2897.36515	3329.75
2899.85698	3320.25
2902.34727	3327.25
2904.83604	3325.15
2907.32328	3332.45
2909.809	3336.55
2912.29319	3342.35
2914.77587	3335.75
2917.25702	3336.25
2919.73665	3340.15
2922.21476	3330.85
2924.69136	3325.35
2927.16644	3327.05
2929.64	3319.65
2932.11205	3319.15
2934.58258	3307.75
2937.05161	3308.15
2939.51912	3295.75
2941.98513	3282.05
2944.44962	3288.45
2946.91261	3276.35
2949.37409	3278.05
2951.83407	3274.35
2954.29254	3276.25
2956.74951	3284.25
2959.20498	3262.15
2961.65895	3268.85
2964.11142	3265.65
2966.56239	3249.15
2969.01186	3259.45
2971.45984	3237.55
2973.90632	3231.35
2976.35131	3219.45
2978.7948	3227.05
2981.23681	3206.75
2983.67732	3204.65
2986.11635	3206.45
2988.55388	3184.85
2990.98993	3197.25
2993.4245	3186.75
2995.85758	3175.75
2998.28917	3181.15
3000.71928	3168.15
3003.14791	3166.95
3005.57506	3169.25
3008.00073	3158.05
3010.42493	3161.65
3012.84764	3141.85
3015.26888	3136.45
3017.68865	3124.65
3020.10694	3145.75
3022.52376	3126.75
3024.9391	3118.35
3027.35298	3128.85
3029.76539	3120.85
3032.17632	3109.95
3034.5858	3102.45
3036.9938	3101.95
3039.40034	3102.65
3041.80542	3099.85
3044.20903	3083.15
3046.61118	3099.05
3049.01187	3082.35
3051.4111	3115.35
3053.80888	3086.15
3056.20519	3070.75
3058.60005	3077.35
3060.99345	3069.55
3063.3854	3055.85
3065.7759	3068.05
3068.16494	3051.25
3070.55254	3049.35
3072.93868	3035.85
3075.32338	3046.25
3077.70662	3052.95
3080.08842	3028.05
3082.46878	3025.25
3084.84769	3043.45
3087.22515	3038.85
3089.60118	3038.55
3091.97576	3034.05
3094.3489	3054.95
3096.72061	3050.75
3099.09087	3041.55
3101.4597	3047.25
3103.82709	3040.75
3106.19305	3040.65
3108.55757	3034.55
3110.92066	3036.65
3113.28232	3040.45
3115.64255	3025.75
3118.00134	3031.05
3120.35871	3034.35
3122.71466	3023.85
3125.06917	3017.35
3127.42226	3013.05
3129.77393	3017.35
3132.12417	3010.75
3134.47299	3019.85
3136.82039	3020.05
3139.16636	3015.45
3141.51092	3030.15
3143.85406	3028.15
3146.19579	3033.25
3148.53609	3022.35
3150.87499	3039.75
3153.21246	3049.45
3155.54853	3057.35
3157.88318	3054.75
3160.21642	3061.35
3162.54826	3061.95
3164.87868	3050.45
3167.2077	3066.15
3169.5353	3070.25
3171.86151	3068.05
3174.18631	3075.75
3176.5097	3076.55
3178.83169	3075.95
3181.15228	3061.05
3183.47147	3073.75
3185.78926	3073.15
3188.10565	3081.75
3190.42065	3073.75
3192.73424	3072.45
3195.04645	3077.15
3197.35725	3088.15
3199.66667	3073.55
3201.97469	3091.65
3204.28132	3084.05
3206.58656	3088.85
3208.8904	3093.25
3211.19287	3093.05
3213.49394	3094.55
3215.79363	3104.15
3218.09193	3120.75
3220.38884	3114.95
3222.68438	3109.35
3224.97853	3117.75
3227.2713	3104.85
3229.56269	3109.25
3231.8527	3112.65
3234.14133	3114.35
3236.42858	3106.75
3238.71446	3093.95
3240.99896	3084.85
3243.28209	3089.55
3245.56384	3085.85
3247.84423	3090.35
3250.12324	3083.95
3252.40088	3090.75
3254.67715	3078.45
3256.95205	3087.85
3259.22558	3086.15
3261.49775	3080.45
3263.76855	3076.65
3266.03799	3083.05
3268.30606	3070.15
3270.57277	3070.95
3272.83812	3048.75
3275.10211	3056.05
3277.36474	3050.95
3279.62601	3062.55
3281.88593	3064.15
3284.14448	3069.15
3286.40168	3063.05
3288.65753	3064.95
3290.91202	3064.55
3293.16516	3047.25
3295.41695	3040.85
3297.66738	3028.35
3299.91647	3014.65
3302.16421	3006.85
3304.4106	2994.25
3306.65564	2982.55
3308.89933	2956.55
3311.14169	2934.15
3313.38269	2917.75
3315.62236	2897.45
3317.86068	2882.35
3320.09766	2853.15
3322.3333	2827.85
3324.5676	2831.25
3326.80056	2773.55
3329.03219	2767.85
3331.26248	1.35
3333.49143	-1.55
3335.71905	1.35
