Data from AgNP_FTO_APTES_UA_100uM_CRN_100uM_R6G_10uM_NaF_0.1M_Addition_RamanShift__17__18-07-20-585.txt Node

Date: Thu Mar 24 18:07:20 GMT 2022
User: TCL
Spectrometer: QEP01345
Trigger mode: 4
Integration Time (sec): 7.000000E0
Scans to average: 10
Electric dark correction enabled: true
Nonlinearity correction enabled: false
Boxcar width: 0
XAxis mode: Raman Shifts
Number of Pixels in Spectrum: 1044
>>>>>Begin Spectral Data<<<<<
46.04893	-0.55
50.45542	0.95
54.85868	-1.15
59.25871	0.25
63.6555	31.65
68.04907	33.65
72.43941	30.95
76.82654	31.95
81.21044	37.55
85.59113	39.65
89.96862	40.05
94.34289	41.15
98.71396	45.65
103.08183	42.95
107.4465	44.15
111.80798	45.35
116.16626	45.35
120.52136	47.15
124.87327	45.25
129.222	48.65
133.56755	53.55
137.90993	53.25
142.24913	60.65
146.58517	63.75
150.91804	73.85
155.24774	86.95
159.57429	105.15
163.89768	134.45
168.21792	176.75
172.53501	232.55
176.84895	329.25
181.15975	462.25
185.46741	644.45
189.77193	894.25
194.07331	1197.75
198.37157	1547.65
202.6667	1921.15
206.9587	2290.95
211.24758	2657.25
215.53334	3026.25
219.81599	3425.15
224.09553	3886.85
228.37195	4372.15
232.64527	4905.15
236.91549	5476.85
241.18261	6006.75
245.44663	6508.45
249.70755	6903.15
253.96539	7240.65
258.22014	7535.25
262.4718	7759.35
266.72039	7943.55
270.96589	7987.35
275.20832	8002.05
279.44768	7937.35
283.68397	7882.65
287.91719	7785.65
292.14735	7759.45
296.37445	7825.65
300.59849	7927.25
304.81948	8092.15
309.03742	8188.15
313.25231	8187.45
317.46415	8002.35
321.67296	7697.65
325.87872	7425.35
330.08145	7286.15
334.28114	7267.35
338.47781	7336.45
342.67145	7462.35
346.86207	7610.25
351.04966	7829.55
355.23424	8056.75
359.4158	8217.25
363.59435	8308.35
367.76989	8352.85
371.94243	8368.15
376.11196	8366.55
380.27849	8360.75
384.44203	8329.45
388.60257	8357.25
392.76012	8397.05
396.91468	8487.65
401.06626	8623.25
405.21485	8722.95
409.36047	8640.25
413.50311	8417.05
417.64277	8187.65
421.77947	8049.65
425.9132	8000.45
430.04396	8039.25
434.17176	8069.25
438.2966	8127.15
442.41849	8241.95
446.53742	8400.25
450.6534	8568.65
454.76644	8675.65
458.87653	8706.25
462.98368	8653.35
467.08789	8584.65
471.18916	8518.85
475.2875	8425.05
479.38291	8322.75
483.4754	8236.75
487.56496	8161.25
491.6516	8116.65
495.73531	8098.95
499.81612	8086.55
503.89401	8154.55
507.96899	8189.05
512.04106	8185.95
516.11023	8227.75
520.1765	8217.05
524.23987	8223.15
528.30034	8158.45
532.35792	8111.85
536.41261	8037.65
540.46441	7940.55
544.51333	7922.15
548.55936	7979.85
552.60252	8084.95
556.64279	8259.55
560.6802	8333.05
564.71473	8366.85
568.7464	8497.85
572.7752	8665.65
576.80114	8762.05
580.82422	8872.25
584.84444	9006.35
588.86181	9100.35
592.87633	9205.85
596.888	9277.15
600.89682	9323.35
604.9028	9711.45
608.90594	10999.75
612.90624	12690.95
616.90371	12099.65
620.89834	9580.35
624.89015	8333.65
628.87913	8158.35
632.86528	8313.95
636.84862	8478.35
640.82913	8414.25
644.80683	8133.55
648.78172	7863.35
652.75379	7802.05
656.72306	7935.25
660.68952	8124.95
664.65319	8088.35
668.61405	7851.75
672.57211	7736.45
676.52738	7754.85
680.47986	7731.55
684.42955	7692.65
688.37646	7639.05
692.32058	7638.95
696.26192	7688.65
700.20048	7778.45
704.13626	7849.85
708.06928	7852.65
711.99952	7844.05
715.927	7808.45
719.85171	7832.85
723.77365	7845.45
727.69284	7804.05
731.60928	7762.05
735.52295	7721.95
739.43388	7725.75
743.34206	7740.65
747.24749	7756.95
751.15017	7798.15
755.05012	7900.45
758.94733	8106.05
762.8418	8720.35
766.73354	9738.25
770.62254	10730.45
774.50882	11058.45
778.39237	10537.25
782.27321	9539.15
786.15132	8612.85
790.02671	8038.65
793.89938	7718.05
797.76935	7601.55
801.6366	7568.35
805.50115	7525.75
809.36299	7498.95
813.22213	7470.15
817.07857	7459.35
820.93231	7444.55
824.78336	7421.35
828.63172	7415.55
832.47738	7380.55
836.32036	7362.15
840.16066	7352.75
843.99827	7342.05
847.8332	7331.25
851.66546	7335.75
855.49504	7345.25
859.32195	7339.15
863.1462	7302.85
866.96777	7291.25
870.78668	7310.35
874.60293	7319.65
878.41652	7344.55
882.22745	7372.15
886.03573	7398.25
889.84136	7409.45
893.64433	7376.75
897.44466	7354.85
901.24235	7312.85
905.0374	7288.85
908.8298	7237.35
912.61957	7230.55
916.40671	7260.15
920.19121	7306.05
923.97308	7358.15
927.75233	7368.65
931.52895	7379.85
935.30295	7266.65
939.07433	7115.45
942.84309	7007.25
946.60924	6943.45
950.37278	6903.45
954.13371	6883.95
957.89203	6857.05
961.64774	6852.95
965.40086	6858.05
969.15137	6837.45
972.89929	6800.85
976.64461	6778.15
980.38733	6771.65
984.12747	6771.65
987.86502	6772.05
991.59999	6800.25
995.33237	6840.65
999.06217	6933.95
1002.78939	7014.55
1006.51404	7175.25
1010.23611	7276.45
1013.95561	7333.85
1017.67255	7328.85
1021.38692	7284.75
1025.09872	7153.15
1028.80796	7077.45
1032.51465	7037.05
1036.21877	7033.25
1039.92035	7064.05
1043.61937	7103.45
1047.31584	7151.85
1051.00976	7171.65
1054.70114	7201.55
1058.38998	7210.05
1062.07627	7270.25
1065.76003	7334.35
1069.44126	7400.65
1073.11995	7520.85
1076.79611	7639.15
1080.46974	7731.05
1084.14085	7827.55
1087.80943	7909.15
1091.47549	7982.35
1095.13903	7936.35
1098.80005	7768.05
1102.45857	7580.45
1106.11456	7473.95
1109.76805	7435.95
1113.41903	7507.15
1117.06751	7642.95
1120.71348	7853.85
1124.35696	8081.95
1127.99793	8293.25
1131.63641	8304.35
1135.2724	8113.05
1138.90589	7938.65
1142.5369	7788.75
1146.16542	7703.45
1149.79145	7622.35
1153.415	7612.15
1157.03607	7651.55
1160.65467	7775.65
1164.27079	8000.85
1167.88443	8380.55
1171.49561	8920.85
1175.10432	9703.15
1178.71056	10739.15
1182.31434	11623.45
1185.91565	11914.75
1189.51451	11715.95
1193.11091	11276.35
1196.70485	10691.05
1200.29634	10154.95
1203.88538	9696.15
1207.47197	9223.55
1211.05612	8802.15
1214.63782	8532.45
1218.21708	8367.55
1221.79391	8279.65
1225.36829	8269.65
1228.94024	8239.25
1232.50976	8184.85
1236.07685	8096.35
1239.6415	8069.05
1243.20374	8056.15
1246.76355	8097.85
1250.32093	8104.85
1253.8759	8222.65
1257.42845	8415.05
1260.97859	8651.65
1264.52631	8907.15
1268.07163	9136.25
1271.61453	9364.65
1275.15503	9584.05
1278.69312	9709.75
1282.22882	9899.75
1285.76211	10156.25
1289.29301	10477.05
1292.82151	10818.55
1296.34761	11266.55
1299.87133	11820.75
1303.39266	12593.95
1306.9116	13590.55
1310.42815	14623.65
1313.94233	15081.35
1317.45412	14746.35
1320.96354	14076.95
1324.47058	13397.75
1327.97525	12753.55
1331.47754	12314.55
1334.97747	12065.35
1338.47502	12011.85
1341.97022	12137.65
1345.46305	12456.35
1348.95352	12895.35
1352.44163	13491.75
1355.92738	14387.15
1359.41078	15700.85
1362.89183	17012.25
1366.37053	16824.65
1369.84688	14854.45
1373.32088	12703.15
1376.79254	11300.35
1380.26186	10540.75
1383.72883	10131.45
1387.19347	9838.95
1390.65578	9547.95
1394.11575	9319.55
1397.57339	9206.95
1401.0287	9164.45
1404.48168	9131.95
1407.93234	9088.15
1411.38068	8991.55
1414.82669	8858.75
1418.27039	8686.55
1421.71177	8498.75
1425.15083	8309.55
1428.58758	8178.05
1432.02203	8181.95
1435.45416	8267.65
1438.88399	8331.85
1442.31151	8416.75
1445.73673	8502.65
1449.15965	8593.55
1452.58027	8642.25
1455.9986	8590.95
1459.41463	8681.55
1462.82837	8838.25
1466.23982	9062.75
1469.64898	9300.65
1473.05586	9491.75
1476.46045	9656.25
1479.86276	9772.45
1483.26279	9918.75
1486.66054	10106.55
1490.05602	10416.15
1493.44922	10866.65
1496.84016	11573.35
1500.22882	12607.15
1503.61521	13952.35
1506.99934	15310.85
1510.38121	16173.15
1513.76081	16057.75
1517.13816	14960.75
1520.51324	13433.95
1523.88607	12109.05
1527.25665	11277.55
1530.62498	10810.35
1533.99105	10510.55
1537.35488	10223.05
1540.71647	9970.45
1544.07581	9734.45
1547.4329	9474.25
1550.78776	9323.15
1554.14038	9237.35
1557.49077	9255.35
1560.83892	9364.45
1564.18484	9575.75
1567.52853	9891.05
1570.86999	10164.45
1574.20922	10355.95
1577.54624	10309.05
1580.88103	9913.55
1584.2136	9390.45
1587.54395	9136.55
1590.87208	9212.85
1594.19801	9562.05
1597.52172	10067.85
1600.84321	10219.55
1604.16251	9918.65
1607.47959	9390.25
1610.79447	8869.65
1614.10715	8349.35
1617.41763	7902.65
1620.7259	7523.15
1624.03199	7332.75
1627.33587	7293.35
1630.63757	7387.85
1633.93707	7673.35
1637.23439	8273.85
1640.52951	9253.45
1643.82246	10573.25
1647.11321	12021.05
1650.40179	12859.15
1653.68819	12453.25
1656.97241	11012.15
1660.25446	9337.05
1663.53433	8041.55
1666.81203	7252.25
1670.08756	6771.45
1673.36092	6494.25
1676.63211	6312.05
1679.90115	6180.85
1683.16801	6059.85
1686.43272	5966.35
1689.69527	5903.65
1692.95567	5833.55
1696.2139	5794.65
1699.46999	5781.95
1702.72392	5746.55
1705.97571	5718.85
1709.22535	5683.55
1712.47284	5675.55
1715.71819	5667.95
1718.96139	5629.95
1722.20246	5598.05
1725.44139	5563.15
1728.67818	5535.05
1731.91284	5461.45
1735.14537	5437.05
1738.37576	5407.65
1741.60403	5393.15
1744.83017	5356.85
1748.05418	5331.15
1751.27607	5316.65
1754.49584	5302.55
1757.71349	5303.75
1760.92903	5274.35
1764.14244	5285.45
1767.35375	5260.45
1770.56294	5242.75
1773.77002	5222.95
1776.97499	5188.05
1780.17785	5177.45
1783.37861	5164.25
1786.57727	5151.75
1789.77382	5149.65
1792.96828	5151.05
1796.16064	5110.15
1799.3509	5111.85
1802.53907	5087.85
1805.72514	5058.25
1808.90913	5052.65
1812.09102	5026.15
1815.27083	5033.45
1818.44856	5005.75
1821.6242	4988.85
1824.79776	4978.15
1827.96924	4968.65
1831.13864	4958.15
1834.30597	4962.85
1837.47122	4954.35
1840.6344	4932.95
1843.7955	4935.65
1846.95454	4925.55
1850.11151	4909.65
1853.26642	4921.75
1856.41926	4913.95
1859.57004	4909.05
1862.71876	4897.45
1865.86542	4872.05
1869.01003	4868.55
1872.15258	4868.35
1875.29308	4857.75
1878.43152	4839.15
1881.56792	4856.05
1884.70227	4849.25
1887.83457	4819.95
1890.96482	4836.75
1894.09304	4808.35
1897.21921	4814.45
1900.34335	4792.35
1903.46544	4795.75
1906.58551	4792.55
1909.70353	4777.25
1912.81953	4770.35
1915.93349	4747.95
1919.04543	4743.05
1922.15534	4734.05
1925.26322	4712.15
1928.36908	4700.45
1931.47292	4694.05
1934.57473	4685.85
1937.67453	4672.35
1940.77232	4651.65
1943.86808	4639.15
1946.96184	4610.35
1950.05358	4597.75
1953.14331	4586.25
1956.23103	4566.35
1959.31675	4556.95
1962.40046	4522.35
1965.48217	4531.35
1968.56188	4513.05
1971.63959	4503.55
1974.7153	4500.15
1977.78901	4485.75
1980.86073	4460.55
1983.93046	4429.55
1986.99819	4428.45
1990.06394	4395.35
1993.1277	4388.45
1996.18947	4365.25
1999.24925	4354.25
2002.30706	4343.25
2005.36288	4314.85
2008.41672	4294.25
2011.46859	4280.05
2014.51848	4272.15
2017.56639	4254.65
2020.61233	4236.05
2023.6563	4220.15
2026.6983	4218.65
2029.73833	4207.95
2032.7764	4189.65
2035.8125	4177.65
2038.84664	4163.85
2041.87881	4133.25
2044.90903	4131.05
2047.93729	4122.05
2050.96359	4112.85
2053.98794	4097.55
2057.01034	4102.05
2060.03078	4093.25
2063.04927	4086.15
2066.06582	4076.15
2069.08042	4084.95
2072.09307	4080.45
2075.10378	4069.45
2078.11255	4062.35
2081.11938	4074.35
2084.12426	4088.25
2087.12722	4068.75
2090.12824	4059.55
2093.12732	4064.45
2096.12447	4058.85
2099.11969	4051.35
2102.11299	4063.45
2105.10435	4060.75
2108.09379	4051.85
2111.08131	4058.25
2114.0669	4056.25
2117.05057	4063.15
2120.03233	4056.55
2123.01216	4061.65
2125.99008	4055.15
2128.96609	4071.05
2131.94018	4055.25
2134.91236	4049.05
2137.88263	4050.75
2140.851	4051.55
2143.81746	4040.05
2146.78201	4055.75
2149.74466	4041.55
2152.7054	4038.05
2155.66425	4034.35
2158.6212	4033.75
2161.57625	4028.65
2164.52941	4013.55
2167.48067	4023.95
2170.43004	4009.15
2173.37752	4005.05
2176.32311	4005.55
2179.26681	3990.45
2182.20863	3998.45
2185.14856	4005.45
2188.08661	3992.85
2191.02278	3991.75
2193.95707	3996.05
2196.88948	3968.05
2199.82001	3984.15
2202.74867	3968.95
2205.67545	3978.85
2208.60037	3970.15
2211.52341	3934.45
2214.44458	3927.75
2217.36388	3924.85
2220.28132	3917.25
2223.1969	3900.35
2226.11061	3883.35
2229.02246	3882.35
2231.93245	3881.85
2234.84058	3867.25
2237.74686	3873.55
2240.65128	3863.15
2243.55385	3844.85
2246.45456	3836.15
2249.35343	3839.65
2252.25044	3834.05
2255.14561	3829.85
2258.03893	3834.65
2260.93041	3807.95
2263.82004	3804.85
2266.70783	3798.45
2269.59378	3787.35
2272.4779	3772.45
2275.36017	3781.45
2278.24061	3765.75
2281.11922	3762.05
2283.996	3732.45
2286.87094	3734.45
2289.74405	3725.05
2292.61534	3708.45
2295.4848	3712.75
2298.35243	3704.15
2301.21824	3696.75
2304.08223	3680.55
2306.94439	3689.25
2309.80474	3688.45
2312.66327	3667.15
2315.51999	3656.95
2318.37489	3660.65
2321.22797	3658.25
2324.07925	3650.25
2326.92871	3655.45
2329.77637	3659.25
2332.62222	3642.75
2335.46626	3626.95
2338.3085	3623.45
2341.14893	3623.45
2343.98756	3604.15
2346.8244	3615.05
2349.65943	3624.85
2352.49267	3620.65
2355.32411	3620.55
2358.15376	3615.15
2360.98161	3623.15
2363.80768	3621.45
2366.63195	3629.25
2369.45444	3632.45
2372.27514	3631.65
2375.09405	3615.55
2377.91118	3606.05
2380.72652	3585.85
2383.54009	3575.35
2386.35187	3575.85
2389.16188	3564.65
2391.97011	3547.95
2394.77657	3534.45
2397.58125	3514.55
2400.38416	3517.15
2403.18529	3501.35
2405.98466	3486.25
2408.78226	3488.45
2411.57809	3490.95
2414.37216	3474.65
2417.16446	3454.85
2419.955	3464.05
2422.74378	3449.55
2425.5308	3445.15
2428.31606	3451.15
2431.09956	3454.75
2433.88131	3438.35
2436.6613	3441.35
2439.43954	3442.85
2442.21603	3432.55
2444.99077	3427.65
2447.76377	3430.65
2450.53501	3431.75
2453.30451	3431.55
2456.07226	3419.65
2458.83827	3422.05
2461.60254	3430.75
2464.36507	3428.35
2467.12586	3423.35
2469.88492	3409.15
2472.64224	3414.05
2475.39782	3420.45
2478.15167	3431.05
2480.90379	3426.35
2483.65417	3412.45
2486.40283	3423.05
2489.14976	3424.05
2491.89497	3412.45
2494.63845	3428.05
2497.3802	3413.05
2500.12024	3415.75
2502.85855	3393.15
2505.59514	3386.85
2508.33002	3388.15
2511.06318	3360.85
2513.79462	3365.45
2516.52435	3340.15
2519.25237	3341.95
2521.97867	3330.95
2524.70327	3327.75
2527.42616	3320.05
2530.14734	3318.75
2532.86681	3311.85
2535.58458	3305.65
2538.30065	3300.05
2541.01501	3284.55
2543.72768	3294.55
2546.43864	3297.25
2549.14791	3288.25
2551.85548	3289.75
2554.56136	3269.65
2557.26554	3269.65
2559.96803	3269.35
2562.66883	3252.15
2565.36794	3263.05
2568.06536	3246.65
2570.7611	3249.45
2573.45514	3236.65
2576.14751	3226.65
2578.83819	3217.65
2581.52719	3214.05
2584.21451	3204.05
2586.90015	3192.85
2589.58411	3206.85
2592.2664	3202.45
2594.94701	3180.15
2597.62594	3184.95
2600.30321	3187.25
2602.9788	3184.35
2605.65273	3155.95
2608.32498	3157.85
2610.99557	3165.15
2613.66449	3159.75
2616.33175	3166.25
2618.99734	3161.65
2621.66128	3157.85
2624.32355	3149.05
2626.98416	3145.55
2629.64311	3144.45
2632.30041	3125.35
2634.95605	3128.95
2637.61004	3133.65
2640.26238	3112.55
2642.91306	3115.95
2645.56209	3121.55
2648.20948	3112.95
2650.85521	3114.65
2653.4993	3108.15
2656.14175	3105.75
2658.78255	3110.85
2661.42171	3113.45
2664.05923	3113.35
2666.6951	3111.75
2669.32934	3126.05
2671.96194	3110.55
2674.59291	3114.95
2677.22224	3102.55
2679.84993	3103.65
2682.476	3101.25
2685.10043	3107.05
2687.72324	3096.25
2690.34441	3091.95
2692.96396	3093.95
2695.58188	3084.05
2698.19818	3088.45
2700.81285	3097.55
2703.4259	3085.75
2706.03733	3083.35
2708.64714	3094.95
2711.25533	3090.75
2713.86191	3087.85
2716.46687	3102.55
2719.07021	3104.25
2721.67194	3104.35
2724.27206	3099.85
2726.87057	3099.25
2729.46747	3095.45
2732.06276	3087.45
2734.65644	3078.45
2737.24852	3090.25
2739.83899	3062.35
2742.42786	3080.35
2745.01513	3062.05
2747.60079	3069.75
2750.18486	3054.65
2752.76733	3063.95
2755.3482	3040.85
2757.92747	3043.85
2760.50515	3041.95
2763.08123	3033.25
2765.65573	3030.55
2768.22863	3024.85
2770.79994	3020.65
2773.36967	3027.05
2775.9378	3027.55
2778.50435	3010.05
2781.06932	3007.55
2783.6327	3009.85
2786.1945	3002.95
2788.75471	3001.65
2791.31335	2977.85
2793.87041	3001.55
2796.42589	2991.25
2798.97979	2993.45
2801.53212	2972.85
2804.08288	2976.85
2806.63206	2969.05
2809.17967	2974.85
2811.72571	2975.25
2814.27018	2978.65
2816.81308	2955.05
2819.35442	2950.75
2821.89419	2951.65
2824.43239	2942.45
2826.96904	2944.65
2829.50412	2936.85
2832.03763	2937.25
2834.56959	2955.15
2837.1	2934.75
2839.62884	2942.05
2842.15613	2932.75
2844.68186	2958.75
2847.20604	2944.85
2849.72867	2957.35
2852.24974	2944.35
2854.76927	2946.55
2857.28724	2937.05
2859.80367	2942.05
2862.31855	2938.15
2864.83189	2952.45
2867.34368	2943.25
2869.85393	2939.95
2872.36264	2939.85
2874.8698	2932.15
2877.37543	2929.45
2879.87952	2943.05
2882.38207	2930.95
2884.88308	2934.95
2887.38256	2939.05
2889.88051	2925.25
2892.37692	2935.35
2894.8718	2924.35
2897.36515	2921.85
2899.85698	2925.55
2902.34727	2934.25
2904.83604	2925.05
2907.32328	2930.45
2909.809	2933.35
2912.29319	2929.15
2914.77587	2932.45
2917.25702	2936.05
2919.73665	2931.35
2922.21476	2925.75
2924.69136	2917.65
2927.16644	2923.05
2929.64	2924.45
2932.11205	2917.25
2934.58258	2896.15
2937.05161	2904.05
2939.51912	2894.85
2941.98513	2898.05
2944.44962	2882.95
2946.91261	2873.35
2949.37409	2868.95
2951.83407	2871.95
2954.29254	2880.55
2956.74951	2879.75
2959.20498	2867.05
2961.65895	2860.25
2964.11142	2853.35
2966.56239	2853.75
2969.01186	2840.85
2971.45984	2841.55
2973.90632	2842.15
2976.35131	2812.75
2978.7948	2819.95
2981.23681	2814.35
2983.67732	2798.55
2986.11635	2800.15
2988.55388	2803.95
2990.98993	2803.15
2993.4245	2794.85
2995.85758	2790.15
2998.28917	2772.25
3000.71928	2774.45
3003.14791	2777.55
3005.57506	2767.05
3008.00073	2762.65
3010.42493	2764.25
3012.84764	2758.25
3015.26888	2744.55
3017.68865	2748.85
3020.10694	2761.45
3022.52376	2749.25
3024.9391	2734.75
3027.35298	2729.45
3029.76539	2725.75
3032.17632	2713.75
3034.5858	2720.85
3036.9938	2723.05
3039.40034	2712.25
3041.80542	2712.35
3044.20903	2709.45
3046.61118	2709.75
3049.01187	2700.85
3051.4111	2712.65
3053.80888	2685.15
3056.20519	2692.25
3058.60005	2690.45
3060.99345	2685.05
3063.3854	2667.35
3065.7759	2661.25
3068.16494	2668.05
3070.55254	2651.15
3072.93868	2655.85
3075.32338	2653.65
3077.70662	2649.85
3080.08842	2652.35
3082.46878	2638.85
3084.84769	2645.75
3087.22515	2650.45
3089.60118	2645.05
3091.97576	2651.45
3094.3489	2654.75
3096.72061	2652.45
3099.09087	2659.25
3101.4597	2656.35
3103.82709	2651.85
3106.19305	2668.65
3108.55757	2658.55
3110.92066	2650.05
3113.28232	2644.15
3115.64255	2656.05
3118.00134	2649.25
3120.35871	2648.75
3122.71466	2645.95
3125.06917	2632.25
3127.42226	2643.45
3129.77393	2632.35
3132.12417	2637.95
3134.47299	2642.25
3136.82039	2642.05
3139.16636	2635.95
3141.51092	2641.05
3143.85406	2652.55
3146.19579	2655.15
3148.53609	2654.85
3150.87499	2657.15
3153.21246	2680.35
3155.54853	2683.65
3157.88318	2678.35
3160.21642	2698.95
3162.54826	2686.35
3164.87868	2683.05
3167.2077	2694.15
3169.5353	2695.95
3171.86151	2693.25
3174.18631	2714.45
3176.5097	2699.45
3178.83169	2703.25
3181.15228	2698.15
3183.47147	2703.55
3185.78926	2702.85
3188.10565	2701.45
3190.42065	2706.15
3192.73424	2702.25
3195.04645	2694.85
3197.35725	2707.05
3199.66667	2699.55
3201.97469	2708.85
3204.28132	2703.95
3206.58656	2729.15
3208.8904	2710.35
3211.19287	2720.25
3213.49394	2719.15
3215.79363	2727.15
3218.09193	2727.45
3220.38884	2729.45
3222.68438	2722.65
3224.97853	2737.05
3227.2713	2733.65
3229.56269	2729.75
3231.8527	2720.95
3234.14133	2720.65
3236.42858	2720.65
3238.71446	2716.45
3240.99896	2703.25
3243.28209	2712.25
3245.56384	2701.95
3247.84423	2706.25
3250.12324	2711.75
3252.40088	2695.85
3254.67715	2688.85
3256.95205	2693.45
3259.22558	2684.35
3261.49775	2686.15
3263.76855	2679.75
3266.03799	2677.75
3268.30606	2691.25
3270.57277	2670.85
3272.83812	2669.05
3275.10211	2671.55
3277.36474	2666.55
3279.62601	2660.65
3281.88593	2676.45
3284.14448	2666.15
3286.40168	2671.05
3288.65753	2669.15
3290.91202	2656.65
3293.16516	2661.25
3295.41695	2655.85
3297.66738	2628.95
3299.91647	2626.65
3302.16421	2611.25
3304.4106	2606.65
3306.65564	2598.05
3308.89933	2572.45
3311.14169	2557.45
3313.38269	2536.65
3315.62236	2531.95
3317.86068	2503.75
3320.09766	2480.35
3322.3333	2463.45
3324.5676	2469.95
3326.80056	2425.35
3329.03219	2408.85
3331.26248	0.45
3333.49143	-0.95
3335.71905	1.05
