Data from AgNP_FTO_APTES_UA_100uM_CRN_1uM_R6G_10uM_NaF_0.1M_Addition_RamanShift__11__12-01-00-167.txt Node

Date: Thu Mar 24 12:01:00 GMT 2022
User: TCL
Spectrometer: QEP01345
Trigger mode: 4
Integration Time (sec): 7.000000E0
Scans to average: 10
Electric dark correction enabled: true
Nonlinearity correction enabled: false
Boxcar width: 0
XAxis mode: Raman Shifts
Number of Pixels in Spectrum: 1044
>>>>>Begin Spectral Data<<<<<
46.04893	-1.35
50.45542	0.65
54.85868	-0.15
59.25871	-0.15
63.6555	47.55
68.04907	51.05
72.43941	51.65
76.82654	52.75
81.21044	58.75
85.59113	58.15
89.96862	62.95
94.34289	60.55
98.71396	63.25
103.08183	66.15
107.4465	66.45
111.80798	67.95
116.16626	70.35
120.52136	73.65
124.87327	71.95
129.222	78.35
133.56755	86.85
137.90993	92.35
142.24913	102.85
146.58517	114.95
150.91804	133.95
155.24774	164.95
159.57429	205.55
163.89768	264.65
168.21792	352.65
172.53501	480.95
176.84895	686.25
181.15975	952.95
185.46741	1345.65
189.77193	1860.65
194.07331	2490.65
198.37157	3213.35
202.6667	3992.15
206.9587	4746.95
211.24758	5505.55
215.53334	6269.35
219.81599	7091.45
224.09553	7975.65
228.37195	8974.05
232.64527	10073.15
236.91549	11233.55
241.18261	12375.05
245.44663	13413.95
249.70755	14242.25
253.96539	14956.35
258.22014	15500.85
262.4718	15936.15
266.72039	16247.85
270.96589	16369.15
275.20832	16346.85
279.44768	16248.95
283.68397	16091.75
287.91719	15996.25
292.14735	15916.45
296.37445	15920.25
300.59849	16028.35
304.81948	16198.95
309.03742	16339.15
313.25231	16369.65
317.46415	16212.85
321.67296	15875.85
325.87872	15585.05
330.08145	15407.25
334.28114	15375.95
338.47781	15472.85
342.67145	15682.65
346.86207	15970.55
351.04966	16333.25
355.23424	16617.35
359.4158	16888.25
363.59435	16981.55
367.76989	17034.75
371.94243	16981.35
376.11196	16971.95
380.27849	16959.95
384.44203	16995.75
388.60257	17087.25
392.76012	17286.05
396.91468	17509.05
401.06626	17808.45
405.21485	17971.45
409.36047	17734.25
413.50311	17342.35
417.64277	16973.95
421.77947	16935.05
425.9132	17006.55
430.04396	17113.45
434.17176	17210.25
438.2966	17360.25
442.41849	17734.15
446.53742	18307.45
450.6534	18952.35
454.76644	19319.15
458.87653	19395.25
462.98368	19261.35
467.08789	19041.45
471.18916	18722.85
475.2875	18378.15
479.38291	18124.65
483.4754	17907.75
487.56496	17711.35
491.6516	17417.15
495.73531	17163.25
499.81612	17028.55
503.89401	17065.95
507.96899	17153.55
512.04106	17144.55
516.11023	17038.95
520.1765	16926.95
524.23987	16879.15
528.30034	16823.45
532.35792	16740.15
536.41261	16474.95
540.46441	16212.15
544.51333	16089.75
548.55936	16205.35
552.60252	16551.85
556.64279	17080.05
560.6802	17531.35
564.71473	17809.95
568.7464	18237.55
572.7752	19080.45
576.80114	20006.95
580.82422	20638.15
584.84444	21273.75
588.86181	22409.25
592.87633	23975.25
596.888	24701.85
600.89682	23564.75
604.9028	22451.75
608.90594	23459.35
612.90624	25092.55
616.90371	23326.65
620.89834	19092.45
624.89015	17075.75
628.87913	16852.95
632.86528	17125.05
636.84862	17211.45
640.82913	16827.45
644.80683	16240.55
648.78172	15825.75
652.75379	15774.85
656.72306	16018.95
660.68952	16420.05
664.65319	16315.45
668.61405	15882.35
672.57211	15784.35
676.52738	15817.35
680.47986	15821.55
684.42955	15687.25
688.37646	15563.45
692.32058	15653.85
696.26192	15841.05
700.20048	16114.95
704.13626	16355.45
708.06928	16482.85
711.99952	16423.95
715.927	16392.35
719.85171	16396.15
723.77365	16303.75
727.69284	16031.85
731.60928	15824.75
735.52295	15775.95
739.43388	15870.85
743.34206	16006.95
747.24749	16122.95
751.15017	16321.25
755.05012	16642.75
758.94733	17258.25
762.8418	18389.15
766.73354	20374.85
770.62254	22181.75
774.50882	22372.05
778.39237	21060.85
782.27321	19276.75
786.15132	17791.55
790.02671	16816.05
793.89938	16230.95
797.76935	15945.85
801.6366	15772.35
805.50115	15639.35
809.36299	15539.55
813.22213	15418.65
817.07857	15357.85
820.93231	15365.25
824.78336	15263.65
828.63172	15231.65
832.47738	15179.85
836.32036	15139.65
840.16066	15158.75
843.99827	15148.65
847.8332	15165.65
851.66546	15232.45
855.49504	15262.05
859.32195	15252.85
863.1462	15185.25
866.96777	15148.65
870.78668	15101.85
874.60293	15127.25
878.41652	15163.95
882.22745	15221.85
886.03573	15315.95
889.84136	15332.65
893.64433	15265.45
897.44466	15202.25
901.24235	15159.65
905.0374	15135.25
908.8298	15067.45
912.61957	15021.15
916.40671	15201.35
920.19121	15431.85
923.97308	15730.55
927.75233	15777.45
931.52895	15615.05
935.30295	15236.05
939.07433	14857.65
942.84309	14564.45
946.60924	14414.05
950.37278	14376.15
954.13371	14380.75
957.89203	14348.25
961.64774	14371.95
965.40086	14398.05
969.15137	14374.75
972.89929	14332.15
976.64461	14304.15
980.38733	14235.05
984.12747	14238.95
987.86502	14294.45
991.59999	14411.15
995.33237	14541.55
999.06217	14806.75
1002.78939	15220.55
1006.51404	15707.85
1010.23611	16132.25
1013.95561	16360.05
1017.67255	16397.85
1021.38692	16115.15
1025.09872	15643.95
1028.80796	15229.55
1032.51465	15050.15
1036.21877	15109.15
1039.92035	15197.75
1043.61937	15293.65
1047.31584	15399.25
1051.00976	15423.55
1054.70114	15529.55
1058.38998	15623.25
1062.07627	15752.85
1065.76003	15946.25
1069.44126	16183.65
1073.11995	16567.25
1076.79611	16931.95
1080.46974	17159.15
1084.14085	17394.35
1087.80943	17702.45
1091.47549	17852.85
1095.13903	17876.95
1098.80005	17526.75
1102.45857	17009.35
1106.11456	16652.65
1109.76805	16519.75
1113.41903	16564.75
1117.06751	16766.95
1120.71348	17035.55
1124.35696	17365.05
1127.99793	17683.05
1131.63641	17809.45
1135.2724	17678.35
1138.90589	17547.55
1142.5369	17543.85
1146.16542	17658.95
1149.79145	17914.35
1153.415	18169.75
1157.03607	18420.95
1160.65467	18829.75
1164.27079	19500.25
1167.88443	20489.45
1171.49561	21988.25
1175.10432	24036.95
1178.71056	26563.35
1182.31434	28826.75
1185.91565	29667.55
1189.51451	29267.55
1193.11091	28204.35
1196.70485	26881.05
1200.29634	25463.25
1203.88538	24230.75
1207.47197	23347.85
1211.05612	22786.75
1214.63782	22341.85
1218.21708	21944.45
1221.79391	21787.15
1225.36829	21809.65
1228.94024	21781.95
1232.50976	21375.85
1236.07685	20687.45
1239.6415	20207.45
1243.20374	19945.85
1246.76355	19923.55
1250.32093	20111.05
1253.8759	20504.25
1257.42845	21143.45
1260.97859	21908.35
1264.52631	22720.05
1268.07163	23565.15
1271.61453	24279.35
1275.15503	25070.05
1278.69312	25886.25
1282.22882	26847.75
1285.76211	28092.55
1289.29301	29608.85
1292.82151	31233.25
1296.34761	33110.25
1299.87133	35254.35
1303.39266	37565.05
1306.9116	39791.55
1310.42815	41658.75
1313.94233	42501.95
1317.45412	41772.05
1320.96354	40213.35
1324.47058	38729.65
1327.97525	37492.25
1331.47754	36506.95
1334.97747	35760.05
1338.47502	35317.95
1341.97022	35148.05
1345.46305	35225.95
1348.95352	35527.25
1352.44163	36075.25
1355.92738	37431.35
1359.41078	39732.75
1362.89183	42099.65
1366.37053	42153.35
1369.84688	38646.65
1373.32088	33713.75
1376.79254	30288.45
1380.26186	28823.75
1383.72883	28362.95
1387.19347	28034.65
1390.65578	27640.75
1394.11575	27373.75
1397.57339	27413.45
1401.0287	27466.45
1404.48168	27401.95
1407.93234	27080.85
1411.38068	26443.65
1414.82669	25581.65
1418.27039	24681.05
1421.71177	23820.05
1425.15083	23084.55
1428.58758	22704.35
1432.02203	22826.15
1435.45416	23310.65
1438.88399	23764.95
1442.31151	24064.15
1445.73673	24375.85
1449.15965	24592.85
1452.58027	24765.35
1455.9986	24826.05
1459.41463	25109.15
1462.82837	25577.15
1466.23982	26286.25
1469.64898	26858.35
1473.05586	27255.65
1476.46045	27525.85
1479.86276	27685.35
1483.26279	27775.35
1486.66054	28009.65
1490.05602	28579.35
1493.44922	29494.65
1496.84016	30439.15
1500.22882	31594.65
1503.61521	32830.05
1506.99934	34064.25
1510.38121	34678.05
1513.76081	34472.45
1517.13816	33280.25
1520.51324	31815.85
1523.88607	30814.75
1527.25665	30370.75
1530.62498	30220.85
1533.99105	29941.25
1537.35488	29239.05
1540.71647	28261.65
1544.07581	27083.25
1547.4329	25987.25
1550.78776	25194.15
1554.14038	24642.85
1557.49077	24464.65
1560.83892	24522.25
1564.18484	24772.35
1567.52853	25154.25
1570.86999	25608.45
1574.20922	26068.75
1577.54624	26247.35
1580.88103	25899.25
1584.2136	25506.25
1587.54395	25884.35
1590.87208	27043.65
1594.19801	28772.35
1597.52172	30561.05
1600.84321	30992.05
1604.16251	29499.75
1607.47959	27059.15
1610.79447	24487.85
1614.10715	22209.55
1617.41763	20446.55
1620.7259	19243.45
1624.03199	18683.85
1627.33587	18689.75
1630.63757	19272.45
1633.93707	20706.95
1637.23439	23272.85
1640.52951	27362.45
1643.82246	32578.15
1647.11321	37024.25
1650.40179	38099.25
1653.68819	35069.05
1656.97241	29604.55
1660.25446	24254.35
1663.53433	20400.25
1666.81203	17983.25
1670.08756	16543.25
1673.36092	15701.85
1676.63211	15145.25
1679.90115	14748.45
1683.16801	14450.15
1686.43272	14247.75
1689.69527	14081.85
1692.95567	13944.05
1696.2139	13838.15
1699.46999	13755.55
1702.72392	13698.35
1705.97571	13653.95
1709.22535	13603.55
1712.47284	13601.35
1715.71819	13562.25
1718.96139	13506.65
1722.20246	13440.25
1725.44139	13408.65
1728.67818	13305.95
1731.91284	13172.85
1735.14537	13083.05
1738.37576	13012.65
1741.60403	12928.95
1744.83017	12921.15
1748.05418	12860.85
1751.27607	12810.65
1754.49584	12757.55
1757.71349	12741.55
1760.92903	12705.15
1764.14244	12694.35
1767.35375	12695.75
1770.56294	12678.85
1773.77002	12631.05
1776.97499	12612.65
1780.17785	12596.75
1783.37861	12539.55
1786.57727	12519.25
1789.77382	12516.35
1792.96828	12472.95
1796.16064	12460.15
1799.3509	12436.45
1802.53907	12371.55
1805.72514	12336.25
1808.90913	12313.35
1812.09102	12270.35
1815.27083	12231.85
1818.44856	12216.15
1821.6242	12177.45
1824.79776	12160.15
1827.96924	12148.85
1831.13864	12142.75
1834.30597	12119.85
1837.47122	12130.85
1840.6344	12129.15
1843.7955	12126.05
1846.95454	12099.85
1850.11151	12108.55
1853.26642	12123.25
1856.41926	12108.45
1859.57004	12113.75
1862.71876	12059.95
1865.86542	12045.95
1869.01003	12040.75
1872.15258	12014.05
1875.29308	12015.65
1878.43152	12000.15
1881.56792	11970.55
1884.70227	11950.65
1887.83457	11981.85
1890.96482	11960.65
1894.09304	11918.45
1897.21921	11918.75
1900.34335	11921.65
1903.46544	11908.25
1906.58551	11891.45
1909.70353	11869.55
1912.81953	11837.25
1915.93349	11802.65
1919.04543	11792.85
1922.15534	11775.35
1925.26322	11698.15
1928.36908	11675.45
1931.47292	11653.45
1934.57473	11615.25
1937.67453	11580.95
1940.77232	11562.65
1943.86808	11527.45
1946.96184	11490.75
1950.05358	11457.35
1953.14331	11442.35
1956.23103	11425.65
1959.31675	11355.45
1962.40046	11363.75
1965.48217	11298.75
1968.56188	11266.45
1971.63959	11258.55
1974.7153	11202.55
1977.78901	11146.85
1980.86073	11106.05
1983.93046	11082.95
1986.99819	11036.05
1990.06394	10983.25
1993.1277	10934.85
1996.18947	10918.35
1999.24925	10879.15
2002.30706	10820.35
2005.36288	10790.15
2008.41672	10767.05
2011.46859	10736.05
2014.51848	10703.15
2017.56639	10658.45
2020.61233	10643.55
2023.6563	10609.55
2026.6983	10590.35
2029.73833	10556.35
2032.7764	10528.15
2035.8125	10498.75
2038.84664	10469.55
2041.87881	10445.95
2044.90903	10418.25
2047.93729	10421.65
2050.96359	10400.55
2053.98794	10357.65
2057.01034	10320.65
2060.03078	10330.45
2063.04927	10300.45
2066.06582	10305.65
2069.08042	10315.15
2072.09307	10312.05
2075.10378	10293.95
2078.11255	10265.35
2081.11938	10288.45
2084.12426	10318.05
2087.12722	10288.35
2090.12824	10317.25
2093.12732	10317.45
2096.12447	10315.05
2099.11969	10289.75
2102.11299	10315.35
2105.10435	10308.85
2108.09379	10325.35
2111.08131	10323.85
2114.0669	10344.25
2117.05057	10305.75
2120.03233	10316.35
2123.01216	10336.55
2125.99008	10331.65
2128.96609	10318.25
2131.94018	10341.35
2134.91236	10349.65
2137.88263	10322.65
2140.851	10303.05
2143.81746	10300.25
2146.78201	10317.55
2149.74466	10309.15
2152.7054	10272.55
2155.66425	10290.45
2158.6212	10308.05
2161.57625	10283.05
2164.52941	10232.65
2167.48067	10232.35
2170.43004	10231.05
2173.37752	10210.35
2176.32311	10200.95
2179.26681	10212.65
2182.20863	10178.65
2185.14856	10202.15
2188.08661	10189.15
2191.02278	10186.35
2193.95707	10167.35
2196.88948	10121.65
2199.82001	10128.15
2202.74867	10101.05
2205.67545	10063.45
2208.60037	10074.15
2211.52341	10056.55
2214.44458	10053.45
2217.36388	10029.35
2220.28132	10007.65
2223.1969	9969.85
2226.11061	9954.35
2229.02246	9956.55
2231.93245	9942.35
2234.84058	9916.55
2237.74686	9918.95
2240.65128	9903.75
2243.55385	9880.95
2246.45456	9865.45
2249.35343	9856.75
2252.25044	9837.65
2255.14561	9802.05
2258.03893	9797.75
2260.93041	9761.85
2263.82004	9727.35
2266.70783	9721.75
2269.59378	9692.85
2272.4779	9698.25
2275.36017	9635.65
2278.24061	9614.75
2281.11922	9603.45
2283.996	9572.15
2286.87094	9559.25
2289.74405	9558.55
2292.61534	9531.75
2295.4848	9502.65
2298.35243	9531.95
2301.21824	9504.55
2304.08223	9494.25
2306.94439	9478.15
2309.80474	9487.05
2312.66327	9479.15
2315.51999	9446.15
2318.37489	9438.15
2321.22797	9432.85
2324.07925	9431.05
2326.92871	9396.15
2329.77637	9415.05
2332.62222	9400.55
2335.46626	9359.65
2338.3085	9340.95
2341.14893	9340.95
2343.98756	9367.95
2346.8244	9354.85
2349.65943	9357.35
2352.49267	9349.65
2355.32411	9367.85
2358.15376	9368.45
2360.98161	9334.35
2363.80768	9343.05
2366.63195	9345.25
2369.45444	9329.95
2372.27514	9320.75
2375.09405	9322.45
2377.91118	9335.85
2380.72652	9267.25
2383.54009	9223.15
2386.35187	9238.35
2389.16188	9203.85
2391.97011	9180.05
2394.77657	9159.75
2397.58125	9133.15
2400.38416	9133.95
2403.18529	9106.15
2405.98466	9098.55
2408.78226	9070.15
2411.57809	9078.75
2414.37216	9075.45
2417.16446	9060.75
2419.955	9062.05
2422.74378	9028.25
2425.5308	9019.15
2428.31606	9009.85
2431.09956	9018.35
2433.88131	8987.95
2436.6613	8980.85
2439.43954	8994.45
2442.21603	9015.15
2444.99077	9001.05
2447.76377	8992.35
2450.53501	8999.05
2453.30451	8993.45
2456.07226	8990.75
2458.83827	8984.05
2461.60254	8968.25
2464.36507	8981.75
2467.12586	8975.45
2469.88492	8946.05
2472.64224	8963.75
2475.39782	8954.85
2478.15167	8932.35
2480.90379	8963.75
2483.65417	8958.05
2486.40283	8949.95
2489.14976	8954.95
2491.89497	8938.15
2494.63845	8961.25
2497.3802	8968.45
2500.12024	8962.35
2502.85855	8957.05
2505.59514	8944.95
2508.33002	8916.95
2511.06318	8914.05
2513.79462	8895.65
2516.52435	8886.95
2519.25237	8873.05
2521.97867	8868.45
2524.70327	8830.65
2527.42616	8816.75
2530.14734	8838.05
2532.86681	8827.95
2535.58458	8810.85
2538.30065	8802.45
2541.01501	8811.75
2543.72768	8803.75
2546.43864	8775.55
2549.14791	8781.05
2551.85548	8747.35
2554.56136	8740.65
2557.26554	8715.05
2559.96803	8737.55
2562.66883	8745.55
2565.36794	8750.15
2568.06536	8718.85
2570.7611	8697.65
2573.45514	8689.25
2576.14751	8669.95
2578.83819	8666.65
2581.52719	8686.35
2584.21451	8647.35
2586.90015	8663.85
2589.58411	8607.45
2592.2664	8610.45
2594.94701	8596.75
2597.62594	8595.95
2600.30321	8570.35
2602.9788	8575.35
2605.65273	8585.65
2608.32498	8552.45
2610.99557	8540.15
2613.66449	8562.85
2616.33175	8563.65
2618.99734	8563.55
2621.66128	8552.65
2624.32355	8513.05
2626.98416	8535.65
2629.64311	8518.35
2632.30041	8514.75
2634.95605	8482.95
2637.61004	8477.45
2640.26238	8477.25
2642.91306	8475.95
2645.56209	8473.05
2648.20948	8484.95
2650.85521	8501.35
2653.4993	8477.15
2656.14175	8489.75
2658.78255	8528.85
2661.42171	8511.45
2664.05923	8538.05
2666.6951	8518.75
2669.32934	8534.65
2671.96194	8519.45
2674.59291	8532.55
2677.22224	8523.65
2679.84993	8530.35
2682.476	8518.75
2685.10043	8508.75
2687.72324	8508.35
2690.34441	8530.15
2692.96396	8498.75
2695.58188	8525.85
2698.19818	8498.05
2700.81285	8519.15
2703.4259	8479.35
2706.03733	8499.15
2708.64714	8503.95
2711.25533	8507.85
2713.86191	8505.25
2716.46687	8509.85
2719.07021	8516.25
2721.67194	8511.65
2724.27206	8504.65
2726.87057	8520.45
2729.46747	8517.15
2732.06276	8528.85
2734.65644	8505.25
2737.24852	8509.05
2739.83899	8509.05
2742.42786	8501.85
2745.01513	8483.95
2747.60079	8479.45
2750.18486	8468.45
2752.76733	8472.35
2755.3482	8471.25
2757.92747	8445.85
2760.50515	8451.05
2763.08123	8468.25
2765.65573	8437.05
2768.22863	8445.25
2770.79994	8447.25
2773.36967	8442.95
2775.9378	8403.65
2778.50435	8402.45
2781.06932	8393.45
2783.6327	8392.55
2786.1945	8384.35
2788.75471	8361.15
2791.31335	8362.75
2793.87041	8366.25
2796.42589	8328.55
2798.97979	8322.95
2801.53212	8312.15
2804.08288	8350.25
2806.63206	8350.85
2809.17967	8304.15
2811.72571	8301.15
2814.27018	8295.55
2816.81308	8254.25
2819.35442	8252.65
2821.89419	8230.25
2824.43239	8243.25
2826.96904	8213.65
2829.50412	8231.85
2832.03763	8212.55
2834.56959	8192.15
2837.1	8200.35
2839.62884	8176.05
2842.15613	8195.25
2844.68186	8192.35
2847.20604	8174.05
2849.72867	8191.05
2852.24974	8187.25
2854.76927	8183.45
2857.28724	8149.05
2859.80367	8188.35
2862.31855	8161.35
2864.83189	8129.35
2867.34368	8136.15
2869.85393	8141.45
2872.36264	8147.55
2874.8698	8138.95
2877.37543	8150.35
2879.87952	8126.45
2882.38207	8106.65
2884.88308	8135.25
2887.38256	8109.25
2889.88051	8124.85
2892.37692	8119.05
2894.8718	8112.05
2897.36515	8141.15
2899.85698	8111.05
2902.34727	8139.75
2904.83604	8126.75
2907.32328	8141.25
2909.809	8144.65
2912.29319	8121.15
2914.77587	8143.75
2917.25702	8141.55
2919.73665	8114.85
2922.21476	8131.75
2924.69136	8122.95
2927.16644	8132.95
2929.64	8109.55
2932.11205	8096.45
2934.58258	8058.05
2937.05161	8076.55
2939.51912	8083.95
2941.98513	8064.45
2944.44962	8032.05
2946.91261	8001.75
2949.37409	8027.45
2951.83407	8049.65
2954.29254	8016.25
2956.74951	7994.85
2959.20498	7965.55
2961.65895	7932.65
2964.11142	7930.85
2966.56239	7913.45
2969.01186	7900.65
2971.45984	7897.55
2973.90632	7866.55
2976.35131	7835.75
2978.7948	7821.25
2981.23681	7784.55
2983.67732	7791.15
2986.11635	7780.35
2988.55388	7732.65
2990.98993	7721.25
2993.4245	7701.75
2995.85758	7694.35
2998.28917	7672.35
3000.71928	7655.65
3003.14791	7628.75
3005.57506	7619.75
3008.00073	7614.55
3010.42493	7605.95
3012.84764	7587.55
3015.26888	7579.05
3017.68865	7551.55
3020.10694	7530.05
3022.52376	7507.25
3024.9391	7493.65
3027.35298	7491.65
3029.76539	7474.85
3032.17632	7449.85
3034.5858	7442.15
3036.9938	7446.05
3039.40034	7424.15
3041.80542	7418.55
3044.20903	7394.65
3046.61118	7375.35
3049.01187	7375.85
3051.4111	7370.35
3053.80888	7357.05
3056.20519	7338.95
3058.60005	7312.05
3060.99345	7318.95
3063.3854	7299.65
3065.7759	7276.95
3068.16494	7267.85
3070.55254	7248.15
3072.93868	7237.45
3075.32338	7201.15
3077.70662	7187.25
3080.08842	7164.65
3082.46878	7170.15
3084.84769	7142.55
3087.22515	7149.85
3089.60118	7133.45
3091.97576	7110.55
3094.3489	7118.85
3096.72061	7086.65
3099.09087	7086.15
3101.4597	7094.05
3103.82709	7074.45
3106.19305	7055.15
3108.55757	7057.15
3110.92066	7012.75
3113.28232	7020.55
3115.64255	6988.25
3118.00134	6963.85
3120.35871	6966.05
3122.71466	6955.65
3125.06917	6934.15
3127.42226	6948.35
3129.77393	6946.15
3132.12417	6925.25
3134.47299	6944.85
3136.82039	6927.75
3139.16636	6964.45
3141.51092	6911.75
3143.85406	6915.95
3146.19579	6929.35
3148.53609	6905.45
3150.87499	6902.55
3153.21246	6927.85
3155.54853	6903.15
3157.88318	6906.05
3160.21642	6899.45
3162.54826	6884.95
3164.87868	6882.05
3167.2077	6848.95
3169.5353	6838.85
3171.86151	6851.25
3174.18631	6857.65
3176.5097	6849.85
3178.83169	6859.35
3181.15228	6845.95
3183.47147	6826.55
3185.78926	6832.05
3188.10565	6821.45
3190.42065	6790.05
3192.73424	6794.25
3195.04645	6801.45
3197.35725	6818.65
3199.66667	6790.05
3201.97469	6808.65
3204.28132	6801.05
3206.58656	6813.15
3208.8904	6781.85
3211.19287	6775.45
3213.49394	6776.95
3215.79363	6781.35
3218.09193	6767.25
3220.38884	6765.75
3222.68438	6749.15
3224.97853	6744.45
3227.2713	6751.85
3229.56269	6745.95
3231.8527	6745.15
3234.14133	6725.55
3236.42858	6734.65
3238.71446	6710.35
3240.99896	6716.35
3243.28209	6682.15
3245.56384	6663.55
3247.84423	6700.65
3250.12324	6674.05
3252.40088	6639.85
3254.67715	6644.95
3256.95205	6630.15
3259.22558	6595.55
3261.49775	6598.45
3263.76855	6592.05
3266.03799	6560.95
3268.30606	6561.95
3270.57277	6545.55
3272.83812	6538.85
3275.10211	6534.65
3277.36474	6533.15
3279.62601	6522.65
3281.88593	6520.35
3284.14448	6517.45
3286.40168	6527.25
3288.65753	6508.85
3290.91202	6494.95
3293.16516	6487.75
3295.41695	6480.75
3297.66738	6437.45
3299.91647	6419.45
3302.16421	6366.75
3304.4106	6380.35
3306.65564	6334.45
3308.89933	6298.35
3311.14169	6239.35
3313.38269	6174.95
3315.62236	6159.65
3317.86068	6111.75
3320.09766	6016.75
3322.3333	5963.15
3324.5676	5987.65
3326.80056	5859.45
3329.03219	5828.85
3331.26248	1.95
3333.49143	-1.15
3335.71905	-0.35
