Data from AgNP_FTO_APTES_UA_100uM_CRN_2uM_R6G_10uM_NaF_0.1M_Addition_RamanShift__7__13-53-00-297.txt Node

Date: Thu Mar 24 13:53:00 GMT 2022
User: TCL
Spectrometer: QEP01345
Trigger mode: 4
Integration Time (sec): 7.000000E0
Scans to average: 10
Electric dark correction enabled: true
Nonlinearity correction enabled: false
Boxcar width: 0
XAxis mode: Raman Shifts
Number of Pixels in Spectrum: 1044
>>>>>Begin Spectral Data<<<<<
46.04893	-1.15
50.45542	-0.65
54.85868	0.25
59.25871	0.35
63.6555	39.55
68.04907	41.25
72.43941	41.05
76.82654	40.85
81.21044	48.55
85.59113	48.55
89.96862	53.95
94.34289	50.25
98.71396	56.85
103.08183	53.25
107.4465	56.55
111.80798	56.75
116.16626	59.15
120.52136	60.35
124.87327	62.95
129.222	65.95
133.56755	68.25
137.90993	71.95
142.24913	85.15
146.58517	95.45
150.91804	112.85
155.24774	129.25
159.57429	166.15
163.89768	207.95
168.21792	272.15
172.53501	378.95
176.84895	534.05
181.15975	745.55
185.46741	1046.85
189.77193	1440.25
194.07331	1932.95
198.37157	2509.05
202.6667	3097.65
206.9587	3709.75
211.24758	4321.85
215.53334	4935.15
219.81599	5615.75
224.09553	6340.65
228.37195	7182.05
232.64527	8077.45
236.91549	9058.95
241.18261	9905.75
245.44663	10628.65
249.70755	11222.65
253.96539	11695.05
258.22014	12109.05
262.4718	12424.85
266.72039	12654.15
270.96589	12737.85
275.20832	12777.35
279.44768	12691.75
283.68397	12584.45
287.91719	12548.15
292.14735	12566.05
296.37445	12698.05
300.59849	12927.05
304.81948	13224.25
309.03742	13515.55
313.25231	13581.05
317.46415	13312.65
321.67296	12761.75
325.87872	12200.55
330.08145	11902.95
334.28114	11862.95
338.47781	11943.75
342.67145	12171.45
346.86207	12457.95
351.04966	12828.25
355.23424	13175.25
359.4158	13428.25
363.59435	13551.35
367.76989	13537.65
371.94243	13459.55
376.11196	13403.95
380.27849	13339.25
384.44203	13318.45
388.60257	13349.25
392.76012	13423.65
396.91468	13581.45
401.06626	13856.15
405.21485	14002.95
409.36047	13843.55
413.50311	13357.15
417.64277	12915.65
421.77947	12748.85
425.9132	12725.05
430.04396	12776.75
434.17176	12848.05
438.2966	12946.35
442.41849	13160.55
446.53742	13533.85
450.6534	13943.65
454.76644	14194.75
458.87653	14240.95
462.98368	14143.75
467.08789	13984.65
471.18916	13779.55
475.2875	13533.85
479.38291	13315.25
483.4754	13174.35
487.56496	13017.65
491.6516	12860.15
495.73531	12695.45
499.81612	12637.25
503.89401	12717.65
507.96899	12813.65
512.04106	12847.25
516.11023	12807.05
520.1765	12763.75
524.23987	12705.85
528.30034	12636.15
532.35792	12536.65
536.41261	12308.05
540.46441	12123.35
544.51333	12034.75
548.55936	12162.65
552.60252	12502.15
556.64279	12955.75
560.6802	13186.05
564.71473	13360.25
568.7464	13768.95
572.7752	14354.25
576.80114	14750.75
580.82422	15008.85
584.84444	15252.15
588.86181	15647.05
592.87633	16123.95
596.888	16266.75
600.89682	15897.35
604.9028	16162.35
608.90594	18376.35
612.90624	21216.25
616.90371	19996.25
620.89834	15167.55
624.89015	12796.65
628.87913	12424.15
632.86528	12687.65
636.84862	12940.65
640.82913	12694.35
644.80683	12162.85
648.78172	11756.45
652.75379	11729.95
656.72306	11994.25
660.68952	12415.65
664.65319	12299.65
668.61405	11882.65
672.57211	11697.25
676.52738	11668.85
680.47986	11651.65
684.42955	11528.75
688.37646	11451.35
692.32058	11484.15
696.26192	11617.25
700.20048	11811.65
704.13626	11972.75
708.06928	12036.75
711.99952	11989.95
715.927	11969.65
719.85171	11976.55
723.77365	11942.35
727.69284	11799.75
731.60928	11627.35
735.52295	11586.45
739.43388	11623.35
743.34206	11677.35
747.24749	11788.95
751.15017	11871.05
755.05012	12160.05
758.94733	12731.95
762.8418	14018.95
766.73354	16172.95
770.62254	18141.55
774.50882	18530.85
778.39237	17239.45
782.27321	15318.35
786.15132	13601.15
790.02671	12510.75
793.89938	11929.55
797.76935	11664.15
801.6366	11504.95
805.50115	11420.85
809.36299	11317.15
813.22213	11288.15
817.07857	11272.35
820.93231	11251.45
824.78336	11224.05
828.63172	11208.85
832.47738	11167.15
836.32036	11140.15
840.16066	11105.75
843.99827	11083.75
847.8332	11080.65
851.66546	11073.55
855.49504	11122.05
859.32195	11110.35
863.1462	11099.85
866.96777	11037.85
870.78668	11009.45
874.60293	11052.45
878.41652	11063.65
882.22745	11119.95
886.03573	11155.25
889.84136	11155.35
893.64433	11135.25
897.44466	11110.75
901.24235	11075.25
905.0374	11034.45
908.8298	10985.95
912.61957	10954.95
916.40671	11068.95
920.19121	11213.35
923.97308	11401.85
927.75233	11439.05
931.52895	11355.75
935.30295	11116.45
939.07433	10783.15
942.84309	10533.05
946.60924	10411.35
950.37278	10337.15
954.13371	10334.45
957.89203	10314.65
961.64774	10312.95
965.40086	10300.05
969.15137	10289.55
972.89929	10247.85
976.64461	10220.95
980.38733	10207.35
984.12747	10200.35
987.86502	10227.85
991.59999	10308.85
995.33237	10397.15
999.06217	10572.45
1002.78939	10827.25
1006.51404	11147.35
1010.23611	11437.25
1013.95561	11603.15
1017.67255	11561.15
1021.38692	11396.75
1025.09872	11108.45
1028.80796	10857.85
1032.51465	10761.35
1036.21877	10801.05
1039.92035	10854.35
1043.61937	10977.15
1047.31584	11043.35
1051.00976	11105.55
1054.70114	11203.15
1058.38998	11232.95
1062.07627	11336.55
1065.76003	11499.95
1069.44126	11679.25
1073.11995	11945.75
1076.79611	12196.25
1080.46974	12372.55
1084.14085	12571.05
1087.80943	12810.55
1091.47549	13002.95
1095.13903	12982.35
1098.80005	12614.15
1102.45857	12205.45
1106.11456	11905.05
1109.76805	11825.75
1113.41903	11919.85
1117.06751	12141.15
1120.71348	12486.65
1124.35696	12917.25
1127.99793	13288.95
1131.63641	13323.65
1135.2724	12970.15
1138.90589	12674.45
1142.5369	12498.45
1146.16542	12460.45
1149.79145	12499.65
1153.415	12605.65
1157.03607	12757.25
1160.65467	13027.85
1164.27079	13578.35
1167.88443	14361.95
1171.49561	15565.65
1175.10432	17387.65
1178.71056	19561.95
1182.31434	21381.25
1185.91565	21920.45
1189.51451	21462.45
1193.11091	20608.65
1196.70485	19437.75
1200.29634	18284.45
1203.88538	17303.45
1207.47197	16376.35
1211.05612	15609.25
1214.63782	15067.65
1218.21708	14741.65
1221.79391	14617.85
1225.36829	14658.25
1228.94024	14586.95
1232.50976	14360.15
1236.07685	13995.15
1239.6415	13778.45
1243.20374	13716.85
1246.76355	13733.35
1250.32093	13899.85
1253.8759	14159.75
1257.42845	14606.25
1260.97859	15187.25
1264.52631	15776.25
1268.07163	16373.55
1271.61453	16868.25
1275.15503	17347.15
1278.69312	17791.65
1282.22882	18309.65
1285.76211	19048.95
1289.29301	20014.25
1292.82151	21112.75
1296.34761	22290.65
1299.87133	23749.45
1303.39266	25578.85
1306.9116	27673.75
1310.42815	29612.55
1313.94233	30474.05
1317.45412	29815.25
1320.96354	28396.65
1324.47058	27015.35
1327.97525	25854.95
1331.47754	24945.65
1334.97747	24356.95
1338.47502	24128.45
1341.97022	24182.55
1345.46305	24571.25
1348.95352	25327.15
1352.44163	26274.45
1355.92738	27823.85
1359.41078	30343.75
1362.89183	32953.85
1366.37053	32662.85
1369.84688	28888.05
1373.32088	24400.85
1376.79254	21467.45
1380.26186	20087.25
1383.72883	19504.45
1387.19347	19092.45
1390.65578	18662.55
1394.11575	18318.15
1397.57339	18092.85
1401.0287	17994.65
1404.48168	17837.25
1407.93234	17529.55
1411.38068	17132.05
1414.82669	16645.45
1418.27039	16103.75
1421.71177	15620.75
1425.15083	15115.15
1428.58758	14847.45
1432.02203	14902.15
1435.45416	15241.25
1438.88399	15522.55
1442.31151	15697.05
1445.73673	15942.35
1449.15965	16160.25
1452.58027	16297.95
1455.9986	16313.45
1459.41463	16463.25
1462.82837	16782.55
1466.23982	17227.25
1469.64898	17690.05
1473.05586	18036.85
1476.46045	18260.15
1479.86276	18451.25
1483.26279	18638.25
1486.66054	18983.95
1490.05602	19522.45
1493.44922	20438.25
1496.84016	21725.65
1500.22882	23575.95
1503.61521	25906.45
1506.99934	28260.65
1510.38121	29965.05
1513.76081	29826.55
1517.13816	27960.75
1520.51324	25381.85
1523.88607	23216.45
1527.25665	21971.55
1530.62498	21280.95
1533.99105	20775.55
1537.35488	20263.75
1540.71647	19543.65
1544.07581	18734.85
1547.4329	18015.65
1550.78776	17412.45
1554.14038	17109.85
1557.49077	17076.95
1560.83892	17292.95
1564.18484	17747.95
1567.52853	18346.85
1570.86999	18839.85
1574.20922	19220.55
1577.54624	19176.35
1580.88103	18461.05
1584.2136	17539.95
1587.54395	17240.45
1590.87208	17660.85
1594.19801	18664.95
1597.52172	19874.85
1600.84321	20239.45
1604.16251	19297.65
1607.47959	17843.45
1610.79447	16402.25
1614.10715	15017.45
1617.41763	13901.35
1620.7259	13079.75
1624.03199	12684.15
1627.33587	12593.45
1630.63757	12921.45
1633.93707	13749.35
1637.23439	15319.95
1640.52951	17834.05
1643.82246	21233.05
1647.11321	24654.15
1650.40179	26264.65
1653.68819	24916.25
1656.97241	21200.85
1660.25446	17243.45
1663.53433	14292.65
1666.81203	12405.85
1670.08756	11336.35
1673.36092	10682.85
1676.63211	10277.95
1679.90115	9986.45
1683.16801	9790.15
1686.43272	9638.35
1689.69527	9485.45
1692.95567	9403.45
1696.2139	9348.65
1699.46999	9296.45
1702.72392	9255.95
1705.97571	9207.45
1709.22535	9153.35
1712.47284	9163.95
1715.71819	9127.35
1718.96139	9072.85
1722.20246	9049.35
1725.44139	8974.95
1728.67818	8888.15
1731.91284	8825.65
1735.14537	8734.25
1738.37576	8669.55
1741.60403	8640.75
1744.83017	8592.95
1748.05418	8584.75
1751.27607	8545.75
1754.49584	8513.25
1757.71349	8491.85
1760.92903	8471.25
1764.14244	8494.05
1767.35375	8470.15
1770.56294	8417.85
1773.77002	8402.15
1776.97499	8381.35
1780.17785	8354.15
1783.37861	8321.15
1786.57727	8287.55
1789.77382	8249.85
1792.96828	8246.95
1796.16064	8225.15
1799.3509	8185.05
1802.53907	8173.95
1805.72514	8140.35
1808.90913	8121.05
1812.09102	8100.15
1815.27083	8059.85
1818.44856	8038.85
1821.6242	8025.55
1824.79776	7992.45
1827.96924	7991.55
1831.13864	7977.85
1834.30597	7966.35
1837.47122	7932.15
1840.6344	7925.75
1843.7955	7929.35
1846.95454	7906.65
1850.11151	7916.55
1853.26642	7884.55
1856.41926	7880.45
1859.57004	7870.35
1862.71876	7852.05
1865.86542	7836.15
1869.01003	7834.65
1872.15258	7817.25
1875.29308	7822.95
1878.43152	7793.15
1881.56792	7785.45
1884.70227	7793.65
1887.83457	7783.65
1890.96482	7773.65
1894.09304	7741.45
1897.21921	7758.55
1900.34335	7740.15
1903.46544	7732.75
1906.58551	7729.05
1909.70353	7720.15
1912.81953	7695.55
1915.93349	7690.75
1919.04543	7678.15
1922.15534	7659.65
1925.26322	7631.45
1928.36908	7595.75
1931.47292	7580.75
1934.57473	7548.95
1937.67453	7511.05
1940.77232	7517.35
1943.86808	7476.95
1946.96184	7466.85
1950.05358	7429.95
1953.14331	7431.85
1956.23103	7418.45
1959.31675	7385.95
1962.40046	7366.55
1965.48217	7336.45
1968.56188	7330.15
1971.63959	7284.95
1974.7153	7257.15
1977.78901	7252.55
1980.86073	7222.65
1983.93046	7212.35
1986.99819	7167.25
1990.06394	7143.85
1993.1277	7091.55
1996.18947	7086.35
1999.24925	7052.75
2002.30706	7002.65
2005.36288	6981.65
2008.41672	6977.55
2011.46859	6956.95
2014.51848	6939.95
2017.56639	6916.25
2020.61233	6881.75
2023.6563	6842.25
2026.6983	6870.45
2029.73833	6796.45
2032.7764	6790.05
2035.8125	6773.75
2038.84664	6752.05
2041.87881	6744.45
2044.90903	6734.95
2047.93729	6704.95
2050.96359	6693.05
2053.98794	6671.75
2057.01034	6663.85
2060.03078	6656.35
2063.04927	6645.05
2066.06582	6637.65
2069.08042	6598.55
2072.09307	6619.15
2075.10378	6591.55
2078.11255	6604.35
2081.11938	6612.45
2084.12426	6594.25
2087.12722	6612.55
2090.12824	6608.75
2093.12732	6606.15
2096.12447	6626.85
2099.11969	6614.25
2102.11299	6598.45
2105.10435	6608.25
2108.09379	6605.55
2111.08131	6618.05
2114.0669	6628.25
2117.05057	6624.45
2120.03233	6613.15
2123.01216	6623.65
2125.99008	6606.55
2128.96609	6625.65
2131.94018	6619.75
2134.91236	6624.05
2137.88263	6607.85
2140.851	6597.75
2143.81746	6624.05
2146.78201	6608.65
2149.74466	6573.45
2152.7054	6571.35
2155.66425	6589.35
2158.6212	6580.85
2161.57625	6556.95
2164.52941	6564.25
2167.48067	6558.25
2170.43004	6544.45
2173.37752	6544.35
2176.32311	6527.65
2179.26681	6524.75
2182.20863	6499.45
2185.14856	6512.85
2188.08661	6502.35
2191.02278	6503.45
2193.95707	6492.25
2196.88948	6478.05
2199.82001	6463.55
2202.74867	6444.05
2205.67545	6442.15
2208.60037	6420.25
2211.52341	6421.45
2214.44458	6392.55
2217.36388	6382.65
2220.28132	6377.45
2223.1969	6373.65
2226.11061	6372.15
2229.02246	6327.25
2231.93245	6333.95
2234.84058	6313.25
2237.74686	6304.05
2240.65128	6291.65
2243.55385	6290.15
2246.45456	6267.25
2249.35343	6268.55
2252.25044	6259.25
2255.14561	6243.55
2258.03893	6244.75
2260.93041	6239.85
2263.82004	6213.95
2266.70783	6201.35
2269.59378	6179.35
2272.4779	6169.35
2275.36017	6143.75
2278.24061	6127.95
2281.11922	6129.95
2283.996	6118.15
2286.87094	6097.35
2289.74405	6094.05
2292.61534	6074.75
2295.4848	6058.05
2298.35243	6043.55
2301.21824	6037.75
2304.08223	6038.15
2306.94439	6017.65
2309.80474	6015.05
2312.66327	6020.95
2315.51999	5997.95
2318.37489	6004.55
2321.22797	5995.45
2324.07925	5961.55
2326.92871	5972.15
2329.77637	5964.35
2332.62222	5952.75
2335.46626	5965.65
2338.3085	5941.35
2341.14893	5945.95
2343.98756	5940.05
2346.8244	5945.45
2349.65943	5914.85
2352.49267	5946.85
2355.32411	5947.05
2358.15376	5951.15
2360.98161	5957.65
2363.80768	5965.35
2366.63195	5950.35
2369.45444	5967.25
2372.27514	5952.25
2375.09405	5941.05
2377.91118	5921.25
2380.72652	5897.75
2383.54009	5897.45
2386.35187	5870.95
2389.16188	5861.45
2391.97011	5841.75
2394.77657	5831.45
2397.58125	5803.35
2400.38416	5793.95
2403.18529	5776.05
2405.98466	5760.65
2408.78226	5747.35
2411.57809	5734.35
2414.37216	5715.55
2417.16446	5717.65
2419.955	5715.75
2422.74378	5719.55
2425.5308	5698.95
2428.31606	5713.05
2431.09956	5694.15
2433.88131	5690.45
2436.6613	5680.05
2439.43954	5692.55
2442.21603	5695.05
2444.99077	5689.45
2447.76377	5679.25
2450.53501	5684.85
2453.30451	5678.45
2456.07226	5678.35
2458.83827	5687.85
2461.60254	5672.65
2464.36507	5677.45
2467.12586	5674.35
2469.88492	5666.45
2472.64224	5690.15
2475.39782	5689.95
2478.15167	5681.25
2480.90379	5667.45
2483.65417	5685.45
2486.40283	5694.85
2489.14976	5694.25
2491.89497	5696.65
2494.63845	5710.95
2497.3802	5686.75
2500.12024	5689.95
2502.85855	5674.65
2505.59514	5660.85
2508.33002	5653.95
2511.06318	5645.65
2513.79462	5615.45
2516.52435	5599.05
2519.25237	5594.05
2521.97867	5572.35
2524.70327	5563.45
2527.42616	5565.95
2530.14734	5553.25
2532.86681	5539.85
2535.58458	5530.55
2538.30065	5519.15
2541.01501	5530.05
2543.72768	5519.45
2546.43864	5500.35
2549.14791	5490.15
2551.85548	5487.55
2554.56136	5495.05
2557.26554	5486.75
2559.96803	5469.05
2562.66883	5480.15
2565.36794	5472.25
2568.06536	5467.95
2570.7611	5459.25
2573.45514	5454.25
2576.14751	5426.45
2578.83819	5445.45
2581.52719	5425.85
2584.21451	5425.25
2586.90015	5406.75
2589.58411	5404.25
2592.2664	5395.15
2594.94701	5392.05
2597.62594	5381.15
2600.30321	5348.55
2602.9788	5355.75
2605.65273	5350.45
2608.32498	5361.55
2610.99557	5341.65
2613.66449	5331.95
2616.33175	5345.15
2618.99734	5344.45
2621.66128	5329.35
2624.32355	5319.45
2626.98416	5333.35
2629.64311	5305.75
2632.30041	5301.75
2634.95605	5299.35
2637.61004	5278.15
2640.26238	5275.35
2642.91306	5291.95
2645.56209	5279.95
2648.20948	5278.15
2650.85521	5262.25
2653.4993	5273.55
2656.14175	5295.15
2658.78255	5275.55
2661.42171	5267.75
2664.05923	5269.65
2666.6951	5286.25
2669.32934	5287.05
2671.96194	5295.85
2674.59291	5273.95
2677.22224	5286.85
2679.84993	5311.15
2682.476	5275.25
2685.10043	5282.25
2687.72324	5279.05
2690.34441	5283.05
2692.96396	5269.95
2695.58188	5291.85
2698.19818	5260.65
2700.81285	5268.25
2703.4259	5274.85
2706.03733	5262.45
2708.64714	5263.85
2711.25533	5281.05
2713.86191	5269.25
2716.46687	5275.85
2719.07021	5284.15
2721.67194	5286.15
2724.27206	5259.75
2726.87057	5274.25
2729.46747	5268.15
2732.06276	5263.55
2734.65644	5259.75
2737.24852	5262.85
2739.83899	5240.85
2742.42786	5254.85
2745.01513	5216.85
2747.60079	5243.15
2750.18486	5217.25
2752.76733	5214.85
2755.3482	5199.45
2757.92747	5200.75
2760.50515	5171.65
2763.08123	5185.75
2765.65573	5182.45
2768.22863	5190.85
2770.79994	5181.55
2773.36967	5178.85
2775.9378	5171.35
2778.50435	5170.95
2781.06932	5153.55
2783.6327	5175.45
2786.1945	5159.25
2788.75471	5143.95
2791.31335	5139.05
2793.87041	5141.55
2796.42589	5109.35
2798.97979	5120.55
2801.53212	5108.15
2804.08288	5115.05
2806.63206	5116.65
2809.17967	5109.45
2811.72571	5100.35
2814.27018	5096.95
2816.81308	5091.45
2819.35442	5093.95
2821.89419	5097.75
2824.43239	5093.25
2826.96904	5069.65
2829.50412	5058.95
2832.03763	5072.85
2834.56959	5049.05
2837.1	5068.25
2839.62884	5061.35
2842.15613	5061.55
2844.68186	5053.75
2847.20604	5060.25
2849.72867	5081.75
2852.24974	5065.25
2854.76927	5090.65
2857.28724	5070.85
2859.80367	5068.95
2862.31855	5063.45
2864.83189	5082.85
2867.34368	5080.55
2869.85393	5076.85
2872.36264	5070.05
2874.8698	5073.05
2877.37543	5053.65
2879.87952	5083.25
2882.38207	5071.25
2884.88308	5061.15
2887.38256	5077.55
2889.88051	5063.95
2892.37692	5065.05
2894.8718	5067.25
2897.36515	5065.75
2899.85698	5067.35
2902.34727	5083.05
2904.83604	5072.55
2907.32328	5089.35
2909.809	5075.95
2912.29319	5076.25
2914.77587	5084.85
2917.25702	5066.95
2919.73665	5065.55
2922.21476	5076.85
2924.69136	5057.75
2927.16644	5058.35
2929.64	5041.95
2932.11205	5044.35
2934.58258	5006.75
2937.05161	5016.85
2939.51912	5005.15
2941.98513	4996.25
2944.44962	4975.25
2946.91261	4973.55
2949.37409	4968.95
2951.83407	4949.15
2954.29254	4939.35
2956.74951	4919.25
2959.20498	4931.95
2961.65895	4917.15
2964.11142	4905.15
2966.56239	4896.65
2969.01186	4879.05
2971.45984	4863.85
2973.90632	4849.25
2976.35131	4842.75
2978.7948	4819.65
2981.23681	4825.65
2983.67732	4823.15
2986.11635	4789.35
2988.55388	4777.25
2990.98993	4770.65
2993.4245	4761.05
2995.85758	4751.85
2998.28917	4741.35
3000.71928	4721.45
3003.14791	4726.55
3005.57506	4705.05
3008.00073	4702.35
3010.42493	4720.25
3012.84764	4680.75
3015.26888	4671.85
3017.68865	4664.45
3020.10694	4676.95
3022.52376	4646.85
3024.9391	4641.95
3027.35298	4625.15
3029.76539	4618.15
3032.17632	4607.75
3034.5858	4614.75
3036.9938	4616.55
3039.40034	4586.85
3041.80542	4574.75
3044.20903	4563.45
3046.61118	4564.05
3049.01187	4568.95
3051.4111	4552.45
3053.80888	4534.45
3056.20519	4527.45
3058.60005	4533.45
3060.99345	4519.95
3063.3854	4492.65
3065.7759	4490.35
3068.16494	4500.85
3070.55254	4472.55
3072.93868	4460.05
3075.32338	4441.65
3077.70662	4438.25
3080.08842	4433.55
3082.46878	4432.05
3084.84769	4418.05
3087.22515	4405.85
3089.60118	4384.25
3091.97576	4409.05
3094.3489	4397.25
3096.72061	4402.15
3099.09087	4382.05
3101.4597	4396.15
3103.82709	4393.75
3106.19305	4393.35
3108.55757	4380.05
3110.92066	4382.55
3113.28232	4384.65
3115.64255	4338.65
3118.00134	4352.55
3120.35871	4325.15
3122.71466	4333.15
3125.06917	4338.15
3127.42226	4329.55
3129.77393	4324.55
3132.12417	4325.05
3134.47299	4308.15
3136.82039	4315.05
3139.16636	4322.05
3141.51092	4336.15
3143.85406	4333.75
3146.19579	4350.15
3148.53609	4327.95
3150.87499	4316.55
3153.21246	4341.95
3155.54853	4336.75
3157.88318	4309.65
3160.21642	4320.45
3162.54826	4327.75
3164.87868	4314.75
3167.2077	4318.25
3169.5353	4315.25
3171.86151	4306.35
3174.18631	4307.65
3176.5097	4321.15
3178.83169	4306.65
3181.15228	4308.35
3183.47147	4305.85
3185.78926	4298.35
3188.10565	4294.15
3190.42065	4307.55
3192.73424	4305.45
3195.04645	4302.25
3197.35725	4318.35
3199.66667	4313.45
3201.97469	4322.55
3204.28132	4298.85
3206.58656	4301.55
3208.8904	4303.95
3211.19287	4299.55
3213.49394	4318.55
3215.79363	4311.55
3218.09193	4315.95
3220.38884	4306.65
3222.68438	4296.45
3224.97853	4290.05
3227.2713	4283.05
3229.56269	4277.35
3231.8527	4276.75
3234.14133	4286.65
3236.42858	4273.95
3238.71446	4261.05
3240.99896	4262.95
3243.28209	4258.85
3245.56384	4262.65
3247.84423	4257.55
3250.12324	4254.45
3252.40088	4237.55
3254.67715	4228.25
3256.95205	4216.85
3259.22558	4201.15
3261.49775	4203.85
3263.76855	4191.55
3266.03799	4184.45
3268.30606	4180.05
3270.57277	4174.25
3272.83812	4155.05
3275.10211	4168.75
3277.36474	4155.25
3279.62601	4175.95
3281.88593	4166.95
3284.14448	4159.25
3286.40168	4164.45
3288.65753	4153.95
3290.91202	4156.65
3293.16516	4146.45
3295.41695	4124.25
3297.66738	4115.75
3299.91647	4098.55
3302.16421	4104.45
3304.4106	4067.65
3306.65564	4055.75
3308.89933	4034.85
3311.14169	4000.65
3313.38269	3968.95
3315.62236	3945.05
3317.86068	3908.15
3320.09766	3865.95
3322.3333	3823.55
3324.5676	3827.65
3326.80056	3780.75
3329.03219	3749.55
3331.26248	1.25
3333.49143	-1.25
3335.71905	0.45
