Data from AgNP_FTO_APTES_UA_100uM_CRN_0uM_R6G_10uM_NaF_0.1M_Addition_RamanShift__21__11-09-40-108.txt Node

Date: Thu Mar 24 11:09:40 GMT 2022
User: TCL
Spectrometer: QEP01345
Trigger mode: 4
Integration Time (sec): 7.000000E0
Scans to average: 10
Electric dark correction enabled: true
Nonlinearity correction enabled: false
Boxcar width: 0
XAxis mode: Raman Shifts
Number of Pixels in Spectrum: 1044
>>>>>Begin Spectral Data<<<<<
46.04893	-1.95
50.45542	-0.55
54.85868	0.35
59.25871	0.55
63.6555	36.05
68.04907	36.95
72.43941	41.75
76.82654	39.75
81.21044	45.25
85.59113	45.85
89.96862	47.95
94.34289	45.75
98.71396	51.45
103.08183	47.65
107.4465	49.65
111.80798	53.35
116.16626	54.15
120.52136	52.55
124.87327	54.75
129.222	59.95
133.56755	62.85
137.90993	65.55
142.24913	75.05
146.58517	82.45
150.91804	93.15
155.24774	114.85
159.57429	143.45
163.89768	186.05
168.21792	248.05
172.53501	335.25
176.84895	470.35
181.15975	660.25
185.46741	914.85
189.77193	1258.45
194.07331	1685.55
198.37157	2185.15
202.6667	2710.45
206.9587	3217.15
211.24758	3734.95
215.53334	4259.45
219.81599	4816.35
224.09553	5446.35
228.37195	6144.15
232.64527	6949.85
236.91549	7713.35
241.18261	8492.75
245.44663	9178.85
249.70755	9703.65
253.96539	10112.85
258.22014	10427.85
262.4718	10677.95
266.72039	10863.35
270.96589	10933.55
275.20832	10908.55
279.44768	10757.85
283.68397	10611.65
287.91719	10484.05
292.14735	10403.45
296.37445	10405.25
300.59849	10509.65
304.81948	10684.25
309.03742	10872.45
313.25231	10974.55
317.46415	10872.15
321.67296	10688.15
325.87872	10499.15
330.08145	10389.65
334.28114	10347.75
338.47781	10391.35
342.67145	10537.95
346.86207	10705.15
351.04966	11001.45
355.23424	11253.15
359.4158	11454.65
363.59435	11529.45
367.76989	11563.45
371.94243	11527.75
376.11196	11491.45
380.27849	11500.35
384.44203	11531.55
388.60257	11606.75
392.76012	11686.55
396.91468	11780.05
401.06626	11957.35
405.21485	12063.25
409.36047	11875.85
413.50311	11546.85
417.64277	11274.75
421.77947	11224.35
425.9132	11245.85
430.04396	11301.65
434.17176	11367.25
438.2966	11531.75
442.41849	11846.25
446.53742	12380.65
450.6534	12919.55
454.76644	13157.95
458.87653	13109.15
462.98368	12866.75
467.08789	12601.55
471.18916	12272.05
475.2875	11931.15
479.38291	11643.35
483.4754	11422.25
487.56496	11231.65
491.6516	11080.75
495.73531	10949.65
499.81612	10893.35
503.89401	10971.45
507.96899	11041.65
512.04106	11002.45
516.11023	10921.35
520.1765	10864.45
524.23987	10917.05
528.30034	10983.05
532.35792	10949.55
536.41261	10722.25
540.46441	10398.95
544.51333	10221.85
548.55936	10248.35
552.60252	10511.85
556.64279	10985.05
560.6802	11349.05
564.71473	11498.35
568.7464	11669.65
572.7752	12174.45
576.80114	12641.45
580.82422	13068.75
584.84444	13798.45
588.86181	15186.85
592.87633	17050.95
596.888	18013.45
600.89682	16766.35
604.9028	15295.05
608.90594	15783.45
612.90624	17296.05
616.90371	16232.85
620.89834	12753.15
624.89015	10974.15
628.87913	10733.75
632.86528	10901.55
636.84862	10935.45
640.82913	10624.95
644.80683	10175.15
648.78172	9892.35
652.75379	9886.05
656.72306	10129.45
660.68952	10449.25
664.65319	10325.65
668.61405	9942.05
672.57211	9837.55
676.52738	9899.25
680.47986	9923.75
684.42955	9772.95
688.37646	9665.05
692.32058	9731.65
696.26192	9927.35
700.20048	10157.35
704.13626	10306.75
708.06928	10359.65
711.99952	10323.65
715.927	10341.05
719.85171	10395.55
723.77365	10292.45
727.69284	10106.25
731.60928	9957.45
735.52295	9945.35
739.43388	10062.05
743.34206	10142.95
747.24749	10241.95
751.15017	10365.45
755.05012	10572.75
758.94733	10970.25
762.8418	11842.15
766.73354	13347.55
770.62254	14802.35
774.50882	15175.35
778.39237	14282.85
782.27321	12862.25
786.15132	11613.75
790.02671	10749.85
793.89938	10279.85
797.76935	10062.25
801.6366	9953.75
805.50115	9831.95
809.36299	9777.15
813.22213	9674.95
817.07857	9613.95
820.93231	9567.25
824.78336	9504.95
828.63172	9473.15
832.47738	9462.65
836.32036	9469.15
840.16066	9458.15
843.99827	9464.35
847.8332	9458.65
851.66546	9464.95
855.49504	9496.25
859.32195	9473.55
863.1462	9434.65
866.96777	9378.35
870.78668	9354.25
874.60293	9363.75
878.41652	9390.05
882.22745	9480.45
886.03573	9527.95
889.84136	9523.05
893.64433	9500.65
897.44466	9481.05
901.24235	9485.45
905.0374	9414.55
908.8298	9365.05
912.61957	9309.75
916.40671	9361.15
920.19121	9528.25
923.97308	9741.25
927.75233	9902.55
931.52895	9840.75
935.30295	9540.65
939.07433	9194.55
942.84309	8967.85
946.60924	8850.25
950.37278	8815.75
954.13371	8813.15
957.89203	8800.95
961.64774	8802.75
965.40086	8809.35
969.15137	8819.75
972.89929	8775.25
976.64461	8743.65
980.38733	8744.75
984.12747	8698.45
987.86502	8749.15
991.59999	8825.95
995.33237	8972.75
999.06217	9189.85
1002.78939	9498.35
1006.51404	9886.65
1010.23611	10205.35
1013.95561	10431.95
1017.67255	10464.65
1021.38692	10206.85
1025.09872	9806.75
1028.80796	9495.75
1032.51465	9339.45
1036.21877	9346.25
1039.92035	9428.95
1043.61937	9468.55
1047.31584	9525.35
1051.00976	9578.95
1054.70114	9632.45
1058.38998	9601.75
1062.07627	9648.05
1065.76003	9776.25
1069.44126	9928.55
1073.11995	10183.25
1076.79611	10473.65
1080.46974	10649.05
1084.14085	10884.35
1087.80943	11138.35
1091.47549	11304.05
1095.13903	11231.95
1098.80005	10880.55
1102.45857	10481.75
1106.11456	10282.55
1109.76805	10251.85
1113.41903	10342.05
1117.06751	10519.35
1120.71348	10801.05
1124.35696	11083.65
1127.99793	11357.05
1131.63641	11423.25
1135.2724	11266.35
1138.90589	11132.95
1142.5369	11060.25
1146.16542	11167.65
1149.79145	11343.25
1153.415	11546.65
1157.03607	11677.25
1160.65467	11933.05
1164.27079	12486.05
1167.88443	13322.65
1171.49561	14525.75
1175.10432	16270.85
1178.71056	18510.35
1182.31434	20432.55
1185.91565	21044.45
1189.51451	20277.95
1193.11091	19091.35
1196.70485	17777.25
1200.29634	16552.55
1203.88538	15580.65
1207.47197	14879.15
1211.05612	14435.45
1214.63782	14149.55
1218.21708	13996.95
1221.79391	14078.15
1225.36829	14354.45
1228.94024	14436.95
1232.50976	14098.15
1236.07685	13478.45
1239.6415	12981.95
1243.20374	12733.35
1246.76355	12649.35
1250.32093	12764.75
1253.8759	13030.75
1257.42845	13511.05
1260.97859	14096.85
1264.52631	14742.55
1268.07163	15389.65
1271.61453	15968.15
1275.15503	16526.45
1278.69312	17191.25
1282.22882	18011.15
1285.76211	19197.25
1289.29301	20544.45
1292.82151	21905.45
1296.34761	23455.85
1299.87133	25238.85
1303.39266	27174.75
1306.9116	29106.65
1310.42815	30798.15
1313.94233	31583.65
1317.45412	30729.15
1320.96354	28830.95
1324.47058	26928.05
1327.97525	25321.05
1331.47754	24177.35
1334.97747	23392.75
1338.47502	22910.85
1341.97022	22515.65
1345.46305	22406.35
1348.95352	22795.45
1352.44163	23839.55
1355.92738	25924.95
1359.41078	28924.15
1362.89183	31639.25
1366.37053	31924.95
1369.84688	28636.25
1373.32088	24016.75
1376.79254	20879.65
1380.26186	19637.95
1383.72883	19144.55
1387.19347	18693.25
1390.65578	18173.25
1394.11575	18010.25
1397.57339	18185.15
1401.0287	18403.65
1404.48168	18461.25
1407.93234	18213.25
1411.38068	17701.15
1414.82669	17129.25
1418.27039	16533.95
1421.71177	15983.45
1425.15083	15448.75
1428.58758	15252.25
1432.02203	15418.05
1435.45416	15747.75
1438.88399	16015.95
1442.31151	16135.95
1445.73673	16274.35
1449.15965	16362.05
1452.58027	16342.75
1455.9986	16238.25
1459.41463	16290.55
1462.82837	16691.95
1466.23982	17271.15
1469.64898	17807.15
1473.05586	18193.55
1476.46045	18452.35
1479.86276	18608.15
1483.26279	18696.95
1486.66054	18964.65
1490.05602	19427.75
1493.44922	20115.05
1496.84016	20763.45
1500.22882	21453.75
1503.61521	22358.45
1506.99934	23313.55
1510.38121	24014.85
1513.76081	24017.25
1517.13816	23041.55
1520.51324	21744.85
1523.88607	20743.75
1527.25665	20323.55
1530.62498	20204.25
1533.99105	19920.95
1537.35488	19356.35
1540.71647	18533.75
1544.07581	17632.05
1547.4329	16833.95
1550.78776	16177.05
1554.14038	15801.55
1557.49077	15635.25
1560.83892	15647.25
1564.18484	15860.25
1567.52853	16230.05
1570.86999	16635.35
1574.20922	17060.95
1577.54624	17214.95
1580.88103	16897.25
1584.2136	16558.05
1587.54395	16847.15
1590.87208	17870.75
1594.19801	19499.95
1597.52172	21191.75
1600.84321	21727.05
1604.16251	20481.45
1607.47959	18227.15
1610.79447	15900.05
1614.10715	13998.15
1617.41763	12645.05
1620.7259	11874.05
1624.03199	11539.45
1627.33587	11603.75
1630.63757	12162.65
1633.93707	13286.35
1637.23439	15365.75
1640.52951	18692.55
1643.82246	23057.75
1647.11321	26813.35
1650.40179	27617.35
1653.68819	24831.75
1656.97241	20127.35
1660.25446	15851.95
1663.53433	12921.45
1666.81203	11194.95
1670.08756	10195.05
1673.36092	9625.45
1676.63211	9260.35
1679.90115	8976.85
1683.16801	8796.35
1686.43272	8640.25
1689.69527	8531.65
1692.95567	8436.95
1696.2139	8372.95
1699.46999	8354.25
1702.72392	8293.75
1705.97571	8250.75
1709.22535	8221.05
1712.47284	8217.15
1715.71819	8205.95
1718.96139	8165.35
1722.20246	8135.95
1725.44139	8104.05
1728.67818	8016.55
1731.91284	7942.35
1735.14537	7884.25
1738.37576	7840.65
1741.60403	7777.25
1744.83017	7751.35
1748.05418	7724.75
1751.27607	7675.85
1754.49584	7673.95
1757.71349	7651.55
1760.92903	7642.75
1764.14244	7608.55
1767.35375	7626.25
1770.56294	7589.85
1773.77002	7567.35
1776.97499	7548.85
1780.17785	7543.15
1783.37861	7509.95
1786.57727	7482.85
1789.77382	7481.35
1792.96828	7447.85
1796.16064	7443.45
1799.3509	7408.15
1802.53907	7401.65
1805.72514	7383.35
1808.90913	7373.35
1812.09102	7345.65
1815.27083	7300.75
1818.44856	7301.45
1821.6242	7280.05
1824.79776	7270.75
1827.96924	7249.95
1831.13864	7250.55
1834.30597	7288.05
1837.47122	7265.25
1840.6344	7266.55
1843.7955	7252.25
1846.95454	7243.75
1850.11151	7244.15
1853.26642	7240.55
1856.41926	7272.35
1859.57004	7262.05
1862.71876	7263.05
1865.86542	7271.55
1869.01003	7264.95
1872.15258	7267.95
1875.29308	7284.35
1878.43152	7284.45
1881.56792	7300.05
1884.70227	7320.15
1887.83457	7343.75
1890.96482	7337.75
1894.09304	7370.15
1897.21921	7353.25
1900.34335	7352.35
1903.46544	7337.65
1906.58551	7338.85
1909.70353	7325.65
1912.81953	7282.35
1915.93349	7271.15
1919.04543	7252.85
1922.15534	7222.95
1925.26322	7207.55
1928.36908	7183.55
1931.47292	7149.65
1934.57473	7139.65
1937.67453	7100.35
1940.77232	7105.05
1943.86808	7067.95
1946.96184	7043.25
1950.05358	7023.05
1953.14331	7032.35
1956.23103	6995.65
1959.31675	6978.95
1962.40046	6944.75
1965.48217	6916.45
1968.56188	6895.85
1971.63959	6868.75
1974.7153	6850.05
1977.78901	6797.45
1980.86073	6791.05
1983.93046	6740.65
1986.99819	6707.75
1990.06394	6687.55
1993.1277	6668.95
1996.18947	6662.15
1999.24925	6625.65
2002.30706	6626.95
2005.36288	6609.15
2008.41672	6612.75
2011.46859	6592.95
2014.51848	6592.35
2017.56639	6570.45
2020.61233	6545.25
2023.6563	6538.05
2026.6983	6486.75
2029.73833	6473.45
2032.7764	6457.75
2035.8125	6444.05
2038.84664	6411.75
2041.87881	6386.95
2044.90903	6346.95
2047.93729	6338.05
2050.96359	6340.75
2053.98794	6337.55
2057.01034	6315.65
2060.03078	6334.95
2063.04927	6332.85
2066.06582	6328.95
2069.08042	6353.65
2072.09307	6385.85
2075.10378	6401.85
2078.11255	6417.25
2081.11938	6417.85
2084.12426	6424.55
2087.12722	6451.85
2090.12824	6447.05
2093.12732	6431.25
2096.12447	6455.25
2099.11969	6432.95
2102.11299	6433.65
2105.10435	6407.05
2108.09379	6402.75
2111.08131	6371.55
2114.0669	6367.15
2117.05057	6379.15
2120.03233	6342.95
2123.01216	6341.95
2125.99008	6337.65
2128.96609	6318.75
2131.94018	6325.55
2134.91236	6324.15
2137.88263	6328.55
2140.851	6303.95
2143.81746	6312.45
2146.78201	6310.75
2149.74466	6286.75
2152.7054	6294.85
2155.66425	6257.05
2158.6212	6263.45
2161.57625	6243.85
2164.52941	6229.05
2167.48067	6196.65
2170.43004	6163.45
2173.37752	6150.55
2176.32311	6154.15
2179.26681	6123.75
2182.20863	6119.35
2185.14856	6119.05
2188.08661	6082.35
2191.02278	6096.05
2193.95707	6094.15
2196.88948	6072.15
2199.82001	6062.15
2202.74867	6040.15
2205.67545	6031.65
2208.60037	6040.05
2211.52341	6012.25
2214.44458	5992.75
2217.36388	5979.05
2220.28132	5965.75
2223.1969	5971.65
2226.11061	5933.75
2229.02246	5928.75
2231.93245	5957.85
2234.84058	5933.75
2237.74686	5936.05
2240.65128	5925.55
2243.55385	5927.85
2246.45456	5918.65
2249.35343	5916.55
2252.25044	5890.15
2255.14561	5857.15
2258.03893	5845.55
2260.93041	5828.85
2263.82004	5837.05
2266.70783	5802.05
2269.59378	5778.25
2272.4779	5766.05
2275.36017	5751.65
2278.24061	5757.35
2281.11922	5734.45
2283.996	5738.95
2286.87094	5730.85
2289.74405	5706.15
2292.61534	5704.15
2295.4848	5690.45
2298.35243	5693.35
2301.21824	5674.05
2304.08223	5675.25
2306.94439	5661.85
2309.80474	5656.35
2312.66327	5676.35
2315.51999	5658.75
2318.37489	5656.65
2321.22797	5648.55
2324.07925	5647.45
2326.92871	5630.75
2329.77637	5633.05
2332.62222	5614.75
2335.46626	5605.95
2338.3085	5604.95
2341.14893	5604.05
2343.98756	5602.85
2346.8244	5611.95
2349.65943	5611.05
2352.49267	5625.05
2355.32411	5619.25
2358.15376	5620.65
2360.98161	5615.75
2363.80768	5614.75
2366.63195	5589.35
2369.45444	5603.25
2372.27514	5608.55
2375.09405	5602.05
2377.91118	5589.85
2380.72652	5577.95
2383.54009	5566.85
2386.35187	5551.05
2389.16188	5520.75
2391.97011	5501.95
2394.77657	5501.95
2397.58125	5497.85
2400.38416	5499.25
2403.18529	5467.55
2405.98466	5468.45
2408.78226	5469.15
2411.57809	5451.75
2414.37216	5443.85
2417.16446	5438.45
2419.955	5434.05
2422.74378	5438.05
2425.5308	5429.95
2428.31606	5427.85
2431.09956	5438.65
2433.88131	5422.35
2436.6613	5411.05
2439.43954	5408.95
2442.21603	5426.45
2444.99077	5414.55
2447.76377	5434.55
2450.53501	5400.25
2453.30451	5431.65
2456.07226	5411.85
2458.83827	5423.85
2461.60254	5425.65
2464.36507	5418.25
2467.12586	5419.85
2469.88492	5410.05
2472.64224	5410.35
2475.39782	5431.05
2478.15167	5434.95
2480.90379	5400.95
2483.65417	5434.95
2486.40283	5428.55
2489.14976	5425.65
2491.89497	5411.55
2494.63845	5428.45
2497.3802	5422.35
2500.12024	5415.35
2502.85855	5409.85
2505.59514	5416.25
2508.33002	5398.05
2511.06318	5379.45
2513.79462	5354.45
2516.52435	5367.75
2519.25237	5359.05
2521.97867	5351.25
2524.70327	5348.85
2527.42616	5325.85
2530.14734	5339.65
2532.86681	5327.95
2535.58458	5322.65
2538.30065	5319.85
2541.01501	5303.05
2543.72768	5332.25
2546.43864	5311.85
2549.14791	5317.85
2551.85548	5321.95
2554.56136	5302.95
2557.26554	5300.45
2559.96803	5292.75
2562.66883	5295.45
2565.36794	5294.05
2568.06536	5284.35
2570.7611	5279.65
2573.45514	5286.85
2576.14751	5274.45
2578.83819	5248.05
2581.52719	5246.25
2584.21451	5248.35
2586.90015	5249.55
2589.58411	5232.55
2592.2664	5258.15
2594.94701	5217.55
2597.62594	5227.75
2600.30321	5223.15
2602.9788	5226.25
2605.65273	5212.85
2608.32498	5212.05
2610.99557	5216.55
2613.66449	5216.65
2616.33175	5201.55
2618.99734	5213.95
2621.66128	5202.15
2624.32355	5191.75
2626.98416	5190.45
2629.64311	5176.95
2632.30041	5177.15
2634.95605	5173.55
2637.61004	5164.65
2640.26238	5160.15
2642.91306	5148.35
2645.56209	5162.05
2648.20948	5171.55
2650.85521	5170.15
2653.4993	5191.65
2656.14175	5186.65
2658.78255	5183.25
2661.42171	5185.05
2664.05923	5199.15
2666.6951	5190.25
2669.32934	5227.75
2671.96194	5178.75
2674.59291	5209.25
2677.22224	5209.75
2679.84993	5212.65
2682.476	5205.25
2685.10043	5202.65
2687.72324	5189.45
2690.34441	5171.25
2692.96396	5180.95
2695.58188	5187.55
2698.19818	5179.55
2700.81285	5186.95
2703.4259	5188.05
2706.03733	5182.65
2708.64714	5206.85
2711.25533	5212.05
2713.86191	5194.55
2716.46687	5214.05
2719.07021	5217.15
2721.67194	5208.15
2724.27206	5215.35
2726.87057	5235.85
2729.46747	5229.15
2732.06276	5229.15
2734.65644	5196.75
2737.24852	5225.65
2739.83899	5201.75
2742.42786	5220.35
2745.01513	5182.85
2747.60079	5190.25
2750.18486	5188.55
2752.76733	5181.55
2755.3482	5189.85
2757.92747	5205.05
2760.50515	5189.15
2763.08123	5180.65
2765.65573	5165.45
2768.22863	5173.65
2770.79994	5178.85
2773.36967	5181.85
2775.9378	5184.75
2778.50435	5162.55
2781.06932	5164.25
2783.6327	5157.05
2786.1945	5161.25
2788.75471	5167.65
2791.31335	5146.95
2793.87041	5145.85
2796.42589	5148.35
2798.97979	5160.85
2801.53212	5141.55
2804.08288	5125.85
2806.63206	5109.65
2809.17967	5111.75
2811.72571	5103.55
2814.27018	5120.55
2816.81308	5103.35
2819.35442	5106.65
2821.89419	5090.75
2824.43239	5107.15
2826.96904	5088.25
2829.50412	5115.65
2832.03763	5114.35
2834.56959	5094.35
2837.1	5100.65
2839.62884	5089.65
2842.15613	5094.45
2844.68186	5103.15
2847.20604	5121.55
2849.72867	5140.95
2852.24974	5149.75
2854.76927	5152.85
2857.28724	5149.05
2859.80367	5136.25
2862.31855	5135.25
2864.83189	5138.85
2867.34368	5139.65
2869.85393	5142.55
2872.36264	5123.85
2874.8698	5121.75
2877.37543	5152.45
2879.87952	5152.85
2882.38207	5145.95
2884.88308	5149.95
2887.38256	5162.15
2889.88051	5142.85
2892.37692	5140.65
2894.8718	5150.15
2897.36515	5153.65
2899.85698	5160.05
2902.34727	5154.65
2904.83604	5149.85
2907.32328	5155.85
2909.809	5171.55
2912.29319	5177.85
2914.77587	5173.75
2917.25702	5159.95
2919.73665	5138.15
2922.21476	5163.55
2924.69136	5150.15
2927.16644	5150.55
2929.64	5133.35
2932.11205	5108.25
2934.58258	5089.85
2937.05161	5113.05
2939.51912	5087.05
2941.98513	5094.15
2944.44962	5062.45
2946.91261	5049.15
2949.37409	5045.95
2951.83407	5033.25
2954.29254	5041.75
2956.74951	5015.25
2959.20498	4999.25
2961.65895	4973.65
2964.11142	4969.25
2966.56239	4949.75
2969.01186	4948.25
2971.45984	4925.95
2973.90632	4908.75
2976.35131	4902.85
2978.7948	4874.55
2981.23681	4843.25
2983.67732	4840.35
2986.11635	4836.05
2988.55388	4818.95
2990.98993	4812.75
2993.4245	4799.65
2995.85758	4786.65
2998.28917	4785.25
3000.71928	4770.55
3003.14791	4764.65
3005.57506	4772.45
3008.00073	4755.45
3010.42493	4740.65
3012.84764	4725.55
3015.26888	4722.55
3017.68865	4717.55
3020.10694	4696.55
3022.52376	4688.05
3024.9391	4680.75
3027.35298	4667.65
3029.76539	4666.95
3032.17632	4651.65
3034.5858	4652.35
3036.9938	4637.35
3039.40034	4617.55
3041.80542	4615.35
3044.20903	4619.65
3046.61118	4598.25
3049.01187	4601.35
3051.4111	4606.35
3053.80888	4600.35
3056.20519	4582.35
3058.60005	4577.65
3060.99345	4575.15
3063.3854	4561.75
3065.7759	4531.85
3068.16494	4531.55
3070.55254	4534.85
3072.93868	4522.85
3075.32338	4501.15
3077.70662	4505.15
3080.08842	4479.15
3082.46878	4479.35
3084.84769	4467.75
3087.22515	4484.55
3089.60118	4482.35
3091.97576	4462.25
3094.3489	4465.85
3096.72061	4463.45
3099.09087	4456.55
3101.4597	4448.75
3103.82709	4444.95
3106.19305	4432.85
3108.55757	4420.95
3110.92066	4415.65
3113.28232	4403.75
3115.64255	4411.25
3118.00134	4372.85
3120.35871	4381.85
3122.71466	4382.25
3125.06917	4354.45
3127.42226	4365.35
3129.77393	4371.35
3132.12417	4366.15
3134.47299	4372.95
3136.82039	4388.95
3139.16636	4369.45
3141.51092	4375.25
3143.85406	4371.55
3146.19579	4354.35
3148.53609	4369.55
3150.87499	4379.15
3153.21246	4366.35
3155.54853	4369.05
3157.88318	4372.15
3160.21642	4358.25
3162.54826	4363.85
3164.87868	4367.75
3167.2077	4368.15
3169.5353	4357.75
3171.86151	4353.55
3174.18631	4352.35
3176.5097	4356.85
3178.83169	4355.05
3181.15228	4366.25
3183.47147	4362.65
3185.78926	4355.55
3188.10565	4352.45
3190.42065	4364.45
3192.73424	4343.75
3195.04645	4342.85
3197.35725	4335.65
3199.66667	4340.65
3201.97469	4349.05
3204.28132	4357.95
3206.58656	4351.55
3208.8904	4348.45
3211.19287	4346.75
3213.49394	4330.25
3215.79363	4333.15
3218.09193	4349.95
3220.38884	4330.65
3222.68438	4349.75
3224.97853	4341.25
3227.2713	4338.15
3229.56269	4324.95
3231.8527	4340.75
3234.14133	4310.95
3236.42858	4312.75
3238.71446	4318.95
3240.99896	4324.15
3243.28209	4311.05
3245.56384	4303.05
3247.84423	4320.15
3250.12324	4309.95
3252.40088	4284.85
3254.67715	4290.45
3256.95205	4273.75
3259.22558	4265.85
3261.49775	4241.25
3263.76855	4236.45
3266.03799	4245.45
3268.30606	4234.55
3270.57277	4229.55
3272.83812	4221.55
3275.10211	4220.15
3277.36474	4228.55
3279.62601	4215.65
3281.88593	4216.65
3284.14448	4228.15
3286.40168	4218.35
3288.65753	4225.65
3290.91202	4218.75
3293.16516	4199.95
3295.41695	4190.95
3297.66738	4171.05
3299.91647	4150.15
3302.16421	4132.65
3304.4106	4109.15
3306.65564	4103.95
3308.89933	4068.05
3311.14169	4033.95
3313.38269	4004.65
3315.62236	3981.25
3317.86068	3940.25
3320.09766	3894.95
3322.3333	3869.35
3324.5676	3866.25
3326.80056	3802.65
3329.03219	3783.95
3331.26248	2.15
3333.49143	-1.15
3335.71905	0.85
