Data from AgNP_FTO_APTES_UA_100uM_CRN_1uM_R6G_10uM_NaF_0.1M_Addition_RamanShift__13__12-03-20-170.txt Node

Date: Thu Mar 24 12:03:20 GMT 2022
User: TCL
Spectrometer: QEP01345
Trigger mode: 4
Integration Time (sec): 7.000000E0
Scans to average: 10
Electric dark correction enabled: true
Nonlinearity correction enabled: false
Boxcar width: 0
XAxis mode: Raman Shifts
Number of Pixels in Spectrum: 1044
>>>>>Begin Spectral Data<<<<<
46.04893	-2.55
50.45542	0.25
54.85868	0.25
59.25871	0.25
63.6555	44.85
68.04907	49.85
72.43941	47.45
76.82654	47.05
81.21044	53.05
85.59113	57.05
89.96862	59.05
94.34289	56.05
98.71396	60.95
103.08183	60.75
107.4465	66.25
111.80798	67.65
116.16626	68.05
120.52136	70.45
124.87327	72.25
129.222	78.25
133.56755	83.85
137.90993	87.85
142.24913	102.25
146.58517	109.05
150.91804	129.95
155.24774	157.75
159.57429	193.75
163.89768	251.45
168.21792	337.45
172.53501	456.35
176.84895	642.95
181.15975	903.55
185.46741	1278.85
189.77193	1763.55
194.07331	2372.05
198.37157	3070.45
202.6667	3789.35
206.9587	4514.85
211.24758	5232.55
215.53334	5966.35
219.81599	6742.45
224.09553	7576.55
228.37195	8529.25
232.64527	9564.15
236.91549	10665.25
241.18261	11743.35
245.44663	12737.45
249.70755	13534.95
253.96539	14248.45
258.22014	14789.05
262.4718	15242.25
266.72039	15554.65
270.96589	15660.05
275.20832	15660.05
279.44768	15547.85
283.68397	15474.75
287.91719	15345.65
292.14735	15256.05
296.37445	15287.85
300.59849	15349.85
304.81948	15498.75
309.03742	15635.65
313.25231	15615.65
317.46415	15410.45
321.67296	15043.45
325.87872	14693.85
330.08145	14536.55
334.28114	14534.35
338.47781	14595.85
342.67145	14794.05
346.86207	15031.35
351.04966	15351.85
355.23424	15669.05
359.4158	15911.15
363.59435	16066.35
367.76989	16062.05
371.94243	16055.55
376.11196	16062.25
380.27849	16050.65
384.44203	16071.25
388.60257	16136.85
392.76012	16348.85
396.91468	16570.25
401.06626	16847.55
405.21485	17047.85
409.36047	16902.15
413.50311	16488.85
417.64277	16149.65
421.77947	16074.95
425.9132	16158.95
430.04396	16222.25
434.17176	16321.55
438.2966	16393.75
442.41849	16664.75
446.53742	17050.45
450.6534	17522.55
454.76644	17830.45
458.87653	17913.75
462.98368	17837.55
467.08789	17704.65
471.18916	17506.35
475.2875	17275.35
479.38291	17035.45
483.4754	16933.15
487.56496	16779.55
491.6516	16593.55
495.73531	16387.55
499.81612	16272.85
503.89401	16347.75
507.96899	16402.65
512.04106	16419.75
516.11023	16322.85
520.1765	16247.25
524.23987	16121.75
528.30034	16080.35
532.35792	15971.85
536.41261	15792.45
540.46441	15575.05
544.51333	15483.75
548.55936	15614.75
552.60252	15917.85
556.64279	16315.95
560.6802	16609.25
564.71473	16855.65
568.7464	17261.95
572.7752	17935.45
576.80114	18665.45
580.82422	19260.85
584.84444	19741.35
588.86181	20364.45
592.87633	21189.85
596.888	21578.25
600.89682	20959.05
604.9028	20528.25
608.90594	21822.35
612.90624	23566.35
616.90371	22108.75
620.89834	18268.45
624.89015	16402.55
628.87913	16173.05
632.86528	16407.75
636.84862	16524.45
640.82913	16263.25
644.80683	15759.05
648.78172	15385.15
652.75379	15324.05
656.72306	15567.45
660.68952	15912.45
664.65319	15827.25
668.61405	15471.45
672.57211	15358.95
676.52738	15429.85
680.47986	15413.65
684.42955	15283.55
688.37646	15197.15
692.32058	15258.85
696.26192	15428.55
700.20048	15649.55
704.13626	15862.95
708.06928	15930.95
711.99952	15897.65
715.927	15873.45
719.85171	15809.85
723.77365	15704.45
727.69284	15505.95
731.60928	15318.35
735.52295	15264.05
739.43388	15297.45
743.34206	15393.35
747.24749	15513.45
751.15017	15650.45
755.05012	15953.05
758.94733	16491.95
762.8418	17533.35
766.73354	19317.95
770.62254	20962.55
774.50882	21155.75
778.39237	20039.85
782.27321	18443.95
786.15132	17072.45
790.02671	16211.85
793.89938	15694.15
797.76935	15406.55
801.6366	15269.35
805.50115	15180.65
809.36299	15090.95
813.22213	15005.75
817.07857	14972.85
820.93231	14922.15
824.78336	14885.45
828.63172	14865.35
832.47738	14805.75
836.32036	14797.45
840.16066	14769.35
843.99827	14761.15
847.8332	14756.95
851.66546	14845.85
855.49504	14880.45
859.32195	14887.95
863.1462	14826.55
866.96777	14786.95
870.78668	14763.85
874.60293	14813.75
878.41652	14827.95
882.22745	14873.35
886.03573	14946.95
889.84136	14944.95
893.64433	14873.25
897.44466	14877.75
901.24235	14839.95
905.0374	14802.15
908.8298	14743.85
912.61957	14719.95
916.40671	14840.45
920.19121	15070.75
923.97308	15263.65
927.75233	15352.45
931.52895	15178.35
935.30295	14911.35
939.07433	14548.95
942.84309	14314.75
946.60924	14168.75
950.37278	14128.45
954.13371	14112.05
957.89203	14125.65
961.64774	14116.05
965.40086	14112.65
969.15137	14102.05
972.89929	14071.75
976.64461	14026.45
980.38733	14021.95
984.12747	13976.15
987.86502	14022.55
991.59999	14138.85
995.33237	14216.25
999.06217	14424.75
1002.78939	14724.15
1006.51404	15104.25
1010.23611	15465.85
1013.95561	15668.85
1017.67255	15664.35
1021.38692	15478.25
1025.09872	15152.35
1028.80796	14813.75
1032.51465	14723.35
1036.21877	14731.05
1039.92035	14813.85
1043.61937	14888.85
1047.31584	14993.65
1051.00976	15067.65
1054.70114	15193.95
1058.38998	15215.15
1062.07627	15338.95
1065.76003	15508.85
1069.44126	15780.75
1073.11995	16098.85
1076.79611	16388.85
1080.46974	16594.45
1084.14085	16774.25
1087.80943	17009.95
1091.47549	17194.15
1095.13903	17188.95
1098.80005	16905.45
1102.45857	16484.45
1106.11456	16116.25
1109.76805	15994.25
1113.41903	15980.45
1117.06751	16126.25
1120.71348	16381.65
1124.35696	16681.65
1127.99793	16921.85
1131.63641	17025.95
1135.2724	16926.35
1138.90589	16788.55
1142.5369	16753.95
1146.16542	16796.95
1149.79145	16927.55
1153.415	17130.45
1157.03607	17348.95
1160.65467	17656.05
1164.27079	18240.05
1167.88443	19046.45
1171.49561	20220.15
1175.10432	21886.25
1178.71056	23893.35
1182.31434	25728.45
1185.91565	26506.25
1189.51451	26416.75
1193.11091	25752.25
1196.70485	24709.35
1200.29634	23504.95
1203.88538	22447.65
1207.47197	21588.95
1211.05612	21034.25
1214.63782	20537.15
1218.21708	20213.05
1221.79391	19948.15
1225.36829	19864.35
1228.94024	19771.05
1232.50976	19535.25
1236.07685	19139.15
1239.6415	18805.55
1243.20374	18661.25
1246.76355	18678.35
1250.32093	18868.05
1253.8759	19133.95
1257.42845	19663.15
1260.97859	20330.55
1264.52631	21003.85
1268.07163	21720.15
1271.61453	22307.95
1275.15503	22909.25
1278.69312	23534.35
1282.22882	24202.65
1285.76211	25085.75
1289.29301	26083.55
1292.82151	27187.15
1296.34761	28509.55
1299.87133	30093.95
1303.39266	31842.15
1306.9116	33688.15
1310.42815	35183.25
1313.94233	35887.55
1317.45412	35381.15
1320.96354	34319.05
1324.47058	33326.25
1327.97525	32480.15
1331.47754	31931.45
1334.97747	31571.85
1338.47502	31367.85
1341.97022	31480.35
1345.46305	31742.25
1348.95352	32118.35
1352.44163	32573.85
1355.92738	33396.05
1359.41078	34926.75
1362.89183	36595.95
1366.37053	36430.15
1369.84688	33554.95
1373.32088	29681.85
1376.79254	26928.65
1380.26186	25597.35
1383.72883	25039.75
1387.19347	24705.45
1390.65578	24357.85
1394.11575	24066.75
1397.57339	23958.25
1401.0287	23920.15
1404.48168	23874.75
1407.93234	23614.45
1411.38068	23137.65
1414.82669	22532.35
1418.27039	21844.55
1421.71177	21204.75
1425.15083	20644.05
1428.58758	20354.55
1432.02203	20389.95
1435.45416	20714.85
1438.88399	21038.65
1442.31151	21323.55
1445.73673	21546.35
1449.15965	21804.55
1452.58027	21957.55
1455.9986	22140.15
1459.41463	22426.25
1462.82837	22825.75
1466.23982	23388.45
1469.64898	23820.85
1473.05586	24154.35
1476.46045	24395.45
1479.86276	24513.15
1483.26279	24643.65
1486.66054	24918.95
1490.05602	25390.05
1493.44922	26185.75
1496.84016	27236.65
1500.22882	28546.65
1503.61521	30040.55
1506.99934	31408.15
1510.38121	32172.55
1513.76081	31891.95
1517.13816	30626.05
1520.51324	29069.15
1523.88607	27909.55
1527.25665	27260.45
1530.62498	26969.45
1533.99105	26662.85
1537.35488	26076.45
1540.71647	25303.85
1544.07581	24434.25
1547.4329	23603.95
1550.78776	22978.35
1554.14038	22588.35
1557.49077	22489.05
1560.83892	22620.15
1564.18484	22867.05
1567.52853	23172.25
1570.86999	23521.35
1574.20922	23894.95
1577.54624	23975.45
1580.88103	23542.85
1584.2136	23028.65
1587.54395	23100.65
1590.87208	23855.35
1594.19801	25057.55
1597.52172	26368.35
1600.84321	26675.85
1604.16251	25560.05
1607.47959	23895.25
1610.79447	22166.65
1614.10715	20456.45
1617.41763	19091.25
1620.7259	18090.05
1624.03199	17507.15
1627.33587	17445.05
1630.63757	17892.25
1633.93707	18902.05
1637.23439	20766.85
1640.52951	23746.95
1643.82246	27494.25
1647.11321	30916.35
1650.40179	32125.85
1653.68819	30154.25
1656.97241	26176.25
1660.25446	22077.55
1663.53433	18942.85
1666.81203	16912.75
1670.08756	15725.65
1673.36092	14995.35
1676.63211	14515.85
1679.90115	14179.95
1683.16801	13950.15
1686.43272	13782.25
1689.69527	13616.45
1692.95567	13512.75
1696.2139	13418.95
1699.46999	13350.55
1702.72392	13314.15
1705.97571	13278.05
1709.22535	13262.55
1712.47284	13226.45
1715.71819	13201.05
1718.96139	13127.25
1722.20246	13116.55
1725.44139	13058.55
1728.67818	12972.15
1731.91284	12867.55
1735.14537	12760.85
1738.37576	12697.85
1741.60403	12640.75
1744.83017	12616.85
1748.05418	12595.05
1751.27607	12517.55
1754.49584	12498.45
1757.71349	12473.05
1760.92903	12439.35
1764.14244	12446.55
1767.35375	12425.35
1770.56294	12396.25
1773.77002	12384.15
1776.97499	12338.35
1780.17785	12335.05
1783.37861	12310.55
1786.57727	12288.05
1789.77382	12271.55
1792.96828	12232.35
1796.16064	12217.05
1799.3509	12185.85
1802.53907	12130.05
1805.72514	12079.65
1808.90913	12071.45
1812.09102	12047.85
1815.27083	11998.35
1818.44856	11999.75
1821.6242	11963.85
1824.79776	11968.65
1827.96924	11910.75
1831.13864	11926.95
1834.30597	11913.15
1837.47122	11914.45
1840.6344	11918.45
1843.7955	11902.35
1846.95454	11911.25
1850.11151	11904.25
1853.26642	11929.65
1856.41926	11908.75
1859.57004	11892.85
1862.71876	11861.25
1865.86542	11858.45
1869.01003	11848.95
1872.15258	11821.75
1875.29308	11818.75
1878.43152	11784.15
1881.56792	11760.85
1884.70227	11758.95
1887.83457	11775.65
1890.96482	11728.55
1894.09304	11702.95
1897.21921	11690.35
1900.34335	11686.85
1903.46544	11653.55
1906.58551	11655.35
1909.70353	11627.55
1912.81953	11620.65
1915.93349	11578.15
1919.04543	11554.85
1922.15534	11562.55
1925.26322	11499.15
1928.36908	11441.25
1931.47292	11431.85
1934.57473	11416.05
1937.67453	11384.65
1940.77232	11361.35
1943.86808	11326.15
1946.96184	11288.45
1950.05358	11241.15
1953.14331	11249.95
1956.23103	11210.65
1959.31675	11186.35
1962.40046	11140.55
1965.48217	11113.25
1968.56188	11104.05
1971.63959	11036.45
1974.7153	10977.75
1977.78901	10964.35
1980.86073	10924.85
1983.93046	10864.55
1986.99819	10847.85
1990.06394	10793.25
1993.1277	10758.45
1996.18947	10709.75
1999.24925	10694.55
2002.30706	10646.25
2005.36288	10616.85
2008.41672	10578.35
2011.46859	10554.75
2014.51848	10531.55
2017.56639	10488.65
2020.61233	10470.35
2023.6563	10411.45
2026.6983	10419.15
2029.73833	10369.75
2032.7764	10353.25
2035.8125	10328.65
2038.84664	10286.15
2041.87881	10283.65
2044.90903	10276.45
2047.93729	10222.15
2050.96359	10209.25
2053.98794	10181.65
2057.01034	10170.55
2060.03078	10152.95
2063.04927	10128.85
2066.06582	10105.65
2069.08042	10125.45
2072.09307	10103.65
2075.10378	10101.15
2078.11255	10090.75
2081.11938	10088.75
2084.12426	10124.35
2087.12722	10123.45
2090.12824	10133.25
2093.12732	10128.75
2096.12447	10137.55
2099.11969	10123.55
2102.11299	10130.05
2105.10435	10146.45
2108.09379	10140.75
2111.08131	10134.75
2114.0669	10135.25
2117.05057	10150.85
2120.03233	10164.05
2123.01216	10153.05
2125.99008	10159.35
2128.96609	10158.95
2131.94018	10151.65
2134.91236	10163.85
2137.88263	10174.45
2140.851	10153.65
2143.81746	10139.55
2146.78201	10161.65
2149.74466	10144.95
2152.7054	10140.65
2155.66425	10128.15
2158.6212	10107.35
2161.57625	10127.65
2164.52941	10109.25
2167.48067	10093.65
2170.43004	10075.45
2173.37752	10065.25
2176.32311	10061.05
2179.26681	10076.75
2182.20863	10064.95
2185.14856	10063.35
2188.08661	10035.45
2191.02278	10035.35
2193.95707	10002.65
2196.88948	9980.85
2199.82001	9982.65
2202.74867	9971.55
2205.67545	9955.25
2208.60037	9905.45
2211.52341	9910.65
2214.44458	9895.15
2217.36388	9897.45
2220.28132	9886.35
2223.1969	9822.65
2226.11061	9815.75
2229.02246	9795.45
2231.93245	9805.65
2234.84058	9776.95
2237.74686	9759.85
2240.65128	9766.55
2243.55385	9742.85
2246.45456	9756.65
2249.35343	9720.55
2252.25044	9701.95
2255.14561	9663.75
2258.03893	9656.45
2260.93041	9653.45
2263.82004	9600.65
2266.70783	9608.45
2269.59378	9574.75
2272.4779	9558.75
2275.36017	9522.75
2278.24061	9508.25
2281.11922	9483.65
2283.996	9458.45
2286.87094	9469.75
2289.74405	9451.05
2292.61534	9419.55
2295.4848	9413.95
2298.35243	9411.25
2301.21824	9383.45
2304.08223	9390.05
2306.94439	9370.75
2309.80474	9360.95
2312.66327	9347.95
2315.51999	9330.55
2318.37489	9348.85
2321.22797	9315.85
2324.07925	9309.85
2326.92871	9293.65
2329.77637	9281.55
2332.62222	9252.55
2335.46626	9234.65
2338.3085	9239.55
2341.14893	9237.65
2343.98756	9238.75
2346.8244	9225.55
2349.65943	9226.45
2352.49267	9223.15
2355.32411	9233.65
2358.15376	9250.55
2360.98161	9225.25
2363.80768	9217.65
2366.63195	9189.15
2369.45444	9214.75
2372.27514	9175.35
2375.09405	9185.55
2377.91118	9179.25
2380.72652	9172.95
2383.54009	9126.65
2386.35187	9128.55
2389.16188	9059.25
2391.97011	9039.55
2394.77657	9029.65
2397.58125	9026.55
2400.38416	9006.35
2403.18529	8979.35
2405.98466	8981.75
2408.78226	8974.35
2411.57809	8954.25
2414.37216	8935.85
2417.16446	8928.45
2419.955	8927.35
2422.74378	8920.55
2425.5308	8893.75
2428.31606	8861.35
2431.09956	8867.95
2433.88131	8867.95
2436.6613	8876.55
2439.43954	8881.15
2442.21603	8873.95
2444.99077	8873.35
2447.76377	8874.25
2450.53501	8862.55
2453.30451	8866.75
2456.07226	8860.55
2458.83827	8851.85
2461.60254	8852.25
2464.36507	8836.25
2467.12586	8834.85
2469.88492	8845.25
2472.64224	8841.65
2475.39782	8798.05
2478.15167	8812.95
2480.90379	8821.35
2483.65417	8789.05
2486.40283	8798.85
2489.14976	8790.85
2491.89497	8779.55
2494.63845	8806.95
2497.3802	8765.85
2500.12024	8801.95
2502.85855	8806.45
2505.59514	8799.35
2508.33002	8768.25
2511.06318	8744.45
2513.79462	8744.05
2516.52435	8728.15
2519.25237	8718.95
2521.97867	8705.15
2524.70327	8695.85
2527.42616	8681.85
2530.14734	8666.95
2532.86681	8658.15
2535.58458	8639.35
2538.30065	8627.85
2541.01501	8643.85
2543.72768	8592.75
2546.43864	8608.95
2549.14791	8575.35
2551.85548	8591.85
2554.56136	8549.25
2557.26554	8563.35
2559.96803	8558.25
2562.66883	8551.65
2565.36794	8561.25
2568.06536	8549.05
2570.7611	8511.05
2573.45514	8505.45
2576.14751	8487.55
2578.83819	8471.45
2581.52719	8477.75
2584.21451	8454.05
2586.90015	8465.85
2589.58411	8417.15
2592.2664	8412.45
2594.94701	8392.15
2597.62594	8381.05
2600.30321	8353.75
2602.9788	8368.55
2605.65273	8336.65
2608.32498	8343.65
2610.99557	8329.15
2613.66449	8323.75
2616.33175	8348.75
2618.99734	8328.85
2621.66128	8330.95
2624.32355	8310.25
2626.98416	8304.05
2629.64311	8299.15
2632.30041	8268.55
2634.95605	8282.15
2637.61004	8253.45
2640.26238	8252.05
2642.91306	8265.25
2645.56209	8261.15
2648.20948	8263.35
2650.85521	8256.65
2653.4993	8282.25
2656.14175	8264.65
2658.78255	8268.45
2661.42171	8266.75
2664.05923	8280.65
2666.6951	8286.85
2669.32934	8281.95
2671.96194	8256.45
2674.59291	8267.25
2677.22224	8280.45
2679.84993	8263.85
2682.476	8264.85
2685.10043	8280.55
2687.72324	8274.65
2690.34441	8277.45
2692.96396	8273.85
2695.58188	8262.25
2698.19818	8265.75
2700.81285	8267.95
2703.4259	8255.05
2706.03733	8254.95
2708.64714	8240.85
2711.25533	8261.85
2713.86191	8234.05
2716.46687	8252.25
2719.07021	8253.95
2721.67194	8245.15
2724.27206	8233.85
2726.87057	8258.65
2729.46747	8243.55
2732.06276	8261.95
2734.65644	8259.55
2737.24852	8253.45
2739.83899	8226.95
2742.42786	8249.15
2745.01513	8198.35
2747.60079	8199.55
2750.18486	8209.15
2752.76733	8197.35
2755.3482	8219.25
2757.92747	8185.85
2760.50515	8192.45
2763.08123	8189.15
2765.65573	8182.75
2768.22863	8187.25
2770.79994	8149.95
2773.36967	8146.05
2775.9378	8119.55
2778.50435	8111.55
2781.06932	8121.15
2783.6327	8103.85
2786.1945	8085.95
2788.75471	8072.55
2791.31335	8060.95
2793.87041	8066.05
2796.42589	8033.65
2798.97979	8023.65
2801.53212	8014.45
2804.08288	8036.85
2806.63206	8015.25
2809.17967	8014.25
2811.72571	7995.45
2814.27018	7984.05
2816.81308	7966.95
2819.35442	7964.65
2821.89419	7943.75
2824.43239	7953.95
2826.96904	7928.75
2829.50412	7940.35
2832.03763	7913.15
2834.56959	7918.15
2837.1	7889.95
2839.62884	7895.75
2842.15613	7906.85
2844.68186	7890.95
2847.20604	7898.05
2849.72867	7891.25
2852.24974	7861.25
2854.76927	7851.25
2857.28724	7845.85
2859.80367	7874.95
2862.31855	7874.25
2864.83189	7867.75
2867.34368	7837.75
2869.85393	7839.35
2872.36264	7831.45
2874.8698	7839.75
2877.37543	7838.25
2879.87952	7829.35
2882.38207	7818.85
2884.88308	7808.55
2887.38256	7837.05
2889.88051	7815.15
2892.37692	7821.55
2894.8718	7819.25
2897.36515	7822.45
2899.85698	7811.55
2902.34727	7841.25
2904.83604	7822.25
2907.32328	7821.05
2909.809	7831.75
2912.29319	7832.85
2914.77587	7830.95
2917.25702	7835.35
2919.73665	7824.55
2922.21476	7837.25
2924.69136	7820.35
2927.16644	7827.45
2929.64	7796.45
2932.11205	7776.55
2934.58258	7759.45
2937.05161	7779.55
2939.51912	7756.65
2941.98513	7766.05
2944.44962	7738.15
2946.91261	7703.05
2949.37409	7711.45
2951.83407	7712.25
2954.29254	7709.55
2956.74951	7687.15
2959.20498	7653.05
2961.65895	7648.45
2964.11142	7639.35
2966.56239	7622.85
2969.01186	7599.05
2971.45984	7602.95
2973.90632	7566.75
2976.35131	7559.95
2978.7948	7550.05
2981.23681	7526.65
2983.67732	7503.15
2986.11635	7500.35
2988.55388	7463.35
2990.98993	7437.25
2993.4245	7448.25
2995.85758	7429.55
2998.28917	7408.55
3000.71928	7398.45
3003.14791	7389.55
3005.57506	7378.35
3008.00073	7360.15
3010.42493	7354.95
3012.84764	7322.85
3015.26888	7332.15
3017.68865	7314.05
3020.10694	7290.75
3022.52376	7256.45
3024.9391	7259.35
3027.35298	7248.45
3029.76539	7222.35
3032.17632	7219.05
3034.5858	7210.05
3036.9938	7228.45
3039.40034	7188.95
3041.80542	7174.25
3044.20903	7155.95
3046.61118	7153.75
3049.01187	7142.65
3051.4111	7115.25
3053.80888	7114.55
3056.20519	7074.75
3058.60005	7082.35
3060.99345	7081.35
3063.3854	7055.65
3065.7759	7059.95
3068.16494	7048.05
3070.55254	7023.05
3072.93868	6995.75
3075.32338	6990.75
3077.70662	6964.45
3080.08842	6940.25
3082.46878	6951.95
3084.84769	6939.75
3087.22515	6934.25
3089.60118	6935.25
3091.97576	6921.05
3094.3489	6891.15
3096.72061	6882.45
3099.09087	6886.55
3101.4597	6872.95
3103.82709	6880.35
3106.19305	6855.75
3108.55757	6854.65
3110.92066	6833.25
3113.28232	6796.35
3115.64255	6813.95
3118.00134	6791.95
3120.35871	6780.95
3122.71466	6759.95
3125.06917	6761.85
3127.42226	6741.25
3129.77393	6752.15
3132.12417	6731.55
3134.47299	6748.35
3136.82039	6755.25
3139.16636	6745.55
3141.51092	6745.95
3143.85406	6740.25
3146.19579	6751.05
3148.53609	6726.85
3150.87499	6728.35
3153.21246	6735.75
3155.54853	6723.15
3157.88318	6725.55
3160.21642	6711.85
3162.54826	6718.65
3164.87868	6708.75
3167.2077	6690.05
3169.5353	6703.65
3171.86151	6681.55
3174.18631	6692.15
3176.5097	6684.35
3178.83169	6675.15
3181.15228	6677.25
3183.47147	6661.35
3185.78926	6651.65
3188.10565	6633.75
3190.42065	6627.55
3192.73424	6628.55
3195.04645	6639.65
3197.35725	6655.95
3199.66667	6633.35
3201.97469	6672.75
3204.28132	6643.25
3206.58656	6646.15
3208.8904	6640.35
3211.19287	6636.35
3213.49394	6608.35
3215.79363	6622.45
3218.09193	6619.45
3220.38884	6611.65
3222.68438	6625.75
3224.97853	6592.55
3227.2713	6597.85
3229.56269	6571.45
3231.8527	6589.15
3234.14133	6562.05
3236.42858	6539.25
3238.71446	6531.25
3240.99896	6537.45
3243.28209	6537.85
3245.56384	6537.45
3247.84423	6531.55
3250.12324	6522.55
3252.40088	6497.35
3254.67715	6489.95
3256.95205	6482.65
3259.22558	6454.65
3261.49775	6446.15
3263.76855	6434.65
3266.03799	6426.25
3268.30606	6421.25
3270.57277	6412.35
3272.83812	6395.35
3275.10211	6394.15
3277.36474	6386.95
3279.62601	6388.35
3281.88593	6371.65
3284.14448	6387.05
3286.40168	6389.55
3288.65753	6386.55
3290.91202	6356.75
3293.16516	6348.85
3295.41695	6332.45
3297.66738	6304.75
3299.91647	6263.85
3302.16421	6245.55
3304.4106	6205.75
3306.65564	6183.55
3308.89933	6150.25
3311.14169	6096.25
3313.38269	6049.35
3315.62236	6030.75
3317.86068	5957.25
3320.09766	5919.55
3322.3333	5840.05
3324.5676	5860.05
3326.80056	5747.45
3329.03219	5715.45
3331.26248	2.75
3333.49143	-1.75
3335.71905	1.15
