Data from AgNP_FTO_APTES_UA_100uM_CRN_0uM_R6G_10uM_NaF_0.1M_Addition_RamanShift__6__10-52-10-088.txt Node

Date: Thu Mar 24 10:52:10 GMT 2022
User: TCL
Spectrometer: QEP01345
Trigger mode: 4
Integration Time (sec): 7.000000E0
Scans to average: 10
Electric dark correction enabled: true
Nonlinearity correction enabled: false
Boxcar width: 0
XAxis mode: Raman Shifts
Number of Pixels in Spectrum: 1044
>>>>>Begin Spectral Data<<<<<
46.04893	-1.85
50.45542	0.55
54.85868	0.55
59.25871	-0.35
63.6555	36.05
68.04907	38.35
72.43941	37.85
76.82654	40.45
81.21044	46.85
85.59113	46.95
89.96862	47.85
94.34289	47.05
98.71396	51.45
103.08183	48.95
107.4465	52.55
111.80798	53.45
116.16626	53.75
120.52136	55.65
124.87327	57.75
129.222	60.95
133.56755	66.65
137.90993	67.75
142.24913	77.15
146.58517	82.15
150.91804	97.75
155.24774	120.35
159.57429	148.75
163.89768	188.45
168.21792	259.05
172.53501	349.05
176.84895	491.65
181.15975	692.55
185.46741	973.95
189.77193	1341.75
194.07331	1787.15
198.37157	2302.75
202.6667	2833.55
206.9587	3392.25
211.24758	3936.65
215.53334	4547.25
219.81599	5218.55
224.09553	5995.55
228.37195	6879.85
232.64527	7780.45
236.91549	8718.25
241.18261	9535.55
245.44663	10157.75
249.70755	10578.35
253.96539	10872.75
258.22014	11147.25
262.4718	11345.35
266.72039	11462.75
270.96589	11426.65
275.20832	11283.35
279.44768	11018.45
283.68397	10734.55
287.91719	10607.45
292.14735	10644.85
296.37445	10923.05
300.59849	11504.65
304.81948	12232.05
309.03742	12912.55
313.25231	13139.85
317.46415	12749.45
321.67296	11845.65
325.87872	11011.95
330.08145	10559.05
334.28114	10504.55
338.47781	10697.55
342.67145	10979.05
346.86207	11428.75
351.04966	12084.45
355.23424	12875.75
359.4158	13459.55
363.59435	13656.65
367.76989	13713.85
371.94243	13615.75
376.11196	13458.25
380.27849	13323.35
384.44203	13124.45
388.60257	12908.75
392.76012	12730.05
396.91468	12781.65
401.06626	13087.55
405.21485	13385.25
409.36047	13052.85
413.50311	12177.15
417.64277	11357.55
421.77947	10899.05
425.9132	10742.45
430.04396	10731.75
434.17176	10904.45
438.2966	11249.95
442.41849	11876.85
446.53742	12776.25
450.6534	13607.65
454.76644	13860.25
458.87653	13506.05
462.98368	12712.75
467.08789	12014.95
471.18916	11395.45
475.2875	10837.05
479.38291	10401.25
483.4754	10051.35
487.56496	9820.85
491.6516	9705.55
495.73531	9646.15
499.81612	9699.55
503.89401	9861.35
507.96899	10043.75
512.04106	10216.65
516.11023	10449.95
520.1765	10639.55
524.23987	10819.75
528.30034	10849.75
532.35792	10783.65
536.41261	10434.15
540.46441	9924.15
544.51333	9574.45
548.55936	9545.25
552.60252	9884.85
556.64279	10456.85
560.6802	10856.75
564.71473	10986.35
568.7464	11416.65
572.7752	11819.55
576.80114	11462.15
580.82422	11000.25
584.84444	11245.05
588.86181	12353.85
592.87633	14092.35
596.888	14881.35
600.89682	13890.45
604.9028	13912.95
608.90594	17821.95
612.90624	23754.05
616.90371	23213.55
620.89834	15022.45
624.89015	10615.35
628.87913	9778.75
632.86528	9908.65
636.84862	10130.65
640.82913	9853.05
644.80683	9140.85
648.78172	8627.15
652.75379	8577.45
656.72306	9111.05
660.68952	9829.05
664.65319	9744.65
668.61405	9066.25
672.57211	8748.65
676.52738	8781.95
680.47986	8750.55
684.42955	8502.95
688.37646	8284.85
692.32058	8286.35
696.26192	8421.05
700.20048	8675.95
704.13626	8831.55
708.06928	8825.95
711.99952	8743.45
715.927	8672.55
719.85171	8766.55
723.77365	8805.75
727.69284	8670.55
731.60928	8542.55
735.52295	8584.75
739.43388	8725.55
743.34206	8828.65
747.24749	8855.15
751.15017	8874.55
755.05012	9024.85
758.94733	9649.25
762.8418	11309.75
766.73354	14268.85
770.62254	17444.75
774.50882	19114.35
778.39237	18362.95
782.27321	15414.15
786.15132	12200.25
790.02671	10156.05
793.89938	9178.65
797.76935	8780.65
801.6366	8567.35
805.50115	8448.85
809.36299	8349.05
813.22213	8249.55
817.07857	8138.25
820.93231	8145.45
824.78336	8170.45
828.63172	8269.15
832.47738	8305.65
836.32036	8264.05
840.16066	8205.45
843.99827	8145.75
847.8332	8146.45
851.66546	8117.85
855.49504	8106.75
859.32195	8105.55
863.1462	8067.35
866.96777	8036.15
870.78668	8008.25
874.60293	8022.65
878.41652	8052.85
882.22745	8141.35
886.03573	8245.75
889.84136	8242.35
893.64433	8183.35
897.44466	8152.85
901.24235	8119.25
905.0374	8065.25
908.8298	7923.55
912.61957	7855.05
916.40671	7871.05
920.19121	7986.55
923.97308	8193.35
927.75233	8450.75
931.52895	8609.35
935.30295	8424.55
939.07433	8000.45
942.84309	7631.95
946.60924	7425.75
950.37278	7341.95
954.13371	7273.85
957.89203	7215.95
961.64774	7161.35
965.40086	7093.25
969.15137	7052.65
972.89929	7004.55
976.64461	7004.25
980.38733	7013.45
984.12747	7012.75
987.86502	7076.55
991.59999	7171.95
995.33237	7387.15
999.06217	7794.25
1002.78939	8249.15
1006.51404	8574.05
1010.23611	8761.45
1013.95561	8951.55
1017.67255	8907.95
1021.38692	8620.65
1025.09872	8155.55
1028.80796	7882.15
1032.51465	7844.15
1036.21877	7966.95
1039.92035	8013.75
1043.61937	8089.55
1047.31584	8089.05
1051.00976	8059.85
1054.70114	8029.05
1058.38998	7978.75
1062.07627	7944.25
1065.76003	7928.05
1069.44126	8003.85
1073.11995	8207.45
1076.79611	8554.95
1080.46974	8859.55
1084.14085	9345.25
1087.80943	9808.85
1091.47549	9968.85
1095.13903	9640.05
1098.80005	9056.35
1102.45857	8598.05
1106.11456	8454.35
1109.76805	8577.05
1113.41903	8909.45
1117.06751	9438.95
1120.71348	10147.55
1124.35696	10979.05
1127.99793	11630.45
1131.63641	11493.65
1135.2724	10704.55
1138.90589	9911.15
1142.5369	9461.35
1146.16542	9191.85
1149.79145	9042.45
1153.415	8978.95
1157.03607	9016.75
1160.65467	9210.05
1164.27079	9741.15
1167.88443	10799.15
1171.49561	12566.05
1175.10432	15173.35
1178.71056	18641.85
1182.31434	21336.25
1185.91565	21877.15
1189.51451	20679.25
1193.11091	18825.65
1196.70485	16980.35
1200.29634	15328.45
1203.88538	13807.45
1207.47197	12234.25
1211.05612	11146.45
1214.63782	10756.95
1218.21708	11037.05
1221.79391	11547.65
1225.36829	11740.35
1228.94024	11302.25
1232.50976	10558.35
1236.07685	10101.65
1239.6415	9910.05
1243.20374	9885.75
1246.76355	9900.45
1250.32093	10034.75
1253.8759	10358.85
1257.42845	10862.25
1260.97859	11539.25
1264.52631	12322.95
1268.07163	12994.55
1271.61453	13604.65
1275.15503	14089.55
1278.69312	14406.75
1282.22882	14844.55
1285.76211	15657.95
1289.29301	16755.15
1292.82151	18021.05
1296.34761	19412.95
1299.87133	21180.35
1303.39266	23689.65
1306.9116	27324.55
1310.42815	31590.85
1313.94233	34112.75
1317.45412	32947.85
1320.96354	29080.15
1324.47058	24837.35
1327.97525	21501.65
1331.47754	19664.85
1334.97747	19109.55
1338.47502	19240.85
1341.97022	19521.75
1345.46305	20179.55
1348.95352	21829.25
1352.44163	24749.65
1355.92738	29107.55
1359.41078	34805.65
1362.89183	39486.75
1366.37053	38219.65
1369.84688	31469.25
1373.32088	24407.95
1376.79254	20020.65
1380.26186	17820.45
1383.72883	16479.35
1387.19347	15463.15
1390.65578	14650.45
1394.11575	14251.25
1397.57339	14354.25
1401.0287	14660.15
1404.48168	14956.65
1407.93234	14976.55
1411.38068	14814.95
1414.82669	14467.95
1418.27039	13975.75
1421.71177	13427.75
1425.15083	12934.85
1428.58758	12885.85
1432.02203	13215.45
1435.45416	13621.95
1438.88399	13846.35
1442.31151	13809.65
1445.73673	13854.85
1449.15965	13906.35
1452.58027	13777.15
1455.9986	13451.65
1459.41463	13335.75
1462.82837	13654.15
1466.23982	14320.95
1469.64898	15013.55
1473.05586	15455.05
1476.46045	15677.45
1479.86276	15850.95
1483.26279	16058.65
1486.66054	16346.95
1490.05602	16926.95
1493.44922	17699.25
1496.84016	18862.35
1500.22882	20906.75
1503.61521	24028.45
1506.99934	27750.25
1510.38121	31208.75
1513.76081	32569.75
1517.13816	30210.15
1520.51324	25378.45
1523.88607	20962.25
1527.25665	18382.45
1530.62498	17162.15
1533.99105	16546.55
1537.35488	15985.55
1540.71647	15472.95
1544.07581	14961.25
1547.4329	14542.85
1550.78776	14101.05
1554.14038	13785.05
1557.49077	13667.85
1560.83892	13767.75
1564.18484	14262.95
1567.52853	15060.15
1570.86999	15818.25
1574.20922	16262.85
1577.54624	16185.35
1580.88103	15120.15
1584.2136	13573.85
1587.54395	12780.45
1590.87208	13293.55
1594.19801	15073.75
1597.52172	17584.65
1600.84321	19270.75
1604.16251	18806.05
1607.47959	16564.45
1610.79447	13875.15
1614.10715	11579.65
1617.41763	10087.25
1620.7259	9247.25
1624.03199	8866.75
1627.33587	8875.65
1630.63757	9288.75
1633.93707	10223.55
1637.23439	11931.55
1640.52951	14807.75
1643.82246	19064.05
1647.11321	23452.15
1650.40179	25755.15
1653.68819	23872.65
1656.97241	19046.55
1660.25446	14124.55
1663.53433	10756.25
1666.81203	8844.25
1670.08756	7796.05
1673.36092	7201.95
1676.63211	6839.55
1679.90115	6581.35
1683.16801	6418.05
1686.43272	6293.95
1689.69527	6216.95
1692.95567	6151.45
1696.2139	6107.15
1699.46999	6079.65
1702.72392	6058.35
1705.97571	6023.85
1709.22535	6017.85
1712.47284	6014.45
1715.71819	5986.45
1718.96139	5959.05
1722.20246	5939.75
1725.44139	5891.85
1728.67818	5810.85
1731.91284	5721.65
1735.14537	5670.55
1738.37576	5618.15
1741.60403	5586.45
1744.83017	5558.25
1748.05418	5519.55
1751.27607	5505.45
1754.49584	5473.55
1757.71349	5477.75
1760.92903	5452.75
1764.14244	5438.15
1767.35375	5411.35
1770.56294	5391.55
1773.77002	5378.25
1776.97499	5312.05
1780.17785	5323.25
1783.37861	5281.55
1786.57727	5263.95
1789.77382	5245.45
1792.96828	5221.35
1796.16064	5225.05
1799.3509	5208.95
1802.53907	5202.65
1805.72514	5176.65
1808.90913	5165.25
1812.09102	5129.75
1815.27083	5095.45
1818.44856	5091.15
1821.6242	5061.95
1824.79776	5048.85
1827.96924	5040.85
1831.13864	5023.55
1834.30597	5025.55
1837.47122	5014.85
1840.6344	5006.95
1843.7955	5006.65
1846.95454	4985.65
1850.11151	5004.75
1853.26642	5012.25
1856.41926	5010.65
1859.57004	5047.65
1862.71876	5042.85
1865.86542	5028.85
1869.01003	5057.15
1872.15258	5049.55
1875.29308	5070.75
1878.43152	5073.65
1881.56792	5069.95
1884.70227	5079.85
1887.83457	5065.95
1890.96482	5061.85
1894.09304	5073.25
1897.21921	5078.25
1900.34335	5072.45
1903.46544	5066.95
1906.58551	5064.25
1909.70353	5046.75
1912.81953	5038.05
1915.93349	5025.05
1919.04543	5013.55
1922.15534	4974.05
1925.26322	4949.95
1928.36908	4909.25
1931.47292	4898.95
1934.57473	4857.35
1937.67453	4821.15
1940.77232	4798.95
1943.86808	4778.85
1946.96184	4752.25
1950.05358	4736.85
1953.14331	4705.45
1956.23103	4702.15
1959.31675	4670.35
1962.40046	4681.65
1965.48217	4688.65
1968.56188	4678.15
1971.63959	4682.95
1974.7153	4684.25
1977.78901	4674.45
1980.86073	4660.35
1983.93046	4638.85
1986.99819	4635.85
1990.06394	4622.75
1993.1277	4615.05
1996.18947	4594.35
1999.24925	4585.55
2002.30706	4560.75
2005.36288	4549.85
2008.41672	4543.35
2011.46859	4528.75
2014.51848	4500.45
2017.56639	4462.35
2020.61233	4450.65
2023.6563	4419.25
2026.6983	4375.95
2029.73833	4373.75
2032.7764	4362.35
2035.8125	4329.05
2038.84664	4325.15
2041.87881	4319.05
2044.90903	4299.95
2047.93729	4294.85
2050.96359	4291.45
2053.98794	4298.25
2057.01034	4291.15
2060.03078	4291.35
2063.04927	4297.35
2066.06582	4290.25
2069.08042	4302.75
2072.09307	4291.65
2075.10378	4284.15
2078.11255	4271.75
2081.11938	4281.05
2084.12426	4287.35
2087.12722	4283.25
2090.12824	4273.05
2093.12732	4282.85
2096.12447	4278.05
2099.11969	4282.55
2102.11299	4294.45
2105.10435	4291.05
2108.09379	4283.85
2111.08131	4259.45
2114.0669	4252.25
2117.05057	4233.35
2120.03233	4196.45
2123.01216	4187.65
2125.99008	4180.25
2128.96609	4176.85
2131.94018	4160.05
2134.91236	4154.55
2137.88263	4150.35
2140.851	4127.95
2143.81746	4137.95
2146.78201	4132.65
2149.74466	4125.05
2152.7054	4107.15
2155.66425	4082.55
2158.6212	4075.05
2161.57625	4072.05
2164.52941	4068.05
2167.48067	4055.55
2170.43004	4040.85
2173.37752	4044.15
2176.32311	4037.75
2179.26681	4053.45
2182.20863	4040.25
2185.14856	4053.25
2188.08661	4051.05
2191.02278	4045.55
2193.95707	4038.05
2196.88948	4032.65
2199.82001	4034.45
2202.74867	4013.45
2205.67545	4016.75
2208.60037	4011.85
2211.52341	3985.75
2214.44458	3978.35
2217.36388	3966.55
2220.28132	3964.95
2223.1969	3949.95
2226.11061	3961.45
2229.02246	3926.25
2231.93245	3924.95
2234.84058	3932.35
2237.74686	3904.55
2240.65128	3925.75
2243.55385	3899.45
2246.45456	3901.95
2249.35343	3889.05
2252.25044	3884.05
2255.14561	3890.25
2258.03893	3891.35
2260.93041	3889.55
2263.82004	3879.05
2266.70783	3875.15
2269.59378	3869.05
2272.4779	3840.95
2275.36017	3830.75
2278.24061	3827.15
2281.11922	3819.25
2283.996	3814.55
2286.87094	3806.05
2289.74405	3794.25
2292.61534	3760.75
2295.4848	3766.75
2298.35243	3761.15
2301.21824	3747.75
2304.08223	3746.35
2306.94439	3750.45
2309.80474	3758.35
2312.66327	3757.15
2315.51999	3751.15
2318.37489	3754.45
2321.22797	3753.85
2324.07925	3741.85
2326.92871	3746.25
2329.77637	3737.85
2332.62222	3724.65
2335.46626	3728.75
2338.3085	3713.45
2341.14893	3722.45
2343.98756	3732.55
2346.8244	3752.95
2349.65943	3753.65
2352.49267	3771.95
2355.32411	3772.85
2358.15376	3788.15
2360.98161	3797.15
2363.80768	3811.95
2366.63195	3818.85
2369.45444	3813.65
2372.27514	3828.35
2375.09405	3821.15
2377.91118	3819.05
2380.72652	3793.85
2383.54009	3760.15
2386.35187	3736.95
2389.16188	3704.05
2391.97011	3686.15
2394.77657	3686.35
2397.58125	3667.35
2400.38416	3665.55
2403.18529	3650.55
2405.98466	3636.15
2408.78226	3608.45
2411.57809	3617.45
2414.37216	3604.75
2417.16446	3596.75
2419.955	3593.95
2422.74378	3592.15
2425.5308	3598.15
2428.31606	3590.95
2431.09956	3594.65
2433.88131	3601.15
2436.6613	3597.95
2439.43954	3599.75
2442.21603	3600.85
2444.99077	3618.85
2447.76377	3626.25
2450.53501	3631.75
2453.30451	3632.85
2456.07226	3640.05
2458.83827	3633.15
2461.60254	3636.65
2464.36507	3639.45
2467.12586	3639.65
2469.88492	3639.65
2472.64224	3648.15
2475.39782	3657.65
2478.15167	3661.95
2480.90379	3668.55
2483.65417	3682.05
2486.40283	3701.55
2489.14976	3715.25
2491.89497	3728.85
2494.63845	3740.35
2497.3802	3721.75
2500.12024	3725.65
2502.85855	3719.55
2505.59514	3701.65
2508.33002	3665.95
2511.06318	3636.25
2513.79462	3617.25
2516.52435	3580.15
2519.25237	3560.15
2521.97867	3557.35
2524.70327	3538.65
2527.42616	3547.15
2530.14734	3529.75
2532.86681	3522.85
2535.58458	3520.15
2538.30065	3519.95
2541.01501	3541.05
2543.72768	3527.45
2546.43864	3533.65
2549.14791	3538.35
2551.85548	3535.85
2554.56136	3546.55
2557.26554	3544.75
2559.96803	3553.25
2562.66883	3542.15
2565.36794	3541.95
2568.06536	3534.25
2570.7611	3529.45
2573.45514	3516.85
2576.14751	3517.45
2578.83819	3515.75
2581.52719	3520.55
2584.21451	3511.15
2586.90015	3511.15
2589.58411	3485.45
2592.2664	3490.15
2594.94701	3500.75
2597.62594	3491.65
2600.30321	3480.75
2602.9788	3488.75
2605.65273	3496.65
2608.32498	3493.45
2610.99557	3485.95
2613.66449	3487.75
2616.33175	3496.15
2618.99734	3509.55
2621.66128	3491.85
2624.32355	3488.05
2626.98416	3492.25
2629.64311	3469.65
2632.30041	3478.45
2634.95605	3457.15
2637.61004	3466.95
2640.26238	3449.45
2642.91306	3458.95
2645.56209	3448.15
2648.20948	3456.25
2650.85521	3454.85
2653.4993	3439.15
2656.14175	3459.75
2658.78255	3481.05
2661.42171	3465.65
2664.05923	3475.75
2666.6951	3486.95
2669.32934	3504.95
2671.96194	3505.75
2674.59291	3500.65
2677.22224	3504.55
2679.84993	3493.45
2682.476	3471.15
2685.10043	3476.15
2687.72324	3470.55
2690.34441	3469.15
2692.96396	3476.15
2695.58188	3475.95
2698.19818	3460.45
2700.81285	3470.85
2703.4259	3474.45
2706.03733	3484.85
2708.64714	3478.05
2711.25533	3488.35
2713.86191	3488.55
2716.46687	3497.95
2719.07021	3505.65
2721.67194	3517.15
2724.27206	3516.85
2726.87057	3513.15
2729.46747	3494.15
2732.06276	3492.25
2734.65644	3479.95
2737.24852	3477.05
2739.83899	3474.25
2742.42786	3463.45
2745.01513	3447.45
2747.60079	3466.55
2750.18486	3440.65
2752.76733	3463.05
2755.3482	3453.95
2757.92747	3475.75
2760.50515	3464.15
2763.08123	3462.65
2765.65573	3459.05
2768.22863	3450.45
2770.79994	3453.65
2773.36967	3461.65
2775.9378	3469.55
2778.50435	3467.45
2781.06932	3464.05
2783.6327	3483.45
2786.1945	3489.85
2788.75471	3494.65
2791.31335	3488.25
2793.87041	3492.85
2796.42589	3485.75
2798.97979	3497.85
2801.53212	3478.85
2804.08288	3498.25
2806.63206	3496.55
2809.17967	3499.75
2811.72571	3503.05
2814.27018	3522.35
2816.81308	3539.65
2819.35442	3536.55
2821.89419	3554.45
2824.43239	3558.05
2826.96904	3568.75
2829.50412	3586.05
2832.03763	3568.35
2834.56959	3587.85
2837.1	3595.45
2839.62884	3607.95
2842.15613	3627.15
2844.68186	3654.05
2847.20604	3701.05
2849.72867	3739.55
2852.24974	3770.15
2854.76927	3763.55
2857.28724	3774.75
2859.80367	3779.85
2862.31855	3787.65
2864.83189	3802.85
2867.34368	3818.15
2869.85393	3820.45
2872.36264	3812.45
2874.8698	3833.95
2877.37543	3837.75
2879.87952	3834.15
2882.38207	3832.25
2884.88308	3832.55
2887.38256	3834.35
2889.88051	3811.45
2892.37692	3803.35
2894.8718	3809.25
2897.36515	3811.75
2899.85698	3800.55
2902.34727	3810.05
2904.83604	3800.55
2907.32328	3820.75
2909.809	3818.85
2912.29319	3819.25
2914.77587	3803.35
2917.25702	3807.45
2919.73665	3793.05
2922.21476	3789.95
2924.69136	3782.75
2927.16644	3766.45
2929.64	3750.35
2932.11205	3730.05
2934.58258	3715.85
2937.05161	3714.95
2939.51912	3681.15
2941.98513	3653.55
2944.44962	3609.05
2946.91261	3570.85
2949.37409	3559.85
2951.83407	3548.65
2954.29254	3530.05
2956.74951	3511.85
2959.20498	3498.15
2961.65895	3474.95
2964.11142	3457.35
2966.56239	3450.85
2969.01186	3420.15
2971.45984	3393.05
2973.90632	3372.35
2976.35131	3354.85
2978.7948	3340.85
2981.23681	3315.65
2983.67732	3310.95
2986.11635	3292.55
2988.55388	3289.15
2990.98993	3279.05
2993.4245	3262.15
2995.85758	3268.05
2998.28917	3258.15
3000.71928	3251.45
3003.14791	3238.25
3005.57506	3249.75
3008.00073	3259.95
3010.42493	3243.25
3012.84764	3254.35
3015.26888	3243.15
3017.68865	3226.65
3020.10694	3228.65
3022.52376	3200.05
3024.9391	3197.25
3027.35298	3179.35
3029.76539	3184.15
3032.17632	3162.75
3034.5858	3150.95
3036.9938	3136.95
3039.40034	3137.05
3041.80542	3148.85
3044.20903	3118.45
3046.61118	3118.75
3049.01187	3127.75
3051.4111	3109.95
3053.80888	3108.05
3056.20519	3103.35
3058.60005	3102.05
3060.99345	3111.05
3063.3854	3090.15
3065.7759	3075.55
3068.16494	3059.15
3070.55254	3054.45
3072.93868	3057.95
3075.32338	3051.25
3077.70662	3043.55
3080.08842	3038.75
3082.46878	3040.45
3084.84769	3014.65
3087.22515	3012.95
3089.60118	3020.35
3091.97576	3017.25
3094.3489	3012.85
3096.72061	3002.05
3099.09087	3012.25
3101.4597	3009.45
3103.82709	2997.35
3106.19305	2991.05
3108.55757	2981.65
3110.92066	2979.15
3113.28232	2968.35
3115.64255	2968.75
3118.00134	2973.85
3120.35871	2967.95
3122.71466	2964.05
3125.06917	2970.95
3127.42226	2961.75
3129.77393	2976.25
3132.12417	2963.65
3134.47299	2979.15
3136.82039	2988.25
3139.16636	2989.05
3141.51092	2984.05
3143.85406	2982.15
3146.19579	2969.75
3148.53609	2981.25
3150.87499	2989.95
3153.21246	2993.15
3155.54853	2992.75
3157.88318	2989.65
3160.21642	2997.05
3162.54826	3004.05
3164.87868	2984.95
3167.2077	2989.35
3169.5353	3008.95
3171.86151	2995.65
3174.18631	2995.35
3176.5097	2996.95
3178.83169	3000.55
3181.15228	3012.15
3183.47147	3002.95
3185.78926	3004.45
3188.10565	3029.35
3190.42065	3022.95
3192.73424	3028.55
3195.04645	3024.95
3197.35725	3034.55
3199.66667	3055.05
3201.97469	3043.85
3204.28132	3046.85
3206.58656	3072.15
3208.8904	3067.85
3211.19287	3066.85
3213.49394	3074.35
3215.79363	3071.65
3218.09193	3072.15
3220.38884	3067.85
3222.68438	3079.25
3224.97853	3072.45
3227.2713	3078.55
3229.56269	3065.55
3231.8527	3089.85
3234.14133	3066.35
3236.42858	3067.35
3238.71446	3070.35
3240.99896	3076.15
3243.28209	3083.75
3245.56384	3085.75
3247.84423	3097.75
3250.12324	3087.65
3252.40088	3080.25
3254.67715	3070.35
3256.95205	3082.95
3259.22558	3069.95
3261.49775	3080.95
3263.76855	3045.15
3266.03799	3042.95
3268.30606	3060.55
3270.57277	3052.75
3272.83812	3053.65
3275.10211	3056.35
3277.36474	3061.15
3279.62601	3060.65
3281.88593	3052.15
3284.14448	3061.05
3286.40168	3073.55
3288.65753	3073.15
3290.91202	3063.65
3293.16516	3053.05
3295.41695	3061.85
3297.66738	3044.95
3299.91647	3031.05
3302.16421	3015.45
3304.4106	2992.15
3306.65564	2979.95
3308.89933	2976.15
3311.14169	2947.65
3313.38269	2916.05
3315.62236	2899.55
3317.86068	2875.65
3320.09766	2828.15
3322.3333	2796.35
3324.5676	2812.35
3326.80056	2752.65
3329.03219	2746.95
3331.26248	1.85
3333.49143	-0.75
3335.71905	0.35
