Data from AgNPs_UA_5uM_CRN_500uM_AS_RamanShift__16__13-16-13-855.txt Node

Date: Wed Aug 17 13:16:13 BST 2022
User: TCL
Spectrometer: QEP01345
Trigger mode: 4
Integration Time (sec): 7.000000E0
Scans to average: 10
Electric dark correction enabled: true
Nonlinearity correction enabled: false
Boxcar width: 0
XAxis mode: Raman Shifts
Number of Pixels in Spectrum: 1044
>>>>>Begin Spectral Data<<<<<
46.04893	0.075
50.45542	0.275
54.85868	0.175
59.25871	0.275
63.6555	41.375
68.04907	48.975
72.43941	51.275
76.82654	57.475
81.21044	61.275
85.59113	64.275
89.96862	69.075
94.34289	70.975
98.71396	70.975
103.08183	76.375
107.4465	73.975
111.80798	74.975
116.16626	72.075
120.52136	75.275
124.87327	73.175
129.222	72.575
133.56755	77.075
137.90993	73.975
142.24913	76.475
146.58517	73.375
150.91804	75.375
155.24774	77.675
159.57429	88.675
163.89768	94.675
168.21792	103.875
172.53501	128.475
176.84895	161.375
181.15975	201.075
185.46741	262.775
189.77193	350.375
194.07331	476.675
198.37157	629.375
202.6667	796.475
206.9587	980.875
211.24758	1167.775
215.53334	1356.375
219.81599	1527.775
224.09553	1711.375
228.37195	1857.875
232.64527	2003.075
236.91549	2132.875
241.18261	2233.575
245.44663	2311.475
249.70755	2349.875
253.96539	2372.775
258.22014	2355.275
262.4718	2318.275
266.72039	2262.575
270.96589	2187.675
275.20832	2100.075
279.44768	2010.075
283.68397	1925.275
287.91719	1844.475
292.14735	1802.675
296.37445	1774.375
300.59849	1749.375
304.81948	1770.075
309.03742	1772.275
313.25231	1751.975
317.46415	1705.175
321.67296	1642.875
325.87872	1591.275
330.08145	1566.775
334.28114	1564.975
338.47781	1601.375
342.67145	1633.775
346.86207	1672.475
351.04966	1725.875
355.23424	1766.975
359.4158	1793.275
363.59435	1808.375
367.76989	1811.075
371.94243	1803.075
376.11196	1782.275
380.27849	1785.175
384.44203	1781.075
388.60257	1769.275
392.76012	1770.375
396.91468	1771.775
401.06626	1790.675
405.21485	1812.775
409.36047	1797.575
413.50311	1769.575
417.64277	1751.975
421.77947	1737.275
425.9132	1735.475
430.04396	1748.175
434.17176	1777.175
438.2966	1803.175
442.41849	1837.875
446.53742	1867.875
450.6534	1890.275
454.76644	1928.275
458.87653	1945.575
462.98368	1948.175
467.08789	1918.675
471.18916	1920.675
475.2875	1902.475
479.38291	1873.175
483.4754	1849.575
487.56496	1848.275
491.6516	1853.475
495.73531	1848.975
499.81612	1852.775
503.89401	1861.075
507.96899	1862.275
512.04106	1857.875
516.11023	1874.175
520.1765	1845.775
524.23987	1860.475
528.30034	1833.775
532.35792	1830.575
536.41261	1824.875
540.46441	1802.275
544.51333	1806.975
548.55936	1818.875
552.60252	1826.275
556.64279	1844.275
560.6802	1857.875
564.71473	1892.675
568.7464	1957.775
572.7752	1979.575
576.80114	1962.775
580.82422	1922.975
584.84444	1884.575
588.86181	1870.075
592.87633	1866.175
596.888	1889.775
600.89682	1921.775
604.9028	2024.875
608.90594	2277.375
612.90624	2526.975
616.90371	2454.375
620.89834	2136.375
624.89015	1993.475
628.87913	1994.875
632.86528	2009.075
636.84862	2051.575
640.82913	2081.275
644.80683	2111.975
648.78172	2127.175
652.75379	2148.875
656.72306	2160.475
660.68952	2188.775
664.65319	2221.975
668.61405	2310.375
672.57211	2498.575
676.52738	2806.175
680.47986	3067.675
684.42955	3097.475
688.37646	2909.975
692.32058	2661.375
696.26192	2476.875
700.20048	2388.475
704.13626	2336.875
708.06928	2271.375
711.99952	2202.575
715.927	2145.575
719.85171	2127.575
723.77365	2142.875
727.69284	2151.975
731.60928	2159.875
735.52295	2129.175
739.43388	2097.075
743.34206	2088.475
747.24749	2114.475
751.15017	2154.175
755.05012	2201.775
758.94733	2255.575
762.8418	2316.675
766.73354	2383.575
770.62254	2427.675
774.50882	2423.675
778.39237	2359.175
782.27321	2211.975
786.15132	2094.775
790.02671	2013.175
793.89938	1977.075
797.76935	1968.875
801.6366	1982.975
805.50115	1980.575
809.36299	1975.575
813.22213	1954.575
817.07857	1925.975
820.93231	1935.575
824.78336	1918.075
828.63172	1920.375
832.47738	1934.975
836.32036	1928.275
840.16066	1928.075
843.99827	1917.975
847.8332	1919.375
851.66546	1915.875
855.49504	1938.175
859.32195	1957.975
863.1462	1997.275
866.96777	2007.275
870.78668	2005.275
874.60293	2004.475
878.41652	2001.375
882.22745	1990.775
886.03573	1986.875
889.84136	1962.075
893.64433	1954.775
897.44466	1952.375
901.24235	1954.375
905.0374	1956.375
908.8298	1934.575
912.61957	1932.875
916.40671	1936.075
920.19121	1951.875
923.97308	1985.275
927.75233	2022.075
931.52895	2064.375
935.30295	2053.775
939.07433	2040.075
942.84309	1992.975
946.60924	1956.275
950.37278	1930.375
954.13371	1905.275
957.89203	1909.875
961.64774	1926.075
965.40086	1929.275
969.15137	1911.675
972.89929	1895.475
976.64461	1879.775
980.38733	1877.775
984.12747	1867.775
987.86502	1851.575
991.59999	1856.475
995.33237	1853.075
999.06217	1864.175
1002.78939	1864.275
1006.51404	1872.875
1010.23611	1899.875
1013.95561	1895.975
1017.67255	1895.575
1021.38692	1891.275
1025.09872	1890.475
1028.80796	1897.375
1032.51465	1910.275
1036.21877	1950.675
1039.92035	1966.675
1043.61937	2005.975
1047.31584	2032.575
1051.00976	2053.875
1054.70114	2058.575
1058.38998	2021.675
1062.07627	1990.275
1065.76003	1959.575
1069.44126	1930.175
1073.11995	1920.875
1076.79611	1901.275
1080.46974	1906.875
1084.14085	1921.575
1087.80943	1920.675
1091.47549	1932.075
1095.13903	1916.475
1098.80005	1905.275
1102.45857	1878.875
1106.11456	1881.275
1109.76805	1888.675
1113.41903	1897.175
1117.06751	1933.975
1120.71348	1979.175
1124.35696	2013.175
1127.99793	2047.375
1131.63641	2045.075
1135.2724	1996.275
1138.90589	1958.275
1142.5369	1940.275
1146.16542	1919.575
1149.79145	1893.875
1153.415	1884.075
1157.03607	1886.775
1160.65467	1892.775
1164.27079	1890.775
1167.88443	1914.375
1171.49561	1953.075
1175.10432	2023.775
1178.71056	2120.075
1182.31434	2220.475
1185.91565	2225.375
1189.51451	2198.975
1193.11091	2125.975
1196.70485	2070.875
1200.29634	2026.475
1203.88538	1988.675
1207.47197	1962.675
1211.05612	1919.275
1214.63782	1902.875
1218.21708	1907.175
1221.79391	1903.875
1225.36829	1908.375
1228.94024	1911.575
1232.50976	1928.075
1236.07685	1947.575
1239.6415	1971.075
1243.20374	1984.375
1246.76355	2008.675
1250.32093	2013.675
1253.8759	2038.875
1257.42845	2057.175
1260.97859	2062.375
1264.52631	2082.475
1268.07163	2072.575
1271.61453	2070.775
1275.15503	2055.675
1278.69312	2042.675
1282.22882	2028.275
1285.76211	2045.775
1289.29301	2060.375
1292.82151	2084.475
1296.34761	2121.775
1299.87133	2171.675
1303.39266	2276.975
1306.9116	2421.075
1310.42815	2538.175
1313.94233	2578.475
1317.45412	2493.175
1320.96354	2357.475
1324.47058	2262.475
1327.97525	2191.575
1331.47754	2146.375
1334.97747	2156.375
1338.47502	2182.675
1341.97022	2248.275
1345.46305	2348.875
1348.95352	2485.275
1352.44163	2616.375
1355.92738	2803.475
1359.41078	3063.375
1362.89183	3264.475
1366.37053	3177.475
1369.84688	2879.375
1373.32088	2598.975
1376.79254	2431.075
1380.26186	2308.875
1383.72883	2215.675
1387.19347	2130.975
1390.65578	2052.875
1394.11575	2022.575
1397.57339	2006.575
1401.0287	2013.275
1404.48168	2040.875
1407.93234	2074.275
1411.38068	2147.475
1414.82669	2208.775
1418.27039	2270.175
1421.71177	2287.475
1425.15083	2272.575
1428.58758	2225.175
1432.02203	2179.275
1435.45416	2148.675
1438.88399	2103.775
1442.31151	2065.375
1445.73673	2045.175
1449.15965	2034.975
1452.58027	2039.675
1455.9986	2026.475
1459.41463	2024.675
1462.82837	2040.975
1466.23982	2043.775
1469.64898	2042.675
1473.05586	2041.575
1476.46045	2013.975
1479.86276	1997.675
1483.26279	1977.475
1486.66054	1978.775
1490.05602	1986.175
1493.44922	2035.175
1496.84016	2107.675
1500.22882	2249.675
1503.61521	2448.175
1506.99934	2650.375
1510.38121	2785.475
1513.76081	2757.075
1517.13816	2575.675
1520.51324	2357.075
1523.88607	2158.275
1527.25665	2063.775
1530.62498	1994.675
1533.99105	1973.675
1537.35488	1955.475
1540.71647	1946.475
1544.07581	1944.975
1547.4329	1965.375
1550.78776	1970.175
1554.14038	1975.775
1557.49077	1989.375
1560.83892	2010.675
1564.18484	2041.075
1567.52853	2098.575
1570.86999	2128.775
1574.20922	2148.475
1577.54624	2140.375
1580.88103	2080.875
1584.2136	2015.775
1587.54395	1973.575
1590.87208	1981.475
1594.19801	1990.275
1597.52172	2021.175
1600.84321	2016.075
1604.16251	1996.975
1607.47959	1966.575
1610.79447	1933.175
1614.10715	1884.675
1617.41763	1844.675
1620.7259	1832.975
1624.03199	1815.975
1627.33587	1812.975
1630.63757	1808.775
1633.93707	1827.075
1637.23439	1870.875
1640.52951	1913.475
1643.82246	2010.575
1647.11321	2152.875
1650.40179	2241.375
1653.68819	2210.675
1656.97241	2104.975
1660.25446	1986.375
1663.53433	1917.975
1666.81203	1905.375
1670.08756	1907.075
1673.36092	1910.875
1676.63211	1935.675
1679.90115	1929.975
1683.16801	1920.375
1686.43272	1895.575
1689.69527	1870.375
1692.95567	1839.075
1696.2139	1828.775
1699.46999	1807.975
1702.72392	1777.375
1705.97571	1751.775
1709.22535	1739.175
1712.47284	1727.275
1715.71819	1722.075
1718.96139	1706.675
1722.20246	1716.675
1725.44139	1728.775
1728.67818	1732.975
1731.91284	1749.475
1735.14537	1777.575
1738.37576	1810.175
1741.60403	1840.075
1744.83017	1914.075
1748.05418	2012.175
1751.27607	2120.075
1754.49584	2214.475
1757.71349	2248.575
1760.92903	2213.775
1764.14244	2116.475
1767.35375	2004.375
1770.56294	1892.575
1773.77002	1813.575
1776.97499	1748.575
1780.17785	1688.175
1783.37861	1646.975
1786.57727	1618.675
1789.77382	1569.175
1792.96828	1524.675
1796.16064	1502.375
1799.3509	1476.275
1802.53907	1463.875
1805.72514	1443.575
1808.90913	1430.075
1812.09102	1417.675
1815.27083	1413.475
1818.44856	1393.375
1821.6242	1391.875
1824.79776	1393.375
1827.96924	1374.575
1831.13864	1378.175
1834.30597	1367.075
1837.47122	1373.075
1840.6344	1360.575
1843.7955	1355.575
1846.95454	1353.175
1850.11151	1349.375
1853.26642	1342.775
1856.41926	1338.675
1859.57004	1336.175
1862.71876	1326.675
1865.86542	1322.075
1869.01003	1327.975
1872.15258	1328.175
1875.29308	1334.375
1878.43152	1316.475
1881.56792	1334.875
1884.70227	1317.675
1887.83457	1318.775
1890.96482	1324.875
1894.09304	1313.375
1897.21921	1308.775
1900.34335	1316.475
1903.46544	1311.175
1906.58551	1308.775
1909.70353	1307.375
1912.81953	1301.875
1915.93349	1306.175
1919.04543	1308.675
1922.15534	1299.875
1925.26322	1305.975
1928.36908	1296.575
1931.47292	1305.675
1934.57473	1297.175
1937.67453	1298.375
1940.77232	1283.175
1943.86808	1275.275
1946.96184	1280.575
1950.05358	1268.275
1953.14331	1273.075
1956.23103	1271.175
1959.31675	1263.375
1962.40046	1269.175
1965.48217	1254.275
1968.56188	1253.075
1971.63959	1254.675
1974.7153	1244.075
1977.78901	1245.175
1980.86073	1240.375
1983.93046	1227.775
1986.99819	1231.575
1990.06394	1231.775
1993.1277	1227.675
1996.18947	1219.975
1999.24925	1226.975
2002.30706	1210.475
2005.36288	1213.275
2008.41672	1208.675
2011.46859	1202.075
2014.51848	1200.275
2017.56639	1199.075
2020.61233	1200.075
2023.6563	1199.075
2026.6983	1183.475
2029.73833	1181.675
2032.7764	1184.875
2035.8125	1175.375
2038.84664	1175.175
2041.87881	1169.875
2044.90903	1165.875
2047.93729	1169.475
2050.96359	1163.975
2053.98794	1164.575
2057.01034	1161.875
2060.03078	1164.075
2063.04927	1158.275
2066.06582	1163.075
2069.08042	1153.175
2072.09307	1156.275
2075.10378	1155.575
2078.11255	1154.175
2081.11938	1157.275
2084.12426	1159.975
2087.12722	1161.375
2090.12824	1167.575
2093.12732	1169.375
2096.12447	1164.175
2099.11969	1176.775
2102.11299	1177.775
2105.10435	1174.475
2108.09379	1177.475
2111.08131	1177.075
2114.0669	1182.075
2117.05057	1172.875
2120.03233	1178.875
2123.01216	1166.675
2125.99008	1185.475
2128.96609	1173.075
2131.94018	1173.675
2134.91236	1162.775
2137.88263	1172.975
2140.851	1166.975
2143.81746	1169.675
2146.78201	1176.675
2149.74466	1160.375
2152.7054	1161.275
2155.66425	1167.675
2158.6212	1160.775
2161.57625	1160.375
2164.52941	1157.975
2167.48067	1162.575
2170.43004	1160.575
2173.37752	1159.175
2176.32311	1164.175
2179.26681	1158.275
2182.20863	1151.775
2185.14856	1155.275
2188.08661	1152.075
2191.02278	1155.375
2193.95707	1152.575
2196.88948	1148.175
2199.82001	1150.475
2202.74867	1138.775
2205.67545	1137.975
2208.60037	1141.975
2211.52341	1148.175
2214.44458	1140.575
2217.36388	1135.475
2220.28132	1129.875
2223.1969	1121.175
2226.11061	1124.075
2229.02246	1127.375
2231.93245	1123.175
2234.84058	1112.275
2237.74686	1116.775
2240.65128	1112.075
2243.55385	1116.275
2246.45456	1108.375
2249.35343	1114.675
2252.25044	1114.875
2255.14561	1105.675
2258.03893	1106.875
2260.93041	1102.875
2263.82004	1104.375
2266.70783	1098.875
2269.59378	1090.075
2272.4779	1089.175
2275.36017	1092.575
2278.24061	1088.475
2281.11922	1087.275
2283.996	1083.475
2286.87094	1082.875
2289.74405	1078.875
2292.61534	1073.375
2295.4848	1078.175
2298.35243	1080.475
2301.21824	1068.975
2304.08223	1074.575
2306.94439	1075.875
2309.80474	1066.175
2312.66327	1067.075
2315.51999	1061.475
2318.37489	1067.475
2321.22797	1053.375
2324.07925	1067.275
2326.92871	1053.275
2329.77637	1063.175
2332.62222	1067.775
2335.46626	1057.775
2338.3085	1050.675
2341.14893	1054.075
2343.98756	1043.075
2346.8244	1052.075
2349.65943	1048.975
2352.49267	1051.975
2355.32411	1050.175
2358.15376	1051.375
2360.98161	1050.275
2363.80768	1046.175
2366.63195	1043.075
2369.45444	1050.575
2372.27514	1048.075
2375.09405	1046.275
2377.91118	1046.175
2380.72652	1041.675
2383.54009	1038.675
2386.35187	1036.475
2389.16188	1040.675
2391.97011	1031.375
2394.77657	1031.775
2397.58125	1022.775
2400.38416	1032.275
2403.18529	1024.575
2405.98466	1015.875
2408.78226	1027.975
2411.57809	1022.975
2414.37216	1028.475
2417.16446	1014.075
2419.955	1017.275
2422.74378	1019.375
2425.5308	1010.475
2428.31606	1016.075
2431.09956	1015.075
2433.88131	1012.475
2436.6613	1014.275
2439.43954	1005.775
2442.21603	1009.875
2444.99077	1007.475
2447.76377	1006.875
2450.53501	1008.175
2453.30451	1003.175
2456.07226	998.775
2458.83827	1000.275
2461.60254	1006.175
2464.36507	1001.275
2467.12586	995.675
2469.88492	1002.275
2472.64224	998.475
2475.39782	987.175
2478.15167	997.375
2480.90379	996.975
2483.65417	1001.675
2486.40283	1000.175
2489.14976	996.675
2491.89497	995.075
2494.63845	996.575
2497.3802	992.375
2500.12024	992.775
2502.85855	987.775
2505.59514	991.975
2508.33002	992.375
2511.06318	980.375
2513.79462	984.375
2516.52435	982.675
2519.25237	977.075
2521.97867	967.375
2524.70327	976.975
2527.42616	975.975
2530.14734	974.675
2532.86681	966.075
2535.58458	974.075
2538.30065	975.175
2541.01501	964.575
2543.72768	966.975
2546.43864	963.275
2549.14791	965.975
2551.85548	961.375
2554.56136	957.675
2557.26554	961.975
2559.96803	949.475
2562.66883	949.875
2565.36794	951.475
2568.06536	944.075
2570.7611	952.975
2573.45514	942.375
2576.14751	943.475
2578.83819	949.275
2581.52719	945.375
2584.21451	940.475
2586.90015	940.475
2589.58411	941.575
2592.2664	933.975
2594.94701	934.175
2597.62594	928.475
2600.30321	932.575
2602.9788	935.775
2605.65273	932.375
2608.32498	924.175
2610.99557	929.175
2613.66449	931.075
2616.33175	930.375
2618.99734	918.375
2621.66128	925.475
2624.32355	916.575
2626.98416	925.075
2629.64311	917.775
2632.30041	912.975
2634.95605	919.975
2637.61004	913.375
2640.26238	904.375
2642.91306	916.475
2645.56209	919.975
2648.20948	916.375
2650.85521	918.575
2653.4993	915.175
2656.14175	913.275
2658.78255	917.175
2661.42171	909.775
2664.05923	912.775
2666.6951	925.375
2669.32934	914.575
2671.96194	921.975
2674.59291	920.075
2677.22224	925.575
2679.84993	923.775
2682.476	919.975
2685.10043	919.375
2687.72324	913.375
2690.34441	914.275
2692.96396	915.975
2695.58188	925.075
2698.19818	915.475
2700.81285	922.875
2703.4259	917.875
2706.03733	915.075
2708.64714	925.075
2711.25533	918.775
2713.86191	916.475
2716.46687	922.075
2719.07021	917.875
2721.67194	924.175
2724.27206	925.675
2726.87057	920.375
2729.46747	917.475
2732.06276	929.575
2734.65644	923.575
2737.24852	919.675
2739.83899	921.775
2742.42786	926.275
2745.01513	913.675
2747.60079	910.475
2750.18486	918.675
2752.76733	913.775
2755.3482	913.575
2757.92747	921.775
2760.50515	913.475
2763.08123	912.075
2765.65573	909.975
2768.22863	910.875
2770.79994	908.775
2773.36967	911.875
2775.9378	913.575
2778.50435	914.575
2781.06932	914.475
2783.6327	912.675
2786.1945	915.975
2788.75471	921.175
2791.31335	925.075
2793.87041	924.775
2796.42589	923.675
2798.97979	927.175
2801.53212	923.375
2804.08288	926.675
2806.63206	935.475
2809.17967	943.475
2811.72571	939.375
2814.27018	946.975
2816.81308	941.475
2819.35442	949.875
2821.89419	942.975
2824.43239	955.075
2826.96904	954.275
2829.50412	954.775
2832.03763	950.375
2834.56959	952.275
2837.1	949.675
2839.62884	952.775
2842.15613	966.175
2844.68186	962.475
2847.20604	960.975
2849.72867	970.975
2852.24974	982.175
2854.76927	973.675
2857.28724	974.975
2859.80367	976.575
2862.31855	975.675
2864.83189	975.675
2867.34368	983.275
2869.85393	990.975
2872.36264	992.675
2874.8698	996.075
2877.37543	1014.075
2879.87952	1026.075
2882.38207	1027.675
2884.88308	1041.875
2887.38256	1053.575
2889.88051	1062.775
2892.37692	1067.875
2894.8718	1080.075
2897.36515	1097.875
2899.85698	1119.675
2902.34727	1124.975
2904.83604	1135.475
2907.32328	1156.375
2909.809	1170.475
2912.29319	1183.375
2914.77587	1190.675
2917.25702	1214.575
2919.73665	1229.675
2922.21476	1231.975
2924.69136	1249.675
2927.16644	1272.375
2929.64	1278.775
2932.11205	1293.275
2934.58258	1301.975
2937.05161	1320.075
2939.51912	1331.075
2941.98513	1342.175
2944.44962	1354.675
2946.91261	1362.975
2949.37409	1368.775
2951.83407	1366.475
2954.29254	1363.175
2956.74951	1353.075
2959.20498	1345.375
2961.65895	1317.975
2964.11142	1282.475
2966.56239	1260.975
2969.01186	1235.475
2971.45984	1213.375
2973.90632	1183.675
2976.35131	1168.475
2978.7948	1150.275
2981.23681	1137.775
2983.67732	1129.475
2986.11635	1120.475
2988.55388	1117.575
2990.98993	1120.575
2993.4245	1100.875
2995.85758	1113.175
2998.28917	1104.975
3000.71928	1103.775
3003.14791	1110.775
3005.57506	1111.575
3008.00073	1109.975
3010.42493	1147.075
3012.84764	1124.175
3015.26888	1119.475
3017.68865	1110.675
3020.10694	1110.775
3022.52376	1097.875
3024.9391	1105.875
3027.35298	1101.375
3029.76539	1085.075
3032.17632	1080.375
3034.5858	1072.675
3036.9938	1062.075
3039.40034	1065.975
3041.80542	1059.175
3044.20903	1055.575
3046.61118	1055.975
3049.01187	1054.275
3051.4111	1044.075
3053.80888	1044.675
3056.20519	1043.875
3058.60005	1049.875
3060.99345	1045.275
3063.3854	1049.675
3065.7759	1049.875
3068.16494	1046.775
3070.55254	1049.075
3072.93868	1049.675
3075.32338	1043.375
3077.70662	1048.375
3080.08842	1059.075
3082.46878	1056.775
3084.84769	1066.275
3087.22515	1071.975
3089.60118	1077.875
3091.97576	1086.375
3094.3489	1087.875
3096.72061	1094.675
3099.09087	1104.275
3101.4597	1117.175
3103.82709	1125.975
3106.19305	1128.875
3108.55757	1133.675
3110.92066	1139.175
3113.28232	1152.675
3115.64255	1157.775
3118.00134	1164.675
3120.35871	1171.975
3122.71466	1174.075
3125.06917	1176.875
3127.42226	1191.775
3129.77393	1202.275
3132.12417	1213.575
3134.47299	1217.375
3136.82039	1217.575
3139.16636	1230.775
3141.51092	1241.575
3143.85406	1253.875
3146.19579	1257.075
3148.53609	1258.375
3150.87499	1272.975
3153.21246	1285.775
3155.54853	1302.775
3157.88318	1307.375
3160.21642	1327.075
3162.54826	1342.875
3164.87868	1346.875
3167.2077	1350.575
3169.5353	1364.175
3171.86151	1370.275
3174.18631	1382.175
3176.5097	1396.675
3178.83169	1401.675
3181.15228	1407.975
3183.47147	1411.375
3185.78926	1415.975
3188.10565	1429.875
3190.42065	1436.675
3192.73424	1440.775
3195.04645	1450.775
3197.35725	1461.675
3199.66667	1468.475
3201.97469	1475.075
3204.28132	1481.475
3206.58656	1496.975
3208.8904	1493.275
3211.19287	1502.575
3213.49394	1509.175
3215.79363	1527.675
3218.09193	1524.475
3220.38884	1529.975
3222.68438	1537.975
3224.97853	1537.475
3227.2713	1549.675
3229.56269	1551.275
3231.8527	1556.575
3234.14133	1550.475
3236.42858	1548.875
3238.71446	1561.175
3240.99896	1563.575
3243.28209	1557.975
3245.56384	1566.775
3247.84423	1569.575
3250.12324	1559.775
3252.40088	1571.975
3254.67715	1561.675
3256.95205	1567.175
3259.22558	1571.975
3261.49775	1579.575
3263.76855	1574.475
3266.03799	1572.775
3268.30606	1578.475
3270.57277	1579.075
3272.83812	1583.775
3275.10211	1570.875
3277.36474	1571.275
3279.62601	1574.975
3281.88593	1579.375
3284.14448	1573.375
3286.40168	1572.275
3288.65753	1583.675
3290.91202	1573.975
3293.16516	1567.575
3295.41695	1574.075
3297.66738	1565.275
3299.91647	1570.175
3302.16421	1549.975
3304.4106	1548.675
3306.65564	1548.775
3308.89933	1526.375
3311.14169	1513.575
3313.38269	1514.475
3315.62236	1505.875
3317.86068	1500.475
3320.09766	1495.375
3322.3333	1472.175
3324.5676	1471.475
3326.80056	1452.175
3329.03219	1448.375
3331.26248	1.075
3333.49143	-1.225
3335.71905	-1.825
