Data from AgNPs_UA_20uM_CRN_500uM_AS_RamanShift__29__14-57-21-532.txt Node

Date: Wed Aug 17 14:57:21 BST 2022
User: TCL
Spectrometer: QEP01345
Trigger mode: 4
Integration Time (sec): 7.000000E0
Scans to average: 10
Electric dark correction enabled: true
Nonlinearity correction enabled: false
Boxcar width: 0
XAxis mode: Raman Shifts
Number of Pixels in Spectrum: 1044
>>>>>Begin Spectral Data<<<<<
46.04893	0.25
50.45542	-0.95
54.85868	-1.75
59.25871	-0.45
63.6555	52.45
68.04907	54.15
72.43941	61.75
76.82654	62.35
81.21044	65.25
85.59113	65.05
89.96862	68.85
94.34289	78.55
98.71396	78.05
103.08183	81.05
107.4465	82.05
111.80798	82.25
116.16626	85.95
120.52136	84.25
124.87327	88.75
129.222	92.75
133.56755	99.35
137.90993	106.35
142.24913	113.85
146.58517	125.25
150.91804	138.65
155.24774	167.35
159.57429	200.25
163.89768	251.35
168.21792	333.15
172.53501	451.45
176.84895	620.15
181.15975	872.95
185.46741	1225.65
189.77193	1696.85
194.07331	2298.65
198.37157	2962.95
202.6667	3704.55
206.9587	4490.05
211.24758	5302.75
215.53334	6260.55
219.81599	7355.55
224.09553	8618.75
228.37195	10007.15
232.64527	11451.15
236.91549	12696.45
241.18261	13586.25
245.44663	14071.15
249.70755	14373.75
253.96539	14705.75
258.22014	14956.35
262.4718	15036.35
266.72039	14920.85
270.96589	14457.15
275.20832	13784.25
279.44768	12985.05
283.68397	12417.55
287.91719	12209.15
292.14735	12544.25
296.37445	13519.45
300.59849	15187.45
304.81948	17202.15
309.03742	18869.55
313.25231	19333.35
317.46415	17774.25
321.67296	15101.55
325.87872	12927.05
330.08145	11974.15
334.28114	12033.55
338.47781	12578.45
342.67145	13377.35
346.86207	14609.15
351.04966	16650.15
355.23424	18968.15
359.4158	20413.25
363.59435	20749.45
367.76989	20253.35
371.94243	19455.05
376.11196	18617.25
380.27849	17880.05
384.44203	17125.05
388.60257	16385.25
392.76012	15886.35
396.91468	15962.75
401.06626	16439.45
405.21485	16630.35
409.36047	15574.45
413.50311	13570.55
417.64277	11720.85
421.77947	10652.55
425.9132	10121.65
430.04396	9925.05
434.17176	9971.35
438.2966	10271.95
442.41849	10752.45
446.53742	11233.45
450.6534	11572.15
454.76644	11554.05
458.87653	11285.15
462.98368	10896.35
467.08789	10528.75
471.18916	10113.55
475.2875	9615.65
479.38291	9144.85
483.4754	8847.75
487.56496	8638.75
491.6516	8530.85
495.73531	8515.25
499.81612	8662.05
503.89401	8963.45
507.96899	9415.95
512.04106	9977.35
516.11023	10559.65
520.1765	10967.65
524.23987	10951.75
528.30034	10680.55
532.35792	10387.75
536.41261	9976.95
540.46441	9432.75
544.51333	9104.75
548.55936	9167.15
552.60252	9597.55
556.64279	10166.75
560.6802	10659.85
564.71473	11814.85
568.7464	13527.25
572.7752	13499.05
576.80114	11319.85
580.82422	9395.55
584.84444	8540.15
588.86181	8315.65
592.87633	8357.75
596.888	8836.65
600.89682	10340.75
604.9028	15127.65
608.90594	26904.85
612.90624	40125.65
616.90371	34902.15
620.89834	18196.45
624.89015	11136.95
628.87913	10126.85
632.86528	10915.85
636.84862	11546.45
640.82913	10683.25
644.80683	9123.15
648.78172	8179.75
652.75379	8443.65
656.72306	9766.05
660.68952	10993.75
664.65319	10101.15
668.61405	8426.95
672.57211	7774.25
676.52738	7788.25
680.47986	7729.95
684.42955	7428.45
688.37646	7272.25
692.32058	7299.35
696.26192	7488.55
700.20048	7770.75
704.13626	7896.35
708.06928	7740.95
711.99952	7587.05
715.927	7640.05
719.85171	7905.65
723.77365	8108.25
727.69284	7992.25
731.60928	7784.25
735.52295	7688.25
739.43388	7709.95
743.34206	7789.35
747.24749	7773.25
751.15017	7792.85
755.05012	8341.05
758.94733	10262.75
762.8418	14745.15
766.73354	21015.85
770.62254	25514.85
774.50882	27321.45
778.39237	25534.15
782.27321	19589.85
786.15132	13395.35
790.02671	9962.75
793.89938	8516.05
797.76935	7913.15
801.6366	7627.75
805.50115	7485.05
809.36299	7405.25
813.22213	7336.05
817.07857	7283.55
820.93231	7339.25
824.78336	7487.25
828.63172	7685.15
832.47738	7729.95
836.32036	7552.15
840.16066	7267.85
843.99827	7068.35
847.8332	7016.95
851.66546	7036.85
855.49504	7019.75
859.32195	7027.95
863.1462	6950.05
866.96777	6899.35
870.78668	6907.65
874.60293	6982.65
878.41652	7127.15
882.22745	7324.15
886.03573	7444.25
889.84136	7425.05
893.64433	7380.45
897.44466	7429.95
901.24235	7443.25
905.0374	7278.95
908.8298	7047.45
912.61957	6862.05
916.40671	6772.95
920.19121	6817.85
923.97308	7039.15
927.75233	7613.95
931.52895	8165.95
935.30295	7834.55
939.07433	6999.25
942.84309	6400.55
946.60924	6112.65
950.37278	5977.25
954.13371	5957.15
957.89203	5931.65
961.64774	5938.55
965.40086	5898.05
969.15137	5882.95
972.89929	5843.35
976.64461	5834.75
980.38733	5826.85
984.12747	5822.95
987.86502	5874.55
991.59999	5930.85
995.33237	6048.75
999.06217	6221.95
1002.78939	6483.15
1006.51404	6849.05
1010.23611	7087.75
1013.95561	7073.95
1017.67255	6907.95
1021.38692	6684.65
1025.09872	6447.35
1028.80796	6280.85
1032.51465	6319.05
1036.21877	6431.05
1039.92035	6600.85
1043.61937	6734.85
1047.31584	6846.75
1051.00976	6834.15
1054.70114	6728.45
1058.38998	6620.85
1062.07627	6620.95
1065.76003	6607.45
1069.44126	6644.45
1073.11995	6846.85
1076.79611	7370.55
1080.46974	8269.95
1084.14085	9344.45
1087.80943	10076.55
1091.47549	10079.15
1095.13903	9360.05
1098.80005	8440.55
1102.45857	7892.05
1106.11456	7898.95
1109.76805	8385.25
1113.41903	9361.25
1117.06751	10906.55
1120.71348	13053.95
1124.35696	15519.75
1127.99793	16456.35
1131.63641	14744.95
1135.2724	12073.25
1138.90589	10172.45
1142.5369	9118.15
1146.16542	8406.35
1149.79145	8007.05
1153.415	7878.25
1157.03607	8014.35
1160.65467	8410.75
1164.27079	9172.45
1167.88443	10406.25
1171.49561	12471.75
1175.10432	15938.05
1178.71056	20543.55
1182.31434	23863.25
1185.91565	24016.95
1189.51451	21813.85
1193.11091	18763.45
1196.70485	16080.95
1200.29634	14445.25
1203.88538	13020.45
1207.47197	11150.15
1211.05612	9416.05
1214.63782	8354.25
1218.21708	7844.15
1221.79391	7608.15
1225.36829	7559.25
1228.94024	7559.75
1232.50976	7498.55
1236.07685	7558.65
1239.6415	7711.75
1243.20374	7918.15
1246.76355	8129.95
1250.32093	8379.05
1253.8759	8762.25
1257.42845	9429.25
1260.97859	10295.95
1264.52631	11282.75
1268.07163	12095.55
1271.61453	12554.25
1275.15503	12531.15
1278.69312	12442.05
1282.22882	12761.85
1285.76211	13709.25
1289.29301	14888.75
1292.82151	15874.25
1296.34761	17102.65
1299.87133	19481.25
1303.39266	24062.05
1306.9116	31182.05
1310.42815	37605.15
1313.94233	38225.05
1317.45412	32593.05
1320.96354	25454.85
1324.47058	19426.95
1327.97525	15242.45
1331.47754	13060.25
1334.97747	12425.35
1338.47502	13112.55
1341.97022	15262.95
1345.46305	18954.35
1348.95352	23491.15
1352.44163	28997.55
1355.92738	37341.85
1359.41078	49483.65
1362.89183	57004.85
1366.37053	49472.45
1369.84688	34915.85
1373.32088	24494.75
1376.79254	19060.65
1380.26186	15878.65
1383.72883	13487.05
1387.19347	11587.65
1390.65578	10070.85
1394.11575	9050.35
1397.57339	8479.75
1401.0287	8193.15
1404.48168	8020.65
1407.93234	7986.25
1411.38068	8168.95
1414.82669	8572.35
1418.27039	8895.85
1421.71177	8911.95
1425.15083	8856.75
1428.58758	9117.75
1432.02203	9584.35
1435.45416	9630.35
1438.88399	9338.75
1442.31151	9103.85
1445.73673	9155.05
1449.15965	9246.45
1452.58027	9115.85
1455.9986	8858.35
1459.41463	8815.25
1462.82837	9153.35
1466.23982	9712.75
1469.64898	10079.15
1473.05586	10138.95
1476.46045	10088.85
1479.86276	10329.15
1483.26279	10996.15
1486.66054	12151.05
1490.05602	13956.15
1493.44922	16758.25
1496.84016	21364.25
1500.22882	28665.75
1503.61521	38938.65
1506.99934	50161.75
1510.38121	57755.15
1513.76081	57156.15
1517.13816	48063.75
1520.51324	35802.25
1523.88607	25634.55
1527.25665	19354.25
1530.62498	15957.85
1533.99105	13881.85
1537.35488	12609.75
1540.71647	12002.55
1544.07581	11935.85
1547.4329	12250.65
1550.78776	12751.55
1554.14038	13309.95
1557.49077	13926.45
1560.83892	14926.95
1564.18484	16645.55
1567.52853	18628.85
1570.86999	19924.25
1574.20922	20391.35
1577.54624	19407.55
1580.88103	16416.65
1584.2136	13029.15
1587.54395	10949.65
1590.87208	10457.85
1594.19801	11318.35
1597.52172	12577.85
1600.84321	12808.15
1604.16251	11993.15
1607.47959	10921.25
1610.79447	9875.55
1614.10715	8835.55
1617.41763	8014.55
1620.7259	7593.25
1624.03199	7517.55
1627.33587	7776.95
1630.63757	8367.55
1633.93707	9440.15
1637.23439	11367.35
1640.52951	14895.35
1643.82246	20570.35
1647.11321	27306.35
1650.40179	31157.15
1653.68819	28770.85
1656.97241	22035.65
1660.25446	15475.35
1663.53433	11159.15
1666.81203	8762.15
1670.08756	7407.95
1673.36092	6659.65
1676.63211	6178.05
1679.90115	5871.25
1683.16801	5658.65
1686.43272	5523.15
1689.69527	5423.45
1692.95567	5326.55
1696.2139	5323.05
1699.46999	5278.65
1702.72392	5252.55
1705.97571	5205.55
1709.22535	5196.65
1712.47284	5183.25
1715.71819	5184.35
1718.96139	5148.05
1722.20246	5047.25
1725.44139	4948.55
1728.67818	4851.35
1731.91284	4742.75
1735.14537	4648.85
1738.37576	4622.05
1741.60403	4569.05
1744.83017	4544.25
1748.05418	4521.85
1751.27607	4476.25
1754.49584	4448.45
1757.71349	4413.85
1760.92903	4361.65
1764.14244	4297.25
1767.35375	4221.05
1770.56294	4190.85
1773.77002	4120.25
1776.97499	4054.05
1780.17785	3987.15
1783.37861	3945.25
1786.57727	3909.55
1789.77382	3880.95
1792.96828	3872.85
1796.16064	3845.95
1799.3509	3852.65
1802.53907	3825.35
1805.72514	3796.25
1808.90913	3762.75
1812.09102	3733.95
1815.27083	3711.85
1818.44856	3679.95
1821.6242	3667.55
1824.79776	3656.65
1827.96924	3618.85
1831.13864	3595.85
1834.30597	3598.55
1837.47122	3544.75
1840.6344	3523.85
1843.7955	3500.35
1846.95454	3490.35
1850.11151	3490.35
1853.26642	3466.15
1856.41926	3477.75
1859.57004	3471.45
1862.71876	3465.55
1865.86542	3480.75
1869.01003	3499.95
1872.15258	3499.85
1875.29308	3499.55
1878.43152	3492.25
1881.56792	3496.55
1884.70227	3482.05
1887.83457	3476.65
1890.96482	3460.75
1894.09304	3452.25
1897.21921	3434.45
1900.34335	3432.85
1903.46544	3422.05
1906.58551	3437.65
1909.70353	3437.75
1912.81953	3408.05
1915.93349	3408.45
1919.04543	3397.25
1922.15534	3375.65
1925.26322	3365.35
1928.36908	3339.05
1931.47292	3300.05
1934.57473	3260.55
1937.67453	3236.15
1940.77232	3189.45
1943.86808	3173.45
1946.96184	3168.05
1950.05358	3147.05
1953.14331	3152.85
1956.23103	3150.65
1959.31675	3156.55
1962.40046	3152.75
1965.48217	3166.15
1968.56188	3189.75
1971.63959	3181.25
1974.7153	3169.55
1977.78901	3153.15
1980.86073	3125.65
1983.93046	3070.85
1986.99819	3057.55
1990.06394	3020.05
1993.1277	2984.45
1996.18947	2967.35
1999.24925	2946.05
2002.30706	2908.05
2005.36288	2898.75
2008.41672	2890.85
2011.46859	2887.15
2014.51848	2870.05
2017.56639	2860.95
2020.61233	2846.55
2023.6563	2826.75
2026.6983	2809.35
2029.73833	2814.75
2032.7764	2799.85
2035.8125	2785.85
2038.84664	2774.15
2041.87881	2768.25
2044.90903	2777.85
2047.93729	2762.25
2050.96359	2749.05
2053.98794	2737.85
2057.01034	2723.65
2060.03078	2708.15
2063.04927	2689.15
2066.06582	2677.75
2069.08042	2669.05
2072.09307	2668.45
2075.10378	2674.35
2078.11255	2678.75
2081.11938	2673.85
2084.12426	2664.35
2087.12722	2668.45
2090.12824	2666.55
2093.12732	2666.45
2096.12447	2658.55
2099.11969	2673.95
2102.11299	2665.25
2105.10435	2674.45
2108.09379	2665.85
2111.08131	2666.75
2114.0669	2693.75
2117.05057	2711.05
2120.03233	2727.95
2123.01216	2743.95
2125.99008	2755.55
2128.96609	2758.15
2131.94018	2750.45
2134.91236	2734.75
2137.88263	2715.45
2140.851	2700.15
2143.81746	2686.45
2146.78201	2673.45
2149.74466	2643.45
2152.7054	2643.55
2155.66425	2612.25
2158.6212	2600.35
2161.57625	2590.65
2164.52941	2600.05
2167.48067	2586.35
2170.43004	2590.65
2173.37752	2581.15
2176.32311	2599.15
2179.26681	2595.65
2182.20863	2592.75
2185.14856	2613.95
2188.08661	2586.45
2191.02278	2591.55
2193.95707	2570.65
2196.88948	2552.75
2199.82001	2551.35
2202.74867	2549.35
2205.67545	2545.35
2208.60037	2547.45
2211.52341	2545.95
2214.44458	2535.95
2217.36388	2522.05
2220.28132	2510.95
2223.1969	2495.65
2226.11061	2484.35
2229.02246	2482.45
2231.93245	2466.55
2234.84058	2455.45
2237.74686	2452.25
2240.65128	2452.55
2243.55385	2465.05
2246.45456	2470.45
2249.35343	2498.05
2252.25044	2507.75
2255.14561	2533.75
2258.03893	2561.35
2260.93041	2591.55
2263.82004	2583.45
2266.70783	2579.75
2269.59378	2565.95
2272.4779	2558.65
2275.36017	2552.65
2278.24061	2537.95
2281.11922	2523.35
2283.996	2524.65
2286.87094	2501.55
2289.74405	2460.95
2292.61534	2454.75
2295.4848	2434.45
2298.35243	2419.15
2301.21824	2409.85
2304.08223	2411.55
2306.94439	2403.85
2309.80474	2409.85
2312.66327	2397.85
2315.51999	2388.35
2318.37489	2380.95
2321.22797	2386.25
2324.07925	2377.85
2326.92871	2373.75
2329.77637	2372.75
2332.62222	2387.95
2335.46626	2374.15
2338.3085	2376.15
2341.14893	2374.15
2343.98756	2394.35
2346.8244	2398.45
2349.65943	2414.55
2352.49267	2429.65
2355.32411	2453.55
2358.15376	2463.75
2360.98161	2504.95
2363.80768	2527.65
2366.63195	2549.95
2369.45444	2566.05
2372.27514	2572.55
2375.09405	2582.75
2377.91118	2552.65
2380.72652	2536.95
2383.54009	2496.95
2386.35187	2477.55
2389.16188	2446.65
2391.97011	2401.55
2394.77657	2389.85
2397.58125	2369.45
2400.38416	2354.55
2403.18529	2328.85
2405.98466	2320.65
2408.78226	2299.05
2411.57809	2300.75
2414.37216	2286.85
2417.16446	2299.05
2419.955	2294.05
2422.74378	2303.65
2425.5308	2310.15
2428.31606	2312.45
2431.09956	2335.75
2433.88131	2341.25
2436.6613	2352.65
2439.43954	2354.15
2442.21603	2363.35
2444.99077	2374.55
2447.76377	2401.05
2450.53501	2387.25
2453.30451	2400.55
2456.07226	2407.35
2458.83827	2402.25
2461.60254	2396.55
2464.36507	2388.75
2467.12586	2389.35
2469.88492	2378.75
2472.64224	2405.35
2475.39782	2440.25
2478.15167	2437.05
2480.90379	2459.55
2483.65417	2502.05
2486.40283	2523.75
2489.14976	2551.55
2491.89497	2565.45
2494.63845	2578.05
2497.3802	2562.75
2500.12024	2531.15
2502.85855	2504.35
2505.59514	2467.55
2508.33002	2420.05
2511.06318	2373.45
2513.79462	2327.75
2516.52435	2290.45
2519.25237	2261.25
2521.97867	2228.85
2524.70327	2221.45
2527.42616	2201.65
2530.14734	2193.25
2532.86681	2191.55
2535.58458	2189.15
2538.30065	2202.75
2541.01501	2218.95
2543.72768	2223.85
2546.43864	2239.65
2549.14791	2243.95
2551.85548	2244.65
2554.56136	2245.45
2557.26554	2248.55
2559.96803	2246.35
2562.66883	2259.55
2565.36794	2243.05
2568.06536	2231.75
2570.7611	2232.45
2573.45514	2217.15
2576.14751	2201.55
2578.83819	2192.45
2581.52719	2188.85
2584.21451	2175.35
2586.90015	2161.75
2589.58411	2164.15
2592.2664	2161.85
2594.94701	2141.75
2597.62594	2138.65
2600.30321	2160.45
2602.9788	2147.85
2605.65273	2153.35
2608.32498	2156.55
2610.99557	2160.55
2613.66449	2179.15
2616.33175	2178.85
2618.99734	2172.15
2621.66128	2168.35
2624.32355	2157.55
2626.98416	2139.25
2629.64311	2143.45
2632.30041	2129.25
2634.95605	2101.65
2637.61004	2089.35
2640.26238	2074.75
2642.91306	2067.65
2645.56209	2068.15
2648.20948	2057.45
2650.85521	2067.45
2653.4993	2084.65
2656.14175	2087.15
2658.78255	2099.05
2661.42171	2104.35
2664.05923	2113.95
2666.6951	2139.25
2669.32934	2153.35
2671.96194	2156.35
2674.59291	2153.55
2677.22224	2155.25
2679.84993	2153.15
2682.476	2150.65
2685.10043	2140.65
2687.72324	2133.85
2690.34441	2130.95
2692.96396	2125.65
2695.58188	2121.05
2698.19818	2113.55
2700.81285	2107.85
2703.4259	2116.55
2706.03733	2142.65
2708.64714	2131.75
2711.25533	2126.35
2713.86191	2130.05
2716.46687	2150.45
2719.07021	2150.85
2721.67194	2153.65
2724.27206	2147.75
2726.87057	2152.25
2729.46747	2143.75
2732.06276	2137.45
2734.65644	2111.75
2737.24852	2103.35
2739.83899	2070.95
2742.42786	2068.15
2745.01513	2051.55
2747.60079	2043.65
2750.18486	2024.15
2752.76733	2030.25
2755.3482	2010.75
2757.92747	2000.45
2760.50515	1991.05
2763.08123	1992.25
2765.65573	1985.35
2768.22863	1985.75
2770.79994	1979.35
2773.36967	1990.85
2775.9378	1995.35
2778.50435	1988.05
2781.06932	2000.65
2783.6327	1997.95
2786.1945	2010.55
2788.75471	2018.55
2791.31335	2014.65
2793.87041	2028.05
2796.42589	2045.15
2798.97979	2053.55
2801.53212	2068.55
2804.08288	2078.65
2806.63206	2093.45
2809.17967	2130.35
2811.72571	2155.35
2814.27018	2174.95
2816.81308	2188.85
2819.35442	2212.05
2821.89419	2215.35
2824.43239	2235.15
2826.96904	2252.25
2829.50412	2248.25
2832.03763	2237.25
2834.56959	2236.15
2837.1	2226.55
2839.62884	2232.75
2842.15613	2227.05
2844.68186	2252.95
2847.20604	2270.35
2849.72867	2283.15
2852.24974	2299.65
2854.76927	2321.25
2857.28724	2346.25
2859.80367	2369.75
2862.31855	2398.25
2864.83189	2436.35
2867.34368	2469.85
2869.85393	2490.05
2872.36264	2502.85
2874.8698	2509.65
2877.37543	2496.65
2879.87952	2497.25
2882.38207	2485.05
2884.88308	2472.05
2887.38256	2470.55
2889.88051	2450.85
2892.37692	2451.35
2894.8718	2449.55
2897.36515	2450.55
2899.85698	2439.85
2902.34727	2447.85
2904.83604	2436.55
2907.32328	2425.85
2909.809	2419.35
2912.29319	2413.55
2914.77587	2388.15
2917.25702	2388.75
2919.73665	2371.65
2922.21476	2358.75
2924.69136	2349.25
2927.16644	2344.35
2929.64	2328.25
2932.11205	2322.35
2934.58258	2298.95
2937.05161	2301.95
2939.51912	2298.85
2941.98513	2292.15
2944.44962	2278.65
2946.91261	2262.05
2949.37409	2265.45
2951.83407	2254.55
2954.29254	2255.25
2956.74951	2249.15
2959.20498	2238.55
2961.65895	2219.75
2964.11142	2209.55
2966.56239	2197.65
2969.01186	2183.95
2971.45984	2169.25
2973.90632	2160.85
2976.35131	2138.75
2978.7948	2129.65
2981.23681	2118.05
2983.67732	2122.45
2986.11635	2097.15
2988.55388	2095.85
2990.98993	2091.75
2993.4245	2102.95
2995.85758	2101.25
2998.28917	2099.25
3000.71928	2122.45
3003.14791	2129.55
3005.57506	2121.25
3008.00073	2117.45
3010.42493	2098.65
3012.84764	2124.45
3015.26888	2130.45
3017.68865	2116.15
3020.10694	2119.35
3022.52376	2106.65
3024.9391	2100.45
3027.35298	2086.75
3029.76539	2074.25
3032.17632	2046.25
3034.5858	2030.95
3036.9938	2023.05
3039.40034	2004.25
3041.80542	1991.35
3044.20903	1986.45
3046.61118	1964.85
3049.01187	1964.45
3051.4111	1963.15
3053.80888	1972.35
3056.20519	1958.55
3058.60005	1944.95
3060.99345	1946.85
3063.3854	1949.95
3065.7759	1936.25
3068.16494	1936.25
3070.55254	1916.55
3072.93868	1911.35
3075.32338	1908.25
3077.70662	1889.85
3080.08842	1899.25
3082.46878	1890.75
3084.84769	1902.35
3087.22515	1900.15
3089.60118	1892.85
3091.97576	1892.05
3094.3489	1896.55
3096.72061	1905.85
3099.09087	1896.75
3101.4597	1916.75
3103.82709	1913.65
3106.19305	1918.95
3108.55757	1928.45
3110.92066	1922.55
3113.28232	1939.35
3115.64255	1937.15
3118.00134	1935.65
3120.35871	1944.35
3122.71466	1945.05
3125.06917	1946.85
3127.42226	1950.15
3129.77393	1950.55
3132.12417	1989.65
3134.47299	2052.15
3136.82039	1995.05
3139.16636	1984.25
3141.51092	1991.45
3143.85406	1999.65
3146.19579	2022.35
3148.53609	2034.45
3150.87499	2037.45
3153.21246	2054.55
3155.54853	2069.45
3157.88318	2078.75
3160.21642	2097.25
3162.54826	2100.85
3164.87868	2107.05
3167.2077	2118.85
3169.5353	2117.75
3171.86151	2115.05
3174.18631	2136.95
3176.5097	2122.15
3178.83169	2127.05
3181.15228	2126.95
3183.47147	2131.85
3185.78926	2140.65
3188.10565	2141.85
3190.42065	2159.25
3192.73424	2178.65
3195.04645	2178.45
3197.35725	2182.45
3199.66667	2206.55
3201.97469	2220.35
3204.28132	2230.55
3206.58656	2257.85
3208.8904	2267.85
3211.19287	2294.95
3213.49394	2295.75
3215.79363	2314.45
3218.09193	2343.05
3220.38884	2353.75
3222.68438	2354.65
3224.97853	2353.85
3227.2713	2370.65
3229.56269	2362.65
3231.8527	2380.45
3234.14133	2364.25
3236.42858	2364.05
3238.71446	2367.55
3240.99896	2361.85
3243.28209	2380.05
3245.56384	2374.95
3247.84423	2376.95
3250.12324	2367.55
3252.40088	2372.25
3254.67715	2367.35
3256.95205	2377.55
3259.22558	2373.55
3261.49775	2397.15
3263.76855	2391.95
3266.03799	2383.05
3268.30606	2388.05
3270.57277	2401.45
3272.83812	2393.05
3275.10211	2378.95
3277.36474	2393.95
3279.62601	2400.05
3281.88593	2392.15
3284.14448	2406.55
3286.40168	2403.15
3288.65753	2397.55
3290.91202	2414.15
3293.16516	2412.85
3295.41695	2421.75
3297.66738	2403.85
3299.91647	2389.95
3302.16421	2368.85
3304.4106	2335.45
3306.65564	2327.25
3308.89933	2306.05
3311.14169	2276.45
3313.38269	2259.95
3315.62236	2236.65
3317.86068	2205.45
3320.09766	2192.25
3322.3333	2168.05
3324.5676	2155.75
3326.80056	2108.15
3329.03219	2097.55
3331.26248	0.95
3333.49143	0.75
3335.71905	1.55
