Data from AgNPs_UA_5uM_CRN_500uM_AS_RamanShift__27__13-29-03-851.txt Node

Date: Wed Aug 17 13:29:03 BST 2022
User: TCL
Spectrometer: QEP01345
Trigger mode: 4
Integration Time (sec): 7.000000E0
Scans to average: 10
Electric dark correction enabled: true
Nonlinearity correction enabled: false
Boxcar width: 0
XAxis mode: Raman Shifts
Number of Pixels in Spectrum: 1044
>>>>>Begin Spectral Data<<<<<
46.04893	0.85
50.45542	-0.95
54.85868	-0.05
59.25871	-0.35
63.6555	107.45
68.04907	111.35
72.43941	119.65
76.82654	129.85
81.21044	129.95
85.59113	137.25
89.96862	142.05
94.34289	147.05
98.71396	155.05
103.08183	159.55
107.4465	164.95
111.80798	168.35
116.16626	173.55
120.52136	184.95
124.87327	195.35
129.222	215.05
133.56755	229.35
137.90993	251.25
142.24913	282.45
146.58517	315.65
150.91804	366.65
155.24774	440.15
159.57429	557.55
163.89768	727.65
168.21792	965.15
172.53501	1330.85
176.84895	1848.25
181.15975	2616.75
185.46741	3691.15
189.77193	5140.95
194.07331	6921.75
198.37157	9018.45
202.6667	11325.95
206.9587	13737.35
211.24758	16394.95
215.53334	19368.15
219.81599	22811.75
224.09553	26849.25
228.37195	31134.35
232.64527	35422.45
236.91549	39230.85
241.18261	42091.95
245.44663	43909.75
249.70755	45363.65
253.96539	46907.75
258.22014	48124.05
262.4718	48436.35
266.72039	47406.35
270.96589	45180.65
275.20832	42160.45
279.44768	39253.85
283.68397	37134.85
287.91719	36301.65
292.14735	37368.55
296.37445	40551.45
300.59849	45960.35
304.81948	52524.25
309.03742	58022.45
313.25231	59457.05
317.46415	54706.25
321.67296	46022.55
325.87872	38953.35
330.08145	35876.15
334.28114	36046.95
338.47781	38003.85
342.67145	40751.15
346.86207	45155.75
351.04966	52073.65
355.23424	59416.85
359.4158	63522.75
363.59435	63737.75
367.76989	61601.75
371.94243	58682.65
376.11196	56032.25
380.27849	53665.55
384.44203	51316.85
388.60257	49096.55
392.76012	47771.05
396.91468	48104.15
401.06626	49970.05
405.21485	50515.35
409.36047	46979.75
413.50311	40444.35
417.64277	34297.15
421.77947	30611.65
425.9132	28877.25
430.04396	28208.45
434.17176	28360.75
438.2966	29430.25
442.41849	31195.25
446.53742	32987.45
450.6534	34069.55
454.76644	34048.25
458.87653	33022.85
462.98368	31659.55
467.08789	30324.65
471.18916	28804.95
475.2875	26919.25
479.38291	25280.85
483.4754	24104.75
487.56496	23400.35
491.6516	23006.25
495.73531	23000.05
499.81612	23509.75
503.89401	24591.75
507.96899	26101.95
512.04106	28005.35
516.11023	29887.75
520.1765	31167.35
524.23987	31152.45
528.30034	30207.05
532.35792	29258.05
536.41261	27943.45
540.46441	26203.05
544.51333	25147.85
548.55936	25307.05
552.60252	26650.05
556.64279	28497.05
560.6802	30240.25
564.71473	34271.25
568.7464	40269.65
572.7752	40420.95
576.80114	33036.05
580.82422	26453.45
584.84444	23552.35
588.86181	22930.95
592.87633	23595.45
596.888	25276.15
600.89682	30057.15
604.9028	45945.35
608.90594	85565.75
612.90624	130558.65
616.90371	113424.35
620.89834	56072.45
624.89015	32034.05
628.87913	28659.75
632.86528	31326.45
636.84862	33265.65
640.82913	29951.85
644.80683	24463.55
648.78172	21533.95
652.75379	22438.45
656.72306	26935.15
660.68952	31038.95
664.65319	28046.55
668.61405	22485.55
672.57211	20556.35
676.52738	20673.35
680.47986	20349.95
684.42955	19325.95
688.37646	18854.05
692.32058	19137.05
696.26192	20006.25
700.20048	20930.05
704.13626	21189.65
708.06928	20627.85
711.99952	20071.65
715.927	20267.25
719.85171	21171.25
723.77365	21668.75
727.69284	21103.65
731.60928	20502.85
735.52295	20363.05
739.43388	20505.35
743.34206	20659.05
747.24749	20465.95
751.15017	20583.25
755.05012	22548.35
758.94733	29522.75
762.8418	45199.85
766.73354	65837.65
770.62254	80700.15
774.50882	87683.65
778.39237	82539.55
782.27321	61899.35
786.15132	40165.65
790.02671	28158.85
793.89938	23227.55
797.76935	21195.55
801.6366	20172.55
805.50115	19657.65
809.36299	19290.05
813.22213	19033.75
817.07857	18870.85
820.93231	19137.45
824.78336	19817.45
828.63172	20593.25
832.47738	20709.25
836.32036	19895.15
840.16066	18877.75
843.99827	18247.85
847.8332	18061.15
851.66546	18190.25
855.49504	18371.95
859.32195	18347.55
863.1462	18120.55
866.96777	17964.45
870.78668	17954.35
874.60293	18129.15
878.41652	18596.45
882.22745	19248.45
886.03573	19681.55
889.84136	19547.25
893.64433	19392.95
897.44466	19631.05
901.24235	19698.75
905.0374	19133.55
908.8298	18327.25
912.61957	17689.55
916.40671	17467.45
920.19121	17651.25
923.97308	18653.55
927.75233	20836.45
931.52895	22840.35
935.30295	21568.35
939.07433	18494.05
942.84309	16236.65
946.60924	15166.05
950.37278	14730.25
954.13371	14600.85
957.89203	14562.65
961.64774	14488.95
965.40086	14442.05
969.15137	14317.45
972.89929	14288.85
976.64461	14275.35
980.38733	14294.65
984.12747	14314.45
987.86502	14421.45
991.59999	14653.25
995.33237	15062.35
999.06217	15677.45
1002.78939	16615.55
1006.51404	17806.95
1010.23611	18630.75
1013.95561	18585.45
1017.67255	18037.75
1021.38692	17175.05
1025.09872	16295.05
1028.80796	15806.35
1032.51465	15880.95
1036.21877	16300.25
1039.92035	16786.65
1043.61937	17286.35
1047.31584	17665.35
1051.00976	17611.65
1054.70114	17123.55
1058.38998	16771.65
1062.07627	16721.75
1065.76003	16690.35
1069.44126	16909.35
1073.11995	17840.65
1076.79611	19843.45
1080.46974	23200.75
1084.14085	27195.75
1087.80943	29877.95
1091.47549	29592.75
1095.13903	26667.55
1098.80005	23240.95
1102.45857	21455.45
1106.11456	21642.75
1109.76805	23502.75
1113.41903	27063.25
1117.06751	32774.75
1120.71348	40905.05
1124.35696	49969.55
1127.99793	52724.25
1131.63641	45444.95
1135.2724	35816.95
1138.90589	29315.05
1142.5369	25627.75
1146.16542	23354.45
1149.79145	22098.45
1153.415	21802.15
1157.03607	22317.25
1160.65467	23955.75
1164.27079	26865.75
1167.88443	31484.55
1171.49561	39187.05
1175.10432	52024.45
1178.71056	67868.65
1182.31434	78181.75
1185.91565	77330.75
1189.51451	69151.45
1193.11091	58976.75
1196.70485	50608.95
1200.29634	45596.35
1203.88538	40348.45
1207.47197	33236.55
1211.05612	27099.55
1214.63782	23537.55
1218.21708	21856.55
1221.79391	21234.15
1225.36829	20978.55
1228.94024	20773.65
1232.50976	20562.65
1236.07685	20796.75
1239.6415	21492.85
1243.20374	22373.95
1246.76355	23110.45
1250.32093	24111.75
1253.8759	25790.75
1257.42845	28435.95
1260.97859	31997.35
1264.52631	35809.15
1268.07163	38741.15
1271.61453	40021.85
1275.15503	39644.65
1278.69312	39014.35
1282.22882	40340.15
1285.76211	44060.75
1289.29301	48292.15
1292.82151	51865.35
1296.34761	56678.35
1299.87133	65852.05
1303.39266	82728.25
1306.9116	107476.25
1310.42815	128300.25
1313.94233	127659.85
1317.45412	106833.05
1320.96354	81486.15
1324.47058	60667.35
1327.97525	47211.35
1331.47754	40812.75
1334.97747	39961.05
1338.47502	43765.35
1341.97022	52602.05
1345.46305	66185.45
1348.95352	82195.75
1352.44163	102317.55
1355.92738	133195.25
1359.41078	174154.05
1362.89183	191736.45
1366.37053	163228.15
1369.84688	113397.65
1373.32088	80119.85
1376.79254	62940.95
1380.26186	52533.85
1383.72883	43982.45
1387.19347	36589.45
1390.65578	30977.35
1394.11575	27583.95
1397.57339	25882.75
1401.0287	25131.95
1404.48168	24758.25
1407.93234	24888.05
1411.38068	25975.45
1414.82669	27511.35
1418.27039	28382.45
1421.71177	28252.25
1425.15083	28284.05
1428.58758	29888.35
1432.02203	31869.75
1435.45416	32126.65
1438.88399	30909.25
1442.31151	30031.75
1445.73673	30018.75
1449.15965	30099.75
1452.58027	29174.85
1455.9986	27931.35
1459.41463	27922.85
1462.82837	29440.35
1466.23982	31487.85
1469.64898	32692.45
1473.05586	33035.35
1476.46045	33520.85
1479.86276	35005.55
1483.26279	37669.55
1486.66054	42119.85
1490.05602	48880.95
1493.44922	59299.15
1496.84016	75606.45
1500.22882	100919.45
1503.61521	135087.85
1506.99934	171260.25
1510.38121	193055.05
1513.76081	191244.45
1517.13816	161826.45
1520.51324	119620.75
1523.88607	85129.45
1527.25665	63890.65
1530.62498	52154.55
1533.99105	45093.45
1537.35488	40868.55
1540.71647	39015.85
1544.07581	39057.35
1547.4329	40206.35
1550.78776	41826.95
1554.14038	43345.95
1557.49077	45025.25
1560.83892	48581.95
1564.18484	55079.35
1567.52853	62604.95
1570.86999	67253.15
1574.20922	68321.25
1577.54624	63677.85
1580.88103	52190.65
1584.2136	40139.65
1587.54395	33450.65
1590.87208	32713.05
1594.19801	36706.55
1597.52172	41772.95
1600.84321	42700.65
1604.16251	39038.75
1607.47959	34025.15
1610.79447	29254.65
1614.10715	25287.15
1617.41763	22604.55
1620.7259	21494.45
1624.03199	21601.65
1627.33587	22765.55
1630.63757	25214.65
1633.93707	29681.35
1637.23439	37696.25
1640.52951	51940.25
1643.82246	73784.55
1647.11321	97798.35
1650.40179	109189.35
1653.68819	97778.55
1656.97241	72499.75
1660.25446	48978.55
1663.53433	33682.85
1666.81203	25298.85
1670.08756	20702.05
1673.36092	18100.35
1676.63211	16479.25
1679.90115	15443.75
1683.16801	14693.95
1686.43272	14213.05
1689.69527	13841.05
1692.95567	13561.95
1696.2139	13421.65
1699.46999	13323.95
1702.72392	13230.45
1705.97571	13179.45
1709.22535	13212.25
1712.47284	13318.15
1715.71819	13300.15
1718.96139	13175.25
1722.20246	12906.35
1725.44139	12577.05
1728.67818	12175.45
1731.91284	11805.15
1735.14537	11547.55
1738.37576	11356.35
1741.60403	11243.55
1744.83017	11109.55
1748.05418	11006.65
1751.27607	10891.55
1754.49584	10730.25
1757.71349	10554.75
1760.92903	10395.15
1764.14244	10146.55
1767.35375	9912.05
1770.56294	9648.95
1773.77002	9441.05
1776.97499	9205.65
1780.17785	9015.05
1783.37861	8881.25
1786.57727	8776.55
1789.77382	8701.45
1792.96828	8625.45
1796.16064	8585.05
1799.3509	8552.55
1802.53907	8470.25
1805.72514	8398.85
1808.90913	8300.15
1812.09102	8213.95
1815.27083	8142.25
1818.44856	8069.05
1821.6242	7974.85
1824.79776	7953.15
1827.96924	7857.75
1831.13864	7730.55
1834.30597	7640.65
1837.47122	7587.55
1840.6344	7501.25
1843.7955	7438.25
1846.95454	7376.45
1850.11151	7327.95
1853.26642	7306.55
1856.41926	7319.55
1859.57004	7337.55
1862.71876	7345.55
1865.86542	7354.35
1869.01003	7402.25
1872.15258	7442.15
1875.29308	7463.35
1878.43152	7468.45
1881.56792	7453.85
1884.70227	7415.65
1887.83457	7398.65
1890.96482	7363.15
1894.09304	7317.25
1897.21921	7307.25
1900.34335	7309.95
1903.46544	7300.95
1906.58551	7298.35
1909.70353	7309.65
1912.81953	7271.35
1915.93349	7248.65
1919.04543	7216.45
1922.15534	7155.35
1925.26322	7106.55
1928.36908	6982.65
1931.47292	6862.85
1934.57473	6727.35
1937.67453	6604.15
1940.77232	6503.45
1943.86808	6437.75
1946.96184	6412.05
1950.05358	6384.35
1953.14331	6368.95
1956.23103	6375.45
1959.31675	6408.45
1962.40046	6439.95
1965.48217	6516.05
1968.56188	6577.45
1971.63959	6611.85
1974.7153	6587.95
1977.78901	6511.45
1980.86073	6367.15
1983.93046	6234.25
1986.99819	6122.45
1990.06394	6027.15
1993.1277	5940.25
1996.18947	5888.75
1999.24925	5820.85
2002.30706	5777.15
2005.36288	5695.05
2008.41672	5652.05
2011.46859	5640.85
2014.51848	5612.95
2017.56639	5593.75
2020.61233	5546.25
2023.6563	5499.95
2026.6983	5473.15
2029.73833	5449.95
2032.7764	5421.05
2035.8125	5397.45
2038.84664	5388.95
2041.87881	5382.65
2044.90903	5376.55
2047.93729	5331.95
2050.96359	5292.25
2053.98794	5266.75
2057.01034	5222.05
2060.03078	5170.65
2063.04927	5128.25
2066.06582	5111.55
2069.08042	5068.85
2072.09307	5049.05
2075.10378	5058.05
2078.11255	5061.25
2081.11938	5079.45
2084.12426	5088.15
2087.12722	5073.75
2090.12824	5072.85
2093.12732	5086.75
2096.12447	5079.55
2099.11969	5085.25
2102.11299	5095.85
2105.10435	5108.95
2108.09379	5123.45
2111.08131	5135.95
2114.0669	5183.15
2117.05057	5214.45
2120.03233	5281.35
2123.01216	5323.75
2125.99008	5345.15
2128.96609	5331.05
2131.94018	5291.35
2134.91236	5225.15
2137.88263	5161.75
2140.851	5071.45
2143.81746	5016.45
2146.78201	4934.65
2149.74466	4845.75
2152.7054	4782.95
2155.66425	4749.15
2158.6212	4702.25
2161.57625	4660.15
2164.52941	4636.75
2167.48067	4649.05
2170.43004	4637.15
2173.37752	4666.25
2176.32311	4686.35
2179.26681	4715.85
2182.20863	4720.35
2185.14856	4708.85
2188.08661	4683.25
2191.02278	4634.25
2193.95707	4574.75
2196.88948	4532.65
2199.82001	4506.25
2202.74867	4486.55
2205.67545	4519.65
2208.60037	4499.15
2211.52341	4490.65
2214.44458	4477.75
2217.36388	4441.35
2220.28132	4422.55
2223.1969	4349.35
2226.11061	4324.15
2229.02246	4302.65
2231.93245	4290.15
2234.84058	4281.95
2237.74686	4264.65
2240.65128	4279.25
2243.55385	4290.45
2246.45456	4343.05
2249.35343	4399.15
2252.25044	4494.85
2255.14561	4574.45
2258.03893	4699.15
2260.93041	4776.65
2263.82004	4796.15
2266.70783	4779.95
2269.59378	4746.85
2272.4779	4709.85
2275.36017	4685.75
2278.24061	4684.35
2281.11922	4622.75
2283.996	4585.95
2286.87094	4519.25
2289.74405	4445.95
2292.61534	4387.15
2295.4848	4306.65
2298.35243	4262.15
2301.21824	4222.95
2304.08223	4216.65
2306.94439	4216.45
2309.80474	4199.05
2312.66327	4206.15
2315.51999	4185.55
2318.37489	4183.85
2321.22797	4168.35
2324.07925	4151.65
2326.92871	4148.75
2329.77637	4141.05
2332.62222	4154.55
2335.46626	4167.55
2338.3085	4178.45
2341.14893	4200.95
2343.98756	4240.95
2346.8244	4278.15
2349.65943	4324.45
2352.49267	4386.35
2355.32411	4472.75
2358.15376	4558.65
2360.98161	4657.95
2363.80768	4752.55
2366.63195	4838.85
2369.45444	4910.35
2372.27514	4940.65
2375.09405	4931.45
2377.91118	4874.65
2380.72652	4806.65
2383.54009	4714.25
2386.35187	4620.45
2389.16188	4512.45
2391.97011	4396.95
2394.77657	4338.55
2397.58125	4265.95
2400.38416	4182.05
2403.18529	4128.35
2405.98466	4093.45
2408.78226	4080.85
2411.57809	4051.35
2414.37216	4044.05
2417.16446	4038.95
2419.955	4049.95
2422.74378	4069.35
2425.5308	4106.85
2428.31606	4135.05
2431.09956	4176.75
2433.88131	4215.65
2436.6613	4254.65
2439.43954	4285.45
2442.21603	4339.45
2444.99077	4389.25
2447.76377	4421.45
2450.53501	4454.65
2453.30451	4472.45
2456.07226	4462.55
2458.83827	4482.35
2461.60254	4465.25
2464.36507	4463.65
2467.12586	4465.05
2469.88492	4472.05
2472.64224	4533.45
2475.39782	4599.35
2478.15167	4691.05
2480.90379	4804.55
2483.65417	4914.45
2486.40283	5025.45
2489.14976	5104.15
2491.89497	5146.25
2494.63845	5168.65
2497.3802	5091.75
2500.12024	5012.85
2502.85855	4929.25
2505.59514	4788.95
2508.33002	4618.85
2511.06318	4462.85
2513.79462	4282.35
2516.52435	4162.65
2519.25237	4051.95
2521.97867	3951.35
2524.70327	3908.55
2527.42616	3874.35
2530.14734	3849.45
2532.86681	3867.95
2535.58458	3890.95
2538.30065	3934.95
2541.01501	3958.55
2543.72768	4000.45
2546.43864	4048.25
2549.14791	4079.75
2551.85548	4101.45
2554.56136	4105.55
2557.26554	4133.55
2559.96803	4118.25
2562.66883	4135.15
2565.36794	4109.95
2568.06536	4118.05
2570.7611	4087.45
2573.45514	4054.65
2576.14751	4009.95
2578.83819	3991.05
2581.52719	3950.55
2584.21451	3921.75
2586.90015	3872.75
2589.58411	3860.75
2592.2664	3852.05
2594.94701	3863.25
2597.62594	3864.85
2600.30321	3887.05
2602.9788	3900.55
2605.65273	3923.15
2608.32498	3952.55
2610.99557	3988.05
2613.66449	3999.05
2616.33175	4013.25
2618.99734	4020.95
2621.66128	4005.75
2624.32355	3978.55
2626.98416	3923.15
2629.64311	3890.15
2632.30041	3834.15
2634.95605	3807.85
2637.61004	3756.65
2640.26238	3724.45
2642.91306	3713.85
2645.56209	3717.15
2648.20948	3730.05
2650.85521	3749.05
2653.4993	3767.85
2656.14175	3798.75
2658.78255	3844.45
2661.42171	3880.25
2664.05923	3931.15
2666.6951	3976.75
2669.32934	4036.45
2671.96194	4041.45
2674.59291	4053.15
2677.22224	4046.55
2679.84993	4035.05
2682.476	4001.15
2685.10043	3989.45
2687.72324	3963.05
2690.34441	3936.05
2692.96396	3936.75
2695.58188	3923.55
2698.19818	3910.85
2700.81285	3930.75
2703.4259	3906.25
2706.03733	3928.45
2708.64714	3966.55
2711.25533	3979.35
2713.86191	4011.75
2716.46687	4057.85
2719.07021	4068.55
2721.67194	4088.85
2724.27206	4071.95
2726.87057	4051.35
2729.46747	4034.25
2732.06276	3990.85
2734.65644	3929.65
2737.24852	3870.45
2739.83899	3820.25
2742.42786	3802.95
2745.01513	3738.45
2747.60079	3703.35
2750.18486	3660.75
2752.76733	3645.25
2755.3482	3627.35
2757.92747	3598.95
2760.50515	3584.65
2763.08123	3559.25
2765.65573	3565.85
2768.22863	3563.15
2770.79994	3568.25
2773.36967	3595.35
2775.9378	3609.75
2778.50435	3639.55
2781.06932	3667.95
2783.6327	3714.75
2786.1945	3751.05
2788.75471	3784.65
2791.31335	3822.85
2793.87041	3884.15
2796.42589	3955.95
2798.97979	4004.25
2801.53212	4075.35
2804.08288	4147.45
2806.63206	4231.85
2809.17967	4325.85
2811.72571	4426.85
2814.27018	4531.95
2816.81308	4613.95
2819.35442	4702.25
2821.89419	4788.95
2824.43239	4839.75
2826.96904	4880.75
2829.50412	4893.35
2832.03763	4909.75
2834.56959	4880.95
2837.1	4895.15
2839.62884	4902.85
2842.15613	4943.85
2844.68186	5001.65
2847.20604	5070.75
2849.72867	5141.45
2852.24974	5222.35
2854.76927	5313.05
2857.28724	5421.55
2859.80367	5522.05
2862.31855	5636.15
2864.83189	5740.65
2867.34368	5838.35
2869.85393	5940.55
2872.36264	5993.15
2874.8698	6010.15
2877.37543	5984.95
2879.87952	5965.65
2882.38207	5963.95
2884.88308	5909.85
2887.38256	5914.65
2889.88051	5887.25
2892.37692	5876.35
2894.8718	5906.05
2897.36515	5926.55
2899.85698	5901.35
2902.34727	5900.25
2904.83604	5834.85
2907.32328	5810.75
2909.809	5751.95
2912.29319	5697.65
2914.77587	5621.05
2917.25702	5556.85
2919.73665	5485.55
2922.21476	5433.75
2924.69136	5359.15
2927.16644	5302.95
2929.64	5211.25
2932.11205	5142.95
2934.58258	5066.55
2937.05161	5001.25
2939.51912	4945.25
2941.98513	4882.15
2944.44962	4824.55
2946.91261	4756.75
2949.37409	4723.55
2951.83407	4704.25
2954.29254	4649.75
2956.74951	4600.95
2959.20498	4564.95
2961.65895	4515.95
2964.11142	4461.75
2966.56239	4401.25
2969.01186	4343.25
2971.45984	4278.15
2973.90632	4205.05
2976.35131	4162.85
2978.7948	4099.35
2981.23681	4079.75
2983.67732	4043.65
2986.11635	4039.15
2988.55388	4007.25
2990.98993	4023.15
2993.4245	4039.75
2995.85758	4060.65
2998.28917	4070.65
3000.71928	4096.05
3003.14791	4115.65
3005.57506	4125.95
3008.00073	4135.45
3010.42493	4180.05
3012.84764	4144.75
3015.26888	4137.35
3017.68865	4096.35
3020.10694	4086.75
3022.52376	4055.05
3024.9391	4013.95
3027.35298	3963.85
3029.76539	3891.25
3032.17632	3812.85
3034.5858	3760.55
3036.9938	3703.05
3039.40034	3632.15
3041.80542	3602.35
3044.20903	3557.75
3046.61118	3529.35
3049.01187	3498.25
3051.4111	3461.75
3053.80888	3436.15
3056.20519	3415.65
3058.60005	3392.95
3060.99345	3373.95
3063.3854	3347.65
3065.7759	3305.65
3068.16494	3269.65
3070.55254	3239.95
3072.93868	3222.05
3075.32338	3187.95
3077.70662	3165.15
3080.08842	3141.15
3082.46878	3143.75
3084.84769	3101.45
3087.22515	3116.25
3089.60118	3099.45
3091.97576	3097.15
3094.3489	3085.55
3096.72061	3066.55
3099.09087	3068.05
3101.4597	3063.35
3103.82709	3063.45
3106.19305	3058.95
3108.55757	3058.35
3110.92066	3049.65
3113.28232	3045.45
3115.64255	3047.55
3118.00134	3054.35
3120.35871	3051.95
3122.71466	3041.35
3125.06917	3044.75
3127.42226	3065.15
3129.77393	3078.55
3132.12417	3086.95
3134.47299	3091.85
3136.82039	3108.35
3139.16636	3126.05
3141.51092	3141.55
3143.85406	3153.85
3146.19579	3161.55
3148.53609	3182.55
3150.87499	3195.65
3153.21246	3227.25
3155.54853	3247.85
3157.88318	3272.35
3160.21642	3279.75
3162.54826	3273.75
3164.87868	3276.45
3167.2077	3275.15
3169.5353	3272.25
3171.86151	3261.85
3174.18631	3255.55
3176.5097	3261.15
3178.83169	3274.25
3181.15228	3275.85
3183.47147	3288.75
3185.78926	3289.35
3188.10565	3321.45
3190.42065	3334.15
3192.73424	3359.55
3195.04645	3387.25
3197.35725	3418.65
3199.66667	3457.15
3201.97469	3497.95
3204.28132	3522.15
3206.58656	3586.25
3208.8904	3635.95
3211.19287	3681.05
3213.49394	3718.05
3215.79363	3752.45
3218.09193	3801.85
3220.38884	3812.65
3222.68438	3859.05
3224.97853	3859.05
3227.2713	3888.05
3229.56269	3886.85
3231.8527	3918.35
3234.14133	3910.95
3236.42858	3914.85
3238.71446	3928.95
3240.99896	3924.55
3243.28209	3940.75
3245.56384	3957.45
3247.84423	3947.35
3250.12324	3965.65
3252.40088	3969.45
3254.67715	3988.55
3256.95205	3987.45
3259.22558	3998.55
3261.49775	3997.35
3263.76855	4006.25
3266.03799	4027.45
3268.30606	4015.05
3270.57277	4040.25
3272.83812	4037.25
3275.10211	4031.65
3277.36474	4063.35
3279.62601	4060.95
3281.88593	4079.65
3284.14448	4100.15
3286.40168	4117.95
3288.65753	4132.45
3290.91202	4143.85
3293.16516	4148.45
3295.41695	4124.65
3297.66738	4120.05
3299.91647	4087.05
3302.16421	4022.35
3304.4106	3967.35
3306.65564	3914.15
3308.89933	3826.95
3311.14169	3771.95
3313.38269	3698.05
3315.62236	3649.65
3317.86068	3603.75
3320.09766	3534.75
3322.3333	3461.15
3324.5676	3424.15
3326.80056	3351.15
3329.03219	3310.05
3331.26248	0.55
3333.49143	0.95
3335.71905	-0.75
