Data from AgNPs_UA_20uM_CRN_500uM_AS_RamanShift__27__14-55-01-529.txt Node

Date: Wed Aug 17 14:55:01 BST 2022
User: TCL
Spectrometer: QEP01345
Trigger mode: 4
Integration Time (sec): 7.000000E0
Scans to average: 10
Electric dark correction enabled: true
Nonlinearity correction enabled: false
Boxcar width: 0
XAxis mode: Raman Shifts
Number of Pixels in Spectrum: 1044
>>>>>Begin Spectral Data<<<<<
46.04893	-0.55
50.45542	-1.05
54.85868	-1.45
59.25871	-0.45
63.6555	48.25
68.04907	52.75
72.43941	52.65
76.82654	59.65
81.21044	62.45
85.59113	60.55
89.96862	64.75
94.34289	72.05
98.71396	75.95
103.08183	75.65
107.4465	76.45
111.80798	77.65
116.16626	82.45
120.52136	82.65
124.87327	82.95
129.222	85.85
133.56755	93.95
137.90993	99.25
142.24913	106.95
146.58517	116.05
150.91804	133.95
155.24774	151.45
159.57429	183.25
163.89768	231.65
168.21792	308.75
172.53501	413.65
176.84895	570.65
181.15975	797.45
185.46741	1118.55
189.77193	1559.95
194.07331	2089.15
198.37157	2702.05
202.6667	3374.95
206.9587	4080.35
211.24758	4835.55
215.53334	5710.95
219.81599	6701.85
224.09553	7869.95
228.37195	9145.55
232.64527	10437.65
236.91549	11555.15
241.18261	12378.15
245.44663	12828.75
249.70755	13068.75
253.96539	13358.35
258.22014	13587.75
262.4718	13765.35
266.72039	13750.65
270.96589	13389.65
275.20832	12791.35
279.44768	12113.45
283.68397	11529.25
287.91719	11320.65
292.14735	11589.05
296.37445	12503.35
300.59849	14029.95
304.81948	15881.15
309.03742	17356.35
313.25231	17662.95
317.46415	16220.15
321.67296	13805.75
325.87872	11808.55
330.08145	10938.45
334.28114	10944.55
338.47781	11451.75
342.67145	12138.85
346.86207	13238.35
351.04966	15059.95
355.23424	17119.45
359.4158	18522.45
363.59435	18897.65
367.76989	18557.15
371.94243	17841.15
376.11196	17158.95
380.27849	16546.95
384.44203	15864.35
388.60257	15160.65
392.76012	14746.85
396.91468	14755.15
401.06626	15168.85
405.21485	15346.55
409.36047	14397.25
413.50311	12550.55
417.64277	10817.25
421.77947	9801.05
425.9132	9327.45
430.04396	9155.75
434.17176	9143.45
438.2966	9413.65
442.41849	9851.45
446.53742	10283.75
450.6534	10584.55
454.76644	10585.15
458.87653	10357.05
462.98368	10070.25
467.08789	9750.75
471.18916	9361.25
475.2875	8923.95
479.38291	8515.75
483.4754	8233.35
487.56496	8018.75
491.6516	7907.95
495.73531	7941.15
499.81612	8052.25
503.89401	8369.85
507.96899	8776.75
512.04106	9276.65
516.11023	9827.95
520.1765	10211.55
524.23987	10164.25
528.30034	9878.25
532.35792	9593.15
536.41261	9236.85
540.46441	8743.25
544.51333	8434.15
548.55936	8509.35
552.60252	8931.35
556.64279	9463.85
560.6802	9898.35
564.71473	10880.85
568.7464	12350.15
572.7752	12385.05
576.80114	10446.35
580.82422	8724.25
584.84444	7962.55
588.86181	7753.75
592.87633	7827.75
596.888	8270.55
600.89682	9609.45
604.9028	13984.75
608.90594	24747.55
612.90624	37008.75
616.90371	32443.95
620.89834	16912.15
624.89015	10340.75
628.87913	9304.55
632.86528	9972.05
636.84862	10639.15
640.82913	9956.35
644.80683	8553.75
648.78172	7677.25
652.75379	7890.85
656.72306	9104.65
660.68952	10246.85
664.65319	9493.45
668.61405	7928.75
672.57211	7307.15
676.52738	7344.75
680.47986	7300.65
684.42955	7030.25
688.37646	6851.05
692.32058	6873.05
696.26192	7030.05
700.20048	7286.35
704.13626	7394.65
708.06928	7277.85
711.99952	7138.65
715.927	7165.85
719.85171	7373.85
723.77365	7582.95
727.69284	7486.65
731.60928	7299.35
735.52295	7229.05
739.43388	7242.85
743.34206	7320.65
747.24749	7315.55
751.15017	7355.75
755.05012	7785.75
758.94733	9442.15
762.8418	13464.75
766.73354	19288.35
770.62254	23758.95
774.50882	25569.75
778.39237	23776.35
782.27321	18232.45
786.15132	12517.85
790.02671	9369.65
793.89938	7976.25
797.76935	7435.85
801.6366	7184.65
805.50115	7041.45
809.36299	6956.25
813.22213	6874.25
817.07857	6857.15
820.93231	6889.25
824.78336	7038.55
828.63172	7196.35
832.47738	7247.45
836.32036	7071.25
840.16066	6825.85
843.99827	6636.35
847.8332	6581.05
851.66546	6628.55
855.49504	6629.65
859.32195	6623.45
863.1462	6563.05
866.96777	6515.45
870.78668	6532.25
874.60293	6583.45
878.41652	6697.25
882.22745	6872.85
886.03573	6988.15
889.84136	6958.35
893.64433	6914.65
897.44466	6937.15
901.24235	6973.55
905.0374	6826.05
908.8298	6604.05
912.61957	6452.85
916.40671	6385.35
920.19121	6424.25
923.97308	6632.85
927.75233	7122.35
931.52895	7617.55
935.30295	7361.05
939.07433	6632.25
942.84309	6068.35
946.60924	5782.15
950.37278	5653.55
954.13371	5612.55
957.89203	5603.05
961.64774	5588.95
965.40086	5567.55
969.15137	5558.65
972.89929	5514.75
976.64461	5498.65
980.38733	5504.75
984.12747	5511.35
987.86502	5534.85
991.59999	5598.65
995.33237	5689.35
999.06217	5859.75
1002.78939	6141.35
1006.51404	6468.25
1010.23611	6716.85
1013.95561	6702.55
1017.67255	6536.95
1021.38692	6346.95
1025.09872	6119.35
1028.80796	5974.35
1032.51465	6021.65
1036.21877	6110.55
1039.92035	6246.95
1043.61937	6383.65
1047.31584	6462.45
1051.00976	6475.05
1054.70114	6366.65
1058.38998	6280.55
1062.07627	6257.75
1065.76003	6244.25
1069.44126	6272.05
1073.11995	6459.95
1076.79611	6900.85
1080.46974	7702.45
1084.14085	8662.55
1087.80943	9408.95
1091.47549	9424.65
1095.13903	8816.35
1098.80005	7939.35
1102.45857	7444.15
1106.11456	7469.95
1109.76805	7894.85
1113.41903	8818.95
1117.06751	10188.15
1120.71348	12094.35
1124.35696	14260.15
1127.99793	15240.15
1131.63641	13799.85
1135.2724	11378.05
1138.90589	9605.55
1142.5369	8624.35
1146.16542	7964.05
1149.79145	7557.05
1153.415	7442.35
1157.03607	7555.55
1160.65467	7917.25
1164.27079	8621.25
1167.88443	9744.05
1171.49561	11623.25
1175.10432	14828.65
1178.71056	19133.25
1182.31434	22462.95
1185.91565	22718.75
1189.51451	20592.05
1193.11091	17560.25
1196.70485	14945.05
1200.29634	13384.85
1203.88538	12136.25
1207.47197	10435.85
1211.05612	8837.35
1214.63782	7869.25
1218.21708	7390.15
1221.79391	7205.35
1225.36829	7153.95
1228.94024	7094.05
1232.50976	7064.25
1236.07685	7113.15
1239.6415	7217.35
1243.20374	7375.35
1246.76355	7595.25
1250.32093	7809.55
1253.8759	8167.45
1257.42845	8722.55
1260.97859	9535.75
1264.52631	10413.75
1268.07163	11216.75
1271.61453	11733.35
1275.15503	11824.35
1278.69312	11735.55
1282.22882	11997.35
1285.76211	12856.05
1289.29301	13942.35
1292.82151	14931.25
1296.34761	16113.35
1299.87133	18371.25
1303.39266	22663.65
1306.9116	29332.55
1310.42815	35412.35
1313.94233	35972.85
1317.45412	30727.95
1320.96354	24013.85
1324.47058	18358.95
1327.97525	14451.75
1331.47754	12318.05
1334.97747	11686.85
1338.47502	12212.45
1341.97022	14093.75
1345.46305	17373.45
1348.95352	21649.15
1352.44163	26845.05
1355.92738	34519.55
1359.41078	45863.85
1362.89183	53920.35
1366.37053	47532.75
1369.84688	33323.85
1373.32088	23063.95
1376.79254	17778.95
1380.26186	14834.05
1383.72883	12673.95
1387.19347	10962.65
1390.65578	9589.15
1394.11575	8630.95
1397.57339	8071.25
1401.0287	7797.65
1404.48168	7614.25
1407.93234	7552.45
1411.38068	7695.85
1414.82669	8067.95
1418.27039	8417.05
1421.71177	8452.65
1425.15083	8339.65
1428.58758	8514.05
1432.02203	8926.75
1435.45416	9072.15
1438.88399	8811.45
1442.31151	8572.65
1445.73673	8633.25
1449.15965	8705.75
1452.58027	8609.85
1455.9986	8383.05
1459.41463	8318.15
1462.82837	8611.95
1466.23982	9133.05
1469.64898	9555.45
1473.05586	9633.05
1476.46045	9619.95
1479.86276	9825.25
1483.26279	10412.75
1486.66054	11482.55
1490.05602	13085.25
1493.44922	15647.45
1496.84016	19890.15
1500.22882	26729.45
1503.61521	36381.45
1506.99934	47085.45
1510.38121	54236.75
1513.76081	53632.95
1517.13816	45115.95
1520.51324	33558.25
1523.88607	24047.05
1527.25665	18172.15
1530.62498	14947.65
1533.99105	13057.85
1537.35488	11838.05
1540.71647	11218.35
1544.07581	11149.85
1547.4329	11446.65
1550.78776	11939.55
1554.14038	12484.25
1557.49077	13055.85
1560.83892	13977.45
1564.18484	15557.25
1567.52853	17415.35
1570.86999	18775.15
1574.20922	19279.95
1577.54624	18435.45
1580.88103	15587.65
1584.2136	12337.55
1587.54395	10387.05
1590.87208	9917.75
1594.19801	10705.95
1597.52172	11876.65
1600.84321	12096.55
1604.16251	11254.85
1607.47959	10239.15
1610.79447	9286.05
1614.10715	8329.65
1617.41763	7548.35
1620.7259	7140.15
1624.03199	7067.75
1627.33587	7274.35
1630.63757	7806.95
1633.93707	8778.05
1637.23439	10531.85
1640.52951	13651.35
1643.82246	18859.25
1647.11321	25102.65
1650.40179	28963.25
1653.68819	26996.65
1656.97241	20781.15
1660.25446	14604.85
1663.53433	10568.85
1666.81203	8264.85
1670.08756	6996.85
1673.36092	6283.75
1676.63211	5845.55
1679.90115	5545.45
1683.16801	5369.05
1686.43272	5221.45
1689.69527	5119.45
1692.95567	5054.95
1696.2139	5022.35
1699.46999	4986.05
1702.72392	4956.85
1705.97571	4932.05
1709.22535	4916.85
1712.47284	4920.05
1715.71819	4890.95
1718.96139	4850.85
1722.20246	4768.75
1725.44139	4680.45
1728.67818	4579.45
1731.91284	4479.15
1735.14537	4419.85
1738.37576	4365.45
1741.60403	4325.25
1744.83017	4301.45
1748.05418	4272.55
1751.27607	4240.65
1754.49584	4226.45
1757.71349	4188.95
1760.92903	4125.95
1764.14244	4091.15
1767.35375	4033.85
1770.56294	3965.15
1773.77002	3915.45
1776.97499	3860.25
1780.17785	3789.45
1783.37861	3772.05
1786.57727	3724.95
1789.77382	3712.15
1792.96828	3690.15
1796.16064	3673.15
1799.3509	3663.15
1802.53907	3631.25
1805.72514	3613.95
1808.90913	3600.85
1812.09102	3538.15
1815.27083	3516.05
1818.44856	3517.05
1821.6242	3471.85
1824.79776	3480.25
1827.96924	3449.95
1831.13864	3433.75
1834.30597	3415.15
1837.47122	3388.35
1840.6344	3359.25
1843.7955	3363.05
1846.95454	3322.15
1850.11151	3331.55
1853.26642	3319.55
1856.41926	3301.85
1859.57004	3312.15
1862.71876	3310.55
1865.86542	3309.75
1869.01003	3327.35
1872.15258	3329.55
1875.29308	3342.85
1878.43152	3334.45
1881.56792	3329.95
1884.70227	3329.55
1887.83457	3309.35
1890.96482	3301.15
1894.09304	3286.75
1897.21921	3268.45
1900.34335	3285.55
1903.46544	3274.05
1906.58551	3288.35
1909.70353	3275.15
1912.81953	3268.55
1915.93349	3249.35
1919.04543	3252.85
1922.15534	3224.45
1925.26322	3216.45
1928.36908	3181.55
1931.47292	3156.05
1934.57473	3105.65
1937.67453	3106.85
1940.77232	3069.45
1943.86808	3037.95
1946.96184	3026.15
1950.05358	3014.45
1953.14331	3010.45
1956.23103	3002.35
1959.31675	2994.75
1962.40046	3020.25
1965.48217	3025.85
1968.56188	3034.55
1971.63959	3042.35
1974.7153	3037.95
1977.78901	3014.65
1980.86073	2991.75
1983.93046	2952.45
1986.99819	2920.15
1990.06394	2885.75
1993.1277	2871.45
1996.18947	2847.25
1999.24925	2821.25
2002.30706	2805.75
2005.36288	2778.95
2008.41672	2766.15
2011.46859	2768.05
2014.51848	2759.85
2017.56639	2735.85
2020.61233	2731.15
2023.6563	2732.05
2026.6983	2707.05
2029.73833	2699.55
2032.7764	2676.95
2035.8125	2675.75
2038.84664	2677.55
2041.87881	2660.35
2044.90903	2670.45
2047.93729	2644.95
2050.96359	2641.65
2053.98794	2618.65
2057.01034	2619.65
2060.03078	2619.25
2063.04927	2604.95
2066.06582	2582.45
2069.08042	2578.95
2072.09307	2571.75
2075.10378	2568.35
2078.11255	2568.05
2081.11938	2566.35
2084.12426	2559.55
2087.12722	2562.55
2090.12824	2574.75
2093.12732	2561.55
2096.12447	2559.45
2099.11969	2561.65
2102.11299	2556.85
2105.10435	2574.05
2108.09379	2558.45
2111.08131	2574.75
2114.0669	2586.65
2117.05057	2605.65
2120.03233	2620.15
2123.01216	2650.05
2125.99008	2647.65
2128.96609	2645.15
2131.94018	2644.95
2134.91236	2630.05
2137.88263	2610.85
2140.851	2607.75
2143.81746	2584.75
2146.78201	2574.15
2149.74466	2553.35
2152.7054	2536.25
2155.66425	2498.95
2158.6212	2511.05
2161.57625	2503.85
2164.52941	2507.25
2167.48067	2493.65
2170.43004	2494.35
2173.37752	2481.45
2176.32311	2504.45
2179.26681	2504.55
2182.20863	2519.85
2185.14856	2513.45
2188.08661	2505.05
2191.02278	2494.75
2193.95707	2468.05
2196.88948	2466.55
2199.82001	2451.65
2202.74867	2457.35
2205.67545	2455.35
2208.60037	2463.25
2211.52341	2458.05
2214.44458	2445.45
2217.36388	2428.25
2220.28132	2413.25
2223.1969	2412.45
2226.11061	2399.55
2229.02246	2390.95
2231.93245	2380.45
2234.84058	2371.55
2237.74686	2375.45
2240.65128	2378.55
2243.55385	2384.35
2246.45456	2384.65
2249.35343	2417.75
2252.25044	2452.45
2255.14561	2453.75
2258.03893	2472.35
2260.93041	2494.25
2263.82004	2496.05
2266.70783	2487.65
2269.59378	2467.75
2272.4779	2456.95
2275.36017	2457.15
2278.24061	2446.55
2281.11922	2433.25
2283.996	2420.65
2286.87094	2405.15
2289.74405	2384.15
2292.61534	2364.95
2295.4848	2342.75
2298.35243	2338.15
2301.21824	2324.85
2304.08223	2326.75
2306.94439	2319.95
2309.80474	2323.45
2312.66327	2309.75
2315.51999	2323.85
2318.37489	2311.75
2321.22797	2306.35
2324.07925	2306.45
2326.92871	2301.15
2329.77637	2310.95
2332.62222	2304.65
2335.46626	2296.95
2338.3085	2302.65
2341.14893	2310.65
2343.98756	2329.15
2346.8244	2333.65
2349.65943	2341.25
2352.49267	2361.35
2355.32411	2377.65
2358.15376	2416.75
2360.98161	2427.35
2363.80768	2447.85
2366.63195	2474.35
2369.45444	2504.05
2372.27514	2511.35
2375.09405	2488.25
2377.91118	2476.65
2380.72652	2452.65
2383.54009	2425.25
2386.35187	2395.75
2389.16188	2363.85
2391.97011	2328.15
2394.77657	2309.95
2397.58125	2282.15
2400.38416	2273.95
2403.18529	2267.75
2405.98466	2239.05
2408.78226	2237.95
2411.57809	2226.15
2414.37216	2222.75
2417.16446	2222.45
2419.955	2212.55
2422.74378	2235.35
2425.5308	2234.15
2428.31606	2241.65
2431.09956	2248.65
2433.88131	2250.05
2436.6613	2264.25
2439.43954	2274.35
2442.21603	2277.45
2444.99077	2287.45
2447.76377	2305.05
2450.53501	2321.35
2453.30451	2317.65
2456.07226	2315.55
2458.83827	2330.25
2461.60254	2320.65
2464.36507	2318.75
2467.12586	2312.95
2469.88492	2314.15
2472.64224	2325.85
2475.39782	2341.25
2478.15167	2369.55
2480.90379	2386.65
2483.65417	2410.05
2486.40283	2452.95
2489.14976	2471.55
2491.89497	2480.55
2494.63845	2494.15
2497.3802	2477.15
2500.12024	2462.25
2502.85855	2429.95
2505.59514	2398.55
2508.33002	2336.45
2511.06318	2304.95
2513.79462	2255.45
2516.52435	2231.15
2519.25237	2177.75
2521.97867	2162.05
2524.70327	2149.05
2527.42616	2126.65
2530.14734	2126.85
2532.86681	2117.25
2535.58458	2125.15
2538.30065	2129.15
2541.01501	2149.05
2543.72768	2158.05
2546.43864	2157.85
2549.14791	2172.15
2551.85548	2181.95
2554.56136	2189.05
2557.26554	2178.75
2559.96803	2174.05
2562.66883	2177.25
2565.36794	2174.85
2568.06536	2159.75
2570.7611	2156.85
2573.45514	2151.45
2576.14751	2139.35
2578.83819	2127.85
2581.52719	2123.35
2584.21451	2101.25
2586.90015	2094.15
2589.58411	2085.15
2592.2664	2093.45
2594.94701	2084.15
2597.62594	2083.25
2600.30321	2087.75
2602.9788	2089.05
2605.65273	2085.25
2608.32498	2086.05
2610.99557	2098.85
2613.66449	2104.35
2616.33175	2103.65
2618.99734	2106.85
2621.66128	2102.95
2624.32355	2093.75
2626.98416	2088.25
2629.64311	2064.85
2632.30041	2058.45
2634.95605	2042.25
2637.61004	2032.85
2640.26238	2025.15
2642.91306	2014.95
2645.56209	2012.55
2648.20948	2008.75
2650.85521	2005.15
2653.4993	2018.75
2656.14175	2033.45
2658.78255	2033.55
2661.42171	2045.75
2664.05923	2057.95
2666.6951	2072.35
2669.32934	2100.25
2671.96194	2084.95
2674.59291	2081.45
2677.22224	2081.15
2679.84993	2078.05
2682.476	2089.75
2685.10043	2071.35
2687.72324	2064.65
2690.34441	2062.75
2692.96396	2051.55
2695.58188	2057.35
2698.19818	2046.75
2700.81285	2047.75
2703.4259	2051.45
2706.03733	2056.95
2708.64714	2058.85
2711.25533	2059.75
2713.86191	2059.35
2716.46687	2075.15
2719.07021	2072.15
2721.67194	2076.45
2724.27206	2073.85
2726.87057	2077.35
2729.46747	2069.65
2732.06276	2056.95
2734.65644	2048.75
2737.24852	2022.45
2739.83899	2013.55
2742.42786	2005.85
2745.01513	1992.25
2747.60079	1970.45
2750.18486	1969.75
2752.76733	1967.45
2755.3482	1945.35
2757.92747	1941.05
2760.50515	1939.85
2763.08123	1918.45
2765.65573	1912.25
2768.22863	1910.55
2770.79994	1917.05
2773.36967	1918.35
2775.9378	1921.85
2778.50435	1919.65
2781.06932	1926.95
2783.6327	1933.25
2786.1945	1934.55
2788.75471	1946.65
2791.31335	1942.35
2793.87041	1944.75
2796.42589	1963.25
2798.97979	1969.65
2801.53212	1979.45
2804.08288	1998.55
2806.63206	2014.85
2809.17967	2026.95
2811.72571	2060.55
2814.27018	2073.15
2816.81308	2087.15
2819.35442	2108.15
2821.89419	2133.55
2824.43239	2124.75
2826.96904	2147.35
2829.50412	2151.65
2832.03763	2129.65
2834.56959	2133.05
2837.1	2121.35
2839.62884	2120.65
2842.15613	2131.05
2844.68186	2138.65
2847.20604	2152.85
2849.72867	2169.85
2852.24974	2190.75
2854.76927	2205.65
2857.28724	2228.85
2859.80367	2256.95
2862.31855	2278.25
2864.83189	2309.75
2867.34368	2331.35
2869.85393	2354.15
2872.36264	2360.85
2874.8698	2384.55
2877.37543	2385.05
2879.87952	2378.45
2882.38207	2364.55
2884.88308	2351.05
2887.38256	2351.45
2889.88051	2349.75
2892.37692	2344.75
2894.8718	2331.45
2897.36515	2347.15
2899.85698	2347.75
2902.34727	2345.45
2904.83604	2339.95
2907.32328	2330.65
2909.809	2334.35
2912.29319	2313.35
2914.77587	2310.55
2917.25702	2294.45
2919.73665	2277.65
2922.21476	2280.35
2924.69136	2272.05
2927.16644	2261.25
2929.64	2251.75
2932.11205	2230.05
2934.58258	2234.55
2937.05161	2222.95
2939.51912	2214.45
2941.98513	2211.35
2944.44962	2210.75
2946.91261	2204.05
2949.37409	2186.85
2951.83407	2180.15
2954.29254	2181.65
2956.74951	2168.95
2959.20498	2156.15
2961.65895	2155.45
2964.11142	2136.65
2966.56239	2119.45
2969.01186	2105.35
2971.45984	2089.25
2973.90632	2079.65
2976.35131	2077.75
2978.7948	2046.75
2981.23681	2049.45
2983.67732	2031.55
2986.11635	2032.85
2988.55388	2013.95
2990.98993	2027.85
2993.4245	2027.75
2995.85758	2024.85
2998.28917	2034.35
3000.71928	2043.75
3003.14791	2043.95
3005.57506	2057.65
3008.00073	2056.15
3010.42493	2023.75
3012.84764	2057.45
3015.26888	2050.45
3017.68865	2045.55
3020.10694	2038.75
3022.52376	2037.35
3024.9391	2029.35
3027.35298	2007.95
3029.76539	1996.95
3032.17632	1979.75
3034.5858	1960.95
3036.9938	1955.95
3039.40034	1935.45
3041.80542	1917.25
3044.20903	1926.25
3046.61118	1915.55
3049.01187	1907.65
3051.4111	1907.15
3053.80888	1901.95
3056.20519	1906.75
3058.60005	1901.85
3060.99345	1887.15
3063.3854	1886.85
3065.7759	1869.85
3068.16494	1880.05
3070.55254	1861.85
3072.93868	1854.95
3075.32338	1850.05
3077.70662	1834.95
3080.08842	1836.65
3082.46878	1840.05
3084.84769	1840.15
3087.22515	1837.65
3089.60118	1840.15
3091.97576	1836.95
3094.3489	1839.25
3096.72061	1846.85
3099.09087	1838.85
3101.4597	1850.75
3103.82709	1858.75
3106.19305	1856.25
3108.55757	1870.55
3110.92066	1869.25
3113.28232	1880.95
3115.64255	1881.55
3118.00134	1885.15
3120.35871	1882.15
3122.71466	1882.25
3125.06917	1885.45
3127.42226	1886.65
3129.77393	1886.15
3132.12417	1889.75
3134.47299	1899.05
3136.82039	1917.35
3139.16636	1913.55
3141.51092	1925.95
3143.85406	1937.15
3146.19579	1941.55
3148.53609	1965.95
3150.87499	1969.65
3153.21246	1989.35
3155.54853	1992.45
3157.88318	2005.35
3160.21642	2022.65
3162.54826	2008.55
3164.87868	2019.15
3167.2077	2032.75
3169.5353	2024.55
3171.86151	2035.75
3174.18631	2034.65
3176.5097	2035.55
3178.83169	2040.05
3181.15228	2046.45
3183.47147	2054.05
3185.78926	2051.25
3188.10565	2052.85
3190.42065	2073.35
3192.73424	2086.95
3195.04645	2079.35
3197.35725	2097.05
3199.66667	2098.65
3201.97469	2120.35
3204.28132	2129.25
3206.58656	2149.95
3208.8904	2173.65
3211.19287	2188.85
3213.49394	2194.95
3215.79363	2212.85
3218.09193	2232.55
3220.38884	2248.45
3222.68438	2259.75
3224.97853	2270.55
3227.2713	2277.35
3229.56269	2276.75
3231.8527	2283.05
3234.14133	2275.85
3236.42858	2273.65
3238.71446	2280.85
3240.99896	2278.95
3243.28209	2277.65
3245.56384	2298.35
3247.84423	2298.85
3250.12324	2301.75
3252.40088	2304.35
3254.67715	2285.25
3256.95205	2300.55
3259.22558	2308.45
3261.49775	2318.75
3263.76855	2313.75
3266.03799	2327.05
3268.30606	2319.45
3270.57277	2327.75
3272.83812	2332.75
3275.10211	2319.35
3277.36474	2323.65
3279.62601	2327.65
3281.88593	2332.25
3284.14448	2336.15
3286.40168	2351.85
3288.65753	2340.65
3290.91202	2346.25
3293.16516	2353.35
3295.41695	2343.45
3297.66738	2344.45
3299.91647	2336.65
3302.16421	2313.85
3304.4106	2297.95
3306.65564	2274.45
3308.89933	2254.15
3311.14169	2224.55
3313.38269	2197.35
3315.62236	2193.85
3317.86068	2179.05
3320.09766	2142.75
3322.3333	2126.85
3324.5676	2115.35
3326.80056	2070.25
3329.03219	2047.95
3331.26248	1.65
3333.49143	0.95
3335.71905	1.55
