Data from AgNPs_UA_20uM_CRN_500uM_AS_RamanShift__10__14-35-11-508.txt Node

Date: Wed Aug 17 14:35:11 BST 2022
User: TCL
Spectrometer: QEP01345
Trigger mode: 4
Integration Time (sec): 7.000000E0
Scans to average: 10
Electric dark correction enabled: true
Nonlinearity correction enabled: false
Boxcar width: 0
XAxis mode: Raman Shifts
Number of Pixels in Spectrum: 1044
>>>>>Begin Spectral Data<<<<<
46.04893	-0.45
50.45542	-0.55
54.85868	-1.55
59.25871	1.75
63.6555	45.45
68.04907	49.85
72.43941	54.05
76.82654	57.05
81.21044	57.05
85.59113	63.05
89.96862	62.45
94.34289	69.55
98.71396	69.15
103.08183	71.05
107.4465	72.55
111.80798	73.55
116.16626	75.35
120.52136	74.05
124.87327	73.05
129.222	76.75
133.56755	79.75
137.90993	76.35
142.24913	84.25
146.58517	92.45
150.91804	93.55
155.24774	103.85
159.57429	117.85
163.89768	142.75
168.21792	184.55
172.53501	241.25
176.84895	317.45
181.15975	443.75
185.46741	603.15
189.77193	829.05
194.07331	1095.55
198.37157	1406.25
202.6667	1729.65
206.9587	2072.25
211.24758	2397.45
215.53334	2751.15
219.81599	3134.95
224.09553	3552.05
228.37195	4039.95
232.64527	4546.95
236.91549	5070.55
241.18261	5517.65
245.44663	5856.05
249.70755	6080.15
253.96539	6201.35
258.22014	6320.15
262.4718	6377.15
266.72039	6441.75
270.96589	6417.55
275.20832	6295.65
279.44768	6139.75
283.68397	5998.75
287.91719	5883.05
292.14735	5860.55
296.37445	5937.35
300.59849	6127.95
304.81948	6359.75
309.03742	6597.45
313.25231	6740.95
317.46415	6678.85
321.67296	6428.15
325.87872	6172.45
330.08145	6012.45
334.28114	5989.85
338.47781	6037.65
342.67145	6134.85
346.86207	6291.65
351.04966	6528.95
355.23424	6771.65
359.4158	6917.05
363.59435	6974.05
367.76989	6922.45
371.94243	6844.85
376.11196	6784.65
380.27849	6739.65
384.44203	6719.55
388.60257	6705.15
392.76012	6724.85
396.91468	6787.05
401.06626	6909.85
405.21485	6908.35
409.36047	6721.75
413.50311	6392.45
417.64277	6106.75
421.77947	5990.65
425.9132	5982.65
430.04396	6036.25
434.17176	6118.65
438.2966	6250.55
442.41849	6490.55
446.53742	6809.65
450.6534	7091.25
454.76644	7178.95
458.87653	7094.45
462.98368	6922.55
467.08789	6721.85
471.18916	6489.55
475.2875	6237.45
479.38291	5991.55
483.4754	5794.65
487.56496	5675.85
491.6516	5613.85
495.73531	5606.45
499.81612	5630.95
503.89401	5681.65
507.96899	5736.65
512.04106	5777.85
516.11023	5808.75
520.1765	5877.55
524.23987	5921.15
528.30034	5938.05
532.35792	5942.95
536.41261	5817.45
540.46441	5671.05
544.51333	5553.85
548.55936	5604.65
552.60252	5770.95
556.64279	5985.45
560.6802	6101.85
564.71473	6104.15
568.7464	6168.25
572.7752	6277.45
576.80114	6275.25
580.82422	6346.25
584.84444	6594.75
588.86181	7094.55
592.87633	7893.75
596.888	8502.65
600.89682	8409.25
604.9028	8528.55
608.90594	10066.65
612.90624	11922.75
616.90371	10652.75
620.89834	7430.15
624.89015	6031.15
628.87913	5841.85
632.86528	6031.95
636.84862	6150.55
640.82913	5962.25
644.80683	5626.65
648.78172	5406.55
652.75379	5407.65
656.72306	5646.45
660.68952	5869.35
664.65319	5650.05
668.61405	5295.25
672.57211	5209.45
676.52738	5292.35
680.47986	5320.65
684.42955	5246.55
688.37646	5151.95
692.32058	5121.65
696.26192	5185.25
700.20048	5283.65
704.13626	5337.25
708.06928	5327.05
711.99952	5285.65
715.927	5288.95
719.85171	5358.05
723.77365	5379.25
727.69284	5328.55
731.60928	5302.05
735.52295	5343.45
739.43388	5388.75
743.34206	5430.65
747.24749	5441.65
751.15017	5444.95
755.05012	5587.15
758.94733	6002.35
762.8418	6986.15
766.73354	8510.05
770.62254	9762.95
774.50882	9917.05
778.39237	9031.25
782.27321	7722.65
786.15132	6548.85
790.02671	5839.85
793.89938	5473.85
797.76935	5270.55
801.6366	5175.75
805.50115	5094.35
809.36299	5033.65
813.22213	4972.85
817.07857	4935.25
820.93231	4926.25
824.78336	4927.05
828.63172	4948.95
832.47738	4949.75
836.32036	4907.85
840.16066	4898.15
843.99827	4880.25
847.8332	4867.45
851.66546	4890.45
855.49504	4914.25
859.32195	4891.55
863.1462	4879.85
866.96777	4863.55
870.78668	4876.25
874.60293	4888.45
878.41652	4903.15
882.22745	4958.15
886.03573	5005.85
889.84136	5016.45
893.64433	4985.95
897.44466	4996.55
901.24235	4983.25
905.0374	4945.65
908.8298	4891.85
912.61957	4849.65
916.40671	4882.85
920.19121	4941.15
923.97308	5054.95
927.75233	5113.55
931.52895	5100.55
935.30295	4957.85
939.07433	4724.05
942.84309	4585.45
946.60924	4512.75
950.37278	4497.65
954.13371	4473.55
957.89203	4470.05
961.64774	4471.85
965.40086	4451.45
969.15137	4453.55
972.89929	4422.55
976.64461	4375.65
980.38733	4400.05
984.12747	4403.95
987.86502	4432.85
991.59999	4454.95
995.33237	4544.65
999.06217	4680.35
1002.78939	4861.75
1006.51404	5045.35
1010.23611	5196.05
1013.95561	5264.95
1017.67255	5261.05
1021.38692	5129.05
1025.09872	4919.85
1028.80796	4762.55
1032.51465	4701.25
1036.21877	4718.05
1039.92035	4760.05
1043.61937	4783.45
1047.31584	4840.55
1051.00976	4840.95
1054.70114	4847.95
1058.38998	4847.35
1062.07627	4875.15
1065.76003	4905.85
1069.44126	4927.15
1073.11995	5047.45
1076.79611	5174.85
1080.46974	5325.45
1084.14085	5525.55
1087.80943	5722.95
1091.47549	5750.05
1095.13903	5604.55
1098.80005	5395.05
1102.45857	5205.75
1106.11456	5182.45
1109.76805	5260.45
1113.41903	5441.35
1117.06751	5673.45
1120.71348	5983.35
1124.35696	6359.85
1127.99793	6603.15
1131.63641	6500.65
1135.2724	6192.15
1138.90589	5935.15
1142.5369	5759.15
1146.16542	5693.05
1149.79145	5695.55
1153.415	5733.95
1157.03607	5800.95
1160.65467	5972.95
1164.27079	6280.45
1167.88443	6815.45
1171.49561	7603.75
1175.10432	8772.95
1178.71056	10258.45
1182.31434	11546.65
1185.91565	11908.75
1189.51451	11509.25
1193.11091	10853.05
1196.70485	10086.85
1200.29634	9332.65
1203.88538	8546.05
1207.47197	7780.85
1211.05612	7191.95
1214.63782	6832.65
1218.21708	6758.35
1221.79391	6863.65
1225.36829	7000.85
1228.94024	6987.85
1232.50976	6790.15
1236.07685	6550.75
1239.6415	6402.75
1243.20374	6335.55
1246.76355	6327.75
1250.32093	6336.35
1253.8759	6467.05
1257.42845	6723.55
1260.97859	7049.85
1264.52631	7430.05
1268.07163	7790.85
1271.61453	8037.15
1275.15503	8251.95
1278.69312	8445.35
1282.22882	8745.25
1285.76211	9230.85
1289.29301	9871.35
1292.82151	10565.95
1296.34761	11286.65
1299.87133	12276.15
1303.39266	13574.75
1306.9116	15182.15
1310.42815	16677.15
1313.94233	17167.15
1317.45412	16319.45
1320.96354	14810.75
1324.47058	13195.85
1327.97525	11873.35
1331.47754	10997.65
1334.97747	10630.55
1338.47502	10633.65
1341.97022	10981.95
1345.46305	11622.55
1348.95352	12621.15
1352.44163	13920.95
1355.92738	15677.35
1359.41078	18010.15
1362.89183	19929.65
1366.37053	19296.65
1369.84688	16142.75
1373.32088	12800.65
1376.79254	10836.15
1380.26186	9974.25
1383.72883	9457.05
1387.19347	8974.95
1390.65578	8515.45
1394.11575	8289.75
1397.57339	8169.85
1401.0287	8121.55
1404.48168	8051.75
1407.93234	7932.95
1411.38068	7850.45
1414.82669	7823.95
1418.27039	7730.05
1421.71177	7592.95
1425.15083	7390.65
1428.58758	7282.45
1432.02203	7353.15
1435.45416	7469.15
1438.88399	7547.25
1442.31151	7559.15
1445.73673	7569.85
1449.15965	7566.85
1452.58027	7506.95
1455.9986	7419.35
1459.41463	7469.05
1462.82837	7638.35
1466.23982	7951.05
1469.64898	8285.95
1473.05586	8534.15
1476.46045	8753.15
1479.86276	8922.45
1483.26279	9124.95
1486.66054	9447.25
1490.05602	9994.35
1493.44922	10733.05
1496.84016	11710.75
1500.22882	13000.35
1503.61521	14619.85
1506.99934	16207.65
1510.38121	17009.15
1513.76081	16509.95
1517.13816	14902.35
1520.51324	12955.95
1523.88607	11434.55
1527.25665	10612.65
1530.62498	10240.95
1533.99105	9905.45
1537.35488	9536.05
1540.71647	9083.25
1544.07581	8630.15
1547.4329	8246.25
1550.78776	7972.55
1554.14038	7816.85
1557.49077	7822.15
1560.83892	7984.25
1564.18484	8393.95
1567.52853	8891.15
1570.86999	9305.35
1574.20922	9561.55
1577.54624	9399.95
1580.88103	8781.65
1584.2136	8123.75
1587.54395	7861.55
1590.87208	8148.65
1594.19801	8900.25
1597.52172	9728.15
1600.84321	9962.65
1604.16251	9513.55
1607.47959	8679.65
1610.79447	7747.75
1614.10715	6947.75
1617.41763	6279.65
1620.7259	5880.95
1624.03199	5717.85
1627.33587	5752.25
1630.63757	5984.75
1633.93707	6594.15
1637.23439	7658.95
1640.52951	9326.95
1643.82246	11382.55
1647.11321	13252.85
1650.40179	13717.85
1653.68819	12440.25
1656.97241	10138.45
1660.25446	7920.35
1663.53433	6398.05
1666.81203	5489.65
1670.08756	4968.45
1673.36092	4645.75
1676.63211	4456.25
1679.90115	4302.55
1683.16801	4191.25
1686.43272	4106.45
1689.69527	4039.75
1692.95567	3995.15
1696.2139	3952.15
1699.46999	3916.85
1702.72392	3886.75
1705.97571	3863.85
1709.22535	3838.65
1712.47284	3842.05
1715.71819	3825.25
1718.96139	3794.95
1722.20246	3753.25
1725.44139	3714.35
1728.67818	3685.65
1731.91284	3654.55
1735.14537	3605.95
1738.37576	3567.15
1741.60403	3559.35
1744.83017	3550.55
1748.05418	3539.65
1751.27607	3521.15
1754.49584	3532.55
1757.71349	3521.75
1760.92903	3508.25
1764.14244	3483.55
1767.35375	3451.05
1770.56294	3433.55
1773.77002	3397.45
1776.97499	3375.25
1780.17785	3362.15
1783.37861	3327.55
1786.57727	3310.15
1789.77382	3282.85
1792.96828	3272.95
1796.16064	3263.85
1799.3509	3246.95
1802.53907	3233.75
1805.72514	3222.95
1808.90913	3203.55
1812.09102	3173.05
1815.27083	3166.15
1818.44856	3154.15
1821.6242	3147.45
1824.79776	3138.75
1827.96924	3141.95
1831.13864	3128.65
1834.30597	3116.15
1837.47122	3102.85
1840.6344	3106.65
1843.7955	3092.05
1846.95454	3098.65
1850.11151	3085.65
1853.26642	3068.55
1856.41926	3085.45
1859.57004	3066.75
1862.71876	3069.65
1865.86542	3063.85
1869.01003	3052.25
1872.15258	3058.35
1875.29308	3053.05
1878.43152	3058.65
1881.56792	3045.85
1884.70227	3036.85
1887.83457	3027.35
1890.96482	3021.45
1894.09304	3026.05
1897.21921	3006.75
1900.34335	3013.85
1903.46544	3009.45
1906.58551	3010.45
1909.70353	3002.15
1912.81953	2993.05
1915.93349	2986.15
1919.04543	2972.75
1922.15534	2962.55
1925.26322	2956.65
1928.36908	2944.45
1931.47292	2925.75
1934.57473	2918.15
1937.67453	2910.35
1940.77232	2892.65
1943.86808	2876.95
1946.96184	2859.45
1950.05358	2858.15
1953.14331	2860.05
1956.23103	2849.05
1959.31675	2840.85
1962.40046	2823.85
1965.48217	2810.05
1968.56188	2810.75
1971.63959	2800.25
1974.7153	2790.45
1977.78901	2777.25
1980.86073	2759.35
1983.93046	2759.55
1986.99819	2752.45
1990.06394	2730.55
1993.1277	2719.25
1996.18947	2715.95
1999.24925	2691.15
2002.30706	2678.75
2005.36288	2660.65
2008.41672	2648.65
2011.46859	2652.55
2014.51848	2639.55
2017.56639	2629.95
2020.61233	2638.35
2023.6563	2620.75
2026.6983	2605.25
2029.73833	2600.35
2032.7764	2592.05
2035.8125	2577.15
2038.84664	2572.75
2041.87881	2577.85
2044.90903	2569.55
2047.93729	2563.95
2050.96359	2557.85
2053.98794	2559.75
2057.01034	2545.85
2060.03078	2535.25
2063.04927	2533.55
2066.06582	2527.25
2069.08042	2531.65
2072.09307	2537.35
2075.10378	2521.35
2078.11255	2524.25
2081.11938	2530.75
2084.12426	2522.05
2087.12722	2519.75
2090.12824	2534.75
2093.12732	2523.35
2096.12447	2524.45
2099.11969	2530.15
2102.11299	2519.75
2105.10435	2520.75
2108.09379	2516.55
2111.08131	2523.75
2114.0669	2533.75
2117.05057	2522.25
2120.03233	2542.35
2123.01216	2537.35
2125.99008	2550.25
2128.96609	2539.65
2131.94018	2538.25
2134.91236	2541.95
2137.88263	2525.85
2140.851	2528.05
2143.81746	2526.95
2146.78201	2531.55
2149.74466	2531.85
2152.7054	2505.15
2155.66425	2505.75
2158.6212	2489.35
2161.57625	2484.65
2164.52941	2478.65
2167.48067	2486.65
2170.43004	2474.15
2173.37752	2460.05
2176.32311	2457.35
2179.26681	2458.35
2182.20863	2453.55
2185.14856	2457.35
2188.08661	2456.15
2191.02278	2443.25
2193.95707	2448.55
2196.88948	2453.05
2199.82001	2447.45
2202.74867	2439.05
2205.67545	2438.85
2208.60037	2414.05
2211.52341	2416.05
2214.44458	2412.05
2217.36388	2396.35
2220.28132	2400.55
2223.1969	2378.65
2226.11061	2386.15
2229.02246	2376.45
2231.93245	2372.55
2234.84058	2371.25
2237.74686	2369.95
2240.65128	2368.25
2243.55385	2371.35
2246.45456	2362.45
2249.35343	2374.65
2252.25044	2359.45
2255.14561	2357.15
2258.03893	2358.75
2260.93041	2366.35
2263.82004	2348.85
2266.70783	2337.85
2269.59378	2334.25
2272.4779	2311.95
2275.36017	2314.35
2278.24061	2298.65
2281.11922	2308.45
2283.996	2294.25
2286.87094	2280.85
2289.74405	2279.35
2292.61534	2280.75
2295.4848	2278.45
2298.35243	2257.65
2301.21824	2253.75
2304.08223	2261.05
2306.94439	2251.25
2309.80474	2254.75
2312.66327	2256.75
2315.51999	2250.55
2318.37489	2236.75
2321.22797	2229.25
2324.07925	2226.05
2326.92871	2235.95
2329.77637	2234.95
2332.62222	2235.25
2335.46626	2223.65
2338.3085	2226.45
2341.14893	2220.75
2343.98756	2214.15
2346.8244	2224.55
2349.65943	2213.05
2352.49267	2222.25
2355.32411	2219.25
2358.15376	2233.55
2360.98161	2244.35
2363.80768	2231.15
2366.63195	2252.05
2369.45444	2237.85
2372.27514	2245.75
2375.09405	2241.15
2377.91118	2236.95
2380.72652	2232.15
2383.54009	2227.85
2386.35187	2219.15
2389.16188	2191.05
2391.97011	2185.05
2394.77657	2179.65
2397.58125	2180.45
2400.38416	2159.15
2403.18529	2162.75
2405.98466	2161.15
2408.78226	2145.45
2411.57809	2141.05
2414.37216	2140.95
2417.16446	2133.15
2419.955	2139.45
2422.74378	2130.85
2425.5308	2132.15
2428.31606	2139.95
2431.09956	2132.85
2433.88131	2140.95
2436.6613	2124.15
2439.43954	2126.05
2442.21603	2128.85
2444.99077	2133.45
2447.76377	2124.25
2450.53501	2129.15
2453.30451	2123.25
2456.07226	2136.35
2458.83827	2143.35
2461.60254	2140.45
2464.36507	2138.45
2467.12586	2126.65
2469.88492	2125.95
2472.64224	2142.35
2475.39782	2130.95
2478.15167	2144.65
2480.90379	2141.15
2483.65417	2140.05
2486.40283	2152.95
2489.14976	2156.45
2491.89497	2162.65
2494.63845	2179.75
2497.3802	2168.95
2500.12024	2155.65
2502.85855	2153.15
2505.59514	2147.35
2508.33002	2119.75
2511.06318	2127.45
2513.79462	2105.65
2516.52435	2100.85
2519.25237	2086.85
2521.97867	2088.35
2524.70327	2088.45
2527.42616	2073.55
2530.14734	2076.05
2532.86681	2061.55
2535.58458	2063.15
2538.30065	2073.25
2541.01501	2070.15
2543.72768	2072.25
2546.43864	2071.15
2549.14791	2061.45
2551.85548	2057.25
2554.56136	2062.45
2557.26554	2057.75
2559.96803	2058.45
2562.66883	2053.45
2565.36794	2061.35
2568.06536	2051.75
2570.7611	2042.95
2573.45514	2047.05
2576.14751	2034.55
2578.83819	2026.95
2581.52719	2039.25
2584.21451	2026.45
2586.90015	2033.65
2589.58411	2021.95
2592.2664	2016.85
2594.94701	2013.75
2597.62594	2023.25
2600.30321	2022.25
2602.9788	2021.65
2605.65273	2018.85
2608.32498	2024.15
2610.99557	2004.45
2613.66449	2012.85
2616.33175	2011.95
2618.99734	2005.45
2621.66128	2003.55
2624.32355	2006.15
2626.98416	2000.75
2629.64311	1987.65
2632.30041	1986.45
2634.95605	1994.15
2637.61004	1992.45
2640.26238	1980.25
2642.91306	1991.25
2645.56209	1983.15
2648.20948	1971.65
2650.85521	1972.95
2653.4993	1984.15
2656.14175	1990.65
2658.78255	1993.45
2661.42171	1993.75
2664.05923	1999.65
2666.6951	1999.95
2669.32934	2014.05
2671.96194	2001.65
2674.59291	2015.95
2677.22224	2001.35
2679.84993	1999.75
2682.476	1995.35
2685.10043	2001.95
2687.72324	1989.55
2690.34441	1996.85
2692.96396	1981.65
2695.58188	1983.45
2698.19818	1984.05
2700.81285	1977.35
2703.4259	1981.65
2706.03733	1981.95
2708.64714	1989.95
2711.25533	1985.35
2713.86191	1984.65
2716.46687	1999.05
2719.07021	1987.45
2721.67194	1997.35
2724.27206	1995.05
2726.87057	2007.05
2729.46747	2012.15
2732.06276	1993.35
2734.65644	1993.45
2737.24852	1994.75
2739.83899	1991.75
2742.42786	1988.35
2745.01513	1980.75
2747.60079	1986.55
2750.18486	1979.45
2752.76733	1977.75
2755.3482	1961.45
2757.92747	1966.55
2760.50515	1969.95
2763.08123	1952.25
2765.65573	1949.45
2768.22863	1955.65
2770.79994	1956.55
2773.36967	1955.55
2775.9378	1948.55
2778.50435	1939.25
2781.06932	1954.25
2783.6327	1947.45
2786.1945	1956.15
2788.75471	1957.65
2791.31335	1956.05
2793.87041	1959.95
2796.42589	1954.65
2798.97979	1950.25
2801.53212	1948.95
2804.08288	1949.95
2806.63206	1944.25
2809.17967	1957.25
2811.72571	1956.85
2814.27018	1958.15
2816.81308	1956.45
2819.35442	1955.65
2821.89419	1961.75
2824.43239	1958.95
2826.96904	1973.75
2829.50412	1975.05
2832.03763	1969.55
2834.56959	1966.65
2837.1	1960.15
2839.62884	1956.55
2842.15613	1966.35
2844.68186	1970.35
2847.20604	1980.25
2849.72867	1984.65
2852.24974	1983.65
2854.76927	1984.65
2857.28724	1995.35
2859.80367	2000.55
2862.31855	2007.95
2864.83189	2008.45
2867.34368	2036.15
2869.85393	2035.65
2872.36264	2036.15
2874.8698	2042.95
2877.37543	2027.95
2879.87952	2043.45
2882.38207	2036.25
2884.88308	2042.85
2887.38256	2045.75
2889.88051	2053.45
2892.37692	2053.35
2894.8718	2059.85
2897.36515	2071.55
2899.85698	2087.45
2902.34727	2101.75
2904.83604	2101.45
2907.32328	2114.25
2909.809	2115.95
2912.29319	2126.65
2914.77587	2132.15
2917.25702	2145.15
2919.73665	2143.45
2922.21476	2152.45
2924.69136	2161.35
2927.16644	2148.35
2929.64	2150.35
2932.11205	2141.45
2934.58258	2129.75
2937.05161	2138.15
2939.51912	2131.55
2941.98513	2136.25
2944.44962	2121.45
2946.91261	2104.05
2949.37409	2099.15
2951.83407	2094.15
2954.29254	2080.55
2956.74951	2065.05
2959.20498	2067.45
2961.65895	2055.05
2964.11142	2043.75
2966.56239	2019.95
2969.01186	2014.95
2971.45984	2002.55
2973.90632	1991.05
2976.35131	1977.45
2978.7948	1959.95
2981.23681	1957.85
2983.67732	1953.25
2986.11635	1944.25
2988.55388	1920.75
2990.98993	1916.15
2993.4245	1919.85
2995.85758	1902.65
2998.28917	1907.35
3000.71928	1899.15
3003.14791	1894.65
3005.57506	1899.25
3008.00073	1892.45
3010.42493	1849.55
3012.84764	1867.15
3015.26888	1882.75
3017.68865	1868.05
3020.10694	1861.15
3022.52376	1859.45
3024.9391	1859.95
3027.35298	1844.65
3029.76539	1833.55
3032.17632	1841.15
3034.5858	1838.55
3036.9938	1833.65
3039.40034	1838.25
3041.80542	1833.25
3044.20903	1837.15
3046.61118	1838.25
3049.01187	1826.85
3051.4111	1845.45
3053.80888	1836.45
3056.20519	1835.15
3058.60005	1834.15
3060.99345	1839.45
3063.3854	1840.35
3065.7759	1826.85
3068.16494	1823.05
3070.55254	1824.35
3072.93868	1816.45
3075.32338	1800.15
3077.70662	1796.45
3080.08842	1812.85
3082.46878	1840.95
3084.84769	1803.45
3087.22515	1799.85
3089.60118	1804.15
3091.97576	1807.95
3094.3489	1807.55
3096.72061	1820.65
3099.09087	1809.05
3101.4597	1816.15
3103.82709	1822.25
3106.19305	1830.65
3108.55757	1836.15
3110.92066	1836.75
3113.28232	1842.15
3115.64255	1846.05
3118.00134	1842.55
3120.35871	1833.75
3122.71466	1839.45
3125.06917	1849.95
3127.42226	1848.05
3129.77393	1844.25
3132.12417	1856.55
3134.47299	1861.55
3136.82039	1866.75
3139.16636	1868.35
3141.51092	1876.85
3143.85406	1876.25
3146.19579	1888.75
3148.53609	1892.35
3150.87499	1877.65
3153.21246	1909.85
3155.54853	1911.35
3157.88318	1913.75
3160.21642	1930.65
3162.54826	1924.65
3164.87868	1930.95
3167.2077	1940.55
3169.5353	1943.35
3171.86151	1957.05
3174.18631	1955.25
3176.5097	1958.55
3178.83169	1968.45
3181.15228	1971.05
3183.47147	1962.15
3185.78926	1961.35
3188.10565	1959.05
3190.42065	1964.45
3192.73424	1982.85
3195.04645	1984.85
3197.35725	1989.75
3199.66667	1982.85
3201.97469	1990.25
3204.28132	1999.65
3206.58656	2013.05
3208.8904	2017.55
3211.19287	2011.35
3213.49394	2019.65
3215.79363	2024.15
3218.09193	2023.55
3220.38884	2039.45
3222.68438	2038.85
3224.97853	2039.35
3227.2713	2044.55
3229.56269	2045.95
3231.8527	2053.05
3234.14133	2036.75
3236.42858	2034.85
3238.71446	2027.05
3240.99896	2028.25
3243.28209	2031.25
3245.56384	2029.95
3247.84423	2027.55
3250.12324	2020.95
3252.40088	2018.65
3254.67715	2015.95
3256.95205	2016.75
3259.22558	2025.05
3261.49775	2024.35
3263.76855	2020.15
3266.03799	2017.05
3268.30606	2023.55
3270.57277	2025.05
3272.83812	2010.75
3275.10211	2017.25
3277.36474	2003.85
3279.62601	2005.85
3281.88593	2010.95
3284.14448	2021.05
3286.40168	2022.15
3288.65753	2019.55
3290.91202	2026.55
3293.16516	2023.85
3295.41695	2021.35
3297.66738	2016.85
3299.91647	2013.45
3302.16421	1991.55
3304.4106	1978.65
3306.65564	1977.45
3308.89933	1965.25
3311.14169	1948.85
3313.38269	1929.85
3315.62236	1933.45
3317.86068	1910.45
3320.09766	1900.95
3322.3333	1891.65
3324.5676	1882.55
3326.80056	1859.65
3329.03219	1851.15
3331.26248	0.25
3333.49143	0.65
3335.71905	1.15
