Data from AgNPs_UA_50uM_CRN_500uM_AS_RamanShift__6__15-12-31-548.txt Node

Date: Wed Aug 17 15:12:31 BST 2022
User: TCL
Spectrometer: QEP01345
Trigger mode: 4
Integration Time (sec): 7.000000E0
Scans to average: 10
Electric dark correction enabled: true
Nonlinearity correction enabled: false
Boxcar width: 0
XAxis mode: Raman Shifts
Number of Pixels in Spectrum: 1044
>>>>>Begin Spectral Data<<<<<
46.04893	-1.25
50.45542	-0.75
54.85868	-0.95
59.25871	0.75
63.6555	39.05
68.04907	39.65
72.43941	43.45
76.82654	47.95
81.21044	47.55
85.59113	49.75
89.96862	56.95
94.34289	63.35
98.71396	61.25
103.08183	56.35
107.4465	58.55
111.80798	58.05
116.16626	60.35
120.52136	61.95
124.87327	57.15
129.222	62.45
133.56755	61.75
137.90993	65.85
142.24913	71.85
146.58517	75.65
150.91804	79.65
155.24774	84.85
159.57429	98.05
163.89768	117.15
168.21792	151.35
172.53501	197.25
176.84895	263.25
181.15975	366.85
185.46741	503.85
189.77193	687.85
194.07331	917.35
198.37157	1172.75
202.6667	1448.25
206.9587	1741.35
211.24758	2025.55
215.53334	2337.15
219.81599	2671.85
224.09553	3046.95
228.37195	3461.35
232.64527	3900.75
236.91549	4338.55
241.18261	4697.95
245.44663	4948.15
249.70755	5135.45
253.96539	5252.15
258.22014	5305.75
262.4718	5390.25
266.72039	5419.85
270.96589	5370.85
275.20832	5285.15
279.44768	5145.45
283.68397	5010.15
287.91719	4893.35
292.14735	4882.15
296.37445	4975.55
300.59849	5187.65
304.81948	5462.55
309.03742	5705.65
313.25231	5831.65
317.46415	5724.05
321.67296	5422.65
325.87872	5115.45
330.08145	4935.35
334.28114	4906.65
338.47781	4954.55
342.67145	5076.75
346.86207	5249.55
351.04966	5511.15
355.23424	5792.75
359.4158	6002.25
363.59435	6059.95
367.76989	6032.55
371.94243	5964.05
376.11196	5892.25
380.27849	5823.95
384.44203	5766.65
388.60257	5726.65
392.76012	5756.05
396.91468	5781.55
401.06626	5870.35
405.21485	5913.35
409.36047	5708.45
413.50311	5373.35
417.64277	5110.65
421.77947	4948.05
425.9132	4891.85
430.04396	4935.25
434.17176	4990.85
438.2966	5088.75
442.41849	5270.15
446.53742	5502.35
450.6534	5674.35
454.76644	5740.85
458.87653	5694.05
462.98368	5569.45
467.08789	5425.25
471.18916	5279.55
475.2875	5099.15
479.38291	4923.75
483.4754	4804.15
487.56496	4713.95
491.6516	4696.95
495.73531	4697.45
499.81612	4708.25
503.89401	4756.35
507.96899	4825.85
512.04106	4861.45
516.11023	4961.95
520.1765	5024.55
524.23987	5049.95
528.30034	5049.85
532.35792	5037.25
536.41261	4942.25
540.46441	4803.45
544.51333	4727.55
548.55936	4754.65
552.60252	4894.25
556.64279	5039.45
560.6802	5115.25
564.71473	5184.75
568.7464	5312.05
572.7752	5362.35
576.80114	5230.75
580.82422	5116.95
584.84444	5177.25
588.86181	5419.75
592.87633	5835.25
596.888	6207.45
600.89682	6303.75
604.9028	6798.55
608.90594	8596.95
612.90624	10746.55
616.90371	9639.25
620.89834	6572.85
624.89015	5215.65
628.87913	5034.05
632.86528	5212.35
636.84862	5375.55
640.82913	5217.05
644.80683	4923.85
648.78172	4694.65
652.75379	4726.05
656.72306	4944.05
660.68952	5161.55
664.65319	4956.25
668.61405	4641.05
672.57211	4552.65
676.52738	4614.35
680.47986	4624.35
684.42955	4564.75
688.37646	4479.65
692.32058	4481.85
696.26192	4523.35
700.20048	4588.85
704.13626	4649.75
708.06928	4610.05
711.99952	4567.45
715.927	4567.65
719.85171	4615.15
723.77365	4667.95
727.69284	4650.25
731.60928	4611.95
735.52295	4650.85
739.43388	4665.15
743.34206	4691.85
747.24749	4673.35
751.15017	4676.65
755.05012	4770.95
758.94733	5131.05
762.8418	5994.55
766.73354	7299.45
770.62254	8401.95
774.50882	8637.15
778.39237	8025.95
782.27321	6866.65
786.15132	5747.95
790.02671	5068.45
793.89938	4726.65
797.76935	4559.25
801.6366	4501.95
805.50115	4452.35
809.36299	4427.55
813.22213	4393.95
817.07857	4363.55
820.93231	4356.35
824.78336	4355.25
828.63172	4384.55
832.47738	4384.35
836.32036	4345.55
840.16066	4309.05
843.99827	4301.55
847.8332	4295.55
851.66546	4314.75
855.49504	4333.85
859.32195	4319.45
863.1462	4332.85
866.96777	4303.35
870.78668	4310.15
874.60293	4333.65
878.41652	4361.65
882.22745	4411.75
886.03573	4427.45
889.84136	4437.25
893.64433	4433.65
897.44466	4402.95
901.24235	4419.75
905.0374	4371.45
908.8298	4330.15
912.61957	4300.75
916.40671	4305.35
920.19121	4333.95
923.97308	4405.45
927.75233	4472.85
931.52895	4497.75
935.30295	4414.15
939.07433	4242.55
942.84309	4115.75
946.60924	4048.35
950.37278	4033.05
954.13371	4015.95
957.89203	4008.85
961.64774	4001.25
965.40086	3997.95
969.15137	3980.15
972.89929	3966.55
976.64461	3940.55
980.38733	3943.55
984.12747	3937.15
987.86502	3962.45
991.59999	3998.05
995.33237	4062.45
999.06217	4144.25
1002.78939	4282.65
1006.51404	4395.35
1010.23611	4513.55
1013.95561	4551.45
1017.67255	4533.05
1021.38692	4441.35
1025.09872	4315.95
1028.80796	4204.25
1032.51465	4171.05
1036.21877	4179.15
1039.92035	4206.95
1043.61937	4243.55
1047.31584	4273.35
1051.00976	4283.45
1054.70114	4277.55
1058.38998	4274.25
1062.07627	4274.45
1065.76003	4276.25
1069.44126	4299.55
1073.11995	4381.15
1076.79611	4478.75
1080.46974	4641.25
1084.14085	4833.25
1087.80943	4969.05
1091.47549	5006.65
1095.13903	4887.45
1098.80005	4700.65
1102.45857	4553.65
1106.11456	4544.35
1109.76805	4617.55
1113.41903	4782.85
1117.06751	5028.25
1120.71348	5349.85
1124.35696	5729.35
1127.99793	5977.75
1131.63641	5841.65
1135.2724	5472.55
1138.90589	5178.95
1142.5369	4982.15
1146.16542	4855.35
1149.79145	4804.45
1153.415	4779.35
1157.03607	4831.55
1160.65467	4959.25
1164.27079	5192.45
1167.88443	5531.25
1171.49561	6138.55
1175.10432	7029.15
1178.71056	8237.95
1182.31434	9294.65
1185.91565	9589.05
1189.51451	9244.85
1193.11091	8619.15
1196.70485	7985.35
1200.29634	7389.15
1203.88538	6844.95
1207.47197	6278.45
1211.05612	5747.85
1214.63782	5463.65
1218.21708	5361.25
1221.79391	5375.45
1225.36829	5461.15
1228.94024	5437.35
1232.50976	5337.45
1236.07685	5243.65
1239.6415	5193.15
1243.20374	5187.65
1246.76355	5211.15
1250.32093	5227.95
1253.8759	5333.05
1257.42845	5517.55
1260.97859	5771.85
1264.52631	6077.45
1268.07163	6327.25
1271.61453	6526.35
1275.15503	6636.35
1278.69312	6707.05
1282.22882	6843.25
1285.76211	7162.35
1289.29301	7599.75
1292.82151	8052.15
1296.34761	8556.65
1299.87133	9261.95
1303.39266	10320.95
1306.9116	11738.25
1310.42815	13051.85
1313.94233	13403.85
1317.45412	12523.15
1320.96354	11190.75
1324.47058	9859.55
1327.97525	8756.45
1331.47754	8046.15
1334.97747	7734.55
1338.47502	7777.15
1341.97022	8124.15
1345.46305	8813.55
1348.95352	9755.65
1352.44163	10941.45
1355.92738	12554.65
1359.41078	14767.15
1362.89183	16638.85
1366.37053	15892.65
1369.84688	12890.25
1373.32088	10045.25
1376.79254	8491.65
1380.26186	7762.95
1383.72883	7287.55
1387.19347	6817.45
1390.65578	6438.75
1394.11575	6164.15
1397.57339	6044.45
1401.0287	5967.05
1404.48168	5930.15
1407.93234	5897.55
1411.38068	5875.25
1414.82669	5924.95
1418.27039	5923.55
1421.71177	5836.45
1425.15083	5710.65
1428.58758	5645.45
1432.02203	5728.15
1435.45416	5826.25
1438.88399	5865.65
1442.31151	5859.05
1445.73673	5867.45
1449.15965	5868.05
1452.58027	5790.35
1455.9986	5707.55
1459.41463	5684.05
1462.82837	5793.05
1466.23982	5993.65
1469.64898	6216.55
1473.05586	6400.75
1476.46045	6520.65
1479.86276	6674.35
1483.26279	6853.15
1486.66054	7151.35
1490.05602	7589.15
1493.44922	8251.55
1496.84016	9156.55
1500.22882	10528.75
1503.61521	12267.85
1506.99934	14046.85
1510.38121	15065.45
1513.76081	14658.15
1517.13816	12949.95
1520.51324	10839.75
1523.88607	9142.05
1527.25665	8216.55
1530.62498	7714.55
1533.99105	7409.45
1537.35488	7150.75
1540.71647	6873.75
1544.07581	6648.95
1547.4329	6452.05
1550.78776	6350.75
1554.14038	6276.65
1557.49077	6307.15
1560.83892	6440.65
1564.18484	6802.05
1567.52853	7287.65
1570.86999	7716.55
1574.20922	7918.55
1577.54624	7793.55
1580.88103	7205.55
1584.2136	6531.95
1587.54395	6186.25
1590.87208	6258.45
1594.19801	6717.65
1597.52172	7252.75
1600.84321	7442.75
1604.16251	7143.55
1607.47959	6609.05
1610.79447	6043.95
1614.10715	5503.45
1617.41763	5088.65
1620.7259	4851.45
1624.03199	4715.45
1627.33587	4753.75
1630.63757	4918.75
1633.93707	5328.85
1637.23439	6004.75
1640.52951	7137.15
1643.82246	8673.65
1647.11321	10187.15
1650.40179	10819.05
1653.68819	9999.85
1656.97241	8245.75
1660.25446	6536.55
1663.53433	5384.35
1666.81203	4717.15
1670.08756	4319.85
1673.36092	4095.95
1676.63211	3929.05
1679.90115	3822.65
1683.16801	3752.25
1686.43272	3698.05
1689.69527	3632.05
1692.95567	3579.55
1696.2139	3574.95
1699.46999	3538.45
1702.72392	3489.05
1705.97571	3459.65
1709.22535	3448.25
1712.47284	3431.15
1715.71819	3426.75
1718.96139	3399.85
1722.20246	3382.85
1725.44139	3350.15
1728.67818	3311.75
1731.91284	3275.55
1735.14537	3238.85
1738.37576	3223.95
1741.60403	3201.55
1744.83017	3196.85
1748.05418	3180.85
1751.27607	3187.15
1754.49584	3180.95
1757.71349	3193.45
1760.92903	3180.65
1764.14244	3164.75
1767.35375	3133.35
1770.56294	3118.25
1773.77002	3076.35
1776.97499	3059.35
1780.17785	3041.65
1783.37861	3014.55
1786.57727	3002.75
1789.77382	2979.35
1792.96828	2964.05
1796.16064	2957.85
1799.3509	2952.65
1802.53907	2946.75
1805.72514	2923.15
1808.90913	2915.75
1812.09102	2885.95
1815.27083	2880.15
1818.44856	2878.45
1821.6242	2857.95
1824.79776	2855.45
1827.96924	2848.65
1831.13864	2847.95
1834.30597	2836.35
1837.47122	2829.75
1840.6344	2820.15
1843.7955	2811.85
1846.95454	2806.75
1850.11151	2805.75
1853.26642	2794.95
1856.41926	2787.25
1859.57004	2782.95
1862.71876	2787.65
1865.86542	2786.05
1869.01003	2790.05
1872.15258	2781.85
1875.29308	2770.35
1878.43152	2781.85
1881.56792	2756.95
1884.70227	2766.95
1887.83457	2761.55
1890.96482	2762.55
1894.09304	2735.25
1897.21921	2748.95
1900.34335	2738.65
1903.46544	2739.05
1906.58551	2741.15
1909.70353	2736.05
1912.81953	2722.75
1915.93349	2719.75
1919.04543	2717.55
1922.15534	2711.05
1925.26322	2699.45
1928.36908	2689.25
1931.47292	2683.95
1934.57473	2667.25
1937.67453	2652.05
1940.77232	2656.15
1943.86808	2634.35
1946.96184	2616.35
1950.05358	2613.15
1953.14331	2604.65
1956.23103	2606.55
1959.31675	2596.55
1962.40046	2590.45
1965.48217	2582.25
1968.56188	2574.05
1971.63959	2578.95
1974.7153	2549.55
1977.78901	2546.35
1980.86073	2536.85
1983.93046	2527.25
1986.99819	2520.05
1990.06394	2507.65
1993.1277	2497.35
1996.18947	2494.75
1999.24925	2476.45
2002.30706	2465.45
2005.36288	2449.85
2008.41672	2441.25
2011.46859	2439.25
2014.51848	2440.45
2017.56639	2416.05
2020.61233	2420.75
2023.6563	2403.75
2026.6983	2413.45
2029.73833	2399.55
2032.7764	2381.15
2035.8125	2370.75
2038.84664	2369.55
2041.87881	2371.95
2044.90903	2368.85
2047.93729	2361.55
2050.96359	2357.75
2053.98794	2347.45
2057.01034	2350.75
2060.03078	2349.55
2063.04927	2342.65
2066.06582	2340.85
2069.08042	2344.05
2072.09307	2332.25
2075.10378	2321.85
2078.11255	2313.55
2081.11938	2321.45
2084.12426	2325.45
2087.12722	2322.85
2090.12824	2337.05
2093.12732	2330.35
2096.12447	2338.75
2099.11969	2332.85
2102.11299	2333.35
2105.10435	2329.05
2108.09379	2334.85
2111.08131	2325.05
2114.0669	2322.75
2117.05057	2331.85
2120.03233	2336.85
2123.01216	2339.55
2125.99008	2347.65
2128.96609	2350.05
2131.94018	2361.65
2134.91236	2352.05
2137.88263	2345.05
2140.851	2340.25
2143.81746	2339.35
2146.78201	2344.45
2149.74466	2333.95
2152.7054	2320.45
2155.66425	2308.35
2158.6212	2308.15
2161.57625	2313.65
2164.52941	2303.35
2167.48067	2303.45
2170.43004	2284.25
2173.37752	2279.25
2176.32311	2296.85
2179.26681	2292.15
2182.20863	2297.35
2185.14856	2283.25
2188.08661	2289.25
2191.02278	2288.25
2193.95707	2268.55
2196.88948	2258.65
2199.82001	2273.05
2202.74867	2275.05
2205.67545	2271.15
2208.60037	2277.45
2211.52341	2267.55
2214.44458	2251.05
2217.36388	2240.25
2220.28132	2241.55
2223.1969	2220.95
2226.11061	2222.15
2229.02246	2224.25
2231.93245	2211.45
2234.84058	2220.35
2237.74686	2199.45
2240.65128	2212.45
2243.55385	2218.25
2246.45456	2211.55
2249.35343	2207.25
2252.25044	2212.05
2255.14561	2206.85
2258.03893	2200.25
2260.93041	2206.55
2263.82004	2198.15
2266.70783	2180.55
2269.59378	2182.15
2272.4779	2176.45
2275.36017	2178.95
2278.24061	2165.55
2281.11922	2161.05
2283.996	2157.65
2286.87094	2150.55
2289.74405	2146.35
2292.61534	2130.05
2295.4848	2128.55
2298.35243	2119.75
2301.21824	2116.25
2304.08223	2107.95
2306.94439	2116.75
2309.80474	2125.45
2312.66327	2114.95
2315.51999	2106.65
2318.37489	2097.05
2321.22797	2102.35
2324.07925	2099.65
2326.92871	2098.75
2329.77637	2084.75
2332.62222	2086.25
2335.46626	2087.65
2338.3085	2086.15
2341.14893	2072.75
2343.98756	2089.65
2346.8244	2075.45
2349.65943	2093.75
2352.49267	2084.75
2355.32411	2084.55
2358.15376	2096.05
2360.98161	2096.35
2363.80768	2104.65
2366.63195	2103.45
2369.45444	2112.05
2372.27514	2109.25
2375.09405	2111.65
2377.91118	2091.15
2380.72652	2086.85
2383.54009	2083.25
2386.35187	2085.55
2389.16188	2055.05
2391.97011	2050.85
2394.77657	2047.25
2397.58125	2036.95
2400.38416	2033.15
2403.18529	2025.05
2405.98466	2023.45
2408.78226	2020.85
2411.57809	2004.05
2414.37216	2011.55
2417.16446	2007.95
2419.955	2013.05
2422.74378	2008.65
2425.5308	2000.95
2428.31606	2010.35
2431.09956	1999.85
2433.88131	1990.95
2436.6613	2009.55
2439.43954	1996.75
2442.21603	2004.95
2444.99077	1998.35
2447.76377	1997.95
2450.53501	1998.75
2453.30451	2013.45
2456.07226	2005.15
2458.83827	2007.95
2461.60254	2003.45
2464.36507	1997.45
2467.12586	1990.35
2469.88492	1988.95
2472.64224	1986.25
2475.39782	1994.15
2478.15167	2010.85
2480.90379	2014.85
2483.65417	2014.65
2486.40283	2026.35
2489.14976	2030.55
2491.89497	2028.75
2494.63845	2040.05
2497.3802	2032.45
2500.12024	2014.65
2502.85855	2023.55
2505.59514	2009.15
2508.33002	1995.95
2511.06318	1987.65
2513.79462	1970.25
2516.52435	1975.35
2519.25237	1957.95
2521.97867	1944.95
2524.70327	1954.25
2527.42616	1943.95
2530.14734	1933.15
2532.86681	1941.95
2535.58458	1936.35
2538.30065	1931.05
2541.01501	1938.65
2543.72768	1939.85
2546.43864	1924.15
2549.14791	1930.65
2551.85548	1938.75
2554.56136	1926.85
2557.26554	1921.45
2559.96803	1930.95
2562.66883	1920.55
2565.36794	1923.25
2568.06536	1915.55
2570.7611	1909.55
2573.45514	1915.25
2576.14751	1901.75
2578.83819	1897.35
2581.52719	1889.35
2584.21451	1893.35
2586.90015	1890.25
2589.58411	1888.15
2592.2664	1887.65
2594.94701	1879.75
2597.62594	1880.75
2600.30321	1881.95
2602.9788	1881.75
2605.65273	1875.35
2608.32498	1869.55
2610.99557	1884.25
2613.66449	1873.75
2616.33175	1870.25
2618.99734	1874.85
2621.66128	1865.05
2624.32355	1858.95
2626.98416	1852.45
2629.64311	1860.05
2632.30041	1847.65
2634.95605	1847.15
2637.61004	1836.45
2640.26238	1847.35
2642.91306	1837.75
2645.56209	1832.85
2648.20948	1834.05
2650.85521	1830.45
2653.4993	1845.35
2656.14175	1839.45
2658.78255	1835.65
2661.42171	1834.15
2664.05923	1841.45
2666.6951	1856.65
2669.32934	1859.05
2671.96194	1855.35
2674.59291	1843.35
2677.22224	1854.35
2679.84993	1840.15
2682.476	1852.95
2685.10043	1850.35
2687.72324	1844.45
2690.34441	1837.65
2692.96396	1834.65
2695.58188	1833.45
2698.19818	1840.65
2700.81285	1836.45
2703.4259	1833.05
2706.03733	1857.15
2708.64714	1849.95
2711.25533	1847.25
2713.86191	1840.15
2716.46687	1843.45
2719.07021	1843.85
2721.67194	1840.35
2724.27206	1848.15
2726.87057	1843.15
2729.46747	1847.85
2732.06276	1845.85
2734.65644	1845.75
2737.24852	1846.45
2739.83899	1835.55
2742.42786	1843.25
2745.01513	1827.15
2747.60079	1829.25
2750.18486	1828.35
2752.76733	1821.75
2755.3482	1825.75
2757.92747	1803.05
2760.50515	1811.25
2763.08123	1815.35
2765.65573	1803.15
2768.22863	1796.45
2770.79994	1792.35
2773.36967	1797.25
2775.9378	1801.15
2778.50435	1796.25
2781.06932	1793.75
2783.6327	1791.05
2786.1945	1797.35
2788.75471	1807.55
2791.31335	1791.45
2793.87041	1808.25
2796.42589	1798.25
2798.97979	1797.65
2801.53212	1793.85
2804.08288	1798.25
2806.63206	1797.75
2809.17967	1796.55
2811.72571	1801.45
2814.27018	1806.85
2816.81308	1797.15
2819.35442	1802.65
2821.89419	1806.95
2824.43239	1806.35
2826.96904	1805.75
2829.50412	1801.95
2832.03763	1810.95
2834.56959	1807.45
2837.1	1801.95
2839.62884	1806.15
2842.15613	1810.35
2844.68186	1810.65
2847.20604	1814.65
2849.72867	1821.05
2852.24974	1834.75
2854.76927	1843.85
2857.28724	1844.45
2859.80367	1843.65
2862.31855	1855.45
2864.83189	1862.45
2867.34368	1886.65
2869.85393	1889.35
2872.36264	1890.85
2874.8698	1896.45
2877.37543	1906.65
2879.87952	1907.75
2882.38207	1909.75
2884.88308	1912.55
2887.38256	1918.45
2889.88051	1916.55
2892.37692	1923.55
2894.8718	1931.05
2897.36515	1932.05
2899.85698	1945.15
2902.34727	1950.35
2904.83604	1966.05
2907.32328	1983.25
2909.809	1980.65
2912.29319	1981.65
2914.77587	1992.65
2917.25702	2000.05
2919.73665	1998.05
2922.21476	2003.05
2924.69136	1997.65
2927.16644	1999.75
2929.64	1992.65
2932.11205	1982.55
2934.58258	1985.95
2937.05161	1989.95
2939.51912	1980.05
2941.98513	1982.75
2944.44962	1975.75
2946.91261	1966.25
2949.37409	1953.35
2951.83407	1953.85
2954.29254	1939.95
2956.74951	1935.95
2959.20498	1922.65
2961.65895	1906.25
2964.11142	1892.65
2966.56239	1876.15
2969.01186	1871.45
2971.45984	1847.55
2973.90632	1856.05
2976.35131	1838.75
2978.7948	1839.45
2981.23681	1827.75
2983.67732	1833.05
2986.11635	1810.65
2988.55388	1799.95
2990.98993	1792.95
2993.4245	1787.65
2995.85758	1787.05
2998.28917	1777.85
3000.71928	1768.15
3003.14791	1765.55
3005.57506	1763.15
3008.00073	1767.85
3010.42493	1728.55
3012.84764	1755.65
3015.26888	1743.35
3017.68865	1756.65
3020.10694	1745.15
3022.52376	1741.55
3024.9391	1736.05
3027.35298	1730.95
3029.76539	1721.65
3032.17632	1730.95
3034.5858	1715.15
3036.9938	1714.15
3039.40034	1704.95
3041.80542	1718.05
3044.20903	1708.95
3046.61118	1710.75
3049.01187	1718.15
3051.4111	1703.95
3053.80888	1710.05
3056.20519	1712.05
3058.60005	1717.65
3060.99345	1716.45
3063.3854	1722.65
3065.7759	1711.75
3068.16494	1720.25
3070.55254	1704.95
3072.93868	1710.15
3075.32338	1694.35
3077.70662	1698.65
3080.08842	1689.95
3082.46878	1690.45
3084.84769	1704.15
3087.22515	1707.75
3089.60118	1698.95
3091.97576	1699.65
3094.3489	1709.75
3096.72061	1716.35
3099.09087	1714.65
3101.4597	1724.05
3103.82709	1739.65
3106.19305	1733.45
3108.55757	1734.95
3110.92066	1743.75
3113.28232	1739.75
3115.64255	1742.85
3118.00134	1744.45
3120.35871	1754.55
3122.71466	1741.65
3125.06917	1747.35
3127.42226	1747.75
3129.77393	1755.95
3132.12417	1762.75
3134.47299	1767.45
3136.82039	1779.65
3139.16636	1772.05
3141.51092	1774.65
3143.85406	1786.95
3146.19579	1794.85
3148.53609	1801.75
3150.87499	1796.15
3153.21246	1815.15
3155.54853	1826.55
3157.88318	1830.45
3160.21642	1835.75
3162.54826	1848.45
3164.87868	1846.25
3167.2077	1858.75
3169.5353	1855.25
3171.86151	1870.05
3174.18631	1870.55
3176.5097	1871.45
3178.83169	1873.55
3181.15228	1885.95
3183.47147	1879.75
3185.78926	1881.95
3188.10565	1883.75
3190.42065	1882.45
3192.73424	1896.85
3195.04645	1890.65
3197.35725	1904.65
3199.66667	1899.35
3201.97469	1916.75
3204.28132	1919.65
3206.58656	1918.25
3208.8904	1926.85
3211.19287	1925.35
3213.49394	1941.15
3215.79363	1944.55
3218.09193	1938.65
3220.38884	1967.65
3222.68438	1974.65
3224.97853	1970.55
3227.2713	1970.85
3229.56269	1969.35
3231.8527	1973.95
3234.14133	1959.95
3236.42858	1954.25
3238.71446	1966.95
3240.99896	1951.75
3243.28209	1963.55
3245.56384	1961.85
3247.84423	1955.95
3250.12324	1944.75
3252.40088	1949.35
3254.67715	1944.05
3256.95205	1942.65
3259.22558	1948.45
3261.49775	1952.45
3263.76855	1949.55
3266.03799	1956.55
3268.30606	1954.75
3270.57277	1948.85
3272.83812	1957.45
3275.10211	1943.85
3277.36474	1959.35
3279.62601	1959.55
3281.88593	1965.65
3284.14448	1956.05
3286.40168	1960.15
3288.65753	1965.75
3290.91202	1961.85
3293.16516	1966.55
3295.41695	1961.95
3297.66738	1950.35
3299.91647	1942.05
3302.16421	1942.75
3304.4106	1930.05
3306.65564	1930.75
3308.89933	1907.55
3311.14169	1893.55
3313.38269	1882.95
3315.62236	1869.65
3317.86068	1851.75
3320.09766	1857.75
3322.3333	1837.25
3324.5676	1834.65
3326.80056	1812.85
3329.03219	1804.85
3331.26248	2.35
3333.49143	0.15
3335.71905	0.75
