Data from AgNPs_UA_5uM_CRN_500uM_AS_RamanShift__11__13-10-23-831.txt Node

Date: Wed Aug 17 13:10:23 BST 2022
User: TCL
Spectrometer: QEP01345
Trigger mode: 4
Integration Time (sec): 7.000000E0
Scans to average: 10
Electric dark correction enabled: true
Nonlinearity correction enabled: false
Boxcar width: 0
XAxis mode: Raman Shifts
Number of Pixels in Spectrum: 1044
>>>>>Begin Spectral Data<<<<<
46.04893	0.75
50.45542	1.75
54.85868	-1.05
59.25871	-0.25
63.6555	39.25
68.04907	44.15
72.43941	51.95
76.82654	54.05
81.21044	60.25
85.59113	61.15
89.96862	62.85
94.34289	66.75
98.71396	66.15
103.08183	71.45
107.4465	72.05
111.80798	70.25
116.16626	69.55
120.52136	70.35
124.87327	69.15
129.222	68.35
133.56755	73.25
137.90993	73.85
142.24913	72.85
146.58517	72.45
150.91804	71.85
155.24774	79.05
159.57429	95.25
163.89768	102.65
168.21792	117.15
172.53501	144.55
176.84895	181.15
181.15975	236.75
185.46741	313.75
189.77193	431.65
194.07331	579.15
198.37157	760.45
202.6667	953.35
206.9587	1161.55
211.24758	1386.95
215.53334	1592.95
219.81599	1809.85
224.09553	2027.55
228.37195	2237.35
232.64527	2435.65
236.91549	2641.85
241.18261	2839.85
245.44663	3011.45
249.70755	3144.85
253.96539	3233.35
258.22014	3283.65
262.4718	3290.25
266.72039	3243.65
270.96589	3145.05
275.20832	3027.45
279.44768	2899.95
283.68397	2743.85
287.91719	2598.85
292.14735	2460.85
296.37445	2347.75
300.59849	2221.55
304.81948	2150.75
309.03742	2091.75
313.25231	2038.75
317.46415	1986.95
321.67296	1943.05
325.87872	1916.75
330.08145	1887.45
334.28114	1873.35
338.47781	1880.55
342.67145	1906.45
346.86207	1910.45
351.04966	1913.95
355.23424	1905.95
359.4158	1895.45
363.59435	1871.35
367.76989	1857.15
371.94243	1843.05
376.11196	1839.95
380.27849	1850.35
384.44203	1834.45
388.60257	1833.65
392.76012	1823.55
396.91468	1844.45
401.06626	1839.25
405.21485	1850.35
409.36047	1844.35
413.50311	1860.85
417.64277	1858.95
421.77947	1867.85
425.9132	1868.05
430.04396	1878.25
434.17176	1895.55
438.2966	1910.25
442.41849	1923.85
446.53742	1933.85
450.6534	1937.45
454.76644	1956.15
458.87653	1968.85
462.98368	1970.75
467.08789	1978.95
471.18916	1990.65
475.2875	1989.05
479.38291	1995.45
483.4754	1997.45
487.56496	1994.05
491.6516	2006.85
495.73531	2018.55
499.81612	2022.85
503.89401	2037.15
507.96899	2028.35
512.04106	2021.05
516.11023	2022.55
520.1765	2009.25
524.23987	1997.65
528.30034	1996.85
532.35792	1998.75
536.41261	2000.65
540.46441	2004.25
544.51333	1996.75
548.55936	2007.75
552.60252	2013.75
556.64279	2023.55
560.6802	2025.55
564.71473	2043.35
568.7464	2058.65
572.7752	2082.05
576.80114	2100.95
580.82422	2098.55
584.84444	2081.65
588.86181	2094.45
592.87633	2078.85
596.888	2088.25
600.89682	2119.05
604.9028	2149.55
608.90594	2182.85
612.90624	2226.55
616.90371	2216.55
620.89834	2211.05
624.89015	2184.65
628.87913	2186.15
632.86528	2171.25
636.84862	2172.85
640.82913	2197.45
644.80683	2222.15
648.78172	2249.75
652.75379	2280.45
656.72306	2286.85
660.68952	2303.45
664.65319	2354.05
668.61405	2446.25
672.57211	2647.15
676.52738	2939.95
680.47986	3227.85
684.42955	3355.05
688.37646	3312.85
692.32058	3160.45
696.26192	2980.45
700.20048	2838.45
704.13626	2750.55
708.06928	2654.35
711.99952	2567.55
715.927	2489.05
719.85171	2443.85
723.77365	2437.95
727.69284	2434.85
731.60928	2430.85
735.52295	2423.15
739.43388	2388.65
743.34206	2359.85
747.24749	2356.15
751.15017	2371.45
755.05012	2401.85
758.94733	2429.05
762.8418	2440.35
766.73354	2426.55
770.62254	2401.05
774.50882	2360.75
778.39237	2322.35
782.27321	2288.75
786.15132	2259.05
790.02671	2262.55
793.89938	2259.65
797.76935	2270.75
801.6366	2263.35
805.50115	2267.45
809.36299	2258.55
813.22213	2244.25
817.07857	2241.25
820.93231	2235.75
824.78336	2236.75
828.63172	2238.45
832.47738	2224.75
836.32036	2227.65
840.16066	2236.95
843.99827	2232.05
847.8332	2237.85
851.66546	2241.45
855.49504	2239.75
859.32195	2260.75
863.1462	2266.65
866.96777	2284.05
870.78668	2298.45
874.60293	2329.75
878.41652	2323.25
882.22745	2339.25
886.03573	2336.05
889.84136	2331.35
893.64433	2329.55
897.44466	2328.45
901.24235	2330.85
905.0374	2343.05
908.8298	2355.65
912.61957	2345.95
916.40671	2365.25
920.19121	2364.75
923.97308	2377.75
927.75233	2376.65
931.52895	2384.15
935.30295	2378.95
939.07433	2372.65
942.84309	2350.55
946.60924	2331.95
950.37278	2326.65
954.13371	2308.95
957.89203	2307.45
961.64774	2318.15
965.40086	2313.45
969.15137	2299.05
972.89929	2286.25
976.64461	2284.85
980.38733	2259.85
984.12747	2251.45
987.86502	2253.05
991.59999	2241.75
995.33237	2258.45
999.06217	2244.85
1002.78939	2252.65
1006.51404	2246.65
1010.23611	2251.35
1013.95561	2255.95
1017.67255	2261.05
1021.38692	2276.75
1025.09872	2269.55
1028.80796	2274.65
1032.51465	2290.05
1036.21877	2324.15
1039.92035	2336.35
1043.61937	2364.85
1047.31584	2391.95
1051.00976	2428.75
1054.70114	2435.85
1058.38998	2435.65
1062.07627	2404.45
1065.76003	2364.35
1069.44126	2338.75
1073.11995	2319.15
1076.79611	2290.85
1080.46974	2268.95
1084.14085	2255.35
1087.80943	2249.95
1091.47549	2237.85
1095.13903	2254.85
1098.80005	2237.75
1102.45857	2239.65
1106.11456	2217.85
1109.76805	2227.35
1113.41903	2231.15
1117.06751	2234.55
1120.71348	2235.65
1124.35696	2245.85
1127.99793	2256.75
1131.63641	2269.05
1135.2724	2260.35
1138.90589	2260.55
1142.5369	2258.75
1146.16542	2279.55
1149.79145	2267.45
1153.415	2261.45
1157.03607	2258.05
1160.65467	2277.75
1164.27079	2274.35
1167.88443	2266.15
1171.49561	2274.45
1175.10432	2272.35
1178.71056	2284.25
1182.31434	2298.15
1185.91565	2296.25
1189.51451	2299.45
1193.11091	2284.45
1196.70485	2292.35
1200.29634	2285.55
1203.88538	2268.05
1207.47197	2266.05
1211.05612	2266.35
1214.63782	2260.55
1218.21708	2259.15
1221.79391	2275.75
1225.36829	2283.05
1228.94024	2293.65
1232.50976	2318.95
1236.07685	2338.85
1239.6415	2363.95
1243.20374	2394.35
1246.76355	2435.25
1250.32093	2457.75
1253.8759	2484.25
1257.42845	2493.75
1260.97859	2490.85
1264.52631	2464.15
1268.07163	2457.65
1271.61453	2443.35
1275.15503	2416.15
1278.69312	2403.85
1282.22882	2403.65
1285.76211	2397.55
1289.29301	2395.85
1292.82151	2406.15
1296.34761	2401.05
1299.87133	2412.95
1303.39266	2416.45
1306.9116	2430.05
1310.42815	2440.15
1313.94233	2443.55
1317.45412	2436.15
1320.96354	2435.55
1324.47058	2446.35
1327.97525	2446.25
1331.47754	2461.45
1334.97747	2451.45
1338.47502	2456.95
1341.97022	2475.35
1345.46305	2502.65
1348.95352	2528.55
1352.44163	2570.95
1355.92738	2590.15
1359.41078	2616.05
1362.89183	2644.05
1366.37053	2646.45
1369.84688	2636.05
1373.32088	2584.95
1376.79254	2571.45
1380.26186	2543.95
1383.72883	2514.05
1387.19347	2508.05
1390.65578	2476.45
1394.11575	2466.75
1397.57339	2466.85
1401.0287	2477.85
1404.48168	2492.45
1407.93234	2514.55
1411.38068	2548.55
1414.82669	2558.35
1418.27039	2571.95
1421.71177	2568.25
1425.15083	2521.05
1428.58758	2476.65
1432.02203	2425.25
1435.45416	2405.55
1438.88399	2382.85
1442.31151	2384.95
1445.73673	2395.35
1449.15965	2412.95
1452.58027	2432.95
1455.9986	2425.65
1459.41463	2437.75
1462.82837	2446.25
1466.23982	2439.15
1469.64898	2437.35
1473.05586	2419.45
1476.46045	2393.65
1479.86276	2356.45
1483.26279	2326.25
1486.66054	2303.15
1490.05602	2299.55
1493.44922	2296.75
1496.84016	2301.45
1500.22882	2306.55
1503.61521	2327.85
1506.99934	2344.15
1510.38121	2345.15
1513.76081	2348.35
1517.13816	2325.65
1520.51324	2335.55
1523.88607	2315.05
1527.25665	2328.95
1530.62498	2322.95
1533.99105	2318.45
1537.35488	2330.65
1540.71647	2335.95
1544.07581	2342.95
1547.4329	2352.15
1550.78776	2373.65
1554.14038	2369.55
1557.49077	2382.05
1560.83892	2391.45
1564.18484	2391.55
1567.52853	2395.65
1570.86999	2400.35
1574.20922	2404.65
1577.54624	2395.55
1580.88103	2393.95
1584.2136	2375.95
1587.54395	2368.15
1590.87208	2370.75
1594.19801	2378.05
1597.52172	2379.05
1600.84321	2381.45
1604.16251	2365.55
1607.47959	2354.75
1610.79447	2351.55
1614.10715	2337.75
1617.41763	2317.75
1620.7259	2302.35
1624.03199	2291.55
1627.33587	2268.95
1630.63757	2278.05
1633.93707	2289.05
1637.23439	2278.05
1640.52951	2282.05
1643.82246	2275.55
1647.11321	2287.35
1650.40179	2296.65
1653.68819	2295.65
1656.97241	2281.55
1660.25446	2288.25
1663.53433	2276.85
1666.81203	2268.95
1670.08756	2276.35
1673.36092	2285.75
1676.63211	2290.45
1679.90115	2294.85
1683.16801	2285.35
1686.43272	2306.85
1689.69527	2302.65
1692.95567	2300.65
1696.2139	2317.85
1699.46999	2313.65
1702.72392	2315.55
1705.97571	2309.15
1709.22535	2296.65
1712.47284	2280.05
1715.71819	2277.95
1718.96139	2264.65
1722.20246	2235.85
1725.44139	2235.95
1728.67818	2240.65
1731.91284	2238.25
1735.14537	2244.15
1738.37576	2255.55
1741.60403	2285.75
1744.83017	2322.05
1748.05418	2394.15
1751.27607	2497.75
1754.49584	2620.45
1757.71349	2708.35
1760.92903	2782.45
1764.14244	2792.25
1767.35375	2757.25
1770.56294	2670.95
1773.77002	2569.55
1776.97499	2468.75
1780.17785	2405.55
1783.37861	2356.85
1786.57727	2309.45
1789.77382	2247.65
1792.96828	2190.95
1796.16064	2147.65
1799.3509	2111.55
1802.53907	2067.85
1805.72514	2037.75
1808.90913	2013.05
1812.09102	1983.05
1815.27083	1964.15
1818.44856	1942.55
1821.6242	1932.55
1824.79776	1927.95
1827.96924	1912.05
1831.13864	1895.05
1834.30597	1882.55
1837.47122	1890.35
1840.6344	1868.45
1843.7955	1869.25
1846.95454	1859.65
1850.11151	1867.55
1853.26642	1850.75
1856.41926	1860.45
1859.57004	1843.65
1862.71876	1852.05
1865.86542	1844.05
1869.01003	1847.65
1872.15258	1849.35
1875.29308	1852.35
1878.43152	1847.85
1881.56792	1839.45
1884.70227	1838.95
1887.83457	1852.15
1890.96482	1852.05
1894.09304	1840.45
1897.21921	1837.85
1900.34335	1843.55
1903.46544	1850.35
1906.58551	1845.85
1909.70353	1847.75
1912.81953	1845.15
1915.93349	1865.35
1919.04543	1856.15
1922.15534	1860.75
1925.26322	1861.45
1928.36908	1862.95
1931.47292	1871.55
1934.57473	1864.95
1937.67453	1864.05
1940.77232	1856.85
1943.86808	1863.15
1946.96184	1859.35
1950.05358	1853.55
1953.14331	1845.05
1956.23103	1849.85
1959.31675	1831.65
1962.40046	1835.55
1965.48217	1815.35
1968.56188	1812.85
1971.63959	1804.95
1974.7153	1794.75
1977.78901	1786.45
1980.86073	1774.85
1983.93046	1770.35
1986.99819	1766.35
1990.06394	1758.05
1993.1277	1742.55
1996.18947	1748.85
1999.24925	1740.45
2002.30706	1723.35
2005.36288	1713.65
2008.41672	1708.95
2011.46859	1712.75
2014.51848	1703.45
2017.56639	1694.45
2020.61233	1695.65
2023.6563	1690.65
2026.6983	1687.75
2029.73833	1667.25
2032.7764	1670.35
2035.8125	1658.45
2038.84664	1658.85
2041.87881	1659.95
2044.90903	1650.55
2047.93729	1647.55
2050.96359	1657.85
2053.98794	1650.95
2057.01034	1647.25
2060.03078	1652.15
2063.04927	1655.15
2066.06582	1658.45
2069.08042	1643.65
2072.09307	1655.25
2075.10378	1657.75
2078.11255	1658.75
2081.11938	1666.05
2084.12426	1663.55
2087.12722	1656.05
2090.12824	1665.75
2093.12732	1675.85
2096.12447	1671.65
2099.11969	1670.05
2102.11299	1671.45
2105.10435	1664.75
2108.09379	1674.65
2111.08131	1667.45
2114.0669	1673.95
2117.05057	1679.05
2120.03233	1675.15
2123.01216	1677.55
2125.99008	1681.95
2128.96609	1688.25
2131.94018	1684.95
2134.91236	1675.65
2137.88263	1684.35
2140.851	1682.65
2143.81746	1691.05
2146.78201	1684.35
2149.74466	1683.25
2152.7054	1679.85
2155.66425	1682.75
2158.6212	1685.55
2161.57625	1683.65
2164.52941	1679.45
2167.48067	1668.85
2170.43004	1664.95
2173.37752	1666.75
2176.32311	1663.25
2179.26681	1657.85
2182.20863	1654.65
2185.14856	1657.45
2188.08661	1651.75
2191.02278	1656.45
2193.95707	1656.75
2196.88948	1651.15
2199.82001	1656.05
2202.74867	1642.05
2205.67545	1657.85
2208.60037	1654.55
2211.52341	1644.05
2214.44458	1642.85
2217.36388	1630.95
2220.28132	1635.95
2223.1969	1622.55
2226.11061	1622.95
2229.02246	1625.35
2231.93245	1614.35
2234.84058	1614.65
2237.74686	1609.65
2240.65128	1603.95
2243.55385	1604.25
2246.45456	1604.25
2249.35343	1607.25
2252.25044	1605.65
2255.14561	1592.55
2258.03893	1599.25
2260.93041	1597.15
2263.82004	1589.85
2266.70783	1587.45
2269.59378	1573.05
2272.4779	1577.05
2275.36017	1583.05
2278.24061	1574.65
2281.11922	1557.95
2283.996	1552.75
2286.87094	1577.75
2289.74405	1560.85
2292.61534	1551.25
2295.4848	1557.85
2298.35243	1555.25
2301.21824	1554.05
2304.08223	1552.45
2306.94439	1553.45
2309.80474	1547.15
2312.66327	1552.45
2315.51999	1542.85
2318.37489	1545.95
2321.22797	1533.35
2324.07925	1536.35
2326.92871	1532.25
2329.77637	1530.85
2332.62222	1532.35
2335.46626	1530.75
2338.3085	1522.95
2341.14893	1526.35
2343.98756	1522.15
2346.8244	1517.85
2349.65943	1525.55
2352.49267	1515.85
2355.32411	1515.45
2358.15376	1512.35
2360.98161	1511.45
2363.80768	1516.85
2366.63195	1516.45
2369.45444	1511.55
2372.27514	1504.75
2375.09405	1504.55
2377.91118	1498.25
2380.72652	1498.25
2383.54009	1513.65
2386.35187	1500.55
2389.16188	1495.35
2391.97011	1496.95
2394.77657	1491.75
2397.58125	1481.05
2400.38416	1492.15
2403.18529	1482.95
2405.98466	1481.45
2408.78226	1484.85
2411.57809	1492.05
2414.37216	1478.35
2417.16446	1474.45
2419.955	1476.45
2422.74378	1472.15
2425.5308	1472.95
2428.31606	1472.65
2431.09956	1465.85
2433.88131	1464.55
2436.6613	1461.75
2439.43954	1455.85
2442.21603	1462.15
2444.99077	1460.25
2447.76377	1460.75
2450.53501	1460.95
2453.30451	1461.55
2456.07226	1451.45
2458.83827	1454.95
2461.60254	1455.35
2464.36507	1451.85
2467.12586	1441.15
2469.88492	1450.95
2472.64224	1436.15
2475.39782	1450.35
2478.15167	1438.85
2480.90379	1437.15
2483.65417	1445.05
2486.40283	1437.05
2489.14976	1443.45
2491.89497	1434.75
2494.63845	1449.95
2497.3802	1438.25
2500.12024	1436.05
2502.85855	1434.85
2505.59514	1439.65
2508.33002	1431.65
2511.06318	1431.95
2513.79462	1422.35
2516.52435	1427.35
2519.25237	1420.35
2521.97867	1418.05
2524.70327	1425.55
2527.42616	1420.45
2530.14734	1417.85
2532.86681	1423.75
2535.58458	1416.35
2538.30065	1414.15
2541.01501	1413.05
2543.72768	1403.55
2546.43864	1404.85
2549.14791	1395.15
2551.85548	1402.65
2554.56136	1404.75
2557.26554	1397.95
2559.96803	1392.15
2562.66883	1389.55
2565.36794	1385.45
2568.06536	1382.45
2570.7611	1379.55
2573.45514	1375.65
2576.14751	1390.55
2578.83819	1381.25
2581.52719	1376.55
2584.21451	1375.75
2586.90015	1376.15
2589.58411	1373.95
2592.2664	1363.25
2594.94701	1366.95
2597.62594	1361.85
2600.30321	1365.75
2602.9788	1364.05
2605.65273	1357.85
2608.32498	1358.65
2610.99557	1355.75
2613.66449	1355.85
2616.33175	1352.15
2618.99734	1345.05
2621.66128	1358.75
2624.32355	1347.65
2626.98416	1341.65
2629.64311	1348.35
2632.30041	1350.35
2634.95605	1350.15
2637.61004	1337.25
2640.26238	1327.25
2642.91306	1341.65
2645.56209	1336.15
2648.20948	1339.05
2650.85521	1353.65
2653.4993	1335.05
2656.14175	1337.35
2658.78255	1341.45
2661.42171	1336.55
2664.05923	1331.15
2666.6951	1333.75
2669.32934	1348.45
2671.96194	1337.35
2674.59291	1341.65
2677.22224	1346.75
2679.84993	1338.35
2682.476	1339.75
2685.10043	1346.55
2687.72324	1331.85
2690.34441	1336.05
2692.96396	1330.35
2695.58188	1338.95
2698.19818	1336.85
2700.81285	1347.75
2703.4259	1334.35
2706.03733	1337.25
2708.64714	1339.05
2711.25533	1345.85
2713.86191	1353.25
2716.46687	1340.75
2719.07021	1338.25
2721.67194	1340.85
2724.27206	1348.75
2726.87057	1343.95
2729.46747	1340.95
2732.06276	1352.05
2734.65644	1342.85
2737.24852	1337.75
2739.83899	1341.25
2742.42786	1342.35
2745.01513	1342.15
2747.60079	1335.65
2750.18486	1330.55
2752.76733	1327.65
2755.3482	1330.85
2757.92747	1321.35
2760.50515	1336.65
2763.08123	1319.85
2765.65573	1322.85
2768.22863	1319.45
2770.79994	1318.35
2773.36967	1314.65
2775.9378	1313.95
2778.50435	1321.75
2781.06932	1317.35
2783.6327	1324.35
2786.1945	1314.45
2788.75471	1320.45
2791.31335	1316.85
2793.87041	1321.25
2796.42589	1317.15
2798.97979	1319.75
2801.53212	1316.15
2804.08288	1307.45
2806.63206	1322.15
2809.17967	1314.65
2811.72571	1312.35
2814.27018	1322.35
2816.81308	1315.45
2819.35442	1316.25
2821.89419	1299.45
2824.43239	1310.05
2826.96904	1305.75
2829.50412	1310.15
2832.03763	1315.25
2834.56959	1313.55
2837.1	1314.05
2839.62884	1304.45
2842.15613	1315.45
2844.68186	1318.95
2847.20604	1321.35
2849.72867	1318.75
2852.24974	1327.85
2854.76927	1311.55
2857.28724	1317.45
2859.80367	1316.85
2862.31855	1314.95
2864.83189	1310.75
2867.34368	1316.05
2869.85393	1325.45
2872.36264	1314.75
2874.8698	1319.65
2877.37543	1327.25
2879.87952	1324.45
2882.38207	1340.85
2884.88308	1340.05
2887.38256	1354.25
2889.88051	1353.65
2892.37692	1364.25
2894.8718	1361.85
2897.36515	1384.85
2899.85698	1394.65
2902.34727	1403.15
2904.83604	1411.45
2907.32328	1419.35
2909.809	1429.55
2912.29319	1434.55
2914.77587	1448.95
2917.25702	1465.55
2919.73665	1468.35
2922.21476	1482.45
2924.69136	1489.95
2927.16644	1504.95
2929.64	1507.35
2932.11205	1525.25
2934.58258	1525.25
2937.05161	1545.85
2939.51912	1565.65
2941.98513	1570.25
2944.44962	1589.75
2946.91261	1606.75
2949.37409	1618.05
2951.83407	1625.35
2954.29254	1625.45
2956.74951	1620.05
2959.20498	1606.25
2961.65895	1594.95
2964.11142	1576.85
2966.56239	1558.95
2969.01186	1524.05
2971.45984	1513.45
2973.90632	1484.45
2976.35131	1476.85
2978.7948	1464.35
2981.23681	1447.45
2983.67732	1448.35
2986.11635	1436.35
2988.55388	1422.75
2990.98993	1418.65
2993.4245	1413.75
2995.85758	1414.95
2998.28917	1415.15
3000.71928	1414.55
3003.14791	1420.35
3005.57506	1416.15
3008.00073	1416.65
3010.42493	1419.95
3012.84764	1428.15
3015.26888	1426.35
3017.68865	1420.35
3020.10694	1416.15
3022.52376	1417.85
3024.9391	1412.55
3027.35298	1419.65
3029.76539	1408.25
3032.17632	1402.95
3034.5858	1409.65
3036.9938	1396.35
3039.40034	1404.75
3041.80542	1393.95
3044.20903	1389.15
3046.61118	1399.25
3049.01187	1386.15
3051.4111	1391.05
3053.80888	1388.95
3056.20519	1384.15
3058.60005	1388.75
3060.99345	1393.15
3063.3854	1380.65
3065.7759	1380.15
3068.16494	1389.15
3070.55254	1382.95
3072.93868	1382.45
3075.32338	1387.15
3077.70662	1388.35
3080.08842	1394.05
3082.46878	1386.75
3084.84769	1408.45
3087.22515	1417.75
3089.60118	1412.25
3091.97576	1420.45
3094.3489	1436.95
3096.72061	1438.95
3099.09087	1440.45
3101.4597	1446.45
3103.82709	1464.65
3106.19305	1470.25
3108.55757	1476.05
3110.92066	1484.85
3113.28232	1494.35
3115.64255	1492.25
3118.00134	1500.55
3120.35871	1504.45
3122.71466	1507.25
3125.06917	1516.85
3127.42226	1510.45
3129.77393	1539.95
3132.12417	1534.15
3134.47299	1534.25
3136.82039	1562.15
3139.16636	1552.45
3141.51092	1576.45
3143.85406	1572.35
3146.19579	1590.45
3148.53609	1597.95
3150.87499	1607.75
3153.21246	1615.15
3155.54853	1635.15
3157.88318	1635.85
3160.21642	1652.55
3162.54826	1661.05
3164.87868	1671.75
3167.2077	1683.55
3169.5353	1696.15
3171.86151	1694.75
3174.18631	1708.25
3176.5097	1715.05
3178.83169	1719.55
3181.15228	1736.45
3183.47147	1739.25
3185.78926	1737.75
3188.10565	1741.55
3190.42065	1749.15
3192.73424	1767.85
3195.04645	1775.95
3197.35725	1768.45
3199.66667	1783.25
3201.97469	1787.55
3204.28132	1796.45
3206.58656	1807.15
3208.8904	1815.65
3211.19287	1815.05
3213.49394	1821.45
3215.79363	1835.45
3218.09193	1831.35
3220.38884	1845.75
3222.68438	1848.25
3224.97853	1853.45
3227.2713	1860.55
3229.56269	1858.95
3231.8527	1861.85
3234.14133	1862.75
3236.42858	1862.95
3238.71446	1865.05
3240.99896	1871.55
3243.28209	1869.05
3245.56384	1872.85
3247.84423	1871.85
3250.12324	1871.65
3252.40088	1866.55
3254.67715	1871.25
3256.95205	1871.35
3259.22558	1887.55
3261.49775	1879.75
3263.76855	1872.45
3266.03799	1883.35
3268.30606	1876.25
3270.57277	1880.95
3272.83812	1884.15
3275.10211	1881.95
3277.36474	1881.95
3279.62601	1872.75
3281.88593	1871.85
3284.14448	1876.85
3286.40168	1881.05
3288.65753	1875.25
3290.91202	1879.25
3293.16516	1873.65
3295.41695	1874.65
3297.66738	1871.95
3299.91647	1864.15
3302.16421	1845.15
3304.4106	1849.45
3306.65564	1828.25
3308.89933	1814.05
3311.14169	1807.15
3313.38269	1782.95
3315.62236	1784.35
3317.86068	1771.45
3320.09766	1758.65
3322.3333	1746.35
3324.5676	1741.55
3326.80056	1706.05
3329.03219	1702.95
3331.26248	1.65
3333.49143	-0.55
3335.71905	-2.95
