Data from AgNPs_UA_5uM_CRN_500uM_AS_RamanShift__15__13-15-03-836.txt Node

Date: Wed Aug 17 13:15:03 BST 2022
User: TCL
Spectrometer: QEP01345
Trigger mode: 4
Integration Time (sec): 7.000000E0
Scans to average: 10
Electric dark correction enabled: true
Nonlinearity correction enabled: false
Boxcar width: 0
XAxis mode: Raman Shifts
Number of Pixels in Spectrum: 1044
>>>>>Begin Spectral Data<<<<<
46.04893	0.05
50.45542	0.75
54.85868	-0.05
59.25871	-0.25
63.6555	42.55
68.04907	46.45
72.43941	51.05
76.82654	56.05
81.21044	59.55
85.59113	60.55
89.96862	65.45
94.34289	68.65
98.71396	70.35
103.08183	71.15
107.4465	71.75
111.80798	74.15
116.16626	73.25
120.52136	73.95
124.87327	71.45
129.222	72.45
133.56755	71.65
137.90993	70.35
142.24913	73.35
146.58517	75.75
150.91804	73.45
155.24774	78.25
159.57429	85.75
163.89768	97.75
168.21792	107.65
172.53501	127.15
176.84895	158.55
181.15975	205.85
185.46741	264.25
189.77193	356.55
194.07331	475.95
198.37157	622.75
202.6667	797.05
206.9587	967.55
211.24758	1157.65
215.53334	1338.15
219.81599	1510.55
224.09553	1679.35
228.37195	1835.55
232.64527	1982.55
236.91549	2110.05
241.18261	2231.55
245.44663	2339.55
249.70755	2394.95
253.96539	2442.45
258.22014	2458.95
262.4718	2428.55
266.72039	2381.85
270.96589	2319.05
275.20832	2229.15
279.44768	2136.05
283.68397	2047.05
287.91719	1962.85
292.14735	1882.85
296.37445	1831.15
300.59849	1780.15
304.81948	1761.65
309.03742	1728.25
313.25231	1703.25
317.46415	1675.15
321.67296	1640.45
325.87872	1614.85
330.08145	1642.65
334.28114	1720.05
338.47781	1630.25
342.67145	1651.65
346.86207	1674.75
351.04966	1702.05
355.23424	1719.15
359.4158	1734.85
363.59435	1727.85
367.76989	1740.45
371.94243	1716.65
376.11196	1726.25
380.27849	1728.65
384.44203	1742.15
388.60257	1723.65
392.76012	1735.65
396.91468	1754.75
401.06626	1772.15
405.21485	1773.95
409.36047	1782.75
413.50311	1775.75
417.64277	1779.05
421.77947	1787.85
425.9132	1801.15
430.04396	1813.25
434.17176	1819.35
438.2966	1855.65
442.41849	1878.45
446.53742	1922.85
450.6534	1927.15
454.76644	1945.35
458.87653	1960.25
462.98368	1971.55
467.08789	1971.25
471.18916	1971.15
475.2875	1954.35
479.38291	1951.85
483.4754	1947.15
487.56496	1940.15
491.6516	1933.65
495.73531	1951.25
499.81612	1948.05
503.89401	1950.35
507.96899	1952.95
512.04106	1941.85
516.11023	1948.75
520.1765	1930.65
524.23987	1919.15
528.30034	1918.85
532.35792	1908.75
536.41261	1913.05
540.46441	1910.85
544.51333	1915.85
548.55936	1918.65
552.60252	1917.35
556.64279	1936.45
560.6802	1945.25
564.71473	1966.75
568.7464	2000.55
572.7752	2031.55
576.80114	2027.65
580.82422	2019.35
584.84444	1991.95
588.86181	1989.55
592.87633	1985.35
596.888	1994.95
600.89682	2011.35
604.9028	2061.65
608.90594	2141.05
612.90624	2238.65
616.90371	2217.15
620.89834	2106.95
624.89015	2075.25
628.87913	2080.45
632.86528	2098.55
636.84862	2116.75
640.82913	2129.25
644.80683	2182.15
648.78172	2206.15
652.75379	2232.05
656.72306	2226.05
660.68952	2252.95
664.65319	2291.15
668.61405	2394.55
672.57211	2604.85
676.52738	2899.25
680.47986	3172.95
684.42955	3230.15
688.37646	3063.45
692.32058	2818.95
696.26192	2631.15
700.20048	2520.75
704.13626	2466.75
708.06928	2407.05
711.99952	2344.65
715.927	2279.55
719.85171	2263.45
723.77365	2277.05
727.69284	2296.75
731.60928	2305.75
735.52295	2275.15
739.43388	2238.15
743.34206	2228.45
747.24749	2253.55
751.15017	2271.35
755.05012	2313.15
758.94733	2344.45
762.8418	2365.55
766.73354	2364.95
770.62254	2339.15
774.50882	2321.25
778.39237	2277.05
782.27321	2214.95
786.15132	2181.15
790.02671	2137.65
793.89938	2130.45
797.76935	2146.05
801.6366	2133.85
805.50115	2143.45
809.36299	2139.65
813.22213	2114.85
817.07857	2098.35
820.93231	2098.35
824.78336	2094.35
828.63172	2088.55
832.47738	2093.25
836.32036	2087.85
840.16066	2104.95
843.99827	2090.15
847.8332	2097.75
851.66546	2098.65
855.49504	2104.25
859.32195	2121.85
863.1462	2137.65
866.96777	2157.15
870.78668	2160.95
874.60293	2169.55
878.41652	2185.75
882.22745	2179.05
886.03573	2163.15
889.84136	2153.85
893.64433	2141.55
897.44466	2129.45
901.24235	2142.15
905.0374	2147.35
908.8298	2137.75
912.61957	2134.35
916.40671	2131.65
920.19121	2148.25
923.97308	2168.75
927.75233	2199.35
931.52895	2216.15
935.30295	2215.55
939.07433	2195.55
942.84309	2174.05
946.60924	2138.65
950.37278	2125.05
954.13371	2116.15
957.89203	2116.55
961.64774	2125.65
965.40086	2136.25
969.15137	2125.15
972.89929	2111.35
976.64461	2091.25
980.38733	2078.95
984.12747	2070.25
987.86502	2075.25
991.59999	2066.95
995.33237	2064.45
999.06217	2055.15
1002.78939	2072.15
1006.51404	2072.65
1010.23611	2081.55
1013.95561	2095.45
1017.67255	2091.55
1021.38692	2102.95
1025.09872	2104.95
1028.80796	2108.95
1032.51465	2120.65
1036.21877	2147.65
1039.92035	2157.05
1043.61937	2192.05
1047.31584	2237.35
1051.00976	2243.75
1054.70114	2249.15
1058.38998	2228.15
1062.07627	2199.65
1065.76003	2172.65
1069.44126	2148.95
1073.11995	2125.95
1076.79611	2106.55
1080.46974	2098.35
1084.14085	2095.75
1087.80943	2103.75
1091.47549	2103.15
1095.13903	2086.75
1098.80005	2085.35
1102.45857	2073.45
1106.11456	2079.65
1109.76805	2082.25
1113.41903	2081.55
1117.06751	2085.55
1120.71348	2102.75
1124.35696	2121.55
1127.99793	2143.45
1131.63641	2134.25
1135.2724	2130.35
1138.90589	2113.45
1142.5369	2114.65
1146.16542	2103.75
1149.79145	2098.05
1153.415	2084.85
1157.03607	2084.85
1160.65467	2074.25
1164.27079	2082.45
1167.88443	2090.95
1171.49561	2103.45
1175.10432	2129.55
1178.71056	2163.85
1182.31434	2197.95
1185.91565	2197.45
1189.51451	2198.45
1193.11091	2166.75
1196.70485	2159.85
1200.29634	2137.65
1203.88538	2131.15
1207.47197	2129.15
1211.05612	2086.35
1214.63782	2096.55
1218.21708	2100.25
1221.79391	2105.55
1225.36829	2112.55
1228.94024	2123.95
1232.50976	2132.45
1236.07685	2153.75
1239.6415	2175.25
1243.20374	2204.25
1246.76355	2216.25
1250.32093	2241.05
1253.8759	2245.25
1257.42845	2258.15
1260.97859	2269.35
1264.52631	2256.75
1268.07163	2239.85
1271.61453	2227.75
1275.15503	2214.45
1278.69312	2191.15
1282.22882	2181.45
1285.76211	2181.95
1289.29301	2193.45
1292.82151	2197.45
1296.34761	2204.45
1299.87133	2217.95
1303.39266	2265.45
1306.9116	2308.65
1310.42815	2357.25
1313.94233	2373.05
1317.45412	2351.55
1320.96354	2328.65
1324.47058	2304.75
1327.97525	2283.55
1331.47754	2287.65
1334.97747	2287.55
1338.47502	2297.25
1341.97022	2335.55
1345.46305	2385.25
1348.95352	2447.15
1352.44163	2521.25
1355.92738	2586.35
1359.41078	2666.55
1362.89183	2735.85
1366.37053	2738.25
1369.84688	2629.35
1373.32088	2513.45
1376.79254	2434.75
1380.26186	2356.65
1383.72883	2293.95
1387.19347	2253.35
1390.65578	2212.35
1394.11575	2183.35
1397.57339	2189.95
1401.0287	2193.35
1404.48168	2218.85
1407.93234	2253.85
1411.38068	2296.75
1414.82669	2342.85
1418.27039	2381.35
1421.71177	2397.65
1425.15083	2368.85
1428.58758	2322.65
1432.02203	2294.55
1435.45416	2240.95
1438.88399	2202.45
1442.31151	2202.95
1445.73673	2196.15
1449.15965	2186.35
1452.58027	2191.85
1455.9986	2192.75
1459.41463	2196.05
1462.82837	2207.05
1466.23982	2211.75
1469.64898	2213.35
1473.05586	2202.85
1476.46045	2187.45
1479.86276	2141.05
1483.26279	2128.45
1486.66054	2111.45
1490.05602	2108.25
1493.44922	2107.35
1496.84016	2130.35
1500.22882	2166.15
1503.61521	2227.65
1506.99934	2282.85
1510.38121	2332.65
1513.76081	2327.75
1517.13816	2296.55
1520.51324	2232.25
1523.88607	2168.15
1527.25665	2140.85
1530.62498	2117.85
1533.99105	2118.15
1537.35488	2114.35
1540.71647	2112.95
1544.07581	2122.75
1547.4329	2117.35
1550.78776	2127.55
1554.14038	2137.45
1557.49077	2155.55
1560.83892	2147.95
1564.18484	2162.95
1567.52853	2169.85
1570.86999	2180.55
1574.20922	2185.85
1577.54624	2189.75
1580.88103	2183.85
1584.2136	2155.95
1587.54395	2137.75
1590.87208	2161.75
1594.19801	2156.95
1597.52172	2172.85
1600.84321	2181.25
1604.16251	2173.55
1607.47959	2160.15
1610.79447	2131.65
1614.10715	2105.35
1617.41763	2080.35
1620.7259	2049.75
1624.03199	2041.35
1627.33587	2030.55
1630.63757	2026.15
1633.93707	2038.85
1637.23439	2042.05
1640.52951	2049.95
1643.82246	2089.35
1647.11321	2132.05
1650.40179	2164.85
1653.68819	2154.65
1656.97241	2132.05
1660.25446	2092.95
1663.53433	2088.35
1666.81203	2087.95
1670.08756	2088.45
1673.36092	2103.35
1676.63211	2124.35
1679.90115	2134.05
1683.16801	2121.45
1686.43272	2096.95
1689.69527	2087.65
1692.95567	2071.55
1696.2139	2054.15
1699.46999	2044.65
1702.72392	2028.55
1705.97571	2008.25
1709.22535	1994.95
1712.47284	1984.45
1715.71819	1977.45
1718.96139	1975.65
1722.20246	1964.25
1725.44139	1982.25
1728.67818	1988.05
1731.91284	2005.15
1735.14537	2022.95
1738.37576	2044.05
1741.60403	2070.25
1744.83017	2135.85
1748.05418	2240.35
1751.27607	2351.35
1754.49584	2448.05
1757.71349	2521.45
1760.92903	2522.45
1764.14244	2472.85
1767.35375	2374.75
1770.56294	2271.65
1773.77002	2163.75
1776.97499	2091.65
1780.17785	2037.55
1783.37861	1995.55
1786.57727	1950.85
1789.77382	1904.05
1792.96828	1857.85
1796.16064	1826.55
1799.3509	1798.45
1802.53907	1762.95
1805.72514	1749.85
1808.90913	1737.25
1812.09102	1722.65
1815.27083	1706.65
1818.44856	1703.65
1821.6242	1701.45
1824.79776	1684.85
1827.96924	1679.15
1831.13864	1666.25
1834.30597	1657.85
1837.47122	1663.85
1840.6344	1653.95
1843.7955	1650.95
1846.95454	1645.45
1850.11151	1640.85
1853.26642	1632.35
1856.41926	1622.45
1859.57004	1631.95
1862.71876	1619.65
1865.86542	1621.85
1869.01003	1626.35
1872.15258	1623.75
1875.29308	1622.85
1878.43152	1623.65
1881.56792	1623.15
1884.70227	1616.75
1887.83457	1612.05
1890.96482	1616.45
1894.09304	1617.95
1897.21921	1606.35
1900.34335	1611.65
1903.46544	1611.55
1906.58551	1599.95
1909.70353	1605.35
1912.81953	1611.05
1915.93349	1613.95
1919.04543	1613.45
1922.15534	1617.05
1925.26322	1619.45
1928.36908	1611.65
1931.47292	1605.15
1934.57473	1607.65
1937.67453	1613.85
1940.77232	1593.35
1943.86808	1591.05
1946.96184	1588.45
1950.05358	1584.45
1953.14331	1586.05
1956.23103	1576.05
1959.31675	1584.75
1962.40046	1568.35
1965.48217	1567.95
1968.56188	1561.15
1971.63959	1566.35
1974.7153	1567.95
1977.78901	1543.75
1980.86073	1539.15
1983.93046	1529.65
1986.99819	1545.85
1990.06394	1527.65
1993.1277	1526.65
1996.18947	1512.15
1999.24925	1524.25
2002.30706	1519.15
2005.36288	1504.15
2008.41672	1499.55
2011.46859	1497.45
2014.51848	1504.95
2017.56639	1493.15
2020.61233	1481.05
2023.6563	1489.85
2026.6983	1468.15
2029.73833	1475.25
2032.7764	1462.05
2035.8125	1464.95
2038.84664	1469.15
2041.87881	1459.95
2044.90903	1458.55
2047.93729	1447.65
2050.96359	1449.35
2053.98794	1439.65
2057.01034	1452.65
2060.03078	1443.45
2063.04927	1450.55
2066.06582	1445.65
2069.08042	1448.25
2072.09307	1444.65
2075.10378	1446.15
2078.11255	1452.15
2081.11938	1444.45
2084.12426	1452.35
2087.12722	1451.65
2090.12824	1450.55
2093.12732	1454.05
2096.12447	1459.75
2099.11969	1457.65
2102.11299	1466.25
2105.10435	1455.25
2108.09379	1473.75
2111.08131	1456.05
2114.0669	1467.25
2117.05057	1470.65
2120.03233	1473.25
2123.01216	1463.35
2125.99008	1471.85
2128.96609	1475.65
2131.94018	1471.95
2134.91236	1462.95
2137.88263	1470.15
2140.851	1466.35
2143.81746	1469.65
2146.78201	1459.25
2149.74466	1466.25
2152.7054	1460.25
2155.66425	1462.35
2158.6212	1462.45
2161.57625	1460.05
2164.52941	1460.15
2167.48067	1457.65
2170.43004	1445.25
2173.37752	1453.35
2176.32311	1455.55
2179.26681	1445.25
2182.20863	1447.95
2185.14856	1453.85
2188.08661	1454.65
2191.02278	1450.85
2193.95707	1455.65
2196.88948	1449.25
2199.82001	1452.45
2202.74867	1439.95
2205.67545	1438.75
2208.60037	1445.25
2211.52341	1438.95
2214.44458	1433.95
2217.36388	1423.45
2220.28132	1425.45
2223.1969	1407.35
2226.11061	1420.35
2229.02246	1422.05
2231.93245	1417.65
2234.84058	1401.85
2237.74686	1409.15
2240.65128	1409.85
2243.55385	1398.55
2246.45456	1415.15
2249.35343	1412.15
2252.25044	1404.45
2255.14561	1392.25
2258.03893	1397.65
2260.93041	1399.25
2263.82004	1391.55
2266.70783	1386.85
2269.59378	1387.85
2272.4779	1388.65
2275.36017	1383.55
2278.24061	1379.25
2281.11922	1372.95
2283.996	1367.15
2286.87094	1374.75
2289.74405	1367.95
2292.61534	1367.15
2295.4848	1364.55
2298.35243	1363.95
2301.21824	1363.75
2304.08223	1361.95
2306.94439	1365.85
2309.80474	1358.65
2312.66327	1365.95
2315.51999	1354.15
2318.37489	1355.85
2321.22797	1347.95
2324.07925	1351.85
2326.92871	1349.25
2329.77637	1347.85
2332.62222	1349.45
2335.46626	1340.25
2338.3085	1342.25
2341.14893	1345.35
2343.98756	1343.45
2346.8244	1342.85
2349.65943	1332.95
2352.49267	1338.75
2355.32411	1337.95
2358.15376	1336.65
2360.98161	1333.95
2363.80768	1326.85
2366.63195	1334.75
2369.45444	1332.55
2372.27514	1332.25
2375.09405	1325.25
2377.91118	1325.85
2380.72652	1323.45
2383.54009	1329.05
2386.35187	1330.25
2389.16188	1322.75
2391.97011	1313.95
2394.77657	1308.95
2397.58125	1315.45
2400.38416	1315.15
2403.18529	1308.25
2405.98466	1304.85
2408.78226	1302.95
2411.57809	1308.05
2414.37216	1302.85
2417.16446	1296.45
2419.955	1303.15
2422.74378	1302.15
2425.5308	1299.45
2428.31606	1298.55
2431.09956	1299.95
2433.88131	1292.45
2436.6613	1298.15
2439.43954	1296.25
2442.21603	1290.25
2444.99077	1280.55
2447.76377	1296.25
2450.53501	1286.55
2453.30451	1284.45
2456.07226	1282.95
2458.83827	1284.05
2461.60254	1286.65
2464.36507	1280.45
2467.12586	1278.75
2469.88492	1270.65
2472.64224	1274.55
2475.39782	1280.55
2478.15167	1273.55
2480.90379	1266.45
2483.65417	1274.15
2486.40283	1274.15
2489.14976	1277.65
2491.89497	1270.35
2494.63845	1272.25
2497.3802	1267.65
2500.12024	1267.45
2502.85855	1261.65
2505.59514	1267.45
2508.33002	1261.55
2511.06318	1260.55
2513.79462	1258.45
2516.52435	1255.05
2519.25237	1251.65
2521.97867	1250.65
2524.70327	1253.45
2527.42616	1258.65
2530.14734	1249.95
2532.86681	1249.85
2535.58458	1250.55
2538.30065	1247.35
2541.01501	1239.15
2543.72768	1247.65
2546.43864	1249.15
2549.14791	1235.65
2551.85548	1245.15
2554.56136	1237.35
2557.26554	1233.75
2559.96803	1231.25
2562.66883	1236.25
2565.36794	1226.65
2568.06536	1226.85
2570.7611	1225.35
2573.45514	1220.35
2576.14751	1212.95
2578.83819	1227.95
2581.52719	1220.65
2584.21451	1222.35
2586.90015	1212.95
2589.58411	1207.05
2592.2664	1209.65
2594.94701	1207.65
2597.62594	1211.35
2600.30321	1208.25
2602.9788	1198.85
2605.65273	1203.15
2608.32498	1195.95
2610.99557	1200.45
2613.66449	1195.85
2616.33175	1191.85
2618.99734	1194.05
2621.66128	1191.15
2624.32355	1187.45
2626.98416	1189.45
2629.64311	1189.15
2632.30041	1195.05
2634.95605	1183.65
2637.61004	1187.65
2640.26238	1187.65
2642.91306	1181.65
2645.56209	1179.85
2648.20948	1182.45
2650.85521	1179.95
2653.4993	1181.75
2656.14175	1184.45
2658.78255	1182.05
2661.42171	1181.75
2664.05923	1177.55
2666.6951	1190.15
2669.32934	1186.75
2671.96194	1185.45
2674.59291	1182.85
2677.22224	1187.35
2679.84993	1193.45
2682.476	1188.65
2685.10043	1187.85
2687.72324	1179.55
2690.34441	1181.85
2692.96396	1183.75
2695.58188	1186.65
2698.19818	1188.55
2700.81285	1190.35
2703.4259	1181.85
2706.03733	1184.55
2708.64714	1185.65
2711.25533	1190.55
2713.86191	1192.85
2716.46687	1185.05
2719.07021	1186.95
2721.67194	1185.75
2724.27206	1198.95
2726.87057	1197.35
2729.46747	1189.45
2732.06276	1205.95
2734.65644	1195.75
2737.24852	1191.45
2739.83899	1195.95
2742.42786	1193.15
2745.01513	1186.25
2747.60079	1197.15
2750.18486	1190.05
2752.76733	1190.15
2755.3482	1189.55
2757.92747	1187.65
2760.50515	1182.85
2763.08123	1177.95
2765.65573	1181.75
2768.22863	1178.45
2770.79994	1178.75
2773.36967	1183.05
2775.9378	1184.25
2778.50435	1181.85
2781.06932	1178.15
2783.6327	1178.15
2786.1945	1178.65
2788.75471	1183.45
2791.31335	1185.05
2793.87041	1183.75
2796.42589	1185.15
2798.97979	1182.75
2801.53212	1185.55
2804.08288	1186.75
2806.63206	1196.65
2809.17967	1195.55
2811.72571	1193.25
2814.27018	1194.15
2816.81308	1181.75
2819.35442	1191.75
2821.89419	1196.05
2824.43239	1196.15
2826.96904	1191.15
2829.50412	1191.45
2832.03763	1191.75
2834.56959	1191.05
2837.1	1202.45
2839.62884	1200.05
2842.15613	1201.55
2844.68186	1194.55
2847.20604	1203.25
2849.72867	1205.45
2852.24974	1203.15
2854.76927	1208.75
2857.28724	1202.45
2859.80367	1208.95
2862.31855	1206.35
2864.83189	1205.35
2867.34368	1212.25
2869.85393	1208.85
2872.36264	1219.45
2874.8698	1225.05
2877.37543	1232.85
2879.87952	1238.05
2882.38207	1252.15
2884.88308	1254.95
2887.38256	1267.65
2889.88051	1276.85
2892.37692	1285.55
2894.8718	1292.55
2897.36515	1309.95
2899.85698	1321.95
2902.34727	1338.55
2904.83604	1346.15
2907.32328	1362.55
2909.809	1365.65
2912.29319	1387.85
2914.77587	1386.15
2917.25702	1405.95
2919.73665	1405.25
2922.21476	1425.55
2924.69136	1431.45
2927.16644	1460.25
2929.64	1458.95
2932.11205	1476.15
2934.58258	1488.65
2937.05161	1506.65
2939.51912	1518.85
2941.98513	1529.75
2944.44962	1543.35
2946.91261	1564.35
2949.37409	1566.85
2951.83407	1581.45
2954.29254	1584.35
2956.74951	1579.85
2959.20498	1549.25
2961.65895	1539.95
2964.11142	1514.25
2966.56239	1485.95
2969.01186	1453.75
2971.45984	1428.55
2973.90632	1411.55
2976.35131	1391.05
2978.7948	1382.65
2981.23681	1367.95
2983.67732	1351.45
2986.11635	1357.85
2988.55388	1340.65
2990.98993	1340.95
2993.4245	1340.35
2995.85758	1337.95
2998.28917	1335.35
3000.71928	1337.15
3003.14791	1347.75
3005.57506	1342.05
3008.00073	1350.55
3010.42493	1383.55
3012.84764	1352.45
3015.26888	1351.05
3017.68865	1346.25
3020.10694	1336.65
3022.52376	1333.65
3024.9391	1337.85
3027.35298	1335.15
3029.76539	1321.35
3032.17632	1321.55
3034.5858	1314.15
3036.9938	1308.45
3039.40034	1298.75
3041.80542	1316.25
3044.20903	1302.35
3046.61118	1297.05
3049.01187	1284.35
3051.4111	1287.75
3053.80888	1285.95
3056.20519	1290.85
3058.60005	1288.25
3060.99345	1284.55
3063.3854	1289.15
3065.7759	1284.45
3068.16494	1287.65
3070.55254	1287.35
3072.93868	1282.05
3075.32338	1291.55
3077.70662	1295.75
3080.08842	1299.65
3082.46878	1298.95
3084.84769	1316.65
3087.22515	1311.25
3089.60118	1322.35
3091.97576	1327.55
3094.3489	1337.85
3096.72061	1340.05
3099.09087	1349.45
3101.4597	1359.05
3103.82709	1361.55
3106.19305	1372.15
3108.55757	1379.85
3110.92066	1382.85
3113.28232	1387.65
3115.64255	1397.75
3118.00134	1404.95
3120.35871	1413.05
3122.71466	1420.65
3125.06917	1421.35
3127.42226	1424.35
3129.77393	1439.75
3132.12417	1446.55
3134.47299	1445.85
3136.82039	1459.75
3139.16636	1474.15
3141.51092	1482.65
3143.85406	1488.85
3146.19579	1496.75
3148.53609	1501.95
3150.87499	1516.15
3153.21246	1530.35
3155.54853	1541.65
3157.88318	1550.25
3160.21642	1559.85
3162.54826	1567.75
3164.87868	1575.25
3167.2077	1590.35
3169.5353	1605.35
3171.86151	1609.45
3174.18631	1624.75
3176.5097	1628.45
3178.83169	1642.15
3181.15228	1651.45
3183.47147	1661.45
3185.78926	1653.95
3188.10565	1671.25
3190.42065	1666.55
3192.73424	1682.55
3195.04645	1696.25
3197.35725	1698.25
3199.66667	1704.85
3201.97469	1702.95
3204.28132	1711.55
3206.58656	1721.95
3208.8904	1730.25
3211.19287	1738.25
3213.49394	1754.25
3215.79363	1754.05
3218.09193	1756.05
3220.38884	1759.85
3222.68438	1758.45
3224.97853	1779.05
3227.2713	1779.75
3229.56269	1779.95
3231.8527	1786.35
3234.14133	1787.85
3236.42858	1781.75
3238.71446	1794.85
3240.99896	1789.15
3243.28209	1782.95
3245.56384	1787.85
3247.84423	1787.55
3250.12324	1783.65
3252.40088	1792.05
3254.67715	1795.45
3256.95205	1794.05
3259.22558	1811.95
3261.49775	1805.55
3263.76855	1805.95
3266.03799	1808.25
3268.30606	1800.35
3270.57277	1804.05
3272.83812	1807.05
3275.10211	1805.25
3277.36474	1805.75
3279.62601	1805.35
3281.88593	1795.95
3284.14448	1798.25
3286.40168	1789.95
3288.65753	1793.25
3290.91202	1808.75
3293.16516	1797.45
3295.41695	1793.25
3297.66738	1790.55
3299.91647	1786.05
3302.16421	1776.25
3304.4106	1771.55
3306.65564	1762.15
3308.89933	1746.65
3311.14169	1727.35
3313.38269	1719.85
3315.62236	1712.85
3317.86068	1707.35
3320.09766	1694.75
3322.3333	1677.55
3324.5676	1671.95
3326.80056	1648.65
3329.03219	1643.65
3331.26248	1.45
3333.49143	-1.35
3335.71905	-0.85
