Data from AgNPs_UA_5uM_CRN_500uM_AS_RamanShift__18__13-18-33-840.txt Node

Date: Wed Aug 17 13:18:33 BST 2022
User: TCL
Spectrometer: QEP01345
Trigger mode: 4
Integration Time (sec): 7.000000E0
Scans to average: 10
Electric dark correction enabled: true
Nonlinearity correction enabled: false
Boxcar width: 0
XAxis mode: Raman Shifts
Number of Pixels in Spectrum: 1044
>>>>>Begin Spectral Data<<<<<
46.04893	0.75
50.45542	-0.15
54.85868	0.45
59.25871	0.75
63.6555	40.85
68.04907	45.85
72.43941	47.85
76.82654	55.25
81.21044	57.85
85.59113	62.05
89.96862	65.55
94.34289	67.55
98.71396	69.35
103.08183	69.55
107.4465	73.25
111.80798	73.05
116.16626	73.85
120.52136	74.05
124.87327	71.25
129.222	71.25
133.56755	74.75
137.90993	68.75
142.24913	75.95
146.58517	70.55
150.91804	72.05
155.24774	80.05
159.57429	83.75
163.89768	97.85
168.21792	106.85
172.53501	134.75
176.84895	166.85
181.15975	210.55
185.46741	272.95
189.77193	372.05
194.07331	504.65
198.37157	666.85
202.6667	851.85
206.9587	1043.55
211.24758	1256.35
215.53334	1454.45
219.81599	1653.85
224.09553	1850.65
228.37195	2025.35
232.64527	2201.15
236.91549	2350.35
241.18261	2460.25
245.44663	2522.15
249.70755	2547.35
253.96539	2545.25
258.22014	2506.65
262.4718	2465.75
266.72039	2408.85
270.96589	2322.85
275.20832	2224.85
279.44768	2134.35
283.68397	2037.15
287.91719	1953.35
292.14735	1903.05
296.37445	1885.65
300.59849	1895.55
304.81948	1931.55
309.03742	1949.75
313.25231	1944.45
317.46415	1886.65
321.67296	1782.95
325.87872	1703.95
330.08145	1683.45
334.28114	1688.85
338.47781	1711.15
342.67145	1753.15
346.86207	1794.05
351.04966	1871.25
355.23424	1941.25
359.4158	1974.65
363.59435	2015.45
367.76989	1996.45
371.94243	1985.05
376.11196	1967.65
380.27849	1959.45
384.44203	1942.95
388.60257	1917.35
392.76012	1909.15
396.91468	1918.45
401.06626	1950.65
405.21485	1967.15
409.36047	1933.95
413.50311	1894.25
417.64277	1843.65
421.77947	1816.75
425.9132	1814.25
430.04396	1831.05
434.17176	1850.15
438.2966	1873.45
442.41849	1921.75
446.53742	1955.05
450.6534	1990.65
454.76644	2010.35
458.87653	2032.35
462.98368	2034.45
467.08789	2017.95
471.18916	1984.15
475.2875	1962.05
479.38291	1935.55
483.4754	1901.65
487.56496	1897.35
491.6516	1891.25
495.73531	1895.05
499.81612	1903.95
503.89401	1904.35
507.96899	1919.35
512.04106	1925.45
516.11023	1924.75
520.1765	1931.55
524.23987	1933.45
528.30034	1912.55
532.35792	1912.85
536.41261	1882.55
540.46441	1867.75
544.51333	1862.15
548.55936	1864.95
552.60252	1886.25
556.64279	1903.15
560.6802	1920.95
564.71473	1969.95
568.7464	2042.55
572.7752	2088.05
576.80114	2029.15
580.82422	1972.25
584.84444	1925.15
588.86181	1908.85
592.87633	1915.35
596.888	1939.65
600.89682	1997.55
604.9028	2164.45
608.90594	2532.45
612.90624	2979.85
616.90371	2851.65
620.89834	2326.45
624.89015	2070.45
628.87913	2050.35
632.86528	2087.35
636.84862	2152.05
640.82913	2185.75
644.80683	2186.15
648.78172	2195.05
652.75379	2217.55
656.72306	2238.85
660.68952	2290.75
664.65319	2299.45
668.61405	2344.55
672.57211	2550.95
676.52738	2833.85
680.47986	3083.05
684.42955	3114.55
688.37646	2911.85
692.32058	2665.45
696.26192	2502.65
700.20048	2435.75
704.13626	2372.55
708.06928	2309.35
711.99952	2226.45
715.927	2173.15
719.85171	2159.35
723.77365	2169.95
727.69284	2191.65
731.60928	2183.65
735.52295	2153.15
739.43388	2135.75
743.34206	2125.15
747.24749	2141.65
751.15017	2184.45
755.05012	2236.95
758.94733	2306.85
762.8418	2423.55
766.73354	2576.25
770.62254	2676.55
774.50882	2695.55
778.39237	2600.35
782.27321	2384.05
786.15132	2197.05
790.02671	2074.45
793.89938	2018.35
797.76935	2003.65
801.6366	1994.25
805.50115	1996.75
809.36299	1994.95
813.22213	1972.45
817.07857	1937.75
820.93231	1936.05
824.78336	1936.55
828.63172	1939.45
832.47738	1938.55
836.32036	1925.85
840.16066	1930.15
843.99827	1910.55
847.8332	1931.05
851.66546	1933.35
855.49504	1953.05
859.32195	1984.25
863.1462	2038.35
866.96777	2050.05
870.78668	2048.45
874.60293	2034.85
878.41652	2011.45
882.22745	2008.25
886.03573	1988.05
889.84136	1964.25
893.64433	1953.75
897.44466	1962.55
901.24235	1955.45
905.0374	1944.15
908.8298	1937.75
912.61957	1926.95
916.40671	1941.55
920.19121	1960.95
923.97308	2000.45
927.75233	2056.25
931.52895	2108.95
935.30295	2104.95
939.07433	2083.15
942.84309	2025.35
946.60924	1950.25
950.37278	1914.15
954.13371	1888.45
957.89203	1889.55
961.64774	1898.85
965.40086	1903.45
969.15137	1888.75
972.89929	1883.05
976.64461	1864.15
980.38733	1847.05
984.12747	1847.05
987.86502	1846.75
991.59999	1837.45
995.33237	1833.75
999.06217	1850.75
1002.78939	1854.75
1006.51404	1872.75
1010.23611	1886.25
1013.95561	1893.65
1017.67255	1886.55
1021.38692	1889.85
1025.09872	1883.95
1028.80796	1877.65
1032.51465	1908.95
1036.21877	1923.85
1039.92035	1951.95
1043.61937	1983.75
1047.31584	2015.45
1051.00976	2040.85
1054.70114	2026.05
1058.38998	2016.05
1062.07627	1975.75
1065.76003	1947.55
1069.44126	1915.85
1073.11995	1890.85
1076.79611	1900.05
1080.46974	1905.05
1084.14085	1927.25
1087.80943	1953.65
1091.47549	1965.55
1095.13903	1936.05
1098.80005	1908.15
1102.45857	1883.95
1106.11456	1885.05
1109.76805	1900.75
1113.41903	1931.25
1117.06751	1973.65
1120.71348	2041.55
1124.35696	2110.15
1127.99793	2140.25
1131.63641	2120.65
1135.2724	2061.15
1138.90589	2007.65
1142.5369	1959.15
1146.16542	1933.65
1149.79145	1912.45
1153.415	1898.25
1157.03607	1882.25
1160.65467	1887.45
1164.27079	1913.65
1167.88443	1949.35
1171.49561	2018.15
1175.10432	2126.65
1178.71056	2291.35
1182.31434	2437.15
1185.91565	2460.75
1189.51451	2385.45
1193.11091	2288.15
1196.70485	2179.45
1200.29634	2113.25
1203.88538	2067.65
1207.47197	2002.95
1211.05612	1935.75
1214.63782	1914.35
1218.21708	1900.45
1221.79391	1905.55
1225.36829	1913.75
1228.94024	1912.05
1232.50976	1934.75
1236.07685	1940.55
1239.6415	1967.75
1243.20374	1987.85
1246.76355	2009.15
1250.32093	2017.95
1253.8759	2044.45
1257.42845	2065.95
1260.97859	2084.45
1264.52631	2099.95
1268.07163	2124.35
1271.61453	2117.85
1275.15503	2118.35
1278.69312	2103.95
1282.22882	2091.15
1285.76211	2112.45
1289.29301	2149.95
1292.82151	2199.05
1296.34761	2242.75
1299.87133	2328.05
1303.39266	2492.45
1306.9116	2717.55
1310.42815	2939.35
1313.94233	2959.45
1317.45412	2812.35
1320.96354	2603.65
1324.47058	2429.95
1327.97525	2307.45
1331.47754	2242.75
1334.97747	2228.65
1338.47502	2265.05
1341.97022	2345.05
1345.46305	2496.75
1348.95352	2698.45
1352.44163	2904.65
1355.92738	3199.85
1359.41078	3600.65
1362.89183	3924.15
1366.37053	3765.95
1369.84688	3268.65
1373.32088	2841.15
1376.79254	2598.55
1380.26186	2425.15
1383.72883	2306.25
1387.19347	2185.95
1390.65578	2106.05
1394.11575	2049.45
1397.57339	2033.55
1401.0287	2041.35
1404.48168	2068.95
1407.93234	2119.95
1411.38068	2194.85
1414.82669	2264.35
1418.27039	2359.85
1421.71177	2422.65
1425.15083	2388.25
1428.58758	2362.15
1432.02203	2306.75
1435.45416	2272.85
1438.88399	2213.35
1442.31151	2141.45
1445.73673	2110.15
1449.15965	2102.55
1452.58027	2087.25
1455.9986	2079.25
1459.41463	2063.55
1462.82837	2088.65
1466.23982	2099.05
1469.64898	2098.05
1473.05586	2090.65
1476.46045	2074.55
1479.86276	2049.65
1483.26279	2029.85
1486.66054	2049.45
1490.05602	2079.85
1493.44922	2160.35
1496.84016	2294.35
1500.22882	2517.05
1503.61521	2847.95
1506.99934	3197.15
1510.38121	3405.15
1513.76081	3365.65
1517.13816	3041.25
1520.51324	2692.35
1523.88607	2371.55
1527.25665	2197.65
1530.62498	2107.05
1533.99105	2039.15
1537.35488	2010.45
1540.71647	2012.05
1544.07581	1998.25
1547.4329	2007.05
1550.78776	2030.25
1554.14038	2039.65
1557.49077	2064.75
1560.83892	2091.25
1564.18484	2151.15
1567.52853	2216.35
1570.86999	2290.75
1574.20922	2330.45
1577.54624	2292.75
1580.88103	2198.25
1584.2136	2071.85
1587.54395	2019.15
1590.87208	1992.65
1594.19801	2023.25
1597.52172	2072.45
1600.84321	2077.85
1604.16251	2024.95
1607.47959	1989.05
1610.79447	1930.95
1614.10715	1876.85
1617.41763	1839.55
1620.7259	1805.15
1624.03199	1791.15
1627.33587	1786.05
1630.63757	1796.65
1633.93707	1837.85
1637.23439	1888.45
1640.52951	1989.15
1643.82246	2152.55
1647.11321	2359.55
1650.40179	2499.35
1653.68819	2465.05
1656.97241	2271.95
1660.25446	2082.65
1663.53433	1958.05
1666.81203	1902.15
1670.08756	1896.45
1673.36092	1897.95
1676.63211	1905.45
1679.90115	1904.95
1683.16801	1886.35
1686.43272	1869.35
1689.69527	1843.85
1692.95567	1811.65
1696.2139	1782.35
1699.46999	1763.65
1702.72392	1731.15
1705.97571	1704.95
1709.22535	1671.45
1712.47284	1671.25
1715.71819	1660.85
1718.96139	1651.75
1722.20246	1648.15
1725.44139	1655.85
1728.67818	1675.55
1731.91284	1691.95
1735.14537	1711.55
1738.37576	1744.45
1741.60403	1786.45
1744.83017	1845.95
1748.05418	1948.05
1751.27607	2046.95
1754.49584	2140.25
1757.71349	2153.55
1760.92903	2112.05
1764.14244	2004.35
1767.35375	1907.65
1770.56294	1796.15
1773.77002	1705.85
1776.97499	1636.95
1780.17785	1594.55
1783.37861	1556.25
1786.57727	1520.75
1789.77382	1478.85
1792.96828	1435.45
1796.16064	1404.35
1799.3509	1377.75
1802.53907	1365.75
1805.72514	1355.15
1808.90913	1336.55
1812.09102	1321.35
1815.27083	1310.75
1818.44856	1319.75
1821.6242	1297.05
1824.79776	1300.95
1827.96924	1288.35
1831.13864	1284.55
1834.30597	1277.35
1837.47122	1283.15
1840.6344	1267.45
1843.7955	1272.15
1846.95454	1256.25
1850.11151	1257.15
1853.26642	1246.05
1856.41926	1244.05
1859.57004	1243.15
1862.71876	1243.85
1865.86542	1236.15
1869.01003	1235.65
1872.15258	1240.15
1875.29308	1237.75
1878.43152	1235.05
1881.56792	1225.05
1884.70227	1233.35
1887.83457	1233.65
1890.96482	1228.35
1894.09304	1221.85
1897.21921	1220.65
1900.34335	1215.95
1903.46544	1216.25
1906.58551	1216.15
1909.70353	1217.85
1912.81953	1224.05
1915.93349	1216.65
1919.04543	1216.95
1922.15534	1211.95
1925.26322	1209.65
1928.36908	1197.85
1931.47292	1204.35
1934.57473	1204.75
1937.67453	1194.55
1940.77232	1182.55
1943.86808	1185.85
1946.96184	1187.85
1950.05358	1172.75
1953.14331	1174.35
1956.23103	1170.55
1959.31675	1172.85
1962.40046	1162.15
1965.48217	1167.65
1968.56188	1154.15
1971.63959	1154.65
1974.7153	1157.85
1977.78901	1144.25
1980.86073	1141.75
1983.93046	1134.55
1986.99819	1142.95
1990.06394	1135.05
1993.1277	1125.05
1996.18947	1120.45
1999.24925	1120.55
2002.30706	1117.95
2005.36288	1118.05
2008.41672	1110.55
2011.46859	1107.65
2014.51848	1100.25
2017.56639	1094.95
2020.61233	1105.15
2023.6563	1090.25
2026.6983	1081.35
2029.73833	1088.95
2032.7764	1090.45
2035.8125	1080.45
2038.84664	1072.85
2041.87881	1073.25
2044.90903	1075.45
2047.93729	1068.35
2050.96359	1070.15
2053.98794	1064.35
2057.01034	1070.85
2060.03078	1068.25
2063.04927	1068.05
2066.06582	1063.45
2069.08042	1058.65
2072.09307	1056.85
2075.10378	1051.55
2078.11255	1054.95
2081.11938	1059.65
2084.12426	1058.15
2087.12722	1059.05
2090.12824	1069.35
2093.12732	1072.95
2096.12447	1064.55
2099.11969	1082.15
2102.11299	1081.35
2105.10435	1084.55
2108.09379	1089.05
2111.08131	1087.55
2114.0669	1089.75
2117.05057	1079.75
2120.03233	1074.15
2123.01216	1078.05
2125.99008	1076.45
2128.96609	1070.35
2131.94018	1067.15
2134.91236	1070.15
2137.88263	1059.75
2140.851	1057.95
2143.81746	1067.95
2146.78201	1066.15
2149.74466	1064.15
2152.7054	1065.65
2155.66425	1058.15
2158.6212	1067.35
2161.57625	1055.05
2164.52941	1046.35
2167.48067	1058.55
2170.43004	1047.05
2173.37752	1044.95
2176.32311	1048.45
2179.26681	1050.25
2182.20863	1039.65
2185.14856	1052.05
2188.08661	1048.25
2191.02278	1048.55
2193.95707	1047.55
2196.88948	1042.25
2199.82001	1042.95
2202.74867	1036.25
2205.67545	1036.25
2208.60037	1037.45
2211.52341	1029.65
2214.44458	1033.15
2217.36388	1019.55
2220.28132	1025.45
2223.1969	1014.95
2226.11061	1013.05
2229.02246	1014.05
2231.93245	1016.15
2234.84058	1014.35
2237.74686	1009.65
2240.65128	1001.55
2243.55385	1008.85
2246.45456	1005.35
2249.35343	1003.95
2252.25044	1004.75
2255.14561	990.65
2258.03893	1004.65
2260.93041	989.95
2263.82004	990.25
2266.70783	990.55
2269.59378	983.65
2272.4779	986.35
2275.36017	978.05
2278.24061	975.45
2281.11922	968.05
2283.996	979.35
2286.87094	976.35
2289.74405	968.95
2292.61534	970.75
2295.4848	962.15
2298.35243	966.05
2301.21824	961.55
2304.08223	967.05
2306.94439	957.45
2309.80474	954.55
2312.66327	961.55
2315.51999	960.75
2318.37489	956.75
2321.22797	944.85
2324.07925	951.15
2326.92871	949.65
2329.77637	945.75
2332.62222	947.35
2335.46626	942.05
2338.3085	944.25
2341.14893	949.75
2343.98756	941.85
2346.8244	939.95
2349.65943	942.85
2352.49267	943.05
2355.32411	942.15
2358.15376	940.85
2360.98161	944.25
2363.80768	945.15
2366.63195	945.65
2369.45444	937.65
2372.27514	935.65
2375.09405	939.95
2377.91118	941.45
2380.72652	944.15
2383.54009	936.25
2386.35187	932.55
2389.16188	928.75
2391.97011	915.95
2394.77657	919.65
2397.58125	924.65
2400.38416	917.25
2403.18529	920.65
2405.98466	912.65
2408.78226	910.75
2411.57809	908.65
2414.37216	909.25
2417.16446	909.55
2419.955	903.95
2422.74378	905.45
2425.5308	898.55
2428.31606	902.15
2431.09956	909.55
2433.88131	905.65
2436.6613	908.85
2439.43954	898.45
2442.21603	902.85
2444.99077	895.05
2447.76377	901.05
2450.53501	894.65
2453.30451	890.65
2456.07226	892.75
2458.83827	885.05
2461.60254	894.85
2464.36507	888.45
2467.12586	889.75
2469.88492	883.45
2472.64224	884.65
2475.39782	891.65
2478.15167	892.05
2480.90379	880.45
2483.65417	888.65
2486.40283	887.35
2489.14976	897.05
2491.89497	883.35
2494.63845	895.15
2497.3802	888.55
2500.12024	880.85
2502.85855	881.75
2505.59514	883.35
2508.33002	883.75
2511.06318	869.95
2513.79462	867.95
2516.52435	870.15
2519.25237	863.95
2521.97867	857.45
2524.70327	865.05
2527.42616	866.65
2530.14734	855.75
2532.86681	860.05
2535.58458	853.85
2538.30065	851.85
2541.01501	857.65
2543.72768	858.55
2546.43864	852.25
2549.14791	845.05
2551.85548	850.05
2554.56136	849.65
2557.26554	845.35
2559.96803	846.75
2562.66883	851.35
2565.36794	834.05
2568.06536	840.25
2570.7611	838.15
2573.45514	830.55
2576.14751	839.05
2578.83819	835.75
2581.52719	827.55
2584.21451	830.15
2586.90015	835.05
2589.58411	824.65
2592.2664	821.65
2594.94701	823.15
2597.62594	819.55
2600.30321	826.15
2602.9788	823.75
2605.65273	820.45
2608.32498	815.35
2610.99557	819.75
2613.66449	818.25
2616.33175	812.65
2618.99734	812.65
2621.66128	815.05
2624.32355	813.85
2626.98416	810.05
2629.64311	807.35
2632.30041	804.65
2634.95605	809.55
2637.61004	808.25
2640.26238	804.15
2642.91306	802.05
2645.56209	805.05
2648.20948	809.85
2650.85521	808.65
2653.4993	810.85
2656.14175	799.45
2658.78255	809.65
2661.42171	810.15
2664.05923	806.05
2666.6951	810.45
2669.32934	803.85
2671.96194	801.45
2674.59291	810.95
2677.22224	804.15
2679.84993	805.65
2682.476	802.05
2685.10043	808.65
2687.72324	806.75
2690.34441	806.65
2692.96396	807.65
2695.58188	810.55
2698.19818	808.95
2700.81285	807.95
2703.4259	800.25
2706.03733	803.75
2708.64714	809.85
2711.25533	810.55
2713.86191	807.95
2716.46687	806.75
2719.07021	808.75
2721.67194	813.55
2724.27206	810.85
2726.87057	817.65
2729.46747	811.45
2732.06276	807.55
2734.65644	814.15
2737.24852	806.15
2739.83899	809.55
2742.42786	805.75
2745.01513	801.65
2747.60079	804.05
2750.18486	804.25
2752.76733	808.35
2755.3482	804.85
2757.92747	800.45
2760.50515	799.65
2763.08123	800.85
2765.65573	799.85
2768.22863	800.65
2770.79994	794.65
2773.36967	798.45
2775.9378	798.15
2778.50435	801.15
2781.06932	794.85
2783.6327	807.25
2786.1945	805.55
2788.75471	806.75
2791.31335	809.05
2793.87041	814.75
2796.42589	823.55
2798.97979	815.45
2801.53212	822.55
2804.08288	827.65
2806.63206	823.85
2809.17967	836.25
2811.72571	836.35
2814.27018	842.75
2816.81308	841.85
2819.35442	848.25
2821.89419	853.55
2824.43239	848.45
2826.96904	854.55
2829.50412	860.35
2832.03763	851.65
2834.56959	852.55
2837.1	862.45
2839.62884	863.95
2842.15613	875.15
2844.68186	874.65
2847.20604	872.75
2849.72867	882.55
2852.24974	878.85
2854.76927	879.75
2857.28724	884.75
2859.80367	883.55
2862.31855	888.15
2864.83189	888.35
2867.34368	894.75
2869.85393	905.95
2872.36264	914.45
2874.8698	924.05
2877.37543	936.85
2879.87952	943.15
2882.38207	955.25
2884.88308	971.95
2887.38256	979.05
2889.88051	996.35
2892.37692	1002.05
2894.8718	1014.05
2897.36515	1031.25
2899.85698	1050.75
2902.34727	1064.95
2904.83604	1076.15
2907.32328	1097.55
2909.809	1117.65
2912.29319	1130.05
2914.77587	1147.95
2917.25702	1162.15
2919.73665	1182.65
2922.21476	1195.95
2924.69136	1207.55
2927.16644	1233.85
2929.64	1235.55
2932.11205	1249.05
2934.58258	1264.65
2937.05161	1269.75
2939.51912	1277.75
2941.98513	1289.75
2944.44962	1291.85
2946.91261	1308.75
2949.37409	1304.25
2951.83407	1305.05
2954.29254	1304.85
2956.74951	1288.25
2959.20498	1261.25
2961.65895	1237.85
2964.11142	1204.45
2966.56239	1182.45
2969.01186	1150.65
2971.45984	1128.95
2973.90632	1097.45
2976.35131	1081.45
2978.7948	1061.15
2981.23681	1048.75
2983.67732	1045.95
2986.11635	1037.15
2988.55388	1026.25
2990.98993	1030.55
2993.4245	1010.85
2995.85758	1016.55
2998.28917	1011.85
3000.71928	1019.05
3003.14791	1023.15
3005.57506	1013.15
3008.00073	1017.55
3010.42493	1052.85
3012.84764	1024.95
3015.26888	1026.95
3017.68865	1020.75
3020.10694	1018.75
3022.52376	1002.75
3024.9391	1010.35
3027.35298	997.45
3029.76539	982.55
3032.17632	975.35
3034.5858	969.35
3036.9938	957.65
3039.40034	963.65
3041.80542	958.15
3044.20903	947.75
3046.61118	952.25
3049.01187	942.75
3051.4111	940.65
3053.80888	938.35
3056.20519	939.85
3058.60005	940.55
3060.99345	937.85
3063.3854	939.35
3065.7759	932.55
3068.16494	935.45
3070.55254	936.15
3072.93868	936.05
3075.32338	943.25
3077.70662	941.95
3080.08842	947.65
3082.46878	953.25
3084.84769	958.25
3087.22515	965.15
3089.60118	961.55
3091.97576	972.45
3094.3489	978.35
3096.72061	991.55
3099.09087	994.35
3101.4597	999.45
3103.82709	1014.75
3106.19305	1026.45
3108.55757	1026.05
3110.92066	1037.35
3113.28232	1046.05
3115.64255	1041.65
3118.00134	1043.05
3120.35871	1057.25
3122.71466	1059.35
3125.06917	1070.15
3127.42226	1075.85
3129.77393	1091.85
3132.12417	1096.85
3134.47299	1107.45
3136.82039	1111.75
3139.16636	1123.05
3141.51092	1139.25
3143.85406	1148.55
3146.19579	1152.65
3148.53609	1157.85
3150.87499	1168.55
3153.21246	1190.65
3155.54853	1190.85
3157.88318	1204.35
3160.21642	1214.35
3162.54826	1224.65
3164.87868	1228.55
3167.2077	1245.55
3169.5353	1254.75
3171.86151	1257.85
3174.18631	1270.45
3176.5097	1283.35
3178.83169	1298.45
3181.15228	1299.15
3183.47147	1308.35
3185.78926	1310.85
3188.10565	1314.35
3190.42065	1328.15
3192.73424	1332.85
3195.04645	1343.15
3197.35725	1347.85
3199.66667	1359.45
3201.97469	1369.25
3204.28132	1371.95
3206.58656	1385.55
3208.8904	1395.15
3211.19287	1404.85
3213.49394	1402.15
3215.79363	1409.25
3218.09193	1416.05
3220.38884	1419.85
3222.68438	1432.05
3224.97853	1432.85
3227.2713	1437.55
3229.56269	1444.95
3231.8527	1455.25
3234.14133	1444.85
3236.42858	1440.45
3238.71446	1457.25
3240.99896	1454.55
3243.28209	1454.55
3245.56384	1452.75
3247.84423	1446.65
3250.12324	1450.45
3252.40088	1453.15
3254.67715	1456.75
3256.95205	1459.35
3259.22558	1461.65
3261.49775	1473.85
3263.76855	1473.35
3266.03799	1475.25
3268.30606	1478.95
3270.57277	1476.05
3272.83812	1477.45
3275.10211	1464.15
3277.36474	1475.65
3279.62601	1469.05
3281.88593	1466.45
3284.14448	1475.75
3286.40168	1470.65
3288.65753	1466.85
3290.91202	1473.15
3293.16516	1470.05
3295.41695	1483.55
3297.66738	1466.05
3299.91647	1458.95
3302.16421	1461.05
3304.4106	1446.25
3306.65564	1444.55
3308.89933	1435.15
3311.14169	1422.05
3313.38269	1416.75
3315.62236	1412.85
3317.86068	1408.45
3320.09766	1394.95
3322.3333	1383.65
3324.5676	1372.75
3326.80056	1368.45
3329.03219	1351.75
3331.26248	1.75
3333.49143	-1.45
3335.71905	-1.85
