Data from AgNPs_UA_5uM_CRN_500uM_AS_RamanShift__24__13-25-33-847.txt Node

Date: Wed Aug 17 13:25:33 BST 2022
User: TCL
Spectrometer: QEP01345
Trigger mode: 4
Integration Time (sec): 7.000000E0
Scans to average: 10
Electric dark correction enabled: true
Nonlinearity correction enabled: false
Boxcar width: 0
XAxis mode: Raman Shifts
Number of Pixels in Spectrum: 1044
>>>>>Begin Spectral Data<<<<<
46.04893	0.05
50.45542	-0.55
54.85868	-0.85
59.25871	-0.05
63.6555	65.55
68.04907	69.55
72.43941	69.65
76.82654	74.65
81.21044	80.25
85.59113	85.45
89.96862	85.75
94.34289	92.95
98.71396	95.45
103.08183	97.75
107.4465	101.95
111.80798	100.95
116.16626	99.25
120.52136	107.25
124.87327	112.05
129.222	118.45
133.56755	126.55
137.90993	136.15
142.24913	145.75
146.58517	155.05
150.91804	176.55
155.24774	213.75
159.57429	255.25
163.89768	329.55
168.21792	424.85
172.53501	575.85
176.84895	792.15
181.15975	1110.75
185.46741	1559.15
189.77193	2156.15
194.07331	2915.35
198.37157	3803.55
202.6667	4780.55
206.9587	5839.25
211.24758	6980.85
215.53334	8247.55
219.81599	9711.35
224.09553	11415.05
228.37195	13209.85
232.64527	14974.05
236.91549	16511.35
241.18261	17618.85
245.44663	18297.95
249.70755	18739.75
253.96539	19251.45
258.22014	19585.05
262.4718	19546.65
266.72039	19121.85
270.96589	18165.75
275.20832	16927.45
279.44768	15753.25
283.68397	14856.75
287.91719	14470.25
292.14735	14780.55
296.37445	15938.45
300.59849	17904.15
304.81948	20323.75
309.03742	22405.75
313.25231	22905.85
317.46415	21074.65
321.67296	17819.75
325.87872	15179.65
330.08145	14010.85
334.28114	14100.85
338.47781	14775.55
342.67145	15716.25
346.86207	17300.85
351.04966	19825.35
355.23424	22601.45
359.4158	24292.65
363.59435	24565.95
367.76989	23799.35
371.94243	22656.95
376.11196	21545.95
380.27849	20630.35
384.44203	19683.15
388.60257	18770.55
392.76012	18272.85
396.91468	18323.45
401.06626	18913.65
405.21485	19101.35
409.36047	17858.95
413.50311	15530.55
417.64277	13317.95
421.77947	11963.35
425.9132	11347.15
430.04396	11123.55
434.17176	11129.35
438.2966	11505.05
442.41849	12042.15
446.53742	12595.05
450.6534	12917.85
454.76644	12923.45
458.87653	12597.65
462.98368	12201.35
467.08789	11786.45
471.18916	11297.75
475.2875	10700.75
479.38291	10154.35
483.4754	9792.65
487.56496	9570.95
491.6516	9423.05
495.73531	9429.35
499.81612	9602.15
503.89401	10001.95
507.96899	10508.85
512.04106	11160.75
516.11023	11784.25
520.1765	12261.05
524.23987	12214.45
528.30034	11855.55
532.35792	11474.65
536.41261	10999.75
540.46441	10391.85
544.51333	9995.55
548.55936	10055.75
552.60252	10550.15
556.64279	11214.55
560.6802	11936.65
564.71473	13542.45
568.7464	15820.95
572.7752	15854.85
576.80114	13044.15
580.82422	10611.55
584.84444	9488.45
588.86181	9125.25
592.87633	9195.85
596.888	9754.05
600.89682	11601.65
604.9028	17417.55
608.90594	31525.35
612.90624	47929.55
616.90371	42082.05
620.89834	21601.95
624.89015	12963.15
628.87913	11663.05
632.86528	12618.25
636.84862	13424.65
640.82913	12426.55
644.80683	10487.45
648.78172	9389.35
652.75379	9697.55
656.72306	11291.85
660.68952	12800.05
664.65319	11714.05
668.61405	9745.85
672.57211	9172.45
676.52738	9435.85
680.47986	9497.05
684.42955	9201.45
688.37646	8908.55
692.32058	8878.65
696.26192	9080.65
700.20048	9390.85
704.13626	9455.95
708.06928	9138.85
711.99952	8781.95
715.927	8742.55
719.85171	8992.25
723.77365	9183.85
727.69284	9052.85
731.60928	8823.65
735.52295	8688.25
739.43388	8721.55
743.34206	8807.95
747.24749	8790.15
751.15017	8860.15
755.05012	9556.65
758.94733	11944.45
762.8418	17413.75
766.73354	24773.15
770.62254	29956.75
774.50882	32166.35
778.39237	30448.05
782.27321	23366.85
786.15132	15668.15
790.02671	11361.75
793.89938	9569.45
797.76935	8846.65
801.6366	8514.65
805.50115	8347.15
809.36299	8269.45
813.22213	8139.35
817.07857	8065.45
820.93231	8122.85
824.78336	8327.05
828.63172	8571.85
832.47738	8646.65
836.32036	8390.05
840.16066	8036.95
843.99827	7810.85
847.8332	7810.55
851.66546	7904.85
855.49504	8034.45
859.32195	8169.35
863.1462	8243.65
866.96777	8149.25
870.78668	8008.65
874.60293	7929.15
878.41652	8020.65
882.22745	8235.75
886.03573	8347.85
889.84136	8278.55
893.64433	8227.65
897.44466	8265.15
901.24235	8312.45
905.0374	8097.55
908.8298	7786.45
912.61957	7598.85
916.40671	7556.45
920.19121	7730.75
923.97308	8187.05
927.75233	9044.05
931.52895	9875.25
935.30295	9475.95
939.07433	8329.45
942.84309	7375.35
946.60924	6852.55
950.37278	6609.25
954.13371	6494.25
957.89203	6483.35
961.64774	6464.35
965.40086	6419.45
969.15137	6380.25
972.89929	6360.05
976.64461	6363.45
980.38733	6359.75
984.12747	6362.35
987.86502	6393.65
991.59999	6443.95
995.33237	6554.75
999.06217	6748.35
1002.78939	7077.55
1006.51404	7479.15
1010.23611	7743.95
1013.95561	7693.75
1017.67255	7490.65
1021.38692	7265.15
1025.09872	7004.05
1028.80796	6877.65
1032.51465	6932.65
1036.21877	7102.55
1039.92035	7313.15
1043.61937	7525.75
1047.31584	7666.55
1051.00976	7644.95
1054.70114	7469.25
1058.38998	7317.85
1062.07627	7269.65
1065.76003	7247.25
1069.44126	7245.45
1073.11995	7552.75
1076.79611	8219.25
1080.46974	9355.25
1084.14085	10732.85
1087.80943	11621.15
1091.47549	11548.45
1095.13903	10653.65
1098.80005	9455.55
1102.45857	8799.15
1106.11456	8835.75
1109.76805	9478.55
1113.41903	10721.75
1117.06751	12688.25
1120.71348	15540.85
1124.35696	18840.05
1127.99793	20045.95
1131.63641	17646.65
1135.2724	14143.35
1138.90589	11794.55
1142.5369	10435.35
1146.16542	9580.45
1149.79145	9091.35
1153.415	8917.45
1157.03607	9046.65
1160.65467	9560.15
1164.27079	10491.45
1167.88443	11968.35
1171.49561	14412.55
1175.10432	18595.35
1178.71056	24035.35
1182.31434	27759.45
1185.91565	27506.95
1189.51451	24572.95
1193.11091	20946.75
1196.70485	18053.65
1200.29634	16499.15
1203.88538	14904.25
1207.47197	12637.15
1211.05612	10550.15
1214.63782	9327.25
1218.21708	8666.25
1221.79391	8462.55
1225.36829	8359.05
1228.94024	8285.65
1232.50976	8225.85
1236.07685	8277.45
1239.6415	8440.45
1243.20374	8707.25
1246.76355	8995.25
1250.32093	9342.55
1253.8759	9845.45
1257.42845	10656.55
1260.97859	11753.95
1264.52631	12974.35
1268.07163	13968.05
1271.61453	14522.25
1275.15503	14524.15
1278.69312	14429.65
1282.22882	14898.25
1285.76211	16138.05
1289.29301	17478.75
1292.82151	18604.75
1296.34761	20136.65
1299.87133	23180.85
1303.39266	29097.05
1306.9116	37931.05
1310.42815	45431.35
1313.94233	45085.15
1317.45412	37402.25
1320.96354	28419.45
1324.47058	21330.85
1327.97525	16858.85
1331.47754	14687.75
1334.97747	14322.55
1338.47502	15487.75
1341.97022	18499.85
1345.46305	23284.55
1348.95352	28878.75
1352.44163	35688.65
1355.92738	46145.55
1359.41078	61000.35
1362.89183	69165.45
1366.37053	58642.35
1369.84688	40701.65
1373.32088	28661.05
1376.79254	22617.15
1380.26186	18895.15
1383.72883	15786.45
1387.19347	13274.45
1390.65578	11455.15
1394.11575	10372.65
1397.57339	9865.15
1401.0287	9614.25
1404.48168	9518.65
1407.93234	9588.25
1411.38068	10040.25
1414.82669	10704.15
1418.27039	11204.45
1421.71177	11393.15
1425.15083	11414.55
1428.58758	11858.95
1432.02203	12399.65
1435.45416	12252.35
1438.88399	11568.65
1442.31151	11035.95
1445.73673	10952.35
1449.15965	10926.45
1452.58027	10717.05
1455.9986	10428.05
1459.41463	10428.15
1462.82837	10882.95
1466.23982	11479.25
1469.64898	11760.05
1473.05586	11687.05
1476.46045	11665.05
1479.86276	11957.05
1483.26279	12699.05
1486.66054	14188.95
1490.05602	16495.55
1493.44922	20076.25
1496.84016	25880.05
1500.22882	35024.05
1503.61521	47673.05
1506.99934	61306.85
1510.38121	70324.95
1513.76081	69267.25
1517.13816	57986.95
1520.51324	42964.75
1523.88607	30644.75
1527.25665	23056.75
1530.62498	18727.35
1533.99105	16170.85
1537.35488	14647.55
1540.71647	13947.05
1544.07581	13987.15
1547.4329	14531.65
1550.78776	15202.35
1554.14038	15873.15
1557.49077	16570.45
1560.83892	17839.15
1564.18484	20156.45
1567.52853	22813.25
1570.86999	24498.05
1574.20922	24902.55
1577.54624	23243.85
1580.88103	19155.65
1584.2136	14962.75
1587.54395	12544.25
1590.87208	12090.75
1594.19801	13122.65
1597.52172	14466.95
1600.84321	14470.85
1604.16251	13130.65
1607.47959	11719.55
1610.79447	10500.95
1614.10715	9480.35
1617.41763	8729.65
1620.7259	8457.65
1624.03199	8474.45
1627.33587	8893.65
1630.63757	9686.25
1633.93707	11123.95
1637.23439	13659.45
1640.52951	18176.45
1643.82246	25314.55
1647.11321	33564.15
1650.40179	37886.25
1653.68819	34503.15
1656.97241	26182.45
1660.25446	18337.45
1663.53433	13182.25
1666.81203	10327.95
1670.08756	8765.45
1673.36092	7861.75
1676.63211	7274.45
1679.90115	6919.85
1683.16801	6646.75
1686.43272	6436.85
1689.69527	6278.55
1692.95567	6144.35
1696.2139	6070.35
1699.46999	6011.95
1702.72392	5952.75
1705.97571	5924.65
1709.22535	5936.75
1712.47284	5956.45
1715.71819	5942.15
1718.96139	5903.15
1722.20246	5798.15
1725.44139	5702.05
1728.67818	5566.45
1731.91284	5446.35
1735.14537	5371.05
1738.37576	5312.45
1741.60403	5310.75
1744.83017	5313.05
1748.05418	5326.45
1751.27607	5281.35
1754.49584	5219.15
1757.71349	5097.65
1760.92903	4956.95
1764.14244	4811.75
1767.35375	4667.35
1770.56294	4513.65
1773.77002	4405.75
1776.97499	4278.75
1780.17785	4194.15
1783.37861	4133.55
1786.57727	4083.55
1789.77382	4051.85
1792.96828	4006.05
1796.16064	3981.65
1799.3509	3968.65
1802.53907	3938.75
1805.72514	3881.45
1808.90913	3856.45
1812.09102	3830.25
1815.27083	3784.05
1818.44856	3768.55
1821.6242	3739.85
1824.79776	3714.05
1827.96924	3691.45
1831.13864	3639.35
1834.30597	3614.45
1837.47122	3589.45
1840.6344	3574.05
1843.7955	3524.15
1846.95454	3517.85
1850.11151	3498.35
1853.26642	3488.25
1856.41926	3481.95
1859.57004	3501.85
1862.71876	3488.95
1865.86542	3493.35
1869.01003	3515.25
1872.15258	3522.45
1875.29308	3536.15
1878.43152	3524.15
1881.56792	3524.05
1884.70227	3510.75
1887.83457	3492.55
1890.96482	3477.75
1894.09304	3455.35
1897.21921	3441.45
1900.34335	3461.35
1903.46544	3456.15
1906.58551	3436.85
1909.70353	3443.05
1912.81953	3443.65
1915.93349	3429.95
1919.04543	3429.85
1922.15534	3388.95
1925.26322	3375.25
1928.36908	3340.15
1931.47292	3293.05
1934.57473	3242.55
1937.67453	3207.05
1940.77232	3169.95
1943.86808	3144.95
1946.96184	3128.45
1950.05358	3115.45
1953.14331	3113.65
1956.23103	3113.65
1959.31675	3111.75
1962.40046	3127.55
1965.48217	3137.95
1968.56188	3168.75
1971.63959	3169.75
1974.7153	3171.05
1977.78901	3114.45
1980.86073	3084.25
1983.93046	3035.95
1986.99819	2996.95
1990.06394	2952.55
1993.1277	2936.05
1996.18947	2908.65
1999.24925	2887.55
2002.30706	2872.85
2005.36288	2849.75
2008.41672	2822.85
2011.46859	2817.75
2014.51848	2819.85
2017.56639	2792.75
2020.61233	2790.85
2023.6563	2765.35
2026.6983	2743.55
2029.73833	2747.85
2032.7764	2724.85
2035.8125	2712.25
2038.84664	2704.15
2041.87881	2701.85
2044.90903	2702.05
2047.93729	2693.35
2050.96359	2675.55
2053.98794	2664.85
2057.01034	2654.15
2060.03078	2635.85
2063.04927	2619.75
2066.06582	2610.05
2069.08042	2598.85
2072.09307	2595.45
2075.10378	2602.85
2078.11255	2609.75
2081.11938	2621.45
2084.12426	2629.65
2087.12722	2626.45
2090.12824	2634.15
2093.12732	2653.35
2096.12447	2660.45
2099.11969	2687.95
2102.11299	2699.85
2105.10435	2708.05
2108.09379	2716.95
2111.08131	2707.05
2114.0669	2731.15
2117.05057	2723.35
2120.03233	2717.95
2123.01216	2714.45
2125.99008	2722.75
2128.96609	2701.85
2131.94018	2669.75
2134.91236	2660.55
2137.88263	2637.25
2140.851	2606.85
2143.81746	2579.65
2146.78201	2562.25
2149.74466	2523.15
2152.7054	2498.85
2155.66425	2497.65
2158.6212	2474.05
2161.57625	2470.25
2164.52941	2462.05
2167.48067	2466.35
2170.43004	2451.75
2173.37752	2453.65
2176.32311	2467.35
2179.26681	2468.25
2182.20863	2460.25
2185.14856	2461.75
2188.08661	2442.45
2191.02278	2441.95
2193.95707	2416.55
2196.88948	2396.65
2199.82001	2396.75
2202.74867	2379.85
2205.67545	2384.15
2208.60037	2386.25
2211.52341	2392.05
2214.44458	2381.65
2217.36388	2357.75
2220.28132	2348.65
2223.1969	2320.05
2226.11061	2311.75
2229.02246	2308.45
2231.93245	2297.65
2234.84058	2301.25
2237.74686	2286.95
2240.65128	2277.75
2243.55385	2299.25
2246.45456	2308.95
2249.35343	2326.65
2252.25044	2356.15
2255.14561	2387.85
2258.03893	2415.55
2260.93041	2445.85
2263.82004	2453.45
2266.70783	2448.65
2269.59378	2425.25
2272.4779	2414.25
2275.36017	2415.05
2278.24061	2403.45
2281.11922	2390.05
2283.996	2372.65
2286.87094	2355.85
2289.74405	2338.65
2292.61534	2303.25
2295.4848	2282.85
2298.35243	2258.55
2301.21824	2233.05
2304.08223	2241.05
2306.94439	2243.95
2309.80474	2249.05
2312.66327	2233.75
2315.51999	2230.25
2318.37489	2231.95
2321.22797	2214.65
2324.07925	2216.65
2326.92871	2207.55
2329.77637	2213.85
2332.62222	2208.15
2335.46626	2209.35
2338.3085	2217.35
2341.14893	2229.65
2343.98756	2229.65
2346.8244	2247.45
2349.65943	2255.15
2352.49267	2277.55
2355.32411	2311.65
2358.15376	2337.75
2360.98161	2372.35
2363.80768	2408.15
2366.63195	2425.05
2369.45444	2446.65
2372.27514	2461.95
2375.09405	2464.85
2377.91118	2428.65
2380.72652	2399.95
2383.54009	2385.95
2386.35187	2362.65
2389.16188	2317.15
2391.97011	2277.45
2394.77657	2254.45
2397.58125	2223.85
2400.38416	2204.75
2403.18529	2179.15
2405.98466	2164.45
2408.78226	2148.55
2411.57809	2146.55
2414.37216	2131.85
2417.16446	2134.85
2419.955	2140.95
2422.74378	2159.55
2425.5308	2156.05
2428.31606	2170.35
2431.09956	2167.25
2433.88131	2179.45
2436.6613	2203.15
2439.43954	2212.05
2442.21603	2217.05
2444.99077	2228.65
2447.76377	2251.95
2450.53501	2258.45
2453.30451	2264.45
2456.07226	2262.95
2458.83827	2255.95
2461.60254	2266.55
2464.36507	2257.05
2467.12586	2254.65
2469.88492	2264.55
2472.64224	2264.95
2475.39782	2290.55
2478.15167	2321.75
2480.90379	2363.95
2483.65417	2393.75
2486.40283	2429.25
2489.14976	2458.05
2491.89497	2463.65
2494.63845	2467.55
2497.3802	2453.65
2500.12024	2427.95
2502.85855	2385.65
2505.59514	2338.25
2508.33002	2284.05
2511.06318	2228.25
2513.79462	2159.55
2516.52435	2121.75
2519.25237	2087.85
2521.97867	2046.55
2524.70327	2040.95
2527.42616	2023.05
2530.14734	2006.25
2532.86681	2016.95
2535.58458	2016.85
2538.30065	2026.55
2541.01501	2037.85
2543.72768	2041.05
2546.43864	2046.65
2549.14791	2067.05
2551.85548	2073.15
2554.56136	2072.05
2557.26554	2082.15
2559.96803	2082.55
2562.66883	2076.85
2565.36794	2079.15
2568.06536	2071.05
2570.7611	2061.55
2573.45514	2046.85
2576.14751	2043.05
2578.83819	2012.85
2581.52719	2002.45
2584.21451	1997.05
2586.90015	1988.05
2589.58411	1977.35
2592.2664	1968.45
2594.94701	1970.75
2597.62594	1969.65
2600.30321	1978.15
2602.9788	1973.65
2605.65273	1989.15
2608.32498	1988.35
2610.99557	2000.65
2613.66449	2005.95
2616.33175	2018.05
2618.99734	2005.25
2621.66128	2004.35
2624.32355	1984.45
2626.98416	1979.05
2629.64311	1944.35
2632.30041	1944.15
2634.95605	1934.15
2637.61004	1920.35
2640.26238	1900.05
2642.91306	1902.35
2645.56209	1897.45
2648.20948	1898.95
2650.85521	1894.55
2653.4993	1904.05
2656.14175	1918.85
2658.78255	1931.75
2661.42171	1947.65
2664.05923	1964.15
2666.6951	1982.55
2669.32934	2000.15
2671.96194	1997.35
2674.59291	1998.25
2677.22224	1998.85
2679.84993	1993.95
2682.476	1985.85
2685.10043	1985.95
2687.72324	1967.55
2690.34441	1962.85
2692.96396	1966.95
2695.58188	1956.55
2698.19818	1960.15
2700.81285	1955.15
2703.4259	1964.55
2706.03733	1955.05
2708.64714	1965.15
2711.25533	1973.95
2713.86191	1973.45
2716.46687	1996.55
2719.07021	1995.95
2721.67194	2008.35
2724.27206	2013.35
2726.87057	2007.45
2729.46747	2005.85
2732.06276	1974.25
2734.65644	1966.85
2737.24852	1951.65
2739.83899	1928.65
2742.42786	1914.55
2745.01513	1895.55
2747.60079	1887.85
2750.18486	1890.35
2752.76733	1875.25
2755.3482	1862.65
2757.92747	1857.25
2760.50515	1859.25
2763.08123	1870.25
2765.65573	1864.95
2768.22863	1854.55
2770.79994	1862.25
2773.36967	1882.15
2775.9378	1889.65
2778.50435	1895.75
2781.06932	1912.05
2783.6327	1921.05
2786.1945	1938.15
2788.75471	1961.75
2791.31335	1986.45
2793.87041	2011.95
2796.42589	2036.85
2798.97979	2066.75
2801.53212	2112.45
2804.08288	2128.85
2806.63206	2170.35
2809.17967	2221.95
2811.72571	2260.05
2814.27018	2307.15
2816.81308	2349.25
2819.35442	2385.05
2821.89419	2430.35
2824.43239	2444.95
2826.96904	2460.75
2829.50412	2492.45
2832.03763	2479.05
2834.56959	2472.85
2837.1	2496.65
2839.62884	2511.25
2842.15613	2524.25
2844.68186	2559.15
2847.20604	2594.05
2849.72867	2615.25
2852.24974	2647.05
2854.76927	2681.55
2857.28724	2710.85
2859.80367	2765.75
2862.31855	2817.55
2864.83189	2865.75
2867.34368	2930.95
2869.85393	2983.85
2872.36264	3035.55
2874.8698	3069.75
2877.37543	3099.65
2879.87952	3130.55
2882.38207	3162.85
2884.88308	3181.75
2887.38256	3215.75
2889.88051	3225.85
2892.37692	3256.85
2894.8718	3286.05
2897.36515	3313.65
2899.85698	3340.95
2902.34727	3359.75
2904.83604	3355.45
2907.32328	3380.85
2909.809	3368.05
2912.29319	3375.25
2914.77587	3373.45
2917.25702	3364.65
2919.73665	3360.45
2922.21476	3337.75
2924.69136	3314.25
2927.16644	3293.35
2929.64	3267.85
2932.11205	3230.45
2934.58258	3198.95
2937.05161	3153.25
2939.51912	3123.45
2941.98513	3068.45
2944.44962	3035.45
2946.91261	2979.15
2949.37409	2933.65
2951.83407	2895.75
2954.29254	2845.35
2956.74951	2793.05
2959.20498	2732.65
2961.65895	2667.15
2964.11142	2628.35
2966.56239	2578.45
2969.01186	2508.45
2971.45984	2457.95
2973.90632	2415.05
2976.35131	2368.55
2978.7948	2333.35
2981.23681	2313.55
2983.67732	2283.25
2986.11635	2272.75
2988.55388	2268.15
2990.98993	2245.75
2993.4245	2244.85
2995.85758	2259.35
2998.28917	2264.75
3000.71928	2269.35
3003.14791	2270.65
3005.57506	2264.75
3008.00073	2260.35
3010.42493	2295.15
3012.84764	2252.15
3015.26888	2237.15
3017.68865	2229.55
3020.10694	2215.85
3022.52376	2183.85
3024.9391	2160.35
3027.35298	2146.85
3029.76539	2108.65
3032.17632	2073.85
3034.5858	2040.85
3036.9938	2008.05
3039.40034	1982.45
3041.80542	1961.55
3044.20903	1945.45
3046.61118	1930.65
3049.01187	1917.05
3051.4111	1911.45
3053.80888	1888.15
3056.20519	1881.25
3058.60005	1869.95
3060.99345	1873.15
3063.3854	1848.15
3065.7759	1839.35
3068.16494	1816.65
3070.55254	1818.65
3072.93868	1802.95
3075.32338	1781.55
3077.70662	1788.65
3080.08842	1783.55
3082.46878	1776.75
3084.84769	1776.05
3087.22515	1782.25
3089.60118	1797.25
3091.97576	1783.85
3094.3489	1781.95
3096.72061	1781.05
3099.09087	1792.05
3101.4597	1795.15
3103.82709	1797.45
3106.19305	1808.35
3108.55757	1809.05
3110.92066	1821.85
3113.28232	1824.85
3115.64255	1822.75
3118.00134	1835.65
3120.35871	1832.55
3122.71466	1826.75
3125.06917	1842.05
3127.42226	1846.75
3129.77393	1865.35
3132.12417	1863.45
3134.47299	1870.75
3136.82039	1877.75
3139.16636	1888.35
3141.51092	1908.85
3143.85406	1923.55
3146.19579	1931.05
3148.53609	1936.75
3150.87499	1958.85
3153.21246	1976.25
3155.54853	1992.25
3157.88318	2008.05
3160.21642	2022.25
3162.54826	2025.95
3164.87868	2032.55
3167.2077	2030.15
3169.5353	2041.35
3171.86151	2053.95
3174.18631	2061.95
3176.5097	2060.55
3178.83169	2072.85
3181.15228	2074.85
3183.47147	2087.55
3185.78926	2088.75
3188.10565	2102.95
3190.42065	2111.95
3192.73424	2119.35
3195.04645	2137.95
3197.35725	2151.95
3199.66667	2170.65
3201.97469	2191.15
3204.28132	2208.25
3206.58656	2224.15
3208.8904	2253.15
3211.19287	2273.85
3213.49394	2296.65
3215.79363	2309.95
3218.09193	2327.15
3220.38884	2332.35
3222.68438	2361.95
3224.97853	2365.15
3227.2713	2373.75
3229.56269	2371.95
3231.8527	2379.75
3234.14133	2382.05
3236.42858	2395.15
3238.71446	2393.15
3240.99896	2407.35
3243.28209	2394.05
3245.56384	2421.45
3247.84423	2408.35
3250.12324	2409.05
3252.40088	2427.25
3254.67715	2430.85
3256.95205	2436.05
3259.22558	2450.85
3261.49775	2448.15
3263.76855	2446.85
3266.03799	2459.75
3268.30606	2457.15
3270.57277	2466.85
3272.83812	2459.15
3275.10211	2471.85
3277.36474	2474.65
3279.62601	2478.55
3281.88593	2475.05
3284.14448	2485.45
3286.40168	2497.45
3288.65753	2491.75
3290.91202	2507.75
3293.16516	2493.15
3295.41695	2500.75
3297.66738	2503.95
3299.91647	2476.65
3302.16421	2455.55
3304.4106	2426.45
3306.65564	2406.15
3308.89933	2373.15
3311.14169	2355.85
3313.38269	2325.85
3315.62236	2304.35
3317.86068	2275.15
3320.09766	2252.25
3322.3333	2225.25
3324.5676	2209.55
3326.80056	2166.15
3329.03219	2139.95
3331.26248	1.35
3333.49143	-0.45
3335.71905	-0.25
