Data from AgNPs_UA_5uM_CRN_500uM_AS_RamanShift__4__13-02-13-823.txt Node

Date: Wed Aug 17 13:02:13 BST 2022
User: TCL
Spectrometer: QEP01345
Trigger mode: 4
Integration Time (sec): 7.000000E0
Scans to average: 10
Electric dark correction enabled: true
Nonlinearity correction enabled: false
Boxcar width: 0
XAxis mode: Raman Shifts
Number of Pixels in Spectrum: 1044
>>>>>Begin Spectral Data<<<<<
46.04893	0.05
50.45542	0.95
54.85868	-1.85
59.25871	-0.05
63.6555	43.55
68.04907	49.75
72.43941	52.85
76.82654	58.95
81.21044	61.25
85.59113	64.45
89.96862	66.75
94.34289	70.65
98.71396	71.15
103.08183	72.35
107.4465	75.25
111.80798	72.45
116.16626	73.75
120.52136	76.75
124.87327	76.05
129.222	73.45
133.56755	77.95
137.90993	78.35
142.24913	78.15
146.58517	79.65
150.91804	74.65
155.24774	85.65
159.57429	95.15
163.89768	106.45
168.21792	122.75
172.53501	158.65
176.84895	198.65
181.15975	258.15
185.46741	350.85
189.77193	475.95
194.07331	641.15
198.37157	845.15
202.6667	1072.85
206.9587	1312.15
211.24758	1570.35
215.53334	1822.35
219.81599	2056.15
224.09553	2298.55
228.37195	2527.95
232.64527	2735.45
236.91549	2943.95
241.18261	3149.65
245.44663	3315.15
249.70755	3439.55
253.96539	3512.75
258.22014	3526.85
262.4718	3486.05
266.72039	3404.85
270.96589	3291.75
275.20832	3134.75
279.44768	2957.25
283.68397	2804.15
287.91719	2648.35
292.14735	2500.45
296.37445	2370.65
300.59849	2266.35
304.81948	2180.95
309.03742	2108.05
313.25231	2044.85
317.46415	1983.35
321.67296	1929.15
325.87872	1881.25
330.08145	1857.25
334.28114	1843.25
338.47781	1836.85
342.67145	1869.65
346.86207	1874.35
351.04966	1888.25
355.23424	1877.25
359.4158	1879.35
363.59435	1881.25
367.76989	1862.75
371.94243	1854.35
376.11196	1832.15
380.27849	1838.95
384.44203	1831.75
388.60257	1828.55
392.76012	1834.25
396.91468	1833.15
401.06626	1843.15
405.21485	1851.55
409.36047	1857.55
413.50311	1860.25
417.64277	1864.65
421.77947	1875.45
425.9132	1887.65
430.04396	1901.05
434.17176	1917.35
438.2966	1929.65
442.41849	1960.85
446.53742	1982.85
450.6534	2009.45
454.76644	2020.35
458.87653	2049.25
462.98368	2046.25
467.08789	2052.85
471.18916	2047.25
475.2875	2046.35
479.38291	2039.85
483.4754	2025.45
487.56496	2026.55
491.6516	2030.85
495.73531	2042.45
499.81612	2041.75
503.89401	2051.35
507.96899	2046.05
512.04106	2032.45
516.11023	2025.55
520.1765	1997.15
524.23987	1995.95
528.30034	1997.75
532.35792	1997.35
536.41261	2000.95
540.46441	1990.95
544.51333	1994.75
548.55936	1990.15
552.60252	2004.35
556.64279	2019.75
560.6802	2030.75
564.71473	2056.95
568.7464	2085.55
572.7752	2128.45
576.80114	2144.65
580.82422	2149.55
584.84444	2125.05
588.86181	2120.75
592.87633	2136.85
596.888	2149.25
600.89682	2185.75
604.9028	2237.05
608.90594	2301.95
612.90624	2359.85
616.90371	2352.05
620.89834	2292.35
624.89015	2260.15
628.87913	2249.85
632.86528	2245.95
636.84862	2261.25
640.82913	2287.95
644.80683	2331.15
648.78172	2367.55
652.75379	2391.55
656.72306	2381.45
660.68952	2378.45
664.65319	2435.15
668.61405	2582.15
672.57211	2857.75
676.52738	3254.45
680.47986	3625.55
684.42955	3741.65
688.37646	3572.25
692.32058	3276.95
696.26192	3004.25
700.20048	2834.55
704.13626	2721.55
708.06928	2626.45
711.99952	2535.75
715.927	2461.65
719.85171	2431.85
723.77365	2450.05
727.69284	2463.65
731.60928	2472.65
735.52295	2442.65
739.43388	2395.45
743.34206	2380.85
747.24749	2379.45
751.15017	2433.75
755.05012	2460.95
758.94733	2487.95
762.8418	2502.75
766.73354	2473.55
770.62254	2419.75
774.50882	2383.25
778.39237	2338.95
782.27321	2292.75
786.15132	2263.05
790.02671	2248.25
793.89938	2254.35
797.76935	2261.55
801.6366	2267.35
805.50115	2283.45
809.36299	2267.95
813.22213	2240.55
817.07857	2217.05
820.93231	2220.85
824.78336	2216.35
828.63172	2221.85
832.47738	2213.75
836.32036	2207.05
840.16066	2222.25
843.99827	2223.45
847.8332	2222.95
851.66546	2219.85
855.49504	2244.15
859.32195	2271.05
863.1462	2302.05
866.96777	2326.65
870.78668	2341.15
874.60293	2353.75
878.41652	2363.65
882.22745	2363.75
886.03573	2331.25
889.84136	2338.65
893.64433	2340.85
897.44466	2342.45
901.24235	2347.85
905.0374	2364.75
908.8298	2370.95
912.61957	2356.25
916.40671	2390.75
920.19121	2399.55
923.97308	2427.35
927.75233	2442.95
931.52895	2463.45
935.30295	2441.45
939.07433	2431.65
942.84309	2393.25
946.60924	2358.25
950.37278	2318.35
954.13371	2289.85
957.89203	2291.95
961.64774	2307.45
965.40086	2292.85
969.15137	2279.65
972.89929	2267.95
976.64461	2237.55
980.38733	2232.45
984.12747	2210.45
987.86502	2199.45
991.59999	2204.35
995.33237	2212.85
999.06217	2197.05
1002.78939	2208.75
1006.51404	2195.65
1010.23611	2225.05
1013.95561	2220.85
1017.67255	2231.15
1021.38692	2234.45
1025.09872	2241.05
1028.80796	2247.85
1032.51465	2268.05
1036.21877	2292.45
1039.92035	2317.75
1043.61937	2355.65
1047.31584	2393.35
1051.00976	2422.55
1054.70114	2446.95
1058.38998	2411.15
1062.07627	2389.95
1065.76003	2341.45
1069.44126	2288.05
1073.11995	2259.85
1076.79611	2239.55
1080.46974	2234.55
1084.14085	2214.55
1087.80943	2214.75
1091.47549	2202.75
1095.13903	2206.95
1098.80005	2204.95
1102.45857	2187.85
1106.11456	2188.05
1109.76805	2189.65
1113.41903	2204.95
1117.06751	2205.45
1120.71348	2228.55
1124.35696	2230.75
1127.99793	2244.45
1131.63641	2259.45
1135.2724	2271.45
1138.90589	2256.55
1142.5369	2265.85
1146.16542	2261.35
1149.79145	2253.25
1153.415	2250.05
1157.03607	2242.55
1160.65467	2246.25
1164.27079	2254.55
1167.88443	2256.95
1171.49561	2248.85
1175.10432	2285.75
1178.71056	2298.45
1182.31434	2315.45
1185.91565	2329.95
1189.51451	2322.75
1193.11091	2313.15
1196.70485	2309.25
1200.29634	2283.95
1203.88538	2277.95
1207.47197	2254.45
1211.05612	2260.15
1214.63782	2253.85
1218.21708	2248.55
1221.79391	2258.05
1225.36829	2274.95
1228.94024	2292.25
1232.50976	2314.95
1236.07685	2334.85
1239.6415	2355.25
1243.20374	2391.25
1246.76355	2403.75
1250.32093	2436.45
1253.8759	2447.45
1257.42845	2448.75
1260.97859	2458.25
1264.52631	2457.15
1268.07163	2442.15
1271.61453	2410.95
1275.15503	2401.95
1278.69312	2395.05
1282.22882	2402.85
1285.76211	2402.85
1289.29301	2402.85
1292.82151	2411.75
1296.34761	2432.45
1299.87133	2439.55
1303.39266	2450.75
1306.9116	2455.05
1310.42815	2481.45
1313.94233	2489.25
1317.45412	2483.75
1320.96354	2488.35
1324.47058	2476.75
1327.97525	2465.75
1331.47754	2482.85
1334.97747	2487.35
1338.47502	2513.75
1341.97022	2550.95
1345.46305	2598.85
1348.95352	2639.85
1352.44163	2700.25
1355.92738	2739.25
1359.41078	2795.85
1362.89183	2836.55
1366.37053	2823.45
1369.84688	2785.75
1373.32088	2697.05
1376.79254	2625.15
1380.26186	2574.25
1383.72883	2529.35
1387.19347	2499.95
1390.65578	2475.55
1394.11575	2449.35
1397.57339	2432.45
1401.0287	2438.15
1404.48168	2462.75
1407.93234	2503.25
1411.38068	2554.95
1414.82669	2610.45
1418.27039	2661.15
1421.71177	2692.35
1425.15083	2643.95
1428.58758	2586.35
1432.02203	2517.35
1435.45416	2484.35
1438.88399	2437.75
1442.31151	2431.15
1445.73673	2420.85
1449.15965	2431.55
1452.58027	2433.45
1455.9986	2448.95
1459.41463	2437.45
1462.82837	2446.95
1466.23982	2447.65
1469.64898	2445.55
1473.05586	2413.05
1476.46045	2379.95
1479.86276	2343.95
1483.26279	2294.25
1486.66054	2269.75
1490.05602	2269.25
1493.44922	2256.55
1496.84016	2267.55
1500.22882	2286.35
1503.61521	2299.85
1506.99934	2329.15
1510.38121	2357.85
1513.76081	2349.05
1517.13816	2339.15
1520.51324	2327.05
1523.88607	2296.95
1527.25665	2278.75
1530.62498	2281.95
1533.99105	2291.35
1537.35488	2289.15
1540.71647	2306.55
1544.07581	2312.05
1547.4329	2315.85
1550.78776	2325.05
1554.14038	2338.45
1557.49077	2342.05
1560.83892	2344.85
1564.18484	2350.35
1567.52853	2350.35
1570.86999	2350.05
1574.20922	2367.75
1577.54624	2351.85
1580.88103	2344.25
1584.2136	2332.15
1587.54395	2334.15
1590.87208	2347.15
1594.19801	2347.95
1597.52172	2354.35
1600.84321	2351.95
1604.16251	2349.35
1607.47959	2328.25
1610.79447	2305.95
1614.10715	2297.15
1617.41763	2280.05
1620.7259	2244.65
1624.03199	2234.15
1627.33587	2219.95
1630.63757	2218.55
1633.93707	2221.85
1637.23439	2227.45
1640.52951	2243.35
1643.82246	2254.15
1647.11321	2288.15
1650.40179	2300.75
1653.68819	2314.85
1656.97241	2306.75
1660.25446	2310.05
1663.53433	2304.05
1666.81203	2322.55
1670.08756	2347.45
1673.36092	2367.05
1676.63211	2374.85
1679.90115	2391.65
1683.16801	2390.75
1686.43272	2372.75
1689.69527	2365.35
1692.95567	2350.05
1696.2139	2346.95
1699.46999	2333.35
1702.72392	2293.15
1705.97571	2280.95
1709.22535	2261.25
1712.47284	2248.45
1715.71819	2242.55
1718.96139	2238.65
1722.20246	2226.15
1725.44139	2254.55
1728.67818	2270.95
1731.91284	2290.05
1735.14537	2319.05
1738.37576	2360.65
1741.60403	2408.15
1744.83017	2485.95
1748.05418	2605.85
1751.27607	2755.35
1754.49584	2900.95
1757.71349	2992.05
1760.92903	3016.45
1764.14244	2961.65
1767.35375	2858.95
1770.56294	2739.75
1773.77002	2636.25
1776.97499	2569.05
1780.17785	2519.45
1783.37861	2489.25
1786.57727	2449.45
1789.77382	2405.05
1792.96828	2358.15
1796.16064	2316.05
1799.3509	2303.25
1802.53907	2291.85
1805.72514	2227.25
1808.90913	2193.15
1812.09102	2153.65
1815.27083	2124.95
1818.44856	2097.85
1821.6242	2072.85
1824.79776	2045.45
1827.96924	2010.15
1831.13864	1976.85
1834.30597	1963.05
1837.47122	1937.75
1840.6344	1915.15
1843.7955	1904.25
1846.95454	1878.55
1850.11151	1869.55
1853.26642	1863.45
1856.41926	1850.75
1859.57004	1836.45
1862.71876	1841.05
1865.86542	1833.45
1869.01003	1836.55
1872.15258	1828.55
1875.29308	1828.35
1878.43152	1836.15
1881.56792	1833.65
1884.70227	1831.55
1887.83457	1837.45
1890.96482	1841.45
1894.09304	1840.35
1897.21921	1852.15
1900.34335	1845.25
1903.46544	1853.85
1906.58551	1854.05
1909.70353	1855.05
1912.81953	1865.85
1915.93349	1878.85
1919.04543	1882.05
1922.15534	1885.55
1925.26322	1901.95
1928.36908	1890.75
1931.47292	1900.95
1934.57473	1906.05
1937.67453	1903.95
1940.77232	1890.05
1943.86808	1898.25
1946.96184	1898.75
1950.05358	1890.25
1953.14331	1879.35
1956.23103	1871.05
1959.31675	1860.55
1962.40046	1852.45
1965.48217	1833.45
1968.56188	1831.05
1971.63959	1825.05
1974.7153	1813.35
1977.78901	1800.55
1980.86073	1789.15
1983.93046	1776.55
1986.99819	1772.95
1990.06394	1757.55
1993.1277	1743.65
1996.18947	1730.15
1999.24925	1734.35
2002.30706	1714.85
2005.36288	1699.05
2008.41672	1698.25
2011.46859	1683.75
2014.51848	1686.85
2017.56639	1676.25
2020.61233	1678.15
2023.6563	1660.65
2026.6983	1659.05
2029.73833	1656.85
2032.7764	1649.25
2035.8125	1640.85
2038.84664	1644.85
2041.87881	1632.65
2044.90903	1629.45
2047.93729	1617.55
2050.96359	1623.05
2053.98794	1618.15
2057.01034	1620.55
2060.03078	1630.55
2063.04927	1631.35
2066.06582	1624.65
2069.08042	1620.35
2072.09307	1630.75
2075.10378	1631.75
2078.11255	1635.95
2081.11938	1646.25
2084.12426	1645.65
2087.12722	1647.65
2090.12824	1657.45
2093.12732	1662.35
2096.12447	1673.45
2099.11969	1681.25
2102.11299	1691.65
2105.10435	1684.35
2108.09379	1685.55
2111.08131	1698.25
2114.0669	1702.45
2117.05057	1685.45
2120.03233	1694.95
2123.01216	1689.55
2125.99008	1688.75
2128.96609	1682.25
2131.94018	1679.25
2134.91236	1679.95
2137.88263	1674.95
2140.851	1662.85
2143.81746	1665.05
2146.78201	1650.45
2149.74466	1652.65
2152.7054	1645.45
2155.66425	1638.85
2158.6212	1644.75
2161.57625	1634.45
2164.52941	1619.55
2167.48067	1619.35
2170.43004	1606.75
2173.37752	1608.25
2176.32311	1608.35
2179.26681	1619.45
2182.20863	1610.45
2185.14856	1609.75
2188.08661	1608.55
2191.02278	1601.85
2193.95707	1607.75
2196.88948	1603.65
2199.82001	1605.35
2202.74867	1596.45
2205.67545	1591.65
2208.60037	1592.35
2211.52341	1584.95
2214.44458	1582.55
2217.36388	1575.65
2220.28132	1581.85
2223.1969	1564.75
2226.11061	1573.75
2229.02246	1566.25
2231.93245	1557.85
2234.84058	1556.15
2237.74686	1572.05
2240.65128	1552.45
2243.55385	1556.25
2246.45456	1561.85
2249.35343	1553.45
2252.25044	1549.95
2255.14561	1543.15
2258.03893	1543.25
2260.93041	1542.25
2263.82004	1542.85
2266.70783	1538.05
2269.59378	1530.65
2272.4779	1528.25
2275.36017	1522.65
2278.24061	1505.65
2281.11922	1512.95
2283.996	1512.85
2286.87094	1519.85
2289.74405	1506.35
2292.61534	1503.25
2295.4848	1513.15
2298.35243	1512.95
2301.21824	1510.95
2304.08223	1506.65
2306.94439	1501.45
2309.80474	1497.85
2312.66327	1502.65
2315.51999	1504.35
2318.37489	1497.85
2321.22797	1489.15
2324.07925	1489.45
2326.92871	1488.55
2329.77637	1495.95
2332.62222	1487.75
2335.46626	1482.05
2338.3085	1482.45
2341.14893	1476.95
2343.98756	1476.75
2346.8244	1480.65
2349.65943	1473.35
2352.49267	1466.95
2355.32411	1470.25
2358.15376	1470.65
2360.98161	1482.65
2363.80768	1462.25
2366.63195	1468.95
2369.45444	1469.75
2372.27514	1464.05
2375.09405	1471.05
2377.91118	1464.35
2380.72652	1462.95
2383.54009	1461.15
2386.35187	1463.75
2389.16188	1456.05
2391.97011	1445.65
2394.77657	1452.65
2397.58125	1450.65
2400.38416	1448.45
2403.18529	1453.95
2405.98466	1445.75
2408.78226	1449.35
2411.57809	1442.25
2414.37216	1436.65
2417.16446	1439.35
2419.955	1433.75
2422.74378	1436.25
2425.5308	1435.05
2428.31606	1429.85
2431.09956	1423.25
2433.88131	1441.55
2436.6613	1429.95
2439.43954	1419.55
2442.21603	1416.55
2444.99077	1416.75
2447.76377	1429.05
2450.53501	1421.25
2453.30451	1424.85
2456.07226	1417.25
2458.83827	1409.85
2461.60254	1412.55
2464.36507	1413.35
2467.12586	1410.55
2469.88492	1406.35
2472.64224	1408.65
2475.39782	1410.65
2478.15167	1408.65
2480.90379	1404.15
2483.65417	1414.25
2486.40283	1408.95
2489.14976	1412.15
2491.89497	1401.45
2494.63845	1404.95
2497.3802	1405.05
2500.12024	1402.65
2502.85855	1403.15
2505.59514	1400.65
2508.33002	1394.95
2511.06318	1387.35
2513.79462	1387.35
2516.52435	1390.85
2519.25237	1383.95
2521.97867	1381.95
2524.70327	1382.45
2527.42616	1384.15
2530.14734	1377.75
2532.86681	1374.75
2535.58458	1373.85
2538.30065	1372.65
2541.01501	1374.25
2543.72768	1376.35
2546.43864	1374.75
2549.14791	1367.25
2551.85548	1374.45
2554.56136	1356.25
2557.26554	1357.95
2559.96803	1357.85
2562.66883	1356.75
2565.36794	1359.55
2568.06536	1353.65
2570.7611	1353.55
2573.45514	1341.65
2576.14751	1349.65
2578.83819	1345.75
2581.52719	1347.95
2584.21451	1346.55
2586.90015	1342.45
2589.58411	1341.15
2592.2664	1334.55
2594.94701	1328.25
2597.62594	1327.15
2600.30321	1328.05
2602.9788	1326.65
2605.65273	1326.15
2608.32498	1328.85
2610.99557	1327.15
2613.66449	1320.35
2616.33175	1330.25
2618.99734	1321.15
2621.66128	1315.95
2624.32355	1309.75
2626.98416	1304.15
2629.64311	1306.45
2632.30041	1309.25
2634.95605	1311.55
2637.61004	1307.05
2640.26238	1311.85
2642.91306	1302.95
2645.56209	1311.35
2648.20948	1307.65
2650.85521	1307.75
2653.4993	1314.55
2656.14175	1293.45
2658.78255	1306.85
2661.42171	1307.55
2664.05923	1321.25
2666.6951	1303.45
2669.32934	1311.05
2671.96194	1308.25
2674.59291	1311.75
2677.22224	1319.75
2679.84993	1312.25
2682.476	1307.05
2685.10043	1322.25
2687.72324	1300.25
2690.34441	1305.15
2692.96396	1304.45
2695.58188	1316.85
2698.19818	1308.65
2700.81285	1318.75
2703.4259	1315.45
2706.03733	1307.85
2708.64714	1314.75
2711.25533	1310.75
2713.86191	1318.45
2716.46687	1319.85
2719.07021	1309.05
2721.67194	1314.85
2724.27206	1323.75
2726.87057	1316.95
2729.46747	1318.45
2732.06276	1323.05
2734.65644	1323.15
2737.24852	1321.75
2739.83899	1322.35
2742.42786	1307.35
2745.01513	1310.85
2747.60079	1315.25
2750.18486	1315.45
2752.76733	1311.05
2755.3482	1308.65
2757.92747	1303.75
2760.50515	1308.35
2763.08123	1300.15
2765.65573	1299.95
2768.22863	1304.75
2770.79994	1290.25
2773.36967	1300.05
2775.9378	1300.25
2778.50435	1295.05
2781.06932	1301.55
2783.6327	1303.65
2786.1945	1300.85
2788.75471	1304.25
2791.31335	1299.35
2793.87041	1307.05
2796.42589	1302.35
2798.97979	1313.55
2801.53212	1312.05
2804.08288	1309.55
2806.63206	1312.25
2809.17967	1314.05
2811.72571	1320.05
2814.27018	1315.25
2816.81308	1316.75
2819.35442	1318.25
2821.89419	1316.65
2824.43239	1308.85
2826.96904	1312.05
2829.50412	1317.55
2832.03763	1312.15
2834.56959	1308.95
2837.1	1317.85
2839.62884	1318.85
2842.15613	1325.95
2844.68186	1323.05
2847.20604	1329.25
2849.72867	1332.85
2852.24974	1327.55
2854.76927	1338.35
2857.28724	1325.55
2859.80367	1336.85
2862.31855	1330.35
2864.83189	1330.65
2867.34368	1327.25
2869.85393	1339.75
2872.36264	1340.85
2874.8698	1350.55
2877.37543	1360.25
2879.87952	1364.45
2882.38207	1373.85
2884.88308	1391.65
2887.38256	1386.25
2889.88051	1396.85
2892.37692	1410.45
2894.8718	1429.65
2897.36515	1439.15
2899.85698	1450.75
2902.34727	1472.85
2904.83604	1487.55
2907.32328	1494.75
2909.809	1510.55
2912.29319	1515.65
2914.77587	1529.25
2917.25702	1546.05
2919.73665	1564.65
2922.21476	1577.95
2924.69136	1591.05
2927.16644	1602.15
2929.64	1617.55
2932.11205	1623.55
2934.58258	1635.55
2937.05161	1656.75
2939.51912	1674.65
2941.98513	1702.05
2944.44962	1697.55
2946.91261	1711.95
2949.37409	1722.45
2951.83407	1737.65
2954.29254	1723.25
2956.74951	1708.65
2959.20498	1700.55
2961.65895	1679.05
2964.11142	1654.85
2966.56239	1618.75
2969.01186	1599.15
2971.45984	1569.95
2973.90632	1544.15
2976.35131	1523.55
2978.7948	1505.35
2981.23681	1496.25
2983.67732	1493.35
2986.11635	1494.25
2988.55388	1470.55
2990.98993	1474.45
2993.4245	1468.55
2995.85758	1456.15
2998.28917	1467.05
3000.71928	1467.15
3003.14791	1460.15
3005.57506	1466.65
3008.00073	1471.15
3010.42493	1463.75
3012.84764	1466.65
3015.26888	1465.15
3017.68865	1462.15
3020.10694	1470.75
3022.52376	1451.55
3024.9391	1457.75
3027.35298	1450.35
3029.76539	1452.95
3032.17632	1438.55
3034.5858	1427.75
3036.9938	1419.55
3039.40034	1426.55
3041.80542	1416.55
3044.20903	1410.45
3046.61118	1420.15
3049.01187	1403.65
3051.4111	1402.25
3053.80888	1402.45
3056.20519	1397.25
3058.60005	1404.55
3060.99345	1392.15
3063.3854	1401.05
3065.7759	1399.95
3068.16494	1395.25
3070.55254	1392.15
3072.93868	1398.75
3075.32338	1401.75
3077.70662	1398.45
3080.08842	1398.65
3082.46878	1414.05
3084.84769	1422.45
3087.22515	1417.65
3089.60118	1430.35
3091.97576	1431.85
3094.3489	1445.45
3096.72061	1452.75
3099.09087	1448.95
3101.4597	1476.65
3103.82709	1479.15
3106.19305	1481.55
3108.55757	1488.35
3110.92066	1497.25
3113.28232	1504.15
3115.64255	1504.25
3118.00134	1513.65
3120.35871	1514.95
3122.71466	1521.35
3125.06917	1524.45
3127.42226	1545.05
3129.77393	1552.95
3132.12417	1555.05
3134.47299	1560.75
3136.82039	1582.85
3139.16636	1572.65
3141.51092	1584.55
3143.85406	1593.55
3146.19579	1605.45
3148.53609	1615.55
3150.87499	1633.95
3153.21246	1641.05
3155.54853	1653.65
3157.88318	1653.95
3160.21642	1673.65
3162.54826	1685.05
3164.87868	1690.75
3167.2077	1702.95
3169.5353	1715.95
3171.86151	1719.95
3174.18631	1732.75
3176.5097	1737.65
3178.83169	1748.95
3181.15228	1753.55
3183.47147	1766.85
3185.78926	1770.35
3188.10565	1783.85
3190.42065	1783.35
3192.73424	1793.25
3195.04645	1807.95
3197.35725	1802.55
3199.66667	1818.45
3201.97469	1818.45
3204.28132	1817.25
3206.58656	1837.75
3208.8904	1847.55
3211.19287	1862.85
3213.49394	1854.55
3215.79363	1864.75
3218.09193	1868.85
3220.38884	1872.25
3222.68438	1891.05
3224.97853	1884.95
3227.2713	1891.05
3229.56269	1911.75
3231.8527	1905.55
3234.14133	1903.85
3236.42858	1906.95
3238.71446	1908.05
3240.99896	1918.35
3243.28209	1912.55
3245.56384	1908.55
3247.84423	1901.65
3250.12324	1904.35
3252.40088	1911.45
3254.67715	1915.25
3256.95205	1911.35
3259.22558	1915.05
3261.49775	1906.85
3263.76855	1919.65
3266.03799	1917.35
3268.30606	1930.95
3270.57277	1929.65
3272.83812	1934.65
3275.10211	1920.55
3277.36474	1915.85
3279.62601	1918.25
3281.88593	1913.55
3284.14448	1912.05
3286.40168	1916.35
3288.65753	1921.25
3290.91202	1921.45
3293.16516	1912.45
3295.41695	1915.85
3297.66738	1909.65
3299.91647	1890.35
3302.16421	1890.15
3304.4106	1891.55
3306.65564	1868.45
3308.89933	1850.75
3311.14169	1840.85
3313.38269	1841.85
3315.62236	1817.85
3317.86068	1810.75
3320.09766	1805.55
3322.3333	1784.45
3324.5676	1785.85
3326.80056	1761.55
3329.03219	1743.35
3331.26248	1.95
3333.49143	-0.05
3335.71905	-1.45
