Data from AgNPs_UA_5uM_CRN_500uM_AS_RamanShift__28__13-30-13-873.txt Node

Date: Wed Aug 17 13:30:13 BST 2022
User: TCL
Spectrometer: QEP01345
Trigger mode: 4
Integration Time (sec): 7.000000E0
Scans to average: 10
Electric dark correction enabled: true
Nonlinearity correction enabled: false
Boxcar width: 0
XAxis mode: Raman Shifts
Number of Pixels in Spectrum: 1044
>>>>>Begin Spectral Data<<<<<
46.04893	0.05
50.45542	0.25
54.85868	-0.75
59.25871	0.55
63.6555	113.55
68.04907	117.55
72.43941	124.45
76.82654	126.75
81.21044	135.85
85.59113	138.35
89.96862	145.45
94.34289	152.65
98.71396	158.35
103.08183	165.75
107.4465	173.15
111.80798	176.35
116.16626	178.35
120.52136	191.85
124.87327	203.75
129.222	214.25
133.56755	239.85
137.90993	263.05
142.24913	286.65
146.58517	324.75
150.91804	376.15
155.24774	452.45
159.57429	575.45
163.89768	745.55
168.21792	1002.15
172.53501	1383.25
176.84895	1931.35
181.15975	2711.85
185.46741	3820.35
189.77193	5299.95
194.07331	7176.75
198.37157	9345.95
202.6667	11702.55
206.9587	14220.75
211.24758	16933.65
215.53334	20001.95
219.81599	23563.25
224.09553	27700.15
228.37195	32138.55
232.64527	36582.35
236.91549	40530.75
241.18261	43486.65
245.44663	45396.55
249.70755	46875.75
253.96539	48434.25
258.22014	49502.15
262.4718	49704.15
266.72039	48683.55
270.96589	46374.65
275.20832	43334.35
279.44768	40440.35
283.68397	38323.25
287.91719	37618.85
292.14735	38684.15
296.37445	42005.95
300.59849	47561.05
304.81948	54258.25
309.03742	59989.85
313.25231	61480.25
317.46415	56635.75
321.67296	47780.65
325.87872	40548.25
330.08145	37369.75
334.28114	37602.25
338.47781	39507.25
342.67145	42434.85
346.86207	46905.25
351.04966	53996.65
355.23424	61567.25
359.4158	65733.45
363.59435	65921.25
367.76989	63767.05
371.94243	60763.25
376.11196	58002.95
380.27849	55649.45
384.44203	53137.55
388.60257	50868.15
392.76012	49554.95
396.91468	49960.55
401.06626	51869.15
405.21485	52412.95
409.36047	48796.05
413.50311	42036.85
417.64277	35755.35
421.77947	31942.95
425.9132	30199.45
430.04396	29548.35
434.17176	29754.85
438.2966	30895.95
442.41849	32840.05
446.53742	34823.05
450.6534	35999.85
454.76644	35894.55
458.87653	34789.25
462.98368	33300.15
467.08789	31801.25
471.18916	30181.25
475.2875	28200.15
479.38291	26456.65
483.4754	25167.75
487.56496	24429.75
491.6516	24024.45
495.73531	24063.05
499.81612	24564.15
503.89401	25692.25
507.96899	27235.85
512.04106	29162.25
516.11023	31191.35
520.1765	32480.45
524.23987	32497.95
528.30034	31593.45
532.35792	30600.45
536.41261	29220.85
540.46441	27431.95
544.51333	26292.45
548.55936	26470.65
552.60252	27867.85
556.64279	29753.95
560.6802	31582.95
564.71473	35672.35
568.7464	41810.35
572.7752	41928.35
576.80114	34442.05
580.82422	27714.05
584.84444	24753.55
588.86181	24234.25
592.87633	25070.05
596.888	26921.45
600.89682	31760.65
604.9028	48118.15
608.90594	89019.75
612.90624	135149.65
616.90371	117164.25
620.89834	58144.25
624.89015	33299.35
628.87913	29871.45
632.86528	32671.35
636.84862	34508.25
640.82913	31039.35
644.80683	25378.05
648.78172	22433.25
652.75379	23363.65
656.72306	28056.15
660.68952	32233.85
664.65319	29082.95
668.61405	23393.55
672.57211	21348.75
676.52738	21513.45
680.47986	21102.05
684.42955	20062.15
688.37646	19587.55
692.32058	19876.15
696.26192	20777.95
700.20048	21777.15
704.13626	22063.45
708.06928	21475.95
711.99952	20877.85
715.927	21134.85
719.85171	22050.45
723.77365	22599.15
727.69284	21989.55
731.60928	21360.15
735.52295	21248.15
739.43388	21366.35
743.34206	21553.45
747.24749	21361.75
751.15017	21445.15
755.05012	23546.45
758.94733	30803.25
762.8418	47134.35
766.73354	68417.35
770.62254	83696.85
774.50882	90882.05
778.39237	85439.15
782.27321	64082.85
786.15132	41626.05
790.02671	29299.05
793.89938	24196.35
797.76935	22066.55
801.6366	21055.65
805.50115	20482.35
809.36299	20116.95
813.22213	19814.65
817.07857	19704.35
820.93231	19990.55
824.78336	20667.15
828.63172	21427.05
832.47738	21572.15
836.32036	20740.05
840.16066	19701.55
843.99827	19029.55
847.8332	18835.15
851.66546	18963.15
855.49504	19099.05
859.32195	19026.35
863.1462	18864.15
866.96777	18674.95
870.78668	18645.75
874.60293	18890.85
878.41652	19385.25
882.22745	20105.85
886.03573	20488.95
889.84136	20357.65
893.64433	20220.95
897.44466	20438.55
901.24235	20540.55
905.0374	19923.15
908.8298	19087.65
912.61957	18417.65
916.40671	18192.75
920.19121	18399.15
923.97308	19453.65
927.75233	21732.15
931.52895	23678.95
935.30295	22333.05
939.07433	19135.75
942.84309	16872.35
946.60924	15745.35
950.37278	15320.95
954.13371	15217.35
957.89203	15197.35
961.64774	15142.85
965.40086	15042.05
969.15137	14988.75
972.89929	14917.25
976.64461	14877.95
980.38733	14888.45
984.12747	14926.65
987.86502	15034.55
991.59999	15299.35
995.33237	15752.75
999.06217	16434.45
1002.78939	17401.65
1006.51404	18610.25
1010.23611	19498.55
1013.95561	19533.35
1017.67255	18904.25
1021.38692	17942.65
1025.09872	16980.75
1028.80796	16463.85
1032.51465	16602.55
1036.21877	16991.05
1039.92035	17505.05
1043.61937	18003.95
1047.31584	18429.05
1051.00976	18333.65
1054.70114	17858.45
1058.38998	17506.15
1062.07627	17446.45
1065.76003	17430.35
1069.44126	17628.35
1073.11995	18598.75
1076.79611	20743.95
1080.46974	24210.95
1084.14085	28309.05
1087.80943	31119.85
1091.47549	30747.25
1095.13903	27751.85
1098.80005	24189.45
1102.45857	22330.05
1106.11456	22535.65
1109.76805	24480.05
1113.41903	28183.95
1117.06751	34094.35
1120.71348	42568.65
1124.35696	51925.45
1127.99793	54574.35
1131.63641	47081.35
1135.2724	37143.35
1138.90589	30470.15
1142.5369	26694.75
1146.16542	24369.65
1149.79145	23031.35
1153.415	22739.75
1157.03607	23314.25
1160.65467	24991.15
1164.27079	28140.45
1167.88443	32977.15
1171.49561	41100.85
1175.10432	54517.85
1178.71056	71133.25
1182.31434	81782.05
1185.91565	80921.35
1189.51451	72661.05
1193.11091	62198.45
1196.70485	53419.95
1200.29634	47954.35
1203.88538	42430.35
1207.47197	34902.65
1211.05612	28538.35
1214.63782	24839.85
1218.21708	23061.55
1221.79391	22514.55
1225.36829	22257.15
1228.94024	21941.25
1232.50976	21742.35
1236.07685	21957.85
1239.6415	22766.45
1243.20374	23662.85
1246.76355	24383.45
1250.32093	25361.05
1253.8759	27155.95
1257.42845	30016.45
1260.97859	33787.35
1264.52631	37825.35
1268.07163	40775.65
1271.61453	41992.65
1275.15503	41565.45
1278.69312	40969.75
1282.22882	42351.25
1285.76211	46441.65
1289.29301	50877.85
1292.82151	54599.85
1296.34761	59669.05
1299.87133	69126.75
1303.39266	86665.65
1306.9116	112162.25
1310.42815	133678.95
1313.94233	133276.75
1317.45412	112003.95
1320.96354	85825.75
1324.47058	64187.65
1327.97525	49990.65
1331.47754	43347.15
1334.97747	42518.05
1338.47502	46578.05
1341.97022	55793.05
1345.46305	69741.45
1348.95352	86495.55
1352.44163	107277.35
1355.92738	139347.55
1359.41078	180916.95
1362.89183	195626.55
1366.37053	169383.65
1369.84688	118358.05
1373.32088	84025.05
1376.79254	66246.95
1380.26186	55419.75
1383.72883	46451.55
1387.19347	38781.95
1390.65578	32875.55
1394.11575	29279.35
1397.57339	27604.05
1401.0287	26855.05
1404.48168	26443.85
1407.93234	26591.85
1411.38068	27725.15
1414.82669	29302.05
1418.27039	30072.25
1421.71177	29873.75
1425.15083	29914.95
1428.58758	31644.45
1432.02203	33816.05
1435.45416	34108.25
1438.88399	32907.05
1442.31151	32020.25
1445.73673	32006.75
1449.15965	32022.75
1452.58027	31028.45
1455.9986	29629.65
1459.41463	29595.75
1462.82837	31256.75
1466.23982	33484.95
1469.64898	34755.45
1473.05586	35208.85
1476.46045	35837.85
1479.86276	37431.55
1483.26279	40165.55
1486.66054	44804.15
1490.05602	51856.45
1493.44922	62584.05
1496.84016	79412.75
1500.22882	105436.35
1503.61521	140490.95
1506.99934	177076.85
1510.38121	195838.55
1513.76081	194566.85
1517.13816	167057.75
1520.51324	123576.05
1523.88607	88256.25
1527.25665	66698.55
1530.62498	54731.35
1533.99105	47608.15
1537.35488	43318.45
1540.71647	41377.05
1544.07581	41371.15
1547.4329	42424.15
1550.78776	43949.35
1554.14038	45419.85
1557.49077	47092.25
1560.83892	50707.05
1564.18484	57396.65
1567.52853	65055.55
1570.86999	69887.65
1574.20922	70895.25
1577.54624	66164.85
1580.88103	54336.75
1584.2136	41992.35
1587.54395	35126.85
1590.87208	34530.25
1594.19801	38840.75
1597.52172	44403.05
1600.84321	45551.95
1604.16251	41816.25
1607.47959	36486.95
1610.79447	31182.05
1614.10715	26804.35
1617.41763	23957.05
1620.7259	22653.15
1624.03199	22769.95
1627.33587	24016.25
1630.63757	26540.65
1633.93707	31312.25
1637.23439	39887.95
1640.52951	54827.75
1643.82246	77651.85
1647.11321	102517.25
1650.40179	113846.05
1653.68819	101618.65
1656.97241	75178.45
1660.25446	50776.15
1663.53433	35023.65
1666.81203	26299.35
1670.08756	21550.65
1673.36092	18862.15
1676.63211	17153.95
1679.90115	16056.65
1683.16801	15310.65
1686.43272	14792.15
1689.69527	14435.15
1692.95567	14172.65
1696.2139	14008.65
1699.46999	13867.25
1702.72392	13738.65
1705.97571	13748.55
1709.22535	13800.25
1712.47284	13874.25
1715.71819	13841.75
1718.96139	13728.55
1722.20246	13469.05
1725.44139	13106.15
1728.67818	12694.95
1731.91284	12322.65
1735.14537	12010.45
1738.37576	11844.15
1741.60403	11723.45
1744.83017	11593.15
1748.05418	11463.45
1751.27607	11351.25
1754.49584	11167.25
1757.71349	10999.15
1760.92903	10804.95
1764.14244	10599.15
1767.35375	10332.45
1770.56294	10100.45
1773.77002	9826.05
1776.97499	9616.25
1780.17785	9415.25
1783.37861	9245.65
1786.57727	9169.15
1789.77382	9080.95
1792.96828	9033.95
1796.16064	8982.95
1799.3509	8925.95
1802.53907	8861.05
1805.72514	8753.65
1808.90913	8679.05
1812.09102	8588.25
1815.27083	8524.45
1818.44856	8435.55
1821.6242	8377.25
1824.79776	8285.65
1827.96924	8204.85
1831.13864	8085.75
1834.30597	8007.55
1837.47122	7916.75
1840.6344	7838.05
1843.7955	7784.95
1846.95454	7716.85
1850.11151	7681.45
1853.26642	7652.55
1856.41926	7641.45
1859.57004	7671.05
1862.71876	7691.95
1865.86542	7704.35
1869.01003	7757.95
1872.15258	7773.35
1875.29308	7790.65
1878.43152	7804.25
1881.56792	7787.55
1884.70227	7761.55
1887.83457	7722.85
1890.96482	7680.95
1894.09304	7632.75
1897.21921	7634.05
1900.34335	7655.45
1903.46544	7642.75
1906.58551	7648.95
1909.70353	7619.65
1912.81953	7629.25
1915.93349	7611.35
1919.04543	7535.35
1922.15534	7495.95
1925.26322	7418.75
1928.36908	7298.95
1931.47292	7170.55
1934.57473	7037.25
1937.67453	6922.15
1940.77232	6821.35
1943.86808	6743.35
1946.96184	6717.05
1950.05358	6678.75
1953.14331	6667.55
1956.23103	6677.45
1959.31675	6714.85
1962.40046	6760.95
1965.48217	6816.55
1968.56188	6878.65
1971.63959	6916.75
1974.7153	6892.35
1977.78901	6793.15
1980.86073	6638.35
1983.93046	6514.05
1986.99819	6404.35
1990.06394	6308.65
1993.1277	6202.25
1996.18947	6148.45
1999.24925	6093.55
2002.30706	6029.55
2005.36288	5961.55
2008.41672	5934.65
2011.46859	5904.65
2014.51848	5867.85
2017.56639	5835.05
2020.61233	5810.85
2023.6563	5771.65
2026.6983	5725.95
2029.73833	5714.75
2032.7764	5666.65
2035.8125	5644.45
2038.84664	5632.55
2041.87881	5636.45
2044.90903	5607.55
2047.93729	5574.55
2050.96359	5545.35
2053.98794	5495.95
2057.01034	5457.55
2060.03078	5419.55
2063.04927	5373.65
2066.06582	5335.85
2069.08042	5276.95
2072.09307	5263.85
2075.10378	5287.45
2078.11255	5296.75
2081.11938	5306.35
2084.12426	5292.25
2087.12722	5315.75
2090.12824	5295.95
2093.12732	5312.05
2096.12447	5325.95
2099.11969	5317.35
2102.11299	5326.25
2105.10435	5342.65
2108.09379	5339.15
2111.08131	5347.15
2114.0669	5384.55
2117.05057	5431.05
2120.03233	5491.85
2123.01216	5566.55
2125.99008	5735.75
2128.96609	5540.25
2131.94018	5508.35
2134.91236	5453.25
2137.88263	5375.25
2140.851	5307.05
2143.81746	5247.55
2146.78201	5155.55
2149.74466	5074.65
2152.7054	5003.75
2155.66425	4939.35
2158.6212	4913.25
2161.57625	4880.85
2164.52941	4849.35
2167.48067	4868.25
2170.43004	4854.45
2173.37752	4861.85
2176.32311	4905.55
2179.26681	4929.05
2182.20863	4930.05
2185.14856	4923.75
2188.08661	4903.85
2191.02278	4854.95
2193.95707	4788.75
2196.88948	4723.65
2199.82001	4711.05
2202.74867	4706.65
2205.67545	4705.85
2208.60037	4693.75
2211.52341	4703.35
2214.44458	4670.05
2217.36388	4633.55
2220.28132	4586.15
2223.1969	4545.25
2226.11061	4519.15
2229.02246	4494.95
2231.93245	4484.45
2234.84058	4462.35
2237.74686	4480.65
2240.65128	4472.25
2243.55385	4474.85
2246.45456	4533.85
2249.35343	4601.65
2252.25044	4697.85
2255.14561	4792.45
2258.03893	4910.05
2260.93041	4989.95
2263.82004	5010.95
2266.70783	4985.85
2269.59378	4946.05
2272.4779	4903.75
2275.36017	4876.75
2278.24061	4866.05
2281.11922	4835.45
2283.996	4780.45
2286.87094	4718.05
2289.74405	4619.05
2292.61534	4566.55
2295.4848	4496.75
2298.35243	4451.35
2301.21824	4395.15
2304.08223	4386.85
2306.94439	4384.45
2309.80474	4391.55
2312.66327	4399.05
2315.51999	4373.95
2318.37489	4365.85
2321.22797	4348.75
2324.07925	4320.95
2326.92871	4314.95
2329.77637	4330.05
2332.62222	4311.65
2335.46626	4327.25
2338.3085	4344.85
2341.14893	4384.45
2343.98756	4414.25
2346.8244	4451.95
2349.65943	4491.45
2352.49267	4570.05
2355.32411	4658.45
2358.15376	4757.25
2360.98161	4867.35
2363.80768	4957.05
2366.63195	5044.75
2369.45444	5104.45
2372.27514	5126.65
2375.09405	5122.35
2377.91118	5071.15
2380.72652	5014.05
2383.54009	4909.35
2386.35187	4812.65
2389.16188	4692.25
2391.97011	4583.35
2394.77657	4511.95
2397.58125	4440.35
2400.38416	4367.75
2403.18529	4320.35
2405.98466	4253.95
2408.78226	4244.45
2411.57809	4227.55
2414.37216	4220.55
2417.16446	4195.05
2419.955	4222.75
2422.74378	4242.55
2425.5308	4291.25
2428.31606	4302.35
2431.09956	4352.05
2433.88131	4397.35
2436.6613	4420.95
2439.43954	4460.05
2442.21603	4526.25
2444.99077	4568.15
2447.76377	4616.65
2450.53501	4629.15
2453.30451	4681.35
2456.07226	4678.25
2458.83827	4654.55
2461.60254	4668.35
2464.36507	4665.25
2467.12586	4649.35
2469.88492	4666.45
2472.64224	4727.05
2475.39782	4797.25
2478.15167	4896.45
2480.90379	5013.95
2483.65417	5122.95
2486.40283	5235.15
2489.14976	5325.65
2491.89497	5363.25
2494.63845	5368.75
2497.3802	5320.95
2500.12024	5242.35
2502.85855	5123.65
2505.59514	4975.15
2508.33002	4824.85
2511.06318	4652.25
2513.79462	4482.35
2516.52435	4340.25
2519.25237	4224.35
2521.97867	4133.95
2524.70327	4075.15
2527.42616	4056.15
2530.14734	4029.45
2532.86681	4052.55
2535.58458	4062.75
2538.30065	4098.35
2541.01501	4144.25
2543.72768	4169.75
2546.43864	4220.55
2549.14791	4254.75
2551.85548	4266.05
2554.56136	4311.75
2557.26554	4318.95
2559.96803	4329.25
2562.66883	4316.45
2565.36794	4304.55
2568.06536	4306.25
2570.7611	4291.45
2573.45514	4231.95
2576.14751	4210.15
2578.83819	4171.85
2581.52719	4138.95
2584.21451	4101.25
2586.90015	4074.85
2589.58411	4040.55
2592.2664	4041.55
2594.94701	4038.45
2597.62594	4045.75
2600.30321	4083.65
2602.9788	4081.35
2605.65273	4109.85
2608.32498	4135.85
2610.99557	4168.45
2613.66449	4204.35
2616.33175	4214.15
2618.99734	4210.15
2621.66128	4196.35
2624.32355	4170.05
2626.98416	4122.95
2629.64311	4063.95
2632.30041	4021.15
2634.95605	3997.35
2637.61004	3941.15
2640.26238	3920.45
2642.91306	3899.65
2645.56209	3907.95
2648.20948	3899.85
2650.85521	3922.15
2653.4993	3954.15
2656.14175	3992.75
2658.78255	4039.45
2661.42171	4079.95
2664.05923	4133.45
2666.6951	4179.25
2669.32934	4228.85
2671.96194	4235.45
2674.59291	4250.85
2677.22224	4257.45
2679.84993	4246.35
2682.476	4209.15
2685.10043	4195.05
2687.72324	4169.45
2690.34441	4137.85
2692.96396	4132.65
2695.58188	4114.65
2698.19818	4109.65
2700.81285	4149.95
2703.4259	4130.15
2706.03733	4132.85
2708.64714	4157.95
2711.25533	4190.85
2713.86191	4220.75
2716.46687	4244.35
2719.07021	4266.95
2721.67194	4290.25
2724.27206	4296.65
2726.87057	4278.35
2729.46747	4249.25
2732.06276	4203.85
2734.65644	4141.55
2737.24852	4090.25
2739.83899	4035.55
2742.42786	4002.95
2745.01513	3937.55
2747.60079	3901.35
2750.18486	3876.85
2752.76733	3841.45
2755.3482	3818.65
2757.92747	3806.05
2760.50515	3782.85
2763.08123	3772.45
2765.65573	3759.45
2768.22863	3762.75
2770.79994	3776.85
2773.36967	3800.75
2775.9378	3822.75
2778.50435	3846.75
2781.06932	3882.05
2783.6327	3918.95
2786.1945	3959.95
2788.75471	4000.05
2791.31335	4051.05
2793.87041	4104.65
2796.42589	4177.05
2798.97979	4220.15
2801.53212	4297.65
2804.08288	4386.55
2806.63206	4463.35
2809.17967	4548.85
2811.72571	4648.45
2814.27018	4752.75
2816.81308	4833.25
2819.35442	4929.25
2821.89419	5033.55
2824.43239	5075.65
2826.96904	5096.35
2829.50412	5116.85
2832.03763	5136.55
2834.56959	5116.75
2837.1	5121.95
2839.62884	5141.35
2842.15613	5163.45
2844.68186	5227.95
2847.20604	5295.45
2849.72867	5388.15
2852.24974	5454.75
2854.76927	5550.55
2857.28724	5657.25
2859.80367	5750.55
2862.31855	5850.55
2864.83189	5995.05
2867.34368	6067.75
2869.85393	6154.65
2872.36264	6205.15
2874.8698	6231.85
2877.37543	6209.75
2879.87952	6179.05
2882.38207	6156.35
2884.88308	6110.85
2887.38256	6090.65
2889.88051	6073.35
2892.37692	6059.25
2894.8718	6061.55
2897.36515	6070.35
2899.85698	6063.55
2902.34727	6048.85
2904.83604	6015.35
2907.32328	5962.35
2909.809	5881.25
2912.29319	5833.05
2914.77587	5764.65
2917.25702	5705.55
2919.73665	5651.05
2922.21476	5575.05
2924.69136	5490.95
2927.16644	5423.45
2929.64	5346.15
2932.11205	5293.05
2934.58258	5223.35
2937.05161	5152.15
2939.51912	5085.85
2941.98513	5040.85
2944.44962	4992.25
2946.91261	4910.85
2949.37409	4881.55
2951.83407	4869.05
2954.29254	4830.15
2956.74951	4787.85
2959.20498	4724.65
2961.65895	4683.65
2964.11142	4647.55
2966.56239	4579.35
2969.01186	4526.25
2971.45984	4454.15
2973.90632	4383.65
2976.35131	4337.05
2978.7948	4290.65
2981.23681	4245.65
2983.67732	4236.05
2986.11635	4210.15
2988.55388	4190.95
2990.98993	4195.55
2993.4245	4231.55
2995.85758	4233.65
2998.28917	4250.95
3000.71928	4278.75
3003.14791	4299.75
3005.57506	4319.15
3008.00073	4319.75
3010.42493	4349.05
3012.84764	4327.75
3015.26888	4318.35
3017.68865	4290.65
3020.10694	4286.15
3022.52376	4240.45
3024.9391	4214.15
3027.35298	4145.95
3029.76539	4068.05
3032.17632	4013.35
3034.5858	3944.85
3036.9938	3859.95
3039.40034	3818.25
3041.80542	3791.25
3044.20903	3710.35
3046.61118	3708.85
3049.01187	3663.85
3051.4111	3645.95
3053.80888	3605.45
3056.20519	3592.55
3058.60005	3554.45
3060.99345	3544.35
3063.3854	3515.95
3065.7759	3462.95
3068.16494	3437.35
3070.55254	3389.75
3072.93868	3374.05
3075.32338	3330.05
3077.70662	3319.25
3080.08842	3299.45
3082.46878	3295.15
3084.84769	3282.65
3087.22515	3276.85
3089.60118	3262.05
3091.97576	3250.75
3094.3489	3236.75
3096.72061	3222.55
3099.09087	3226.15
3101.4597	3210.95
3103.82709	3209.15
3106.19305	3187.25
3108.55757	3208.05
3110.92066	3196.15
3113.28232	3201.35
3115.64255	3188.75
3118.00134	3198.55
3120.35871	3186.75
3122.71466	3198.05
3125.06917	3193.05
3127.42226	3188.75
3129.77393	3222.05
3132.12417	3234.05
3134.47299	3237.65
3136.82039	3269.45
3139.16636	3276.05
3141.51092	3285.15
3143.85406	3302.45
3146.19579	3315.75
3148.53609	3340.65
3150.87499	3334.95
3153.21246	3362.55
3155.54853	3395.55
3157.88318	3402.35
3160.21642	3414.45
3162.54826	3416.55
3164.87868	3421.65
3167.2077	3414.85
3169.5353	3427.75
3171.86151	3417.05
3174.18631	3424.35
3176.5097	3417.15
3178.83169	3423.15
3181.15228	3441.25
3183.47147	3437.95
3185.78926	3448.65
3188.10565	3462.45
3190.42065	3486.35
3192.73424	3510.15
3195.04645	3545.75
3197.35725	3572.85
3199.66667	3630.95
3201.97469	3654.45
3204.28132	3687.35
3206.58656	3748.95
3208.8904	3788.45
3211.19287	3833.25
3213.49394	3863.95
3215.79363	3899.85
3218.09193	3958.65
3220.38884	3967.75
3222.68438	3987.25
3224.97853	4013.75
3227.2713	4024.85
3229.56269	4044.15
3231.8527	4060.55
3234.14133	4049.85
3236.42858	4049.25
3238.71446	4081.95
3240.99896	4080.95
3243.28209	4096.55
3245.56384	4106.25
3247.84423	4093.85
3250.12324	4101.75
3252.40088	4098.95
3254.67715	4115.85
3256.95205	4096.15
3259.22558	4136.55
3261.49775	4135.45
3263.76855	4119.95
3266.03799	4137.15
3268.30606	4139.55
3270.57277	4152.05
3272.83812	4156.05
3275.10211	4160.55
3277.36474	4163.65
3279.62601	4187.15
3281.88593	4195.95
3284.14448	4237.05
3286.40168	4221.65
3288.65753	4249.15
3290.91202	4259.15
3293.16516	4264.45
3295.41695	4280.05
3297.66738	4249.35
3299.91647	4202.75
3302.16421	4152.25
3304.4106	4090.65
3306.65564	4024.25
3308.89933	3947.85
3311.14169	3888.25
3313.38269	3802.45
3315.62236	3760.25
3317.86068	3691.55
3320.09766	3642.85
3322.3333	3571.05
3324.5676	3527.85
3326.80056	3430.35
3329.03219	3407.65
3331.26248	2.55
3333.49143	-0.35
3335.71905	-1.85
