Data from AgNPs_APTES_FTO_UA_100uM_CRN_0uM_R6G_10uM_Scan_RamanShift__32__16-20-02-963.txt Node

Date: Mon Jul 11 16:20:02 BST 2022
User: TCL
Spectrometer: QEP01345
Trigger mode: 4
Integration Time (sec): 7.000000E0
Scans to average: 10
Electric dark correction enabled: true
Nonlinearity correction enabled: false
Boxcar width: 0
XAxis mode: Raman Shifts
Number of Pixels in Spectrum: 1044
>>>>>Begin Spectral Data<<<<<
46.04893	0.35
50.45542	0.95
54.85868	-1.15
59.25871	-1.75
63.6555	37.85
68.04907	38.45
72.43941	44.15
76.82654	42.45
81.21044	50.85
85.59113	49.85
89.96862	59.35
94.34289	55.65
98.71396	59.65
103.08183	57.65
107.4465	57.95
111.80798	57.95
116.16626	61.45
120.52136	66.15
124.87327	69.55
129.222	69.85
133.56755	74.45
137.90993	80.95
142.24913	88.35
146.58517	97.65
150.91804	107.85
155.24774	131.85
159.57429	162.45
163.89768	211.45
168.21792	270.55
172.53501	362.65
176.84895	509.35
181.15975	698.95
185.46741	992.95
189.77193	1351.05
194.07331	1815.55
198.37157	2324.15
202.6667	2902.45
206.9587	3436.75
211.24758	4012.05
215.53334	4585.35
219.81599	5227.35
224.09553	5924.15
228.37195	6687.25
232.64527	7511.75
236.91549	8298.95
241.18261	9016.25
245.44663	9604.65
249.70755	10057.75
253.96539	10459.95
258.22014	10786.35
262.4718	11073.75
266.72039	11224.95
270.96589	11252.95
275.20832	11087.15
279.44768	10858.65
283.68397	10632.25
287.91719	10512.15
292.14735	10544.45
296.37445	10789.45
300.59849	11221.55
304.81948	11712.65
309.03742	12058.35
313.25231	11948.65
317.46415	11357.35
321.67296	10534.35
325.87872	9915.05
330.08145	9639.35
334.28114	9658.95
338.47781	9829.75
342.67145	10115.45
346.86207	10573.05
351.04966	11238.25
355.23424	11956.65
359.4158	12453.95
363.59435	12732.85
367.76989	12801.35
371.94243	12787.15
376.11196	12784.95
380.27849	12747.65
384.44203	12716.75
388.60257	12534.75
392.76012	12489.85
396.91468	12601.95
401.06626	12881.55
405.21485	13000.25
409.36047	12681.15
413.50311	11970.65
417.64277	11396.25
421.77947	11035.05
425.9132	10831.45
430.04396	10788.15
434.17176	10873.25
438.2966	11052.05
442.41849	11336.35
446.53742	11714.15
450.6534	11984.55
454.76644	12138.55
458.87653	12133.35
462.98368	12022.95
467.08789	11819.15
471.18916	11592.55
475.2875	11356.15
479.38291	11178.65
483.4754	11133.45
487.56496	11146.75
491.6516	11153.25
495.73531	11192.55
499.81612	11164.85
503.89401	11212.25
507.96899	11299.55
512.04106	11471.85
516.11023	11730.35
520.1765	11933.75
524.23987	11970.85
528.30034	11893.85
532.35792	11745.55
536.41261	11531.05
540.46441	11269.65
544.51333	11052.15
548.55936	11045.85
552.60252	11200.35
556.64279	11390.05
560.6802	11448.15
564.71473	11603.55
568.7464	11979.25
572.7752	12061.65
576.80114	11604.75
580.82422	11262.05
584.84444	11203.85
588.86181	11326.85
592.87633	11522.85
596.888	11814.95
600.89682	12330.95
604.9028	14059.75
608.90594	18372.65
612.90624	22816.95
616.90371	20679.55
620.89834	15039.25
624.89015	13033.05
628.87913	13121.45
632.86528	13628.65
636.84862	13933.75
640.82913	13543.65
644.80683	12696.25
648.78172	11994.75
652.75379	11751.95
656.72306	11988.45
660.68952	12292.25
664.65319	11985.85
668.61405	11496.75
672.57211	11354.95
676.52738	11404.15
680.47986	11466.45
684.42955	11523.65
688.37646	11605.25
692.32058	11627.95
696.26192	11599.45
700.20048	11573.55
704.13626	11447.25
708.06928	11233.25
711.99952	11056.25
715.927	11022.05
719.85171	11117.95
723.77365	11255.35
727.69284	11255.55
731.60928	11243.05
735.52295	11097.35
739.43388	11064.65
743.34206	11021.95
747.24749	11036.25
751.15017	11055.15
755.05012	11211.75
758.94733	11822.25
762.8418	13223.95
766.73354	15405.95
770.62254	17498.05
774.50882	18437.75
778.39237	17467.95
782.27321	15096.85
786.15132	12942.85
790.02671	11781.65
793.89938	11308.15
797.76935	11152.45
801.6366	11170.15
805.50115	11306.75
809.36299	11528.65
813.22213	11576.55
817.07857	11469.25
820.93231	11293.95
824.78336	11082.05
828.63172	10968.85
832.47738	10871.75
836.32036	10833.75
840.16066	10775.55
843.99827	10759.95
847.8332	10729.15
851.66546	10725.35
855.49504	10704.95
859.32195	10703.65
863.1462	10698.55
866.96777	10694.65
870.78668	10782.85
874.60293	10978.65
878.41652	11157.95
882.22745	11409.45
886.03573	11550.65
889.84136	11533.75
893.64433	11378.25
897.44466	11116.95
901.24235	10880.65
905.0374	10669.55
908.8298	10500.95
912.61957	10390.85
916.40671	10349.55
920.19121	10399.05
923.97308	10499.65
927.75233	10661.65
931.52895	10790.35
935.30295	10741.15
939.07433	10426.75
942.84309	10213.75
946.60924	10130.85
950.37278	10065.15
954.13371	10008.65
957.89203	9986.35
961.64774	9955.25
965.40086	9895.15
969.15137	9828.15
972.89929	9796.45
976.64461	9771.45
980.38733	9764.85
984.12747	9811.95
987.86502	9867.25
991.59999	9975.95
995.33237	10149.35
999.06217	10466.65
1002.78939	10835.65
1006.51404	11151.65
1010.23611	11374.25
1013.95561	11558.65
1017.67255	11619.35
1021.38692	11555.85
1025.09872	11379.85
1028.80796	11343.55
1032.51465	11413.35
1036.21877	11498.15
1039.92035	11427.15
1043.61937	11291.15
1047.31584	11059.65
1051.00976	10872.45
1054.70114	10759.15
1058.38998	10736.85
1062.07627	10753.55
1065.76003	10808.95
1069.44126	10873.35
1073.11995	10972.55
1076.79611	11082.35
1080.46974	11285.75
1084.14085	11536.15
1087.80943	11764.35
1091.47549	11788.55
1095.13903	11479.55
1098.80005	11163.15
1102.45857	10916.25
1106.11456	10928.65
1109.76805	11127.25
1113.41903	11520.45
1117.06751	12070.05
1120.71348	12836.75
1124.35696	13739.45
1127.99793	14436.35
1131.63641	14556.75
1135.2724	14132.85
1138.90589	13614.95
1142.5369	13085.35
1146.16542	12462.85
1149.79145	11976.65
1153.415	11636.65
1157.03607	11483.65
1160.65467	11511.55
1164.27079	11819.95
1167.88443	12347.55
1171.49561	13280.35
1175.10432	14779.95
1178.71056	16831.45
1182.31434	18534.35
1185.91565	19054.65
1189.51451	18507.95
1193.11091	17445.05
1196.70485	16371.45
1200.29634	15680.35
1203.88538	15143.75
1207.47197	14372.55
1211.05612	13573.85
1214.63782	12984.55
1218.21708	12606.35
1221.79391	12401.65
1225.36829	12299.25
1228.94024	12173.25
1232.50976	12054.85
1236.07685	12007.15
1239.6415	12047.15
1243.20374	12142.85
1246.76355	12286.95
1250.32093	12416.85
1253.8759	12681.05
1257.42845	13047.95
1260.97859	13428.25
1264.52631	13789.65
1268.07163	14169.95
1271.61453	14422.85
1275.15503	14656.45
1278.69312	14778.35
1282.22882	14959.65
1285.76211	15316.95
1289.29301	15820.95
1292.82151	16368.45
1296.34761	17020.35
1299.87133	18009.05
1303.39266	19729.95
1306.9116	22225.05
1310.42815	24613.95
1313.94233	25358.85
1317.45412	24012.35
1320.96354	21904.15
1324.47058	19930.05
1327.97525	18407.75
1331.47754	17593.95
1334.97747	17433.45
1338.47502	17788.95
1341.97022	18565.65
1345.46305	19638.35
1348.95352	21135.75
1352.44163	23049.55
1355.92738	25748.05
1359.41078	29642.25
1362.89183	32667.65
1366.37053	30815.65
1369.84688	25590.75
1373.32088	20980.65
1376.79254	18288.35
1380.26186	16910.25
1383.72883	16144.25
1387.19347	15558.45
1390.65578	14959.55
1394.11575	14525.45
1397.57339	14295.05
1401.0287	14223.55
1404.48168	14214.35
1407.93234	14240.35
1411.38068	14279.55
1414.82669	14327.55
1418.27039	14219.65
1421.71177	13956.95
1425.15083	13689.75
1428.58758	13648.65
1432.02203	13792.85
1435.45416	13990.15
1438.88399	14069.35
1442.31151	14108.15
1445.73673	14215.75
1449.15965	14387.85
1452.58027	14449.15
1455.9986	14406.85
1459.41463	14461.65
1462.82837	14669.35
1466.23982	14968.25
1469.64898	15267.25
1473.05586	15454.05
1476.46045	15511.75
1479.86276	15579.95
1483.26279	15811.65
1486.66054	16124.25
1490.05602	16604.45
1493.44922	17380.95
1496.84016	18673.05
1500.22882	20707.25
1503.61521	23611.55
1506.99934	26784.85
1510.38121	29152.55
1513.76081	29290.75
1517.13816	26808.75
1520.51324	23068.35
1523.88607	19870.95
1527.25665	17852.55
1530.62498	16699.15
1533.99105	16096.15
1537.35488	15715.65
1540.71647	15570.75
1544.07581	15561.45
1547.4329	15640.75
1550.78776	15737.95
1554.14038	15820.65
1557.49077	15910.25
1560.83892	16164.15
1564.18484	16513.45
1567.52853	16960.35
1570.86999	17402.95
1574.20922	17580.45
1577.54624	17364.85
1580.88103	16485.75
1584.2136	15403.55
1587.54395	14855.45
1590.87208	15076.55
1594.19801	15906.95
1597.52172	17017.05
1600.84321	17540.75
1604.16251	17119.75
1607.47959	16211.05
1610.79447	15121.65
1614.10715	14158.05
1617.41763	13389.05
1620.7259	12898.75
1624.03199	12694.25
1627.33587	12746.55
1630.63757	13038.65
1633.93707	13627.45
1637.23439	14595.85
1640.52951	16039.45
1643.82246	17954.45
1647.11321	20139.25
1650.40179	21425.25
1653.68819	20585.95
1656.97241	18011.75
1660.25446	15395.05
1663.53433	13598.05
1666.81203	12516.65
1670.08756	11851.55
1673.36092	11439.15
1676.63211	11101.25
1679.90115	10881.25
1683.16801	10658.85
1686.43272	10489.95
1689.69527	10356.75
1692.95567	10195.15
1696.2139	10118.05
1699.46999	9989.15
1702.72392	9852.65
1705.97571	9742.55
1709.22535	9678.35
1712.47284	9583.45
1715.71819	9542.15
1718.96139	9459.55
1722.20246	9365.25
1725.44139	9255.85
1728.67818	9158.15
1731.91284	9098.65
1735.14537	8995.25
1738.37576	8946.05
1741.60403	8896.05
1744.83017	8870.15
1748.05418	8850.45
1751.27607	8782.95
1754.49584	8780.75
1757.71349	8739.55
1760.92903	8752.45
1764.14244	8710.65
1767.35375	8690.05
1770.56294	8650.05
1773.77002	8608.15
1776.97499	8597.35
1780.17785	8576.85
1783.37861	8533.15
1786.57727	8513.45
1789.77382	8488.95
1792.96828	8484.85
1796.16064	8438.05
1799.3509	8446.15
1802.53907	8415.55
1805.72514	8404.05
1808.90913	8384.15
1812.09102	8362.45
1815.27083	8317.35
1818.44856	8307.35
1821.6242	8315.35
1824.79776	8268.35
1827.96924	8289.45
1831.13864	8258.15
1834.30597	8230.55
1837.47122	8204.85
1840.6344	8201.05
1843.7955	8224.45
1846.95454	8210.95
1850.11151	8204.05
1853.26642	8206.35
1856.41926	8181.85
1859.57004	8185.25
1862.71876	8186.95
1865.86542	8201.05
1869.01003	8185.65
1872.15258	8218.15
1875.29308	8176.35
1878.43152	8179.35
1881.56792	8150.95
1884.70227	8148.55
1887.83457	8152.45
1890.96482	8144.85
1894.09304	8110.75
1897.21921	8115.25
1900.34335	8117.35
1903.46544	8120.35
1906.58551	8112.65
1909.70353	8115.75
1912.81953	8090.15
1915.93349	8064.55
1919.04543	8053.95
1922.15534	8037.15
1925.26322	8057.35
1928.36908	8033.95
1931.47292	8031.55
1934.57473	8001.25
1937.67453	7980.65
1940.77232	7960.55
1943.86808	7935.15
1946.96184	7921.65
1950.05358	7909.05
1953.14331	7863.35
1956.23103	7849.95
1959.31675	7849.75
1962.40046	7831.05
1965.48217	7817.05
1968.56188	7797.95
1971.63959	7774.85
1974.7153	7742.95
1977.78901	7745.05
1980.86073	7721.55
1983.93046	7712.75
1986.99819	7658.95
1990.06394	7626.45
1993.1277	7604.65
1996.18947	7568.45
1999.24925	7566.25
2002.30706	7541.85
2005.36288	7508.55
2008.41672	7490.85
2011.46859	7456.05
2014.51848	7454.45
2017.56639	7427.15
2020.61233	7430.75
2023.6563	7429.25
2026.6983	7395.05
2029.73833	7365.45
2032.7764	7356.05
2035.8125	7342.95
2038.84664	7338.65
2041.87881	7332.85
2044.90903	7323.05
2047.93729	7309.65
2050.96359	7291.55
2053.98794	7267.15
2057.01034	7283.95
2060.03078	7291.15
2063.04927	7282.85
2066.06582	7280.85
2069.08042	7260.55
2072.09307	7268.05
2075.10378	7249.05
2078.11255	7258.35
2081.11938	7250.95
2084.12426	7260.85
2087.12722	7252.45
2090.12824	7243.15
2093.12732	7257.45
2096.12447	7255.85
2099.11969	7247.55
2102.11299	7251.05
2105.10435	7255.65
2108.09379	7261.35
2111.08131	7261.95
2114.0669	7279.45
2117.05057	7267.85
2120.03233	7269.45
2123.01216	7278.05
2125.99008	7297.75
2128.96609	7308.45
2131.94018	7316.65
2134.91236	7308.15
2137.88263	7308.15
2140.851	7315.85
2143.81746	7297.75
2146.78201	7308.65
2149.74466	7296.65
2152.7054	7312.85
2155.66425	7306.45
2158.6212	7307.65
2161.57625	7291.95
2164.52941	7296.65
2167.48067	7280.25
2170.43004	7294.95
2173.37752	7295.05
2176.32311	7285.05
2179.26681	7291.65
2182.20863	7298.25
2185.14856	7292.65
2188.08661	7308.35
2191.02278	7317.95
2193.95707	7303.35
2196.88948	7298.45
2199.82001	7281.45
2202.74867	7292.55
2205.67545	7271.25
2208.60037	7269.15
2211.52341	7273.95
2214.44458	7260.35
2217.36388	7258.25
2220.28132	7233.95
2223.1969	7217.55
2226.11061	7226.35
2229.02246	7215.05
2231.93245	7186.15
2234.84058	7166.95
2237.74686	7167.45
2240.65128	7166.75
2243.55385	7133.65
2246.45456	7157.55
2249.35343	7158.35
2252.25044	7131.85
2255.14561	7134.85
2258.03893	7129.25
2260.93041	7152.15
2263.82004	7138.05
2266.70783	7141.05
2269.59378	7110.05
2272.4779	7085.55
2275.36017	7083.05
2278.24061	7048.25
2281.11922	7029.55
2283.996	7012.35
2286.87094	7008.25
2289.74405	7004.65
2292.61534	6972.45
2295.4848	6977.75
2298.35243	6981.15
2301.21824	6979.55
2304.08223	6974.65
2306.94439	6991.95
2309.80474	6967.35
2312.66327	6965.55
2315.51999	6989.35
2318.37489	6977.15
2321.22797	6971.75
2324.07925	6954.15
2326.92871	6968.05
2329.77637	6961.95
2332.62222	6950.85
2335.46626	6956.35
2338.3085	6945.25
2341.14893	6950.55
2343.98756	6968.35
2346.8244	6961.05
2349.65943	6985.15
2352.49267	6960.65
2355.32411	6962.85
2358.15376	6968.25
2360.98161	6984.35
2363.80768	6987.85
2366.63195	6991.35
2369.45444	6998.65
2372.27514	6989.95
2375.09405	6989.35
2377.91118	6947.65
2380.72652	6920.55
2383.54009	6918.85
2386.35187	6897.95
2389.16188	6890.05
2391.97011	6851.25
2394.77657	6844.45
2397.58125	6835.95
2400.38416	6828.75
2403.18529	6799.65
2405.98466	6785.85
2408.78226	6767.75
2411.57809	6742.35
2414.37216	6740.55
2417.16446	6743.35
2419.955	6741.25
2422.74378	6731.15
2425.5308	6713.05
2428.31606	6717.85
2431.09956	6722.35
2433.88131	6723.05
2436.6613	6732.05
2439.43954	6722.55
2442.21603	6705.35
2444.99077	6704.65
2447.76377	6713.75
2450.53501	6714.05
2453.30451	6713.95
2456.07226	6709.55
2458.83827	6694.25
2461.60254	6707.15
2464.36507	6687.85
2467.12586	6686.55
2469.88492	6695.15
2472.64224	6698.25
2475.39782	6693.15
2478.15167	6720.05
2480.90379	6714.35
2483.65417	6747.55
2486.40283	6732.75
2489.14976	6742.85
2491.89497	6750.45
2494.63845	6759.35
2497.3802	6749.55
2500.12024	6755.95
2502.85855	6742.15
2505.59514	6729.25
2508.33002	6693.95
2511.06318	6701.55
2513.79462	6678.45
2516.52435	6634.95
2519.25237	6651.15
2521.97867	6621.55
2524.70327	6620.55
2527.42616	6598.25
2530.14734	6629.25
2532.86681	6588.45
2535.58458	6613.85
2538.30065	6599.05
2541.01501	6604.85
2543.72768	6599.95
2546.43864	6592.75
2549.14791	6594.15
2551.85548	6586.45
2554.56136	6589.95
2557.26554	6569.45
2559.96803	6550.95
2562.66883	6548.65
2565.36794	6550.35
2568.06536	6534.15
2570.7611	6538.65
2573.45514	6525.25
2576.14751	6530.65
2578.83819	6511.35
2581.52719	6506.95
2584.21451	6509.05
2586.90015	6477.35
2589.58411	6465.95
2592.2664	6481.05
2594.94701	6482.15
2597.62594	6471.85
2600.30321	6470.35
2602.9788	6451.05
2605.65273	6449.05
2608.32498	6457.25
2610.99557	6465.55
2613.66449	6443.25
2616.33175	6457.35
2618.99734	6456.15
2621.66128	6460.45
2624.32355	6440.35
2626.98416	6451.65
2629.64311	6444.55
2632.30041	6459.25
2634.95605	6429.35
2637.61004	6431.65
2640.26238	6405.75
2642.91306	6402.45
2645.56209	6402.85
2648.20948	6394.65
2650.85521	6392.15
2653.4993	6391.45
2656.14175	6379.85
2658.78255	6389.35
2661.42171	6386.25
2664.05923	6401.55
2666.6951	6410.75
2669.32934	6411.75
2671.96194	6408.35
2674.59291	6439.15
2677.22224	6428.85
2679.84993	6435.05
2682.476	6413.55
2685.10043	6437.05
2687.72324	6420.25
2690.34441	6406.25
2692.96396	6426.05
2695.58188	6415.15
2698.19818	6418.05
2700.81285	6426.05
2703.4259	6408.85
2706.03733	6432.35
2708.64714	6435.45
2711.25533	6427.55
2713.86191	6446.05
2716.46687	6455.25
2719.07021	6453.95
2721.67194	6460.05
2724.27206	6450.25
2726.87057	6456.45
2729.46747	6454.75
2732.06276	6453.15
2734.65644	6462.95
2737.24852	6452.65
2739.83899	6451.85
2742.42786	6420.15
2745.01513	6427.75
2747.60079	6412.55
2750.18486	6418.55
2752.76733	6433.75
2755.3482	6396.85
2757.92747	6402.55
2760.50515	6385.85
2763.08123	6384.95
2765.65573	6376.35
2768.22863	6384.05
2770.79994	6372.75
2773.36967	6369.15
2775.9378	6371.65
2778.50435	6381.85
2781.06932	6353.05
2783.6327	6360.45
2786.1945	6371.55
2788.75471	6347.45
2791.31335	6317.85
2793.87041	6341.15
2796.42589	6333.95
2798.97979	6322.35
2801.53212	6329.55
2804.08288	6299.65
2806.63206	6315.85
2809.17967	6275.25
2811.72571	6274.65
2814.27018	6271.55
2816.81308	6259.85
2819.35442	6271.55
2821.89419	6259.75
2824.43239	6280.05
2826.96904	6300.85
2829.50412	6306.45
2832.03763	6264.85
2834.56959	6265.95
2837.1	6264.85
2839.62884	6273.15
2842.15613	6265.55
2844.68186	6283.25
2847.20604	6286.05
2849.72867	6311.45
2852.24974	6301.75
2854.76927	6302.05
2857.28724	6294.45
2859.80367	6291.25
2862.31855	6298.85
2864.83189	6300.45
2867.34368	6274.15
2869.85393	6296.25
2872.36264	6300.85
2874.8698	6289.95
2877.37543	6290.15
2879.87952	6283.95
2882.38207	6268.65
2884.88308	6282.35
2887.38256	6287.35
2889.88051	6279.65
2892.37692	6281.05
2894.8718	6271.35
2897.36515	6322.15
2899.85698	6300.15
2902.34727	6313.95
2904.83604	6303.15
2907.32328	6338.25
2909.809	6333.15
2912.29319	6330.65
2914.77587	6334.35
2917.25702	6323.85
2919.73665	6341.85
2922.21476	6341.45
2924.69136	6328.35
2927.16644	6307.35
2929.64	6307.35
2932.11205	6282.25
2934.58258	6277.85
2937.05161	6277.95
2939.51912	6257.25
2941.98513	6262.45
2944.44962	6234.45
2946.91261	6226.85
2949.37409	6220.95
2951.83407	6234.15
2954.29254	6223.45
2956.74951	6207.25
2959.20498	6218.45
2961.65895	6195.45
2964.11142	6218.75
2966.56239	6219.95
2969.01186	6219.55
2971.45984	6185.55
2973.90632	6159.95
2976.35131	6158.25
2978.7948	6140.95
2981.23681	6145.55
2983.67732	6131.45
2986.11635	6106.95
2988.55388	6107.45
2990.98993	6117.65
2993.4245	6110.15
2995.85758	6095.75
2998.28917	6078.85
3000.71928	6070.75
3003.14791	6045.65
3005.57506	6038.45
3008.00073	6025.55
3010.42493	6034.15
3012.84764	6025.65
3015.26888	6011.35
3017.68865	5996.85
3020.10694	6000.65
3022.52376	6007.15
3024.9391	5992.55
3027.35298	5998.75
3029.76539	5967.85
3032.17632	5972.15
3034.5858	5966.05
3036.9938	5957.45
3039.40034	5949.65
3041.80542	5961.15
3044.20903	5939.95
3046.61118	5935.15
3049.01187	5912.35
3051.4111	5924.75
3053.80888	5918.45
3056.20519	5903.35
3058.60005	5889.45
3060.99345	5878.05
3063.3854	5864.55
3065.7759	5863.75
3068.16494	5849.35
3070.55254	5819.75
3072.93868	5832.45
3075.32338	5816.05
3077.70662	5823.15
3080.08842	5796.45
3082.46878	5784.75
3084.84769	5764.05
3087.22515	5791.35
3089.60118	5784.75
3091.97576	5775.55
3094.3489	5804.35
3096.72061	5813.45
3099.09087	5803.65
3101.4597	5810.65
3103.82709	5815.65
3106.19305	5807.55
3108.55757	5836.85
3110.92066	5791.75
3113.28232	5810.05
3115.64255	5778.85
3118.00134	5773.55
3120.35871	5778.45
3122.71466	5775.15
3125.06917	5782.65
3127.42226	5738.65
3129.77393	5758.55
3132.12417	5743.45
3134.47299	5765.15
3136.82039	5753.95
3139.16636	5747.05
3141.51092	5772.65
3143.85406	5771.55
3146.19579	5770.55
3148.53609	5761.35
3150.87499	5799.15
3153.21246	5784.45
3155.54853	5804.85
3157.88318	5807.45
3160.21642	5823.55
3162.54826	5813.15
3164.87868	5828.65
3167.2077	5814.95
3169.5353	5830.75
3171.86151	5833.75
3174.18631	5809.45
3176.5097	5822.45
3178.83169	5813.65
3181.15228	5830.05
3183.47147	5818.05
3185.78926	5803.85
3188.10565	5788.55
3190.42065	5804.65
3192.73424	5824.55
3195.04645	5822.85
3197.35725	5806.55
3199.66667	5819.85
3201.97469	5837.85
3204.28132	5825.95
3206.58656	5870.85
3208.8904	5862.05
3211.19287	5855.65
3213.49394	5863.75
3215.79363	5861.25
3218.09193	5873.85
3220.38884	5880.65
3222.68438	5884.95
3224.97853	5906.55
3227.2713	5899.15
3229.56269	5886.75
3231.8527	5872.65
3234.14133	5884.75
3236.42858	5865.65
3238.71446	5871.95
3240.99896	5850.85
3243.28209	5846.35
3245.56384	5829.25
3247.84423	5834.05
3250.12324	5839.05
3252.40088	5850.25
3254.67715	5831.15
3256.95205	5844.35
3259.22558	5846.65
3261.49775	5851.05
3263.76855	5858.55
3266.03799	5858.55
3268.30606	5845.45
3270.57277	5822.55
3272.83812	5812.95
3275.10211	5805.65
3277.36474	5809.55
3279.62601	5792.05
3281.88593	5794.05
3284.14448	5830.05
3286.40168	5813.85
3288.65753	5797.65
3290.91202	5795.75
3293.16516	5769.25
3295.41695	5797.35
3297.66738	5748.85
3299.91647	5738.85
3302.16421	5689.55
3304.4106	5654.45
3306.65564	5650.85
3308.89933	5613.45
3311.14169	5588.15
3313.38269	5530.75
3315.62236	5503.05
3317.86068	5465.85
3320.09766	5431.25
3322.3333	5413.75
3324.5676	5394.05
3326.80056	5315.55
3329.03219	5289.95
3331.26248	2.35
3333.49143	-0.75
3335.71905	-0.75
