Data from AgNPs_APTES_FTO_UA_100uM_CRN_0uM_R6G_10uM_Scan_RamanShift__55__16-46-52-990.txt Node

Date: Mon Jul 11 16:46:52 BST 2022
User: TCL
Spectrometer: QEP01345
Trigger mode: 4
Integration Time (sec): 7.000000E0
Scans to average: 10
Electric dark correction enabled: true
Nonlinearity correction enabled: false
Boxcar width: 0
XAxis mode: Raman Shifts
Number of Pixels in Spectrum: 1044
>>>>>Begin Spectral Data<<<<<
46.04893	0.65
50.45542	-1.55
54.85868	-0.65
59.25871	-2.25
63.6555	64.85
68.04907	66.75
72.43941	70.15
76.82654	71.85
81.21044	79.65
85.59113	81.95
89.96862	83.65
94.34289	84.75
98.71396	87.95
103.08183	91.45
107.4465	94.05
111.80798	94.15
116.16626	101.05
120.52136	105.15
124.87327	109.25
129.222	112.55
133.56755	120.55
137.90993	132.15
142.24913	144.95
146.58517	164.65
150.91804	185.25
155.24774	225.55
159.57429	279.25
163.89768	364.15
168.21792	483.65
172.53501	660.95
176.84895	930.05
181.15975	1301.95
185.46741	1844.45
189.77193	2552.55
194.07331	3421.35
198.37157	4438.05
202.6667	5488.55
206.9587	6546.45
211.24758	7596.65
215.53334	8663.05
219.81599	9767.65
224.09553	10982.55
228.37195	12313.15
232.64527	13797.55
236.91549	15383.75
241.18261	16988.95
245.44663	18523.85
249.70755	19886.85
253.96539	21010.55
258.22014	21879.95
262.4718	22494.25
266.72039	22795.45
270.96589	22736.05
275.20832	22478.35
279.44768	22046.55
283.68397	21553.15
287.91719	21073.15
292.14735	20684.65
296.37445	20399.45
300.59849	20301.25
304.81948	20267.65
309.03742	20205.15
313.25231	20102.35
317.46415	19896.25
321.67296	19625.65
325.87872	19454.25
330.08145	19427.65
334.28114	19551.45
338.47781	19704.95
342.67145	19960.75
346.86207	20211.05
351.04966	20598.25
355.23424	20990.25
359.4158	21316.25
363.59435	21596.25
367.76989	21776.95
371.94243	22007.85
376.11196	22155.75
380.27849	22312.35
384.44203	22423.85
388.60257	22628.05
392.76012	22787.75
396.91468	23032.25
401.06626	23311.25
405.21485	23553.05
409.36047	23541.45
413.50311	23336.55
417.64277	23226.35
421.77947	23095.75
425.9132	23142.75
430.04396	23222.55
434.17176	23384.25
438.2966	23513.85
442.41849	23770.75
446.53742	24045.25
450.6534	24320.75
454.76644	24538.85
458.87653	24701.15
462.98368	24752.55
467.08789	24773.35
471.18916	24741.35
475.2875	24627.85
479.38291	24552.45
483.4754	24540.55
487.56496	24550.95
491.6516	24616.65
495.73531	24713.95
499.81612	24847.45
503.89401	25035.75
507.96899	25179.05
512.04106	25249.45
516.11023	25340.05
520.1765	25262.35
524.23987	25256.05
528.30034	25191.65
532.35792	25134.75
536.41261	25031.65
540.46441	24894.35
544.51333	24957.85
548.55936	25035.65
552.60252	25196.85
556.64279	25424.75
560.6802	25575.65
564.71473	25659.95
568.7464	25819.15
572.7752	25799.85
576.80114	25718.65
580.82422	25752.95
584.84444	25863.95
588.86181	25980.55
592.87633	26097.15
596.888	26258.35
600.89682	26670.45
604.9028	27743.35
608.90594	29769.35
612.90624	31572.95
616.90371	30283.65
620.89834	27544.35
624.89015	26541.75
628.87913	26409.85
632.86528	26632.15
636.84862	26873.35
640.82913	26801.65
644.80683	26632.25
648.78172	26517.45
652.75379	26569.95
656.72306	26861.55
660.68952	27126.05
664.65319	27118.95
668.61405	27051.65
672.57211	27131.25
676.52738	27262.95
680.47986	27244.45
684.42955	27365.75
688.37646	27478.75
692.32058	27611.95
696.26192	27675.25
700.20048	27698.85
704.13626	27623.35
708.06928	27491.35
711.99952	27285.65
715.927	27241.45
719.85171	27212.25
723.77365	27210.85
727.69284	27138.75
731.60928	27065.85
735.52295	27095.55
739.43388	27205.65
743.34206	27341.65
747.24749	27410.45
751.15017	27425.65
755.05012	27556.15
758.94733	27785.85
762.8418	28442.75
766.73354	29569.05
770.62254	30628.05
774.50882	31033.75
778.39237	30624.15
782.27321	29696.35
786.15132	28721.15
790.02671	28114.55
793.89938	27762.25
797.76935	27599.65
801.6366	27539.35
805.50115	27549.55
809.36299	27555.05
813.22213	27543.45
817.07857	27467.25
820.93231	27412.05
824.78336	27382.15
828.63172	27338.15
832.47738	27372.55
836.32036	27356.45
840.16066	27409.55
843.99827	27440.25
847.8332	27405.95
851.66546	27515.35
855.49504	27550.05
859.32195	27564.55
863.1462	27632.95
866.96777	27648.95
870.78668	27672.75
874.60293	27742.05
878.41652	27749.95
882.22745	27872.75
886.03573	27919.65
889.84136	27966.55
893.64433	27978.25
897.44466	27948.25
901.24235	27945.45
905.0374	27896.45
908.8298	27885.45
912.61957	27825.35
916.40671	27847.35
920.19121	27863.85
923.97308	27886.75
927.75233	27861.65
931.52895	27925.95
935.30295	27888.65
939.07433	27685.85
942.84309	27596.55
946.60924	27549.25
950.37278	27454.65
954.13371	27432.15
957.89203	27459.35
961.64774	27501.65
965.40086	27430.45
969.15137	27396.15
972.89929	27381.15
976.64461	27377.45
980.38733	27353.35
984.12747	27404.35
987.86502	27454.75
991.59999	27530.35
995.33237	27616.95
999.06217	27741.65
1002.78939	27872.75
1006.51404	28049.05
1010.23611	28249.45
1013.95561	28344.75
1017.67255	28400.45
1021.38692	28389.95
1025.09872	28245.35
1028.80796	28114.25
1032.51465	28068.85
1036.21877	28082.95
1039.92035	28111.25
1043.61937	28183.25
1047.31584	28250.25
1051.00976	28309.15
1054.70114	28357.75
1058.38998	28410.45
1062.07627	28450.85
1065.76003	28569.95
1069.44126	28692.15
1073.11995	28967.15
1076.79611	29286.15
1080.46974	29433.35
1084.14085	29438.15
1087.80943	29533.55
1091.47549	29624.85
1095.13903	29543.55
1098.80005	29507.95
1102.45857	29417.95
1106.11456	29384.75
1109.76805	29250.15
1113.41903	29265.85
1117.06751	29322.35
1120.71348	29444.15
1124.35696	29648.25
1127.99793	29844.35
1131.63641	29927.05
1135.2724	29861.95
1138.90589	29686.95
1142.5369	29569.05
1146.16542	29495.75
1149.79145	29357.95
1153.415	29169.45
1157.03607	29007.25
1160.65467	28985.35
1164.27079	29227.05
1167.88443	29512.75
1171.49561	29977.55
1175.10432	30728.05
1178.71056	31729.95
1182.31434	32623.15
1185.91565	33056.35
1189.51451	33197.35
1193.11091	33020.95
1196.70485	32636.45
1200.29634	32303.65
1203.88538	31885.15
1207.47197	31399.45
1211.05612	31002.95
1214.63782	30702.05
1218.21708	30464.45
1221.79391	30301.75
1225.36829	30247.35
1228.94024	30165.35
1232.50976	30122.45
1236.07685	30100.45
1239.6415	30048.85
1243.20374	30122.15
1246.76355	30223.85
1250.32093	30386.85
1253.8759	30528.15
1257.42845	30789.75
1260.97859	31128.85
1264.52631	31380.65
1268.07163	31702.85
1271.61453	31822.85
1275.15503	31957.75
1278.69312	31987.15
1282.22882	31987.25
1285.76211	32047.65
1289.29301	32240.25
1292.82151	32513.65
1296.34761	32896.75
1299.87133	33359.65
1303.39266	34071.15
1306.9116	35023.35
1310.42815	36049.35
1313.94233	36459.65
1317.45412	36181.65
1320.96354	35660.85
1324.47058	34995.75
1327.97525	34402.35
1331.47754	34009.75
1334.97747	33913.85
1338.47502	34108.55
1341.97022	34699.85
1345.46305	35540.75
1348.95352	36495.95
1352.44163	37253.75
1355.92738	37948.05
1359.41078	38926.55
1362.89183	39593.75
1366.37053	38790.45
1369.84688	36616.95
1373.32088	34398.75
1376.79254	33019.65
1380.26186	32201.25
1383.72883	31736.55
1387.19347	31306.35
1390.65578	30851.85
1394.11575	30450.25
1397.57339	30177.95
1401.0287	30006.25
1404.48168	29846.75
1407.93234	29819.55
1411.38068	29819.55
1414.82669	29780.05
1418.27039	29673.45
1421.71177	29572.45
1425.15083	29393.75
1428.58758	29305.65
1432.02203	29254.35
1435.45416	29268.15
1438.88399	29249.55
1442.31151	29310.35
1445.73673	29340.35
1449.15965	29445.85
1452.58027	29481.65
1455.9986	29473.95
1459.41463	29563.75
1462.82837	29829.45
1466.23982	30129.15
1469.64898	30456.65
1473.05586	30706.35
1476.46045	30769.95
1479.86276	30949.05
1483.26279	31112.05
1486.66054	31278.65
1490.05602	31529.55
1493.44922	32056.05
1496.84016	32747.05
1500.22882	33877.95
1503.61521	35286.75
1506.99934	36521.25
1510.38121	37206.05
1513.76081	36834.05
1517.13816	35695.35
1520.51324	34255.95
1523.88607	33063.35
1527.25665	32357.15
1530.62498	31963.15
1533.99105	31735.15
1537.35488	31751.95
1540.71647	31676.65
1544.07581	31629.65
1547.4329	31614.45
1550.78776	31588.45
1554.14038	31570.55
1557.49077	31667.95
1560.83892	31776.85
1564.18484	32031.45
1567.52853	32231.05
1570.86999	32460.75
1574.20922	32587.35
1577.54624	32546.05
1580.88103	32077.15
1584.2136	31492.05
1587.54395	31170.55
1590.87208	31110.35
1594.19801	31433.85
1597.52172	31831.25
1600.84321	32035.65
1604.16251	31874.05
1607.47959	31499.75
1610.79447	30913.55
1614.10715	30208.75
1617.41763	29553.95
1620.7259	29093.85
1624.03199	28750.25
1627.33587	28625.15
1630.63757	28559.55
1633.93707	28777.55
1637.23439	29253.05
1640.52951	30082.55
1643.82246	31200.25
1647.11321	32251.05
1650.40179	32731.45
1653.68819	32213.05
1656.97241	30833.35
1660.25446	29336.05
1663.53433	28257.45
1666.81203	27579.05
1670.08756	27093.85
1673.36092	26785.45
1676.63211	26561.75
1679.90115	26348.15
1683.16801	26182.15
1686.43272	26032.35
1689.69527	25910.95
1692.95567	25828.95
1696.2139	25822.15
1699.46999	25772.35
1702.72392	25773.55
1705.97571	25746.65
1709.22535	25727.15
1712.47284	25641.15
1715.71819	25632.35
1718.96139	25590.35
1722.20246	25486.55
1725.44139	25432.95
1728.67818	25334.95
1731.91284	25245.45
1735.14537	25122.55
1738.37576	25044.45
1741.60403	24974.15
1744.83017	24864.95
1748.05418	24789.95
1751.27607	24765.05
1754.49584	24689.25
1757.71349	24695.85
1760.92903	24625.15
1764.14244	24624.35
1767.35375	24601.35
1770.56294	24576.95
1773.77002	24578.15
1776.97499	24508.05
1780.17785	24467.45
1783.37861	24481.15
1786.57727	24417.05
1789.77382	24342.15
1792.96828	24348.65
1796.16064	24293.55
1799.3509	24252.45
1802.53907	24254.15
1805.72514	24144.25
1808.90913	24119.85
1812.09102	24009.85
1815.27083	24002.95
1818.44856	23953.15
1821.6242	23943.95
1824.79776	23895.05
1827.96924	23845.95
1831.13864	23840.55
1834.30597	23808.65
1837.47122	23790.25
1840.6344	23782.25
1843.7955	23749.05
1846.95454	23733.15
1850.11151	23709.15
1853.26642	23697.25
1856.41926	23669.75
1859.57004	23622.35
1862.71876	23655.25
1865.86542	23640.25
1869.01003	23583.45
1872.15258	23585.25
1875.29308	23558.95
1878.43152	23483.85
1881.56792	23470.55
1884.70227	23446.65
1887.83457	23406.55
1890.96482	23398.85
1894.09304	23327.85
1897.21921	23260.15
1900.34335	23268.95
1903.46544	23247.85
1906.58551	23238.25
1909.70353	23189.85
1912.81953	23143.85
1915.93349	23114.15
1919.04543	23016.35
1922.15534	23017.55
1925.26322	22971.85
1928.36908	22949.55
1931.47292	22890.75
1934.57473	22799.95
1937.67453	22780.55
1940.77232	22691.35
1943.86808	22654.65
1946.96184	22657.55
1950.05358	22611.45
1953.14331	22527.65
1956.23103	22490.75
1959.31675	22380.45
1962.40046	22289.45
1965.48217	22232.35
1968.56188	22234.75
1971.63959	22155.45
1974.7153	22067.35
1977.78901	22002.55
1980.86073	21934.75
1983.93046	21859.45
1986.99819	21766.25
1990.06394	21702.85
1993.1277	21662.55
1996.18947	21586.65
1999.24925	21561.95
2002.30706	21465.95
2005.36288	21386.95
2008.41672	21383.45
2011.46859	21258.85
2014.51848	21230.15
2017.56639	21136.55
2020.61233	21071.35
2023.6563	21026.85
2026.6983	20974.65
2029.73833	20930.15
2032.7764	20846.95
2035.8125	20799.95
2038.84664	20761.55
2041.87881	20711.95
2044.90903	20658.35
2047.93729	20644.75
2050.96359	20606.45
2053.98794	20555.95
2057.01034	20527.25
2060.03078	20522.35
2063.04927	20536.65
2066.06582	20566.15
2069.08042	20480.65
2072.09307	20464.15
2075.10378	20474.35
2078.11255	20478.35
2081.11938	20430.65
2084.12426	20417.05
2087.12722	20399.95
2090.12824	20364.15
2093.12732	20410.15
2096.12447	20419.55
2099.11969	20387.25
2102.11299	20413.85
2105.10435	20404.35
2108.09379	20415.05
2111.08131	20461.25
2114.0669	20411.75
2117.05057	20439.45
2120.03233	20474.85
2123.01216	20462.55
2125.99008	20448.45
2128.96609	20487.75
2131.94018	20517.65
2134.91236	20550.95
2137.88263	20513.15
2140.851	20513.45
2143.81746	20565.85
2146.78201	20570.15
2149.74466	20577.05
2152.7054	20547.65
2155.66425	20514.95
2158.6212	20533.15
2161.57625	20518.95
2164.52941	20493.25
2167.48067	20470.15
2170.43004	20481.85
2173.37752	20455.65
2176.32311	20419.25
2179.26681	20433.95
2182.20863	20437.15
2185.14856	20473.95
2188.08661	20443.15
2191.02278	20459.95
2193.95707	20406.85
2196.88948	20388.25
2199.82001	20372.15
2202.74867	20348.25
2205.67545	20366.95
2208.60037	20350.65
2211.52341	20302.45
2214.44458	20237.95
2217.36388	20171.15
2220.28132	20107.65
2223.1969	20042.85
2226.11061	20041.85
2229.02246	19984.95
2231.93245	19973.85
2234.84058	19924.55
2237.74686	19884.75
2240.65128	19850.35
2243.55385	19834.95
2246.45456	19852.25
2249.35343	19820.35
2252.25044	19758.65
2255.14561	19706.95
2258.03893	19701.05
2260.93041	19678.05
2263.82004	19622.95
2266.70783	19550.15
2269.59378	19503.15
2272.4779	19484.45
2275.36017	19431.15
2278.24061	19416.25
2281.11922	19356.85
2283.996	19298.85
2286.87094	19289.35
2289.74405	19212.55
2292.61534	19206.15
2295.4848	19153.25
2298.35243	19145.45
2301.21824	19154.45
2304.08223	19137.15
2306.94439	19091.05
2309.80474	19067.05
2312.66327	19035.15
2315.51999	19043.05
2318.37489	18997.25
2321.22797	18999.05
2324.07925	18973.15
2326.92871	18919.85
2329.77637	18861.35
2332.62222	18775.65
2335.46626	18779.85
2338.3085	18719.85
2341.14893	18679.35
2343.98756	18685.05
2346.8244	18680.05
2349.65943	18673.65
2352.49267	18645.15
2355.32411	18636.85
2358.15376	18607.75
2360.98161	18560.15
2363.80768	18612.55
2366.63195	18599.75
2369.45444	18553.25
2372.27514	18546.85
2375.09405	18506.95
2377.91118	18485.45
2380.72652	18451.45
2383.54009	18418.85
2386.35187	18375.55
2389.16188	18356.05
2391.97011	18279.35
2394.77657	18240.45
2397.58125	18205.15
2400.38416	18157.35
2403.18529	18122.45
2405.98466	18137.55
2408.78226	18069.65
2411.57809	18070.75
2414.37216	17970.15
2417.16446	18039.25
2419.955	17998.55
2422.74378	18008.05
2425.5308	17958.45
2428.31606	17954.25
2431.09956	17934.55
2433.88131	17908.55
2436.6613	17900.25
2439.43954	17871.25
2442.21603	17871.25
2444.99077	17817.15
2447.76377	17827.75
2450.53501	17806.85
2453.30451	17748.85
2456.07226	17696.15
2458.83827	17684.55
2461.60254	17636.95
2464.36507	17663.65
2467.12586	17626.25
2469.88492	17618.35
2472.64224	17605.15
2475.39782	17565.85
2478.15167	17577.65
2480.90379	17558.25
2483.65417	17569.75
2486.40283	17540.05
2489.14976	17549.25
2491.89497	17521.65
2494.63845	17470.55
2497.3802	17473.95
2500.12024	17427.85
2502.85855	17438.95
2505.59514	17411.45
2508.33002	17355.55
2511.06318	17294.35
2513.79462	17277.45
2516.52435	17244.75
2519.25237	17248.45
2521.97867	17214.65
2524.70327	17196.25
2527.42616	17137.95
2530.14734	17155.45
2532.86681	17122.95
2535.58458	17078.75
2538.30065	17035.25
2541.01501	17072.35
2543.72768	17026.35
2546.43864	16982.55
2549.14791	16944.95
2551.85548	16924.95
2554.56136	16879.75
2557.26554	16857.95
2559.96803	16822.45
2562.66883	16773.15
2565.36794	16745.25
2568.06536	16751.55
2570.7611	16693.75
2573.45514	16626.45
2576.14751	16631.05
2578.83819	16645.75
2581.52719	16600.75
2584.21451	16567.45
2586.90015	16490.45
2589.58411	16453.95
2592.2664	16407.95
2594.94701	16378.55
2597.62594	16389.85
2600.30321	16382.85
2602.9788	16345.55
2605.65273	16277.85
2608.32498	16284.25
2610.99557	16266.75
2613.66449	16276.95
2616.33175	16233.85
2618.99734	16195.95
2621.66128	16126.85
2624.32355	16132.95
2626.98416	16080.95
2629.64311	16043.15
2632.30041	16038.85
2634.95605	15986.15
2637.61004	15930.35
2640.26238	15932.05
2642.91306	15920.25
2645.56209	15899.25
2648.20948	15862.85
2650.85521	15860.35
2653.4993	15857.85
2656.14175	15843.35
2658.78255	15837.15
2661.42171	15833.75
2664.05923	15828.65
2666.6951	15822.85
2669.32934	15834.35
2671.96194	15858.45
2674.59291	15886.35
2677.22224	15833.55
2679.84993	15842.35
2682.476	15797.85
2685.10043	15786.75
2687.72324	15775.35
2690.34441	15784.85
2692.96396	15783.75
2695.58188	15758.65
2698.19818	15761.25
2700.81285	15793.15
2703.4259	15777.65
2706.03733	15752.75
2708.64714	15714.15
2711.25533	15713.65
2713.86191	15704.15
2716.46687	15732.15
2719.07021	15712.35
2721.67194	15705.15
2724.27206	15693.85
2726.87057	15687.45
2729.46747	15667.55
2732.06276	15707.55
2734.65644	15692.45
2737.24852	15729.55
2739.83899	15676.05
2742.42786	15639.05
2745.01513	15599.05
2747.60079	15562.95
2750.18486	15548.75
2752.76733	15570.55
2755.3482	15507.95
2757.92747	15494.65
2760.50515	15459.55
2763.08123	15440.85
2765.65573	15395.15
2768.22863	15408.95
2770.79994	15401.25
2773.36967	15335.15
2775.9378	15336.35
2778.50435	15330.15
2781.06932	15288.65
2783.6327	15237.95
2786.1945	15205.85
2788.75471	15203.85
2791.31335	15127.75
2793.87041	15130.15
2796.42589	15074.45
2798.97979	15053.35
2801.53212	14993.35
2804.08288	14968.75
2806.63206	14936.75
2809.17967	14906.35
2811.72571	14837.65
2814.27018	14812.25
2816.81308	14806.35
2819.35442	14739.35
2821.89419	14709.95
2824.43239	14687.85
2826.96904	14675.85
2829.50412	14657.25
2832.03763	14620.95
2834.56959	14625.15
2837.1	14614.15
2839.62884	14583.45
2842.15613	14565.55
2844.68186	14555.35
2847.20604	14534.55
2849.72867	14499.85
2852.24974	14507.05
2854.76927	14472.75
2857.28724	14467.35
2859.80367	14428.05
2862.31855	14398.75
2864.83189	14364.25
2867.34368	14341.15
2869.85393	14355.95
2872.36264	14296.85
2874.8698	14306.25
2877.37543	14263.55
2879.87952	14255.05
2882.38207	14231.25
2884.88308	14220.05
2887.38256	14238.45
2889.88051	14196.95
2892.37692	14197.25
2894.8718	14189.15
2897.36515	14183.65
2899.85698	14205.05
2902.34727	14219.25
2904.83604	14249.45
2907.32328	14266.05
2909.809	14250.75
2912.29319	14219.65
2914.77587	14214.75
2917.25702	14259.05
2919.73665	14207.25
2922.21476	14185.05
2924.69136	14162.25
2927.16644	14169.95
2929.64	14153.35
2932.11205	14134.25
2934.58258	14095.05
2937.05161	14074.55
2939.51912	14064.05
2941.98513	14054.75
2944.44962	14061.95
2946.91261	13993.45
2949.37409	14025.75
2951.83407	14024.45
2954.29254	14024.05
2956.74951	14008.65
2959.20498	13978.65
2961.65895	13972.85
2964.11142	14022.25
2966.56239	14014.45
2969.01186	14012.35
2971.45984	13959.95
2973.90632	13948.35
2976.35131	13907.55
2978.7948	13889.35
2981.23681	13846.65
2983.67732	13856.65
2986.11635	13830.15
2988.55388	13783.25
2990.98993	13750.75
2993.4245	13750.95
2995.85758	13726.55
2998.28917	13661.65
3000.71928	13637.15
3003.14791	13622.65
3005.57506	13574.65
3008.00073	13534.55
3010.42493	13556.15
3012.84764	13507.05
3015.26888	13548.05
3017.68865	13480.35
3020.10694	13465.85
3022.52376	13426.25
3024.9391	13442.45
3027.35298	13395.65
3029.76539	13371.15
3032.17632	13352.05
3034.5858	13317.55
3036.9938	13311.95
3039.40034	13320.55
3041.80542	13316.05
3044.20903	13245.75
3046.61118	13244.55
3049.01187	13208.75
3051.4111	13187.25
3053.80888	13176.75
3056.20519	13126.15
3058.60005	13125.55
3060.99345	13141.95
3063.3854	13069.55
3065.7759	13035.85
3068.16494	13004.05
3070.55254	12995.35
3072.93868	12998.45
3075.32338	12933.55
3077.70662	12896.05
3080.08842	12878.85
3082.46878	12845.85
3084.84769	12823.85
3087.22515	12839.05
3089.60118	12845.25
3091.97576	12853.75
3094.3489	12832.35
3096.72061	12847.25
3099.09087	12849.95
3101.4597	12830.95
3103.82709	12833.25
3106.19305	12846.85
3108.55757	12821.45
3110.92066	12784.65
3113.28232	12769.15
3115.64255	12729.85
3118.00134	12679.05
3120.35871	12677.55
3122.71466	12667.05
3125.06917	12645.25
3127.42226	12601.45
3129.77393	12599.95
3132.12417	12549.75
3134.47299	12536.65
3136.82039	12533.35
3139.16636	12510.45
3141.51092	12511.35
3143.85406	12523.35
3146.19579	12484.75
3148.53609	12503.55
3150.87499	12519.45
3153.21246	12518.35
3155.54853	12565.05
3157.88318	12532.55
3160.21642	12547.55
3162.54826	12527.75
3164.87868	12514.35
3167.2077	12518.65
3169.5353	12528.95
3171.86151	12548.35
3174.18631	12505.25
3176.5097	12488.25
3178.83169	12444.05
3181.15228	12456.35
3183.47147	12418.35
3185.78926	12396.75
3188.10565	12349.95
3190.42065	12349.05
3192.73424	12362.35
3195.04645	12324.05
3197.35725	12327.35
3199.66667	12320.05
3201.97469	12339.85
3204.28132	12297.85
3206.58656	12319.05
3208.8904	12319.25
3211.19287	12300.55
3213.49394	12313.05
3215.79363	12272.15
3218.09193	12328.55
3220.38884	12311.55
3222.68438	12302.55
3224.97853	12278.45
3227.2713	12290.25
3229.56269	12240.75
3231.8527	12214.15
3234.14133	12196.35
3236.42858	12178.85
3238.71446	12144.05
3240.99896	12124.65
3243.28209	12128.65
3245.56384	12096.05
3247.84423	12051.55
3250.12324	12052.25
3252.40088	12067.65
3254.67715	12070.85
3256.95205	12029.85
3259.22558	12044.55
3261.49775	12011.15
3263.76855	12027.45
3266.03799	12018.65
3268.30606	11990.85
3270.57277	11968.35
3272.83812	11929.65
3275.10211	11916.65
3277.36474	11895.65
3279.62601	11907.25
3281.88593	11864.55
3284.14448	11876.65
3286.40168	11851.55
3288.65753	11840.05
3290.91202	11812.45
3293.16516	11791.65
3295.41695	11764.65
3297.66738	11738.35
3299.91647	11670.05
3302.16421	11585.25
3304.4106	11573.55
3306.65564	11485.95
3308.89933	11411.55
3311.14169	11344.65
3313.38269	11263.25
3315.62236	11187.85
3317.86068	11128.75
3320.09766	11068.65
3322.3333	11002.35
3324.5676	10964.65
3326.80056	10818.25
3329.03219	10766.95
3331.26248	4.25
3333.49143	0.25
3335.71905	-1.15
