Data from AgNPs_APTES_FTO_UA_100uM_CRN_0uM_R6G_10uM_Scan_RamanShift__10__15-54-22-938.txt Node

Date: Mon Jul 11 15:54:22 BST 2022
User: TCL
Spectrometer: QEP01345
Trigger mode: 4
Integration Time (sec): 7.000000E0
Scans to average: 10
Electric dark correction enabled: true
Nonlinearity correction enabled: false
Boxcar width: 0
XAxis mode: Raman Shifts
Number of Pixels in Spectrum: 1044
>>>>>Begin Spectral Data<<<<<
46.04893	0.275
50.45542	0.475
54.85868	0.175
59.25871	-2.625
63.6555	37.175
68.04907	41.275
72.43941	45.675
76.82654	44.775
81.21044	50.375
85.59113	52.975
89.96862	54.775
94.34289	58.075
98.71396	57.675
103.08183	59.975
107.4465	60.675
111.80798	60.975
116.16626	59.575
120.52136	64.675
124.87327	68.875
129.222	70.475
133.56755	74.275
137.90993	81.875
142.24913	89.575
146.58517	97.275
150.91804	111.175
155.24774	133.975
159.57429	166.175
163.89768	207.975
168.21792	267.975
172.53501	372.775
176.84895	514.675
181.15975	712.775
185.46741	995.875
189.77193	1365.475
194.07331	1839.275
198.37157	2374.975
202.6667	2942.775
206.9587	3500.975
211.24758	4050.275
215.53334	4616.775
219.81599	5220.775
224.09553	5882.175
228.37195	6595.875
232.64527	7385.775
236.91549	8200.175
241.18261	8999.575
245.44663	9722.975
249.70755	10289.175
253.96539	10782.875
258.22014	11129.575
262.4718	11341.075
266.72039	11435.175
270.96589	11375.775
275.20832	11218.975
279.44768	11019.675
283.68397	10712.175
287.91719	10491.475
292.14735	10321.375
296.37445	10264.375
300.59849	10270.975
304.81948	10280.775
309.03742	10253.075
313.25231	10092.275
317.46415	9838.175
321.67296	9541.175
325.87872	9313.575
330.08145	9224.675
334.28114	9195.475
338.47781	9265.475
342.67145	9405.875
346.86207	9564.775
351.04966	9776.275
355.23424	10031.275
359.4158	10248.575
363.59435	10438.775
367.76989	10588.575
371.94243	10681.575
376.11196	10765.475
380.27849	10852.775
384.44203	10934.275
388.60257	11000.575
392.76012	11080.875
396.91468	11205.175
401.06626	11362.375
405.21485	11429.175
409.36047	11330.175
413.50311	11142.275
417.64277	10898.275
421.77947	10803.075
425.9132	10741.875
430.04396	10760.775
434.17176	10799.475
438.2966	10885.275
442.41849	11072.075
446.53742	11300.575
450.6534	11523.175
454.76644	11675.575
458.87653	11752.775
462.98368	11764.875
467.08789	11715.075
471.18916	11625.075
475.2875	11494.475
479.38291	11424.675
483.4754	11370.375
487.56496	11350.875
491.6516	11329.475
495.73531	11346.275
499.81612	11329.375
503.89401	11423.775
507.96899	11446.075
512.04106	11487.475
516.11023	11517.975
520.1765	11488.975
524.23987	11476.775
528.30034	11446.475
532.35792	11435.475
536.41261	11415.175
540.46441	11321.775
544.51333	11301.875
548.55936	11305.075
552.60252	11386.575
556.64279	11485.575
560.6802	11578.375
564.71473	11632.475
568.7464	11719.175
572.7752	11735.175
576.80114	11742.175
580.82422	11774.575
584.84444	11886.075
588.86181	11940.375
592.87633	11984.675
596.888	12027.975
600.89682	12220.175
604.9028	12971.975
608.90594	14765.475
612.90624	16368.775
616.90371	15210.875
620.89834	12741.975
624.89015	11765.975
628.87913	11704.975
632.86528	11995.375
636.84862	12248.175
640.82913	12197.975
644.80683	11866.775
648.78172	11614.975
652.75379	11590.175
656.72306	11774.175
660.68952	11984.975
664.65319	11988.275
668.61405	11909.175
672.57211	12144.075
676.52738	12572.475
680.47986	13210.175
684.42955	13936.075
688.37646	14490.375
692.32058	14394.475
696.26192	13909.175
700.20048	13398.575
704.13626	13134.075
708.06928	13021.175
711.99952	12802.375
715.927	12444.075
719.85171	12121.775
723.77365	11857.375
727.69284	11696.975
731.60928	11670.275
735.52295	11626.875
739.43388	11594.275
743.34206	11562.975
747.24749	11445.575
751.15017	11381.075
755.05012	11397.275
758.94733	11660.775
762.8418	12277.975
766.73354	13289.675
770.62254	14403.875
774.50882	14988.175
778.39237	14569.875
782.27321	13467.375
786.15132	12505.775
790.02671	11910.875
793.89938	11606.275
797.76935	11427.775
801.6366	11315.375
805.50115	11242.575
809.36299	11183.675
813.22213	11107.775
817.07857	11033.875
820.93231	10987.575
824.78336	10939.075
828.63172	10914.675
832.47738	10858.975
836.32036	10835.875
840.16066	10833.775
843.99827	10843.175
847.8332	10894.475
851.66546	10892.875
855.49504	10939.475
859.32195	10969.375
863.1462	10986.875
866.96777	11008.675
870.78668	11030.175
874.60293	11050.775
878.41652	11065.475
882.22745	11082.275
886.03573	11096.775
889.84136	11090.575
893.64433	11057.675
897.44466	10955.375
901.24235	10870.075
905.0374	10807.975
908.8298	10772.275
912.61957	10676.275
916.40671	10723.775
920.19121	10760.575
923.97308	10833.175
927.75233	10865.475
931.52895	10882.475
935.30295	10823.975
939.07433	10751.875
942.84309	10673.575
946.60924	10664.575
950.37278	10703.675
954.13371	10703.375
957.89203	10730.175
961.64774	10691.675
965.40086	10639.075
969.15137	10568.375
972.89929	10487.375
976.64461	10428.775
980.38733	10390.675
984.12747	10376.575
987.86502	10413.575
991.59999	10453.375
995.33237	10513.475
999.06217	10646.775
1002.78939	10773.175
1006.51404	10953.075
1010.23611	11117.875
1013.95561	11294.975
1017.67255	11358.575
1021.38692	11301.775
1025.09872	11147.775
1028.80796	10953.275
1032.51465	10882.475
1036.21877	10897.075
1039.92035	10907.675
1043.61937	10951.075
1047.31584	10982.475
1051.00976	11026.875
1054.70114	11050.675
1058.38998	11103.675
1062.07627	11166.675
1065.76003	11264.575
1069.44126	11367.675
1073.11995	11517.275
1076.79611	11663.275
1080.46974	11776.375
1084.14085	11819.075
1087.80943	11911.575
1091.47549	11952.675
1095.13903	11937.475
1098.80005	11830.075
1102.45857	11687.975
1106.11456	11602.075
1109.76805	11590.175
1113.41903	11686.975
1117.06751	11803.175
1120.71348	12057.675
1124.35696	12366.675
1127.99793	12652.575
1131.63641	12906.775
1135.2724	12810.975
1138.90589	12720.975
1142.5369	12555.975
1146.16542	12374.275
1149.79145	12147.875
1153.415	12039.175
1157.03607	11990.075
1160.65467	12111.575
1164.27079	12396.975
1167.88443	12819.475
1171.49561	13407.675
1175.10432	14213.075
1178.71056	15296.775
1182.31434	16234.575
1185.91565	16774.675
1189.51451	16824.875
1193.11091	16559.875
1196.70485	16046.675
1200.29634	15438.575
1203.88538	14871.475
1207.47197	14292.475
1211.05612	13766.375
1214.63782	13412.975
1218.21708	13134.675
1221.79391	12951.375
1225.36829	12881.675
1228.94024	12840.375
1232.50976	12753.475
1236.07685	12729.475
1239.6415	12713.775
1243.20374	12739.075
1246.76355	12816.975
1250.32093	12970.775
1253.8759	13149.575
1257.42845	13415.675
1260.97859	13763.775
1264.52631	14086.775
1268.07163	14384.175
1271.61453	14703.575
1275.15503	14976.075
1278.69312	15186.575
1282.22882	15389.975
1285.76211	15639.575
1289.29301	16031.275
1292.82151	16469.175
1296.34761	17042.875
1299.87133	17716.775
1303.39266	18516.775
1306.9116	19550.875
1310.42815	20511.475
1313.94233	20991.575
1317.45412	20816.275
1320.96354	20244.975
1324.47058	19578.175
1327.97525	18932.975
1331.47754	18515.975
1334.97747	18347.775
1338.47502	18410.875
1341.97022	18696.875
1345.46305	19180.975
1348.95352	19855.275
1352.44163	20606.475
1355.92738	21601.075
1359.41078	22774.575
1362.89183	23719.175
1366.37053	23093.075
1369.84688	20920.775
1373.32088	18750.875
1376.79254	17339.375
1380.26186	16619.775
1383.72883	16268.675
1387.19347	15974.475
1390.65578	15672.575
1394.11575	15396.375
1397.57339	15210.975
1401.0287	15095.275
1404.48168	14996.375
1407.93234	14969.575
1411.38068	14848.175
1414.82669	14659.875
1418.27039	14468.775
1421.71177	14243.575
1425.15083	14086.975
1428.58758	14004.075
1432.02203	14061.775
1435.45416	14259.075
1438.88399	14543.275
1442.31151	14827.175
1445.73673	15132.275
1449.15965	15482.675
1452.58027	15843.575
1455.9986	16180.175
1459.41463	16553.575
1462.82837	16946.775
1466.23982	17288.875
1469.64898	17495.275
1473.05586	17517.975
1476.46045	17385.275
1479.86276	17167.675
1483.26279	16848.275
1486.66054	16635.375
1490.05602	16533.575
1493.44922	16681.775
1496.84016	16956.775
1500.22882	17656.175
1503.61521	18693.075
1506.99934	19836.275
1510.38121	20711.075
1513.76081	20800.375
1517.13816	19963.275
1520.51324	18640.875
1523.88607	17499.575
1527.25665	16714.675
1530.62498	16267.775
1533.99105	16043.175
1537.35488	15901.775
1540.71647	15736.175
1544.07581	15653.075
1547.4329	15553.875
1550.78776	15467.675
1554.14038	15393.375
1557.49077	15383.675
1560.83892	15520.775
1564.18484	15701.575
1567.52853	15935.375
1570.86999	16100.475
1574.20922	16243.875
1577.54624	16175.975
1580.88103	15844.775
1584.2136	15375.875
1587.54395	15128.775
1590.87208	15210.075
1594.19801	15609.875
1597.52172	16216.375
1600.84321	16492.275
1604.16251	16188.075
1607.47959	15528.275
1610.79447	14843.075
1614.10715	14145.675
1617.41763	13489.775
1620.7259	12989.575
1624.03199	12702.075
1627.33587	12640.575
1630.63757	12742.475
1633.93707	13112.375
1637.23439	13781.175
1640.52951	14791.775
1643.82246	16010.575
1647.11321	17158.075
1650.40179	17666.575
1653.68819	17135.375
1656.97241	15751.875
1660.25446	14282.975
1663.53433	13199.475
1666.81203	12504.275
1670.08756	12094.575
1673.36092	11794.575
1676.63211	11573.575
1679.90115	11414.475
1683.16801	11192.575
1686.43272	11129.675
1689.69527	10956.875
1692.95567	10831.575
1696.2139	10732.575
1699.46999	10625.775
1702.72392	10525.775
1705.97571	10426.275
1709.22535	10317.975
1712.47284	10265.475
1715.71819	10181.675
1718.96139	10095.775
1722.20246	10033.075
1725.44139	9924.075
1728.67818	9844.275
1731.91284	9765.675
1735.14537	9660.475
1738.37576	9586.275
1741.60403	9531.575
1744.83017	9471.475
1748.05418	9413.175
1751.27607	9391.775
1754.49584	9356.275
1757.71349	9324.975
1760.92903	9333.975
1764.14244	9313.075
1767.35375	9282.975
1770.56294	9251.175
1773.77002	9236.575
1776.97499	9207.775
1780.17785	9187.775
1783.37861	9157.675
1786.57727	9106.475
1789.77382	9084.575
1792.96828	9067.275
1796.16064	9042.175
1799.3509	9042.675
1802.53907	8990.175
1805.72514	9030.075
1808.90913	8954.075
1812.09102	8931.475
1815.27083	8905.475
1818.44856	8895.875
1821.6242	8909.375
1824.79776	8880.075
1827.96924	8885.475
1831.13864	8868.475
1834.30597	8841.675
1837.47122	8829.875
1840.6344	8813.375
1843.7955	8810.375
1846.95454	8828.175
1850.11151	8799.775
1853.26642	8808.475
1856.41926	8802.375
1859.57004	8803.375
1862.71876	8768.075
1865.86542	8764.375
1869.01003	8761.575
1872.15258	8770.775
1875.29308	8766.275
1878.43152	8764.275
1881.56792	8758.475
1884.70227	8735.175
1887.83457	8743.275
1890.96482	8739.875
1894.09304	8740.975
1897.21921	8732.475
1900.34335	8725.275
1903.46544	8729.275
1906.58551	8720.175
1909.70353	8725.575
1912.81953	8717.075
1915.93349	8694.775
1919.04543	8671.975
1922.15534	8674.075
1925.26322	8659.775
1928.36908	8631.075
1931.47292	8626.775
1934.57473	8601.075
1937.67453	8593.875
1940.77232	8563.475
1943.86808	8559.275
1946.96184	8528.075
1950.05358	8529.475
1953.14331	8509.575
1956.23103	8461.975
1959.31675	8442.275
1962.40046	8416.175
1965.48217	8405.875
1968.56188	8383.075
1971.63959	8367.675
1974.7153	8336.175
1977.78901	8316.575
1980.86073	8287.275
1983.93046	8270.075
1986.99819	8216.075
1990.06394	8218.075
1993.1277	8204.575
1996.18947	8176.575
1999.24925	8182.375
2002.30706	8136.975
2005.36288	8132.475
2008.41672	8115.375
2011.46859	8086.675
2014.51848	8061.175
2017.56639	8051.275
2020.61233	8049.775
2023.6563	8025.975
2026.6983	8014.275
2029.73833	8023.775
2032.7764	7983.375
2035.8125	7964.075
2038.84664	7957.275
2041.87881	7952.675
2044.90903	7954.875
2047.93729	7926.175
2050.96359	7960.775
2053.98794	7940.775
2057.01034	7954.175
2060.03078	7957.375
2063.04927	7925.575
2066.06582	7978.575
2069.08042	7984.975
2072.09307	7978.175
2075.10378	8000.975
2078.11255	8013.575
2081.11938	8023.375
2084.12426	8064.775
2087.12722	8055.775
2090.12824	8074.775
2093.12732	8073.475
2096.12447	8071.775
2099.11969	8100.975
2102.11299	8113.675
2105.10435	8129.875
2108.09379	8139.275
2111.08131	8112.975
2114.0669	8139.875
2117.05057	8130.875
2120.03233	8152.575
2123.01216	8140.675
2125.99008	8124.375
2128.96609	8138.575
2131.94018	8152.275
2134.91236	8148.975
2137.88263	8133.775
2140.851	8119.375
2143.81746	8113.575
2146.78201	8092.675
2149.74466	8078.875
2152.7054	8084.575
2155.66425	8049.275
2158.6212	8038.975
2161.57625	8015.075
2164.52941	8004.575
2167.48067	8004.975
2170.43004	8036.175
2173.37752	8014.275
2176.32311	8025.575
2179.26681	8023.875
2182.20863	8037.875
2185.14856	8013.575
2188.08661	8018.375
2191.02278	8004.275
2193.95707	8017.475
2196.88948	8004.875
2199.82001	8011.475
2202.74867	7988.575
2205.67545	7997.075
2208.60037	8009.575
2211.52341	7985.575
2214.44458	7977.875
2217.36388	7943.475
2220.28132	7922.675
2223.1969	7918.375
2226.11061	7932.075
2229.02246	7918.775
2231.93245	7913.775
2234.84058	7886.675
2237.74686	7891.475
2240.65128	7896.675
2243.55385	7856.475
2246.45456	7873.375
2249.35343	7854.575
2252.25044	7868.975
2255.14561	7840.575
2258.03893	7861.675
2260.93041	7852.575
2263.82004	7832.875
2266.70783	7850.375
2269.59378	7814.475
2272.4779	7761.775
2275.36017	7773.875
2278.24061	7780.175
2281.11922	7749.475
2283.996	7734.375
2286.87094	7707.375
2289.74405	7708.975
2292.61534	7708.075
2295.4848	7688.375
2298.35243	7712.775
2301.21824	7710.075
2304.08223	7707.075
2306.94439	7712.375
2309.80474	7691.875
2312.66327	7693.775
2315.51999	7682.275
2318.37489	7674.575
2321.22797	7690.075
2324.07925	7672.775
2326.92871	7672.975
2329.77637	7656.675
2332.62222	7663.375
2335.46626	7640.275
2338.3085	7668.775
2341.14893	7656.175
2343.98756	7656.475
2346.8244	7674.075
2349.65943	7652.375
2352.49267	7652.575
2355.32411	7659.675
2358.15376	7656.975
2360.98161	7672.675
2363.80768	7668.575
2366.63195	7669.375
2369.45444	7672.175
2372.27514	7671.075
2375.09405	7652.775
2377.91118	7656.175
2380.72652	7662.875
2383.54009	7646.475
2386.35187	7626.275
2389.16188	7601.375
2391.97011	7582.575
2394.77657	7589.575
2397.58125	7565.375
2400.38416	7547.375
2403.18529	7553.575
2405.98466	7542.975
2408.78226	7527.475
2411.57809	7542.775
2414.37216	7511.975
2417.16446	7543.375
2419.955	7541.675
2422.74378	7559.675
2425.5308	7524.375
2428.31606	7535.175
2431.09956	7507.575
2433.88131	7505.775
2436.6613	7539.575
2439.43954	7504.975
2442.21603	7512.675
2444.99077	7488.475
2447.76377	7490.775
2450.53501	7498.375
2453.30451	7516.375
2456.07226	7492.575
2458.83827	7496.375
2461.60254	7482.575
2464.36507	7464.175
2467.12586	7466.675
2469.88492	7476.675
2472.64224	7497.175
2475.39782	7497.675
2478.15167	7471.875
2480.90379	7477.075
2483.65417	7491.275
2486.40283	7476.775
2489.14976	7512.075
2491.89497	7495.875
2494.63845	7514.575
2497.3802	7518.675
2500.12024	7519.175
2502.85855	7516.075
2505.59514	7490.175
2508.33002	7497.175
2511.06318	7459.575
2513.79462	7475.775
2516.52435	7452.975
2519.25237	7449.575
2521.97867	7438.675
2524.70327	7440.075
2527.42616	7439.175
2530.14734	7448.775
2532.86681	7430.375
2535.58458	7445.775
2538.30065	7426.775
2541.01501	7436.275
2543.72768	7422.475
2546.43864	7421.075
2549.14791	7427.375
2551.85548	7398.575
2554.56136	7415.775
2557.26554	7415.775
2559.96803	7373.575
2562.66883	7366.275
2565.36794	7375.775
2568.06536	7371.975
2570.7611	7357.175
2573.45514	7356.575
2576.14751	7373.875
2578.83819	7361.875
2581.52719	7351.875
2584.21451	7340.775
2586.90015	7322.375
2589.58411	7306.675
2592.2664	7312.475
2594.94701	7302.175
2597.62594	7328.675
2600.30321	7301.875
2602.9788	7300.575
2605.65273	7301.475
2608.32498	7302.075
2610.99557	7276.575
2613.66449	7286.375
2616.33175	7283.875
2618.99734	7277.575
2621.66128	7290.075
2624.32355	7270.275
2626.98416	7272.775
2629.64311	7232.975
2632.30041	7262.375
2634.95605	7239.175
2637.61004	7233.175
2640.26238	7234.775
2642.91306	7218.975
2645.56209	7226.375
2648.20948	7225.075
2650.85521	7234.875
2653.4993	7233.575
2656.14175	7234.075
2658.78255	7244.075
2661.42171	7272.275
2664.05923	7267.575
2666.6951	7267.075
2669.32934	7284.875
2671.96194	7271.975
2674.59291	7273.575
2677.22224	7275.175
2679.84993	7297.775
2682.476	7277.075
2685.10043	7290.575
2687.72324	7277.475
2690.34441	7277.275
2692.96396	7284.975
2695.58188	7305.175
2698.19818	7321.175
2700.81285	7317.175
2703.4259	7303.875
2706.03733	7315.775
2708.64714	7337.175
2711.25533	7350.675
2713.86191	7320.375
2716.46687	7345.175
2719.07021	7340.075
2721.67194	7364.875
2724.27206	7346.375
2726.87057	7359.975
2729.46747	7382.375
2732.06276	7390.875
2734.65644	7390.675
2737.24852	7400.175
2739.83899	7381.875
2742.42786	7364.475
2745.01513	7360.975
2747.60079	7369.975
2750.18486	7355.075
2752.76733	7355.675
2755.3482	7352.275
2757.92747	7363.275
2760.50515	7337.075
2763.08123	7332.675
2765.65573	7325.275
2768.22863	7321.975
2770.79994	7317.975
2773.36967	7324.975
2775.9378	7323.575
2778.50435	7332.975
2781.06932	7306.675
2783.6327	7289.175
2786.1945	7294.575
2788.75471	7286.475
2791.31335	7268.775
2793.87041	7268.175
2796.42589	7259.375
2798.97979	7239.675
2801.53212	7253.375
2804.08288	7221.475
2806.63206	7213.075
2809.17967	7220.875
2811.72571	7199.075
2814.27018	7173.375
2816.81308	7186.075
2819.35442	7148.575
2821.89419	7141.575
2824.43239	7153.475
2826.96904	7147.475
2829.50412	7153.275
2832.03763	7111.375
2834.56959	7130.275
2837.1	7117.775
2839.62884	7109.175
2842.15613	7133.275
2844.68186	7122.175
2847.20604	7132.875
2849.72867	7140.975
2852.24974	7141.575
2854.76927	7128.575
2857.28724	7135.375
2859.80367	7120.775
2862.31855	7125.575
2864.83189	7111.875
2867.34368	7107.975
2869.85393	7112.575
2872.36264	7108.775
2874.8698	7137.375
2877.37543	7105.775
2879.87952	7123.875
2882.38207	7132.475
2884.88308	7135.275
2887.38256	7133.275
2889.88051	7137.475
2892.37692	7137.675
2894.8718	7145.475
2897.36515	7184.875
2899.85698	7190.275
2902.34727	7192.075
2904.83604	7229.275
2907.32328	7229.375
2909.809	7252.175
2912.29319	7218.675
2914.77587	7249.675
2917.25702	7246.175
2919.73665	7262.375
2922.21476	7257.475
2924.69136	7245.475
2927.16644	7261.375
2929.64	7257.775
2932.11205	7263.175
2934.58258	7250.775
2937.05161	7273.875
2939.51912	7248.675
2941.98513	7248.275
2944.44962	7206.575
2946.91261	7191.275
2949.37409	7202.475
2951.83407	7219.375
2954.29254	7219.275
2956.74951	7230.475
2959.20498	7225.275
2961.65895	7198.075
2964.11142	7220.575
2966.56239	7206.475
2969.01186	7183.675
2971.45984	7170.875
2973.90632	7163.375
2976.35131	7164.675
2978.7948	7163.575
2981.23681	7143.375
2983.67732	7146.975
2986.11635	7110.675
2988.55388	7116.175
2990.98993	7103.975
2993.4245	7091.075
2995.85758	7087.775
2998.28917	7065.875
3000.71928	7075.175
3003.14791	7050.975
3005.57506	7035.475
3008.00073	6988.975
3010.42493	7027.475
3012.84764	7017.375
3015.26888	7011.375
3017.68865	7005.675
3020.10694	6994.275
3022.52376	6982.775
3024.9391	6991.375
3027.35298	6985.775
3029.76539	6998.775
3032.17632	7000.875
3034.5858	6974.675
3036.9938	6990.275
3039.40034	6971.475
3041.80542	6961.575
3044.20903	6971.475
3046.61118	6971.875
3049.01187	6958.175
3051.4111	6933.175
3053.80888	6934.875
3056.20519	6942.175
3058.60005	6922.175
3060.99345	6922.775
3063.3854	6909.675
3065.7759	6889.375
3068.16494	6882.275
3070.55254	6873.375
3072.93868	6875.175
3075.32338	6849.375
3077.70662	6849.875
3080.08842	6832.475
3082.46878	6829.975
3084.84769	6821.675
3087.22515	6817.375
3089.60118	6843.275
3091.97576	6826.875
3094.3489	6831.875
3096.72061	6841.075
3099.09087	6864.175
3101.4597	6859.275
3103.82709	6870.075
3106.19305	6865.775
3108.55757	6866.575
3110.92066	6853.575
3113.28232	6876.975
3115.64255	6845.775
3118.00134	6839.275
3120.35871	6837.575
3122.71466	6827.575
3125.06917	6822.975
3127.42226	6780.175
3129.77393	6771.275
3132.12417	6791.575
3134.47299	6804.975
3136.82039	6809.275
3139.16636	6817.975
3141.51092	6823.175
3143.85406	6813.075
3146.19579	6814.875
3148.53609	6808.575
3150.87499	6837.975
3153.21246	6863.375
3155.54853	6870.475
3157.88318	6882.275
3160.21642	6869.975
3162.54826	6887.675
3164.87868	6907.675
3167.2077	6891.675
3169.5353	6904.175
3171.86151	6920.675
3174.18631	6899.575
3176.5097	6913.975
3178.83169	6872.475
3181.15228	6895.975
3183.47147	6882.775
3185.78926	6885.875
3188.10565	6872.675
3190.42065	6876.675
3192.73424	6884.675
3195.04645	6892.475
3197.35725	6900.675
3199.66667	6907.075
3201.97469	6904.175
3204.28132	6912.175
3206.58656	6932.375
3208.8904	6917.175
3211.19287	6930.475
3213.49394	6945.775
3215.79363	6953.175
3218.09193	6960.275
3220.38884	6957.775
3222.68438	6954.175
3224.97853	6972.575
3227.2713	6966.775
3229.56269	6969.575
3231.8527	6975.075
3234.14133	6952.375
3236.42858	6921.475
3238.71446	6943.975
3240.99896	6940.175
3243.28209	6923.675
3245.56384	6907.375
3247.84423	6907.675
3250.12324	6914.975
3252.40088	6911.675
3254.67715	6904.675
3256.95205	6888.275
3259.22558	6900.275
3261.49775	6888.875
3263.76855	6932.775
3266.03799	6931.975
3268.30606	6932.275
3270.57277	6893.575
3272.83812	6920.075
3275.10211	6898.375
3277.36474	6877.675
3279.62601	6873.875
3281.88593	6877.475
3284.14448	6884.775
3286.40168	6870.575
3288.65753	6883.675
3290.91202	6905.775
3293.16516	6879.975
3295.41695	6874.775
3297.66738	6841.475
3299.91647	6808.975
3302.16421	6745.975
3304.4106	6748.075
3306.65564	6724.675
3308.89933	6703.175
3311.14169	6649.875
3313.38269	6620.975
3315.62236	6591.775
3317.86068	6537.375
3320.09766	6517.975
3322.3333	6503.075
3324.5676	6475.275
3326.80056	6383.475
3329.03219	6385.075
3331.26248	2.675
3333.49143	0.175
3335.71905	-0.525
