Data from AgNPs_APTES_FTO_UA_100uM_CRN_0uM_R6G_10uM_Scan_RamanShift__61__16-53-52-997.txt Node

Date: Mon Jul 11 16:53:52 BST 2022
User: TCL
Spectrometer: QEP01345
Trigger mode: 4
Integration Time (sec): 7.000000E0
Scans to average: 10
Electric dark correction enabled: true
Nonlinearity correction enabled: false
Boxcar width: 0
XAxis mode: Raman Shifts
Number of Pixels in Spectrum: 1044
>>>>>Begin Spectral Data<<<<<
46.04893	0.15
50.45542	-0.85
54.85868	-0.95
59.25871	-1.35
63.6555	46.95
68.04907	49.05
72.43941	51.05
76.82654	51.65
81.21044	57.75
85.59113	57.85
89.96862	60.25
94.34289	65.85
98.71396	67.15
103.08183	68.05
107.4465	66.15
111.80798	65.65
116.16626	69.85
120.52136	72.25
124.87327	76.75
129.222	76.85
133.56755	80.85
137.90993	90.25
142.24913	97.55
146.58517	105.55
150.91804	114.65
155.24774	141.05
159.57429	169.75
163.89768	207.45
168.21792	274.25
172.53501	369.95
176.84895	518.55
181.15975	720.35
185.46741	1020.45
189.77193	1405.55
194.07331	1885.25
198.37157	2427.35
202.6667	2991.85
206.9587	3563.75
211.24758	4118.45
215.53334	4667.65
219.81599	5235.65
224.09553	5833.75
228.37195	6501.75
232.64527	7248.35
236.91549	8065.15
241.18261	8921.75
245.44663	9801.55
249.70755	10588.55
253.96539	11323.95
258.22014	11911.65
262.4718	12355.15
266.72039	12622.85
270.96589	12746.85
275.20832	12718.45
279.44768	12609.45
283.68397	12470.65
287.91719	12243.95
292.14735	12077.65
296.37445	11913.35
300.59849	11791.65
304.81948	11725.05
309.03742	11654.95
313.25231	11627.05
317.46415	11602.95
321.67296	11601.75
325.87872	11645.85
330.08145	11732.25
334.28114	11814.45
338.47781	11954.45
342.67145	12112.75
346.86207	12267.55
351.04966	12432.45
355.23424	12582.25
359.4158	12783.65
363.59435	12919.35
367.76989	13115.75
371.94243	13252.65
376.11196	13409.55
380.27849	13528.35
384.44203	13652.05
388.60257	13816.75
392.76012	13936.05
396.91468	14060.35
401.06626	14225.85
405.21485	14332.65
409.36047	14452.05
413.50311	14470.35
417.64277	14543.75
421.77947	14592.05
425.9132	14648.55
430.04396	14737.05
434.17176	14842.25
438.2966	14965.25
442.41849	15136.35
446.53742	15286.35
450.6534	15433.15
454.76644	15584.15
458.87653	15683.55
462.98368	15799.65
467.08789	15879.15
471.18916	15886.05
475.2875	15921.75
479.38291	15891.85
483.4754	15919.55
487.56496	15937.85
491.6516	15994.35
495.73531	16023.15
499.81612	16055.55
503.89401	16137.75
507.96899	16173.75
512.04106	16284.15
516.11023	16295.25
520.1765	16349.55
524.23987	16372.85
528.30034	16430.75
532.35792	16503.55
536.41261	16541.95
540.46441	16529.15
544.51333	16540.05
548.55936	16660.65
552.60252	16689.75
556.64279	16823.15
560.6802	16919.65
564.71473	17000.85
568.7464	17009.95
572.7752	17007.65
576.80114	17032.95
580.82422	17055.45
584.84444	17146.25
588.86181	17266.55
592.87633	17347.25
596.888	17404.75
600.89682	17548.65
604.9028	17792.65
608.90594	18221.05
612.90624	18504.95
616.90371	18282.25
620.89834	17817.55
624.89015	17655.35
628.87913	17712.95
632.86528	17796.05
636.84862	17887.45
640.82913	17883.85
644.80683	17878.65
648.78172	17887.95
652.75379	17906.95
656.72306	18029.25
660.68952	18127.05
664.65319	18185.45
668.61405	18227.95
672.57211	18310.75
676.52738	18391.95
680.47986	18415.35
684.42955	18508.85
688.37646	18596.05
692.32058	18742.85
696.26192	18834.15
700.20048	18922.75
704.13626	18918.05
708.06928	18900.25
711.99952	18885.65
715.927	18909.25
719.85171	18893.25
723.77365	18896.55
727.69284	18855.45
731.60928	18840.05
735.52295	18839.55
739.43388	18881.35
743.34206	18950.65
747.24749	18953.35
751.15017	19008.55
755.05012	19071.95
758.94733	19140.25
762.8418	19261.25
766.73354	19454.55
770.62254	19697.25
774.50882	19857.75
778.39237	19881.85
782.27321	19810.05
786.15132	19627.25
790.02671	19485.65
793.89938	19417.35
797.76935	19382.35
801.6366	19328.65
805.50115	19365.85
809.36299	19389.15
813.22213	19388.75
817.07857	19385.75
820.93231	19444.55
824.78336	19453.15
828.63172	19501.55
832.47738	19512.45
836.32036	19562.35
840.16066	19616.65
843.99827	19649.45
847.8332	19644.05
851.66546	19694.65
855.49504	19739.45
859.32195	19772.95
863.1462	19852.55
866.96777	19862.35
870.78668	19880.15
874.60293	19972.45
878.41652	19991.05
882.22745	20054.25
886.03573	20047.75
889.84136	20074.85
893.64433	20109.55
897.44466	20150.35
901.24235	20126.95
905.0374	20156.25
908.8298	20216.95
912.61957	20206.05
916.40671	20174.45
920.19121	20232.45
923.97308	20179.25
927.75233	20192.35
931.52895	20208.85
935.30295	20176.85
939.07433	20136.75
942.84309	20113.65
946.60924	20127.95
950.37278	20092.65
954.13371	20053.15
957.89203	20054.55
961.64774	20058.75
965.40086	20080.35
969.15137	20050.25
972.89929	20044.15
976.64461	20036.15
980.38733	20033.55
984.12747	20048.85
987.86502	20091.55
991.59999	20124.65
995.33237	20172.85
999.06217	20295.55
1002.78939	20352.65
1006.51404	20451.65
1010.23611	20514.65
1013.95561	20584.15
1017.67255	20672.25
1021.38692	20639.05
1025.09872	20619.45
1028.80796	20546.05
1032.51465	20535.75
1036.21877	20515.75
1039.92035	20564.15
1043.61937	20594.95
1047.31584	20619.45
1051.00976	20627.65
1054.70114	20703.55
1058.38998	20683.45
1062.07627	20721.05
1065.76003	20784.55
1069.44126	20865.35
1073.11995	20982.95
1076.79611	21142.65
1080.46974	21138.35
1084.14085	21126.95
1087.80943	21110.85
1091.47549	21129.85
1095.13903	21177.15
1098.80005	21204.45
1102.45857	21223.35
1106.11456	21207.35
1109.76805	21125.15
1113.41903	21068.25
1117.06751	21034.45
1120.71348	21039.05
1124.35696	21023.15
1127.99793	21038.35
1131.63641	21070.25
1135.2724	21061.05
1138.90589	21061.05
1142.5369	21015.35
1146.16542	21048.35
1149.79145	20976.65
1153.415	20922.35
1157.03607	20835.05
1160.65467	20847.85
1164.27079	20874.35
1167.88443	20946.05
1171.49561	21111.25
1175.10432	21218.85
1178.71056	21479.25
1182.31434	21694.85
1185.91565	21874.05
1189.51451	22022.15
1193.11091	22159.75
1196.70485	22202.95
1200.29634	22158.55
1203.88538	22006.35
1207.47197	21951.65
1211.05612	21831.55
1214.63782	21738.05
1218.21708	21657.55
1221.79391	21537.75
1225.36829	21468.95
1228.94024	21408.85
1232.50976	21394.65
1236.07685	21398.25
1239.6415	21445.05
1243.20374	21463.35
1246.76355	21506.55
1250.32093	21634.85
1253.8759	21719.35
1257.42845	21807.25
1260.97859	21929.45
1264.52631	22023.95
1268.07163	22065.95
1271.61453	22122.25
1275.15503	22131.85
1278.69312	22134.45
1282.22882	22144.85
1285.76211	22118.15
1289.29301	22108.45
1292.82151	22179.65
1296.34761	22238.45
1299.87133	22404.25
1303.39266	22484.15
1306.9116	22694.95
1310.42815	22885.05
1313.94233	23027.15
1317.45412	23052.85
1320.96354	23059.95
1324.47058	22992.05
1327.97525	22812.35
1331.47754	22651.35
1334.97747	22558.15
1338.47502	22644.05
1341.97022	22914.25
1345.46305	23261.85
1348.95352	23513.05
1352.44163	23588.45
1355.92738	23568.05
1359.41078	23527.75
1362.89183	23357.25
1366.37053	23002.05
1369.84688	22649.45
1373.32088	22266.65
1376.79254	21912.55
1380.26186	21688.05
1383.72883	21549.35
1387.19347	21407.85
1390.65578	21211.75
1394.11575	21111.75
1397.57339	21015.35
1401.0287	20951.65
1404.48168	20890.85
1407.93234	20868.25
1411.38068	20848.95
1414.82669	20861.55
1418.27039	20761.75
1421.71177	20684.85
1425.15083	20645.05
1428.58758	20602.35
1432.02203	20560.65
1435.45416	20528.95
1438.88399	20552.65
1442.31151	20530.85
1445.73673	20515.45
1449.15965	20549.15
1452.58027	20550.15
1455.9986	20544.55
1459.41463	20570.35
1462.82837	20668.15
1466.23982	20800.45
1469.64898	20910.45
1473.05586	21013.85
1476.46045	21039.65
1479.86276	21075.65
1483.26279	21099.35
1486.66054	21149.05
1490.05602	21172.65
1493.44922	21258.15
1496.84016	21406.25
1500.22882	21611.55
1503.61521	21827.15
1506.99934	21984.25
1510.38121	21975.65
1513.76081	21885.75
1517.13816	21753.35
1520.51324	21625.45
1523.88607	21509.45
1527.25665	21442.45
1530.62498	21476.85
1533.99105	21414.85
1537.35488	21483.35
1540.71647	21514.55
1544.07581	21529.15
1547.4329	21545.95
1550.78776	21536.05
1554.14038	21481.65
1557.49077	21435.95
1560.83892	21466.15
1564.18484	21461.85
1567.52853	21473.55
1570.86999	21513.85
1574.20922	21498.55
1577.54624	21555.75
1580.88103	21462.45
1584.2136	21354.95
1587.54395	21367.65
1590.87208	21422.05
1594.19801	21528.15
1597.52172	21711.15
1600.84321	21803.25
1604.16251	21831.05
1607.47959	21765.25
1610.79447	21555.65
1614.10715	21201.75
1617.41763	20909.75
1620.7259	20735.95
1624.03199	20586.15
1627.33587	20485.65
1630.63757	20466.05
1633.93707	20458.25
1637.23439	20615.05
1640.52951	20854.95
1643.82246	21125.05
1647.11321	21330.45
1650.40179	21302.55
1653.68819	21108.85
1656.97241	20754.35
1660.25446	20422.25
1663.53433	20160.25
1666.81203	19977.25
1670.08756	19880.25
1673.36092	19749.95
1676.63211	19665.75
1679.90115	19625.25
1683.16801	19574.75
1686.43272	19523.85
1689.69527	19478.65
1692.95567	19476.05
1696.2139	19482.15
1699.46999	19471.25
1702.72392	19504.55
1705.97571	19461.05
1709.22535	19477.75
1712.47284	19478.75
1715.71819	19475.35
1718.96139	19397.45
1722.20246	19405.45
1725.44139	19315.85
1728.67818	19314.35
1731.91284	19248.55
1735.14537	19201.15
1738.37576	19151.35
1741.60403	19106.35
1744.83017	19029.65
1748.05418	19036.05
1751.27607	18995.55
1754.49584	18962.25
1757.71349	18959.95
1760.92903	18945.65
1764.14244	18947.55
1767.35375	18929.45
1770.56294	18894.55
1773.77002	18915.15
1776.97499	18895.15
1780.17785	18880.15
1783.37861	18839.45
1786.57727	18832.75
1789.77382	18788.15
1792.96828	18808.75
1796.16064	18766.75
1799.3509	18739.95
1802.53907	18718.85
1805.72514	18696.85
1808.90913	18639.65
1812.09102	18608.95
1815.27083	18569.45
1818.44856	18548.05
1821.6242	18537.75
1824.79776	18536.05
1827.96924	18486.15
1831.13864	18464.95
1834.30597	18462.95
1837.47122	18436.35
1840.6344	18446.15
1843.7955	18395.95
1846.95454	18368.55
1850.11151	18420.75
1853.26642	18404.75
1856.41926	18395.15
1859.57004	18383.35
1862.71876	18344.15
1865.86542	18353.05
1869.01003	18331.55
1872.15258	18322.35
1875.29308	18290.95
1878.43152	18252.65
1881.56792	18268.55
1884.70227	18241.45
1887.83457	18203.05
1890.96482	18185.25
1894.09304	18145.95
1897.21921	18094.15
1900.34335	18106.35
1903.46544	18064.65
1906.58551	18085.65
1909.70353	18022.15
1912.81953	18014.85
1915.93349	17972.85
1919.04543	17897.35
1922.15534	17948.95
1925.26322	17916.05
1928.36908	17879.35
1931.47292	17826.65
1934.57473	17799.05
1937.67453	17776.25
1940.77232	17714.25
1943.86808	17697.05
1946.96184	17659.35
1950.05358	17648.55
1953.14331	17574.55
1956.23103	17495.75
1959.31675	17429.65
1962.40046	17371.75
1965.48217	17328.05
1968.56188	17317.75
1971.63959	17255.95
1974.7153	17223.15
1977.78901	17180.55
1980.86073	17087.85
1983.93046	17064.95
1986.99819	17011.65
1990.06394	16930.65
1993.1277	16901.25
1996.18947	16898.35
1999.24925	16852.45
2002.30706	16773.95
2005.36288	16747.15
2008.41672	16704.75
2011.46859	16662.55
2014.51848	16590.05
2017.56639	16544.95
2020.61233	16442.45
2023.6563	16438.05
2026.6983	16405.35
2029.73833	16346.25
2032.7764	16269.75
2035.8125	16269.05
2038.84664	16235.95
2041.87881	16227.45
2044.90903	16156.55
2047.93729	16143.65
2050.96359	16142.95
2053.98794	16086.85
2057.01034	16074.55
2060.03078	16085.25
2063.04927	16048.55
2066.06582	16062.95
2069.08042	16049.75
2072.09307	16020.95
2075.10378	16017.85
2078.11255	15998.35
2081.11938	15998.65
2084.12426	15990.25
2087.12722	15994.25
2090.12824	15969.85
2093.12732	15984.95
2096.12447	15952.55
2099.11969	15951.05
2102.11299	15965.05
2105.10435	15997.05
2108.09379	15982.75
2111.08131	15995.05
2114.0669	15996.85
2117.05057	16002.45
2120.03233	15996.25
2123.01216	16007.95
2125.99008	16032.75
2128.96609	16066.25
2131.94018	16078.15
2134.91236	16105.25
2137.88263	16072.15
2140.851	16065.05
2143.81746	16111.75
2146.78201	16101.65
2149.74466	16138.35
2152.7054	16111.45
2155.66425	16106.35
2158.6212	16089.65
2161.57625	16127.65
2164.52941	16083.35
2167.48067	16065.05
2170.43004	16036.65
2173.37752	16027.25
2176.32311	16036.85
2179.26681	16042.85
2182.20863	16047.95
2185.14856	16065.35
2188.08661	16069.85
2191.02278	16021.05
2193.95707	16036.95
2196.88948	16003.05
2199.82001	16021.05
2202.74867	15973.25
2205.67545	15972.55
2208.60037	15949.85
2211.52341	15922.75
2214.44458	15852.15
2217.36388	15815.95
2220.28132	15794.95
2223.1969	15737.15
2226.11061	15705.45
2229.02246	15683.85
2231.93245	15683.75
2234.84058	15666.95
2237.74686	15620.25
2240.65128	15601.45
2243.55385	15582.95
2246.45456	15586.75
2249.35343	15528.75
2252.25044	15532.85
2255.14561	15486.75
2258.03893	15485.75
2260.93041	15470.25
2263.82004	15417.05
2266.70783	15368.75
2269.59378	15321.05
2272.4779	15289.35
2275.36017	15276.25
2278.24061	15257.55
2281.11922	15202.35
2283.996	15158.25
2286.87094	15115.45
2289.74405	15099.35
2292.61534	15077.55
2295.4848	15048.55
2298.35243	15034.05
2301.21824	15039.55
2304.08223	15035.35
2306.94439	15009.45
2309.80474	14992.95
2312.66327	14981.35
2315.51999	14928.45
2318.37489	14921.85
2321.22797	14930.55
2324.07925	14903.95
2326.92871	14839.35
2329.77637	14801.05
2332.62222	14792.45
2335.46626	14752.65
2338.3085	14715.15
2341.14893	14699.25
2343.98756	14704.15
2346.8244	14679.55
2349.65943	14648.95
2352.49267	14639.85
2355.32411	14607.65
2358.15376	14594.75
2360.98161	14602.15
2363.80768	14573.95
2366.63195	14576.65
2369.45444	14578.15
2372.27514	14533.15
2375.09405	14517.25
2377.91118	14492.35
2380.72652	14449.35
2383.54009	14428.75
2386.35187	14409.75
2389.16188	14401.15
2391.97011	14343.75
2394.77657	14317.75
2397.58125	14292.15
2400.38416	14292.25
2403.18529	14233.95
2405.98466	14209.45
2408.78226	14185.05
2411.57809	14190.35
2414.37216	14126.85
2417.16446	14153.05
2419.955	14137.65
2422.74378	14132.85
2425.5308	14100.35
2428.31606	14096.95
2431.09956	14082.05
2433.88131	14053.45
2436.6613	14039.95
2439.43954	14025.05
2442.21603	13990.05
2444.99077	13999.65
2447.76377	13992.55
2450.53501	13944.25
2453.30451	13918.25
2456.07226	13907.35
2458.83827	13845.05
2461.60254	13831.25
2464.36507	13826.25
2467.12586	13801.15
2469.88492	13793.65
2472.64224	13756.85
2475.39782	13755.65
2478.15167	13767.95
2480.90379	13742.55
2483.65417	13728.45
2486.40283	13739.05
2489.14976	13702.15
2491.89497	13691.65
2494.63845	13665.15
2497.3802	13659.55
2500.12024	13654.65
2502.85855	13615.65
2505.59514	13585.25
2508.33002	13590.95
2511.06318	13555.05
2513.79462	13536.65
2516.52435	13505.75
2519.25237	13494.35
2521.97867	13459.75
2524.70327	13461.05
2527.42616	13427.65
2530.14734	13429.15
2532.86681	13394.25
2535.58458	13388.75
2538.30065	13355.45
2541.01501	13344.45
2543.72768	13323.15
2546.43864	13296.15
2549.14791	13259.85
2551.85548	13220.05
2554.56136	13209.75
2557.26554	13208.95
2559.96803	13132.15
2562.66883	13113.55
2565.36794	13106.25
2568.06536	13070.75
2570.7611	13047.75
2573.45514	13012.35
2576.14751	13015.85
2578.83819	12951.85
2581.52719	12963.05
2584.21451	12924.15
2586.90015	12906.75
2589.58411	12851.15
2592.2664	12849.05
2594.94701	12812.45
2597.62594	12800.15
2600.30321	12778.95
2602.9788	12781.15
2605.65273	12724.75
2608.32498	12705.35
2610.99557	12705.95
2613.66449	12656.05
2616.33175	12627.35
2618.99734	12614.35
2621.66128	12574.75
2624.32355	12547.35
2626.98416	12545.55
2629.64311	12517.05
2632.30041	12513.95
2634.95605	12478.65
2637.61004	12452.15
2640.26238	12397.25
2642.91306	12402.65
2645.56209	12380.05
2648.20948	12358.15
2650.85521	12368.85
2653.4993	12336.45
2656.14175	12341.15
2658.78255	12337.65
2661.42171	12317.65
2664.05923	12336.65
2666.6951	12323.45
2669.32934	12328.25
2671.96194	12325.75
2674.59291	12345.45
2677.22224	12310.15
2679.84993	12309.35
2682.476	12286.85
2685.10043	12285.55
2687.72324	12264.75
2690.34441	12234.05
2692.96396	12251.45
2695.58188	12275.45
2698.19818	12253.75
2700.81285	12239.35
2703.4259	12239.25
2706.03733	12251.05
2708.64714	12191.95
2711.25533	12196.65
2713.86191	12193.05
2716.46687	12210.15
2719.07021	12228.65
2721.67194	12223.05
2724.27206	12198.05
2726.87057	12193.85
2729.46747	12212.55
2732.06276	12195.65
2734.65644	12168.95
2737.24852	12190.25
2739.83899	12150.05
2742.42786	12137.05
2745.01513	12107.35
2747.60079	12108.85
2750.18486	12110.35
2752.76733	12045.95
2755.3482	12043.25
2757.92747	12026.05
2760.50515	12013.25
2763.08123	12004.15
2765.65573	11970.45
2768.22863	11931.65
2770.79994	11930.55
2773.36967	11906.85
2775.9378	11891.35
2778.50435	11870.45
2781.06932	11842.05
2783.6327	11834.05
2786.1945	11785.35
2788.75471	11774.35
2791.31335	11730.35
2793.87041	11722.35
2796.42589	11688.95
2798.97979	11682.65
2801.53212	11649.25
2804.08288	11612.15
2806.63206	11565.45
2809.17967	11566.25
2811.72571	11501.05
2814.27018	11508.15
2816.81308	11457.25
2819.35442	11439.65
2821.89419	11392.15
2824.43239	11392.75
2826.96904	11373.15
2829.50412	11324.45
2832.03763	11311.45
2834.56959	11318.15
2837.1	11301.85
2839.62884	11281.85
2842.15613	11217.95
2844.68186	11239.85
2847.20604	11225.75
2849.72867	11210.15
2852.24974	11198.65
2854.76927	11180.95
2857.28724	11145.35
2859.80367	11140.05
2862.31855	11130.65
2864.83189	11081.85
2867.34368	11080.35
2869.85393	11080.75
2872.36264	11046.95
2874.8698	11010.25
2877.37543	11001.35
2879.87952	10996.85
2882.38207	10978.35
2884.88308	10995.65
2887.38256	10982.35
2889.88051	10984.25
2892.37692	10970.95
2894.8718	10945.25
2897.36515	10972.55
2899.85698	10944.05
2902.34727	10983.05
2904.83604	10959.25
2907.32328	11015.85
2909.809	10965.45
2912.29319	10955.55
2914.77587	10945.95
2917.25702	10929.45
2919.73665	10936.05
2922.21476	10934.15
2924.69136	10904.85
2927.16644	10892.15
2929.64	10908.25
2932.11205	10880.45
2934.58258	10840.65
2937.05161	10849.25
2939.51912	10838.35
2941.98513	10830.75
2944.44962	10804.75
2946.91261	10812.15
2949.37409	10804.45
2951.83407	10803.65
2954.29254	10811.75
2956.74951	10774.95
2959.20498	10774.55
2961.65895	10804.45
2964.11142	10831.65
2966.56239	10790.45
2969.01186	10811.15
2971.45984	10778.65
2973.90632	10763.95
2976.35131	10735.95
2978.7948	10717.85
2981.23681	10691.55
2983.67732	10690.65
2986.11635	10654.75
2988.55388	10672.45
2990.98993	10654.05
2993.4245	10623.55
2995.85758	10606.85
2998.28917	10555.65
3000.71928	10541.45
3003.14791	10520.25
3005.57506	10494.55
3008.00073	10445.85
3010.42493	10460.55
3012.84764	10456.15
3015.26888	10439.85
3017.68865	10411.35
3020.10694	10404.15
3022.52376	10365.25
3024.9391	10387.45
3027.35298	10374.45
3029.76539	10318.35
3032.17632	10314.25
3034.5858	10308.65
3036.9938	10304.25
3039.40034	10288.45
3041.80542	10262.55
3044.20903	10255.35
3046.61118	10245.15
3049.01187	10232.65
3051.4111	10194.25
3053.80888	10185.45
3056.20519	10161.45
3058.60005	10144.35
3060.99345	10155.55
3063.3854	10106.45
3065.7759	10090.15
3068.16494	10052.05
3070.55254	10060.65
3072.93868	10029.95
3075.32338	10015.85
3077.70662	10010.95
3080.08842	9940.45
3082.46878	9946.05
3084.84769	9922.55
3087.22515	9931.85
3089.60118	9926.95
3091.97576	9929.85
3094.3489	9948.35
3096.72061	9943.95
3099.09087	9942.65
3101.4597	9927.15
3103.82709	9948.15
3106.19305	9936.35
3108.55757	9927.75
3110.92066	9924.85
3113.28232	9915.65
3115.64255	9863.05
3118.00134	9850.15
3120.35871	9823.95
3122.71466	9805.05
3125.06917	9807.85
3127.42226	9763.85
3129.77393	9756.15
3132.12417	9742.85
3134.47299	9749.05
3136.82039	9720.25
3139.16636	9689.55
3141.51092	9694.65
3143.85406	9710.95
3146.19579	9715.35
3148.53609	9716.25
3150.87499	9714.85
3153.21246	9722.15
3155.54853	9735.75
3157.88318	9733.75
3160.21642	9733.55
3162.54826	9714.25
3164.87868	9701.25
3167.2077	9738.75
3169.5353	9746.05
3171.86151	9757.65
3174.18631	9733.35
3176.5097	9733.25
3178.83169	9698.75
3181.15228	9686.25
3183.47147	9649.05
3185.78926	9641.05
3188.10565	9623.15
3190.42065	9608.15
3192.73424	9607.85
3195.04645	9591.15
3197.35725	9587.25
3199.66667	9598.55
3201.97469	9597.15
3204.28132	9575.15
3206.58656	9603.55
3208.8904	9594.55
3211.19287	9573.85
3213.49394	9583.75
3215.79363	9569.25
3218.09193	9578.05
3220.38884	9577.25
3222.68438	9606.35
3224.97853	9556.95
3227.2713	9554.75
3229.56269	9534.85
3231.8527	9533.55
3234.14133	9508.95
3236.42858	9490.65
3238.71446	9456.75
3240.99896	9427.65
3243.28209	9429.15
3245.56384	9406.75
3247.84423	9383.65
3250.12324	9384.45
3252.40088	9409.65
3254.67715	9391.05
3256.95205	9387.75
3259.22558	9391.45
3261.49775	9363.75
3263.76855	9387.35
3266.03799	9339.75
3268.30606	9361.85
3270.57277	9345.45
3272.83812	9306.35
3275.10211	9292.15
3277.36474	9247.65
3279.62601	9258.35
3281.88593	9231.95
3284.14448	9223.65
3286.40168	9229.25
3288.65753	9217.45
3290.91202	9210.95
3293.16516	9155.35
3295.41695	9154.05
3297.66738	9113.85
3299.91647	9085.45
3302.16421	9018.75
3304.4106	9005.55
3306.65564	8937.05
3308.89933	8864.45
3311.14169	8807.95
3313.38269	8757.25
3315.62236	8721.75
3317.86068	8687.65
3320.09766	8624.45
3322.3333	8558.25
3324.5676	8523.05
3326.80056	8414.05
3329.03219	8366.15
3331.26248	4.45
3333.49143	0.15
3335.71905	-0.95
