Data from AgNPs_APTES_FTO_UA_100uM_CRN_0uM_R6G_10uM_Scan_RamanShift__9__15-53-12-937.txt Node

Date: Mon Jul 11 15:53:12 BST 2022
User: TCL
Spectrometer: QEP01345
Trigger mode: 4
Integration Time (sec): 7.000000E0
Scans to average: 10
Electric dark correction enabled: true
Nonlinearity correction enabled: false
Boxcar width: 0
XAxis mode: Raman Shifts
Number of Pixels in Spectrum: 1044
>>>>>Begin Spectral Data<<<<<
46.04893	-0.65
50.45542	0.25
54.85868	-0.55
59.25871	-2.15
63.6555	40.75
68.04907	42.35
72.43941	49.15
76.82654	48.55
81.21044	51.75
85.59113	53.15
89.96862	58.25
94.34289	57.95
98.71396	59.95
103.08183	62.35
107.4465	61.85
111.80798	64.45
116.16626	62.75
120.52136	66.15
124.87327	69.15
129.222	73.05
133.56755	79.05
137.90993	85.75
142.24913	92.25
146.58517	104.45
150.91804	118.45
155.24774	139.35
159.57429	171.75
163.89768	217.85
168.21792	283.15
172.53501	383.85
176.84895	533.95
181.15975	741.65
185.46741	1029.75
189.77193	1420.35
194.07331	1907.95
198.37157	2465.45
202.6667	3060.65
206.9587	3623.75
211.24758	4214.45
215.53334	4805.15
219.81599	5424.45
224.09553	6104.25
228.37195	6855.55
232.64527	7667.95
236.91549	8514.15
241.18261	9346.35
245.44663	10068.05
249.70755	10688.35
253.96539	11177.75
258.22014	11523.35
262.4718	11761.35
266.72039	11851.45
270.96589	11825.95
275.20832	11660.35
279.44768	11428.45
283.68397	11137.35
287.91719	10898.25
292.14735	10744.25
296.37445	10655.55
300.59849	10667.55
304.81948	10680.75
309.03742	10631.45
313.25231	10459.05
317.46415	10195.45
321.67296	9919.45
325.87872	9709.25
330.08145	9578.65
334.28114	9567.65
338.47781	9643.15
342.67145	9758.55
346.86207	9935.15
351.04966	10188.15
355.23424	10425.35
359.4158	10677.85
363.59435	10878.35
367.76989	11025.85
371.94243	11106.75
376.11196	11225.65
380.27849	11278.95
384.44203	11379.75
388.60257	11430.55
392.76012	11550.15
396.91468	11635.75
401.06626	11797.55
405.21485	11886.95
409.36047	11779.85
413.50311	11554.45
417.64277	11374.45
421.77947	11235.25
425.9132	11195.25
430.04396	11224.85
434.17176	11226.55
438.2966	11354.15
442.41849	11528.45
446.53742	11727.75
450.6534	11966.05
454.76644	12121.85
458.87653	12239.15
462.98368	12234.45
467.08789	12179.55
471.18916	12052.55
475.2875	11958.65
479.38291	11901.45
483.4754	11843.45
487.56496	11811.75
491.6516	11765.35
495.73531	11763.75
499.81612	11778.95
503.89401	11878.05
507.96899	11927.85
512.04106	11937.85
516.11023	11978.55
520.1765	11963.95
524.23987	11948.75
528.30034	11942.25
532.35792	11921.75
536.41261	11902.75
540.46441	11805.35
544.51333	11766.25
548.55936	11775.65
552.60252	11837.95
556.64279	11971.85
560.6802	12033.45
564.71473	12107.05
568.7464	12187.65
572.7752	12239.45
576.80114	12211.15
580.82422	12232.85
584.84444	12338.45
588.86181	12413.05
592.87633	12452.05
596.888	12520.15
600.89682	12712.15
604.9028	13507.25
608.90594	15324.15
612.90624	17025.55
616.90371	15810.15
620.89834	13255.45
624.89015	12230.35
628.87913	12194.65
632.86528	12457.35
636.84862	12724.95
640.82913	12657.85
644.80683	12343.75
648.78172	12084.45
652.75379	12063.95
656.72306	12257.75
660.68952	12491.75
664.65319	12490.95
668.61405	12409.25
672.57211	12640.35
676.52738	13058.35
680.47986	13689.05
684.42955	14479.75
688.37646	14979.55
692.32058	14949.15
696.26192	14407.25
700.20048	13865.75
704.13626	13649.85
708.06928	13532.15
711.99952	13296.75
715.927	12963.45
719.85171	12615.45
723.77365	12372.15
727.69284	12170.45
731.60928	12138.15
735.52295	12150.25
739.43388	12071.45
743.34206	12019.45
747.24749	11950.65
751.15017	11886.05
755.05012	11913.75
758.94733	12143.15
762.8418	12742.65
766.73354	13813.15
770.62254	14974.65
774.50882	15593.55
778.39237	15156.85
782.27321	14009.75
786.15132	13026.95
790.02671	12409.25
793.89938	12091.25
797.76935	11921.55
801.6366	11804.45
805.50115	11716.15
809.36299	11645.55
813.22213	11565.45
817.07857	11500.25
820.93231	11460.05
824.78336	11409.25
828.63172	11385.75
832.47738	11345.15
836.32036	11319.65
840.16066	11314.35
843.99827	11315.65
847.8332	11334.55
851.66546	11364.65
855.49504	11421.35
859.32195	11454.75
863.1462	11479.25
866.96777	11477.65
870.78668	11511.65
874.60293	11529.95
878.41652	11541.45
882.22745	11557.25
886.03573	11563.45
889.84136	11572.15
893.64433	11522.35
897.44466	11442.45
901.24235	11387.15
905.0374	11314.85
908.8298	11233.85
912.61957	11183.15
916.40671	11214.75
920.19121	11259.85
923.97308	11308.05
927.75233	11350.55
931.52895	11356.15
935.30295	11308.55
939.07433	11217.65
942.84309	11134.05
946.60924	11156.75
950.37278	11150.55
954.13371	11200.65
957.89203	11203.35
961.64774	11163.25
965.40086	11113.95
969.15137	11025.15
972.89929	10943.45
976.64461	10888.35
980.38733	10883.25
984.12747	10864.35
987.86502	10868.25
991.59999	10934.05
995.33237	11007.35
999.06217	11136.35
1002.78939	11269.35
1006.51404	11441.15
1010.23611	11646.35
1013.95561	11816.65
1017.67255	11869.05
1021.38692	11817.85
1025.09872	11630.35
1028.80796	11441.25
1032.51465	11376.55
1036.21877	11380.05
1039.92035	11457.55
1043.61937	11464.35
1047.31584	11525.85
1051.00976	11512.95
1054.70114	11548.35
1058.38998	11602.45
1062.07627	11668.65
1065.76003	11803.85
1069.44126	11916.75
1073.11995	12056.65
1076.79611	12193.85
1080.46974	12314.75
1084.14085	12375.85
1087.80943	12451.95
1091.47549	12491.95
1095.13903	12472.15
1098.80005	12384.25
1102.45857	12216.65
1106.11456	12137.15
1109.76805	12143.75
1113.41903	12208.55
1117.06751	12362.15
1120.71348	12589.45
1124.35696	12892.65
1127.99793	13177.45
1131.63641	13417.55
1135.2724	13378.55
1138.90589	13257.25
1142.5369	13076.45
1146.16542	12876.35
1149.79145	12702.15
1153.415	12556.75
1157.03607	12527.15
1160.65467	12629.15
1164.27079	12886.25
1167.88443	13371.05
1171.49561	13953.55
1175.10432	14775.55
1178.71056	15884.25
1182.31434	16853.85
1185.91565	17419.95
1189.51451	17460.25
1193.11091	17174.75
1196.70485	16677.15
1200.29634	16049.15
1203.88538	15461.05
1207.47197	14917.55
1211.05612	14361.05
1214.63782	13976.25
1218.21708	13668.85
1221.79391	13529.75
1225.36829	13424.45
1228.94024	13388.85
1232.50976	13307.85
1236.07685	13250.45
1239.6415	13253.75
1243.20374	13281.25
1246.76355	13371.45
1250.32093	13518.25
1253.8759	13728.75
1257.42845	14025.65
1260.97859	14301.85
1264.52631	14675.05
1268.07163	15012.55
1271.61453	15282.35
1275.15503	15617.55
1278.69312	15816.15
1282.22882	16038.15
1285.76211	16280.45
1289.29301	16649.45
1292.82151	17134.75
1296.34761	17689.65
1299.87133	18404.15
1303.39266	19240.55
1306.9116	20280.05
1310.42815	21310.45
1313.94233	21801.75
1317.45412	21615.75
1320.96354	21048.55
1324.47058	20381.75
1327.97525	19666.95
1331.47754	19203.65
1334.97747	18996.95
1338.47502	19102.15
1341.97022	19432.85
1345.46305	19928.25
1348.95352	20576.75
1352.44163	21467.65
1355.92738	22416.35
1359.41078	23608.85
1362.89183	24562.65
1366.37053	23921.15
1369.84688	21682.75
1373.32088	19455.05
1376.79254	18010.25
1380.26186	17247.35
1383.72883	16866.45
1387.19347	16589.35
1390.65578	16291.35
1394.11575	15972.75
1397.57339	15793.75
1401.0287	15673.95
1404.48168	15571.75
1407.93234	15509.85
1411.38068	15441.05
1414.82669	15273.15
1418.27039	15023.85
1421.71177	14817.65
1425.15083	14660.95
1428.58758	14551.45
1432.02203	14617.15
1435.45416	14859.45
1438.88399	15146.95
1442.31151	15422.45
1445.73673	15716.95
1449.15965	16078.15
1452.58027	16470.45
1455.9986	16819.45
1459.41463	17189.45
1462.82837	17611.15
1466.23982	17983.75
1469.64898	18204.65
1473.05586	18229.45
1476.46045	18075.65
1479.86276	17806.35
1483.26279	17514.65
1486.66054	17307.15
1490.05602	17211.65
1493.44922	17324.15
1496.84016	17629.25
1500.22882	18345.55
1503.61521	19432.35
1506.99934	20599.65
1510.38121	21478.45
1513.76081	21573.35
1517.13816	20715.55
1520.51324	19422.05
1523.88607	18157.35
1527.25665	17389.95
1530.62498	16902.65
1533.99105	16665.25
1537.35488	16530.95
1540.71647	16382.35
1544.07581	16270.05
1547.4329	16191.05
1550.78776	16084.35
1554.14038	16006.55
1557.49077	16004.15
1560.83892	16103.85
1564.18484	16342.55
1567.52853	16573.35
1570.86999	16781.85
1574.20922	16931.05
1577.54624	16863.35
1580.88103	16509.35
1584.2136	15987.45
1587.54395	15736.25
1590.87208	15839.15
1594.19801	16268.95
1597.52172	16881.15
1600.84321	17148.15
1604.16251	16859.45
1607.47959	16199.85
1610.79447	15491.25
1614.10715	14718.85
1617.41763	14038.95
1620.7259	13528.35
1624.03199	13244.45
1627.33587	13170.55
1630.63757	13312.95
1633.93707	13634.25
1637.23439	14356.35
1640.52951	15392.15
1643.82246	16653.75
1647.11321	17785.35
1650.40179	18363.45
1653.68819	17809.15
1656.97241	16362.45
1660.25446	14861.45
1663.53433	13725.85
1666.81203	13016.55
1670.08756	12560.05
1673.36092	12280.95
1676.63211	12046.85
1679.90115	11873.35
1683.16801	11686.95
1686.43272	11552.15
1689.69527	11432.15
1692.95567	11302.95
1696.2139	11216.15
1699.46999	11062.25
1702.72392	10967.75
1705.97571	10903.05
1709.22535	10799.75
1712.47284	10730.35
1715.71819	10649.55
1718.96139	10577.45
1722.20246	10483.75
1725.44139	10380.35
1728.67818	10309.65
1731.91284	10212.95
1735.14537	10115.55
1738.37576	10041.65
1741.60403	9989.55
1744.83017	9919.65
1748.05418	9870.75
1751.27607	9807.35
1754.49584	9794.85
1757.71349	9774.45
1760.92903	9769.55
1764.14244	9750.65
1767.35375	9731.75
1770.56294	9699.45
1773.77002	9664.25
1776.97499	9656.15
1780.17785	9603.55
1783.37861	9590.55
1786.57727	9563.95
1789.77382	9540.15
1792.96828	9507.75
1796.16064	9484.35
1799.3509	9498.25
1802.53907	9453.85
1805.72514	9441.65
1808.90913	9394.05
1812.09102	9369.65
1815.27083	9374.35
1818.44856	9339.15
1821.6242	9312.05
1824.79776	9311.05
1827.96924	9322.75
1831.13864	9313.35
1834.30597	9289.95
1837.47122	9265.85
1840.6344	9243.65
1843.7955	9261.35
1846.95454	9274.85
1850.11151	9252.25
1853.26642	9233.75
1856.41926	9237.65
1859.57004	9230.45
1862.71876	9215.35
1865.86542	9213.25
1869.01003	9206.75
1872.15258	9212.45
1875.29308	9208.95
1878.43152	9183.05
1881.56792	9190.15
1884.70227	9183.65
1887.83457	9201.75
1890.96482	9155.45
1894.09304	9172.85
1897.21921	9149.75
1900.34335	9174.35
1903.46544	9179.05
1906.58551	9169.95
1909.70353	9153.45
1912.81953	9151.95
1915.93349	9155.25
1919.04543	9117.65
1922.15534	9101.55
1925.26322	9083.05
1928.36908	9073.95
1931.47292	9032.85
1934.57473	9048.05
1937.67453	9028.75
1940.77232	8973.45
1943.86808	8963.95
1946.96184	8943.15
1950.05358	8936.55
1953.14331	8923.35
1956.23103	8881.65
1959.31675	8829.15
1962.40046	8851.65
1965.48217	8822.95
1968.56188	8795.95
1971.63959	8768.55
1974.7153	8767.65
1977.78901	8714.65
1980.86073	8727.05
1983.93046	8701.75
1986.99819	8666.65
1990.06394	8638.35
1993.1277	8597.35
1996.18947	8583.85
1999.24925	8568.95
2002.30706	8552.95
2005.36288	8527.25
2008.41672	8527.15
2011.46859	8496.15
2014.51848	8450.65
2017.56639	8467.65
2020.61233	8439.75
2023.6563	8415.75
2026.6983	8437.15
2029.73833	8391.05
2032.7764	8365.05
2035.8125	8383.95
2038.84664	8322.15
2041.87881	8328.65
2044.90903	8338.05
2047.93729	8329.25
2050.96359	8348.25
2053.98794	8338.65
2057.01034	8341.85
2060.03078	8363.85
2063.04927	8341.15
2066.06582	8362.15
2069.08042	8376.15
2072.09307	8373.25
2075.10378	8370.75
2078.11255	8391.05
2081.11938	8452.75
2084.12426	8450.35
2087.12722	8442.75
2090.12824	8458.35
2093.12732	8455.25
2096.12447	8493.65
2099.11969	8490.15
2102.11299	8508.65
2105.10435	8525.55
2108.09379	8531.65
2111.08131	8535.85
2114.0669	8531.35
2117.05057	8537.55
2120.03233	8533.45
2123.01216	8533.25
2125.99008	8527.45
2128.96609	8546.75
2131.94018	8538.65
2134.91236	8543.45
2137.88263	8529.05
2140.851	8508.35
2143.81746	8523.45
2146.78201	8504.55
2149.74466	8489.55
2152.7054	8496.75
2155.66425	8465.95
2158.6212	8458.55
2161.57625	8419.95
2164.52941	8400.95
2167.48067	8401.05
2170.43004	8423.05
2173.37752	8426.95
2176.32311	8422.85
2179.26681	8443.15
2182.20863	8404.95
2185.14856	8402.95
2188.08661	8407.75
2191.02278	8406.15
2193.95707	8416.55
2196.88948	8414.75
2199.82001	8406.75
2202.74867	8397.25
2205.67545	8413.45
2208.60037	8385.05
2211.52341	8379.25
2214.44458	8386.65
2217.36388	8349.35
2220.28132	8318.95
2223.1969	8305.85
2226.11061	8322.25
2229.02246	8286.85
2231.93245	8294.55
2234.84058	8278.95
2237.74686	8275.25
2240.65128	8270.85
2243.55385	8246.85
2246.45456	8238.55
2249.35343	8229.75
2252.25044	8246.25
2255.14561	8222.35
2258.03893	8227.85
2260.93041	8227.45
2263.82004	8209.55
2266.70783	8232.55
2269.59378	8191.75
2272.4779	8169.85
2275.36017	8145.75
2278.24061	8148.85
2281.11922	8135.65
2283.996	8091.05
2286.87094	8107.05
2289.74405	8076.15
2292.61534	8075.95
2295.4848	8074.05
2298.35243	8094.15
2301.21824	8074.15
2304.08223	8086.75
2306.94439	8083.45
2309.80474	8089.55
2312.66327	8086.05
2315.51999	8053.65
2318.37489	8076.35
2321.22797	8067.95
2324.07925	8050.55
2326.92871	8067.35
2329.77637	8051.95
2332.62222	8040.85
2335.46626	8015.45
2338.3085	8042.95
2341.14893	8011.45
2343.98756	8026.85
2346.8244	8033.95
2349.65943	8055.45
2352.49267	8021.55
2355.32411	8018.05
2358.15376	8030.75
2360.98161	8039.65
2363.80768	8042.45
2366.63195	8070.85
2369.45444	8041.25
2372.27514	8027.95
2375.09405	8039.85
2377.91118	8025.55
2380.72652	8016.25
2383.54009	8010.35
2386.35187	7996.45
2389.16188	7963.75
2391.97011	7961.75
2394.77657	7943.65
2397.58125	7920.95
2400.38416	7943.55
2403.18529	7907.55
2405.98466	7901.25
2408.78226	7889.05
2411.57809	7915.25
2414.37216	7889.05
2417.16446	7895.45
2419.955	7888.65
2422.74378	7892.25
2425.5308	7896.75
2428.31606	7877.65
2431.09956	7913.35
2433.88131	7872.05
2436.6613	7887.05
2439.43954	7898.75
2442.21603	7868.25
2444.99077	7850.15
2447.76377	7874.15
2450.53501	7898.35
2453.30451	7896.65
2456.07226	7859.25
2458.83827	7852.85
2461.60254	7838.65
2464.36507	7847.25
2467.12586	7835.05
2469.88492	7838.55
2472.64224	7858.15
2475.39782	7847.65
2478.15167	7856.85
2480.90379	7866.75
2483.65417	7857.55
2486.40283	7843.45
2489.14976	7873.65
2491.89497	7880.95
2494.63845	7876.05
2497.3802	7879.45
2500.12024	7882.65
2502.85855	7877.45
2505.59514	7860.35
2508.33002	7844.45
2511.06318	7846.85
2513.79462	7828.15
2516.52435	7817.75
2519.25237	7807.25
2521.97867	7811.65
2524.70327	7797.15
2527.42616	7800.65
2530.14734	7800.45
2532.86681	7793.95
2535.58458	7806.55
2538.30065	7808.55
2541.01501	7799.55
2543.72768	7775.45
2546.43864	7777.45
2549.14791	7769.35
2551.85548	7787.75
2554.56136	7784.25
2557.26554	7782.75
2559.96803	7749.95
2562.66883	7757.55
2565.36794	7724.65
2568.06536	7725.05
2570.7611	7723.65
2573.45514	7705.25
2576.14751	7725.65
2578.83819	7705.65
2581.52719	7701.75
2584.21451	7700.25
2586.90015	7676.85
2589.58411	7666.65
2592.2664	7665.65
2594.94701	7651.85
2597.62594	7676.65
2600.30321	7657.25
2602.9788	7669.25
2605.65273	7666.95
2608.32498	7660.05
2610.99557	7628.95
2613.66449	7623.65
2616.33175	7644.65
2618.99734	7647.85
2621.66128	7641.55
2624.32355	7628.85
2626.98416	7598.25
2629.64311	7616.85
2632.30041	7620.45
2634.95605	7625.05
2637.61004	7608.05
2640.26238	7594.45
2642.91306	7590.25
2645.56209	7580.35
2648.20948	7571.05
2650.85521	7594.55
2653.4993	7581.05
2656.14175	7566.25
2658.78255	7591.35
2661.42171	7602.75
2664.05923	7612.95
2666.6951	7630.85
2669.32934	7608.15
2671.96194	7616.95
2674.59291	7635.45
2677.22224	7623.75
2679.84993	7654.65
2682.476	7641.85
2685.10043	7632.45
2687.72324	7622.75
2690.34441	7641.65
2692.96396	7632.95
2695.58188	7693.85
2698.19818	7669.75
2700.81285	7671.05
2703.4259	7670.65
2706.03733	7694.25
2708.64714	7696.45
2711.25533	7697.85
2713.86191	7692.25
2716.46687	7712.95
2719.07021	7706.45
2721.67194	7724.65
2724.27206	7719.75
2726.87057	7734.25
2729.46747	7729.85
2732.06276	7727.65
2734.65644	7760.35
2737.24852	7741.65
2739.83899	7722.15
2742.42786	7733.25
2745.01513	7737.65
2747.60079	7722.65
2750.18486	7726.35
2752.76733	7728.65
2755.3482	7695.35
2757.92747	7701.95
2760.50515	7716.95
2763.08123	7690.05
2765.65573	7688.05
2768.22863	7690.95
2770.79994	7653.15
2773.36967	7677.35
2775.9378	7687.45
2778.50435	7681.95
2781.06932	7646.05
2783.6327	7675.05
2786.1945	7649.25
2788.75471	7643.85
2791.31335	7627.85
2793.87041	7615.25
2796.42589	7605.45
2798.97979	7604.65
2801.53212	7588.35
2804.08288	7586.95
2806.63206	7558.15
2809.17967	7559.25
2811.72571	7533.15
2814.27018	7540.25
2816.81308	7507.85
2819.35442	7495.55
2821.89419	7487.75
2824.43239	7505.85
2826.96904	7498.05
2829.50412	7497.15
2832.03763	7483.15
2834.56959	7466.65
2837.1	7468.55
2839.62884	7477.75
2842.15613	7479.45
2844.68186	7492.55
2847.20604	7473.45
2849.72867	7486.75
2852.24974	7488.95
2854.76927	7482.65
2857.28724	7468.55
2859.80367	7478.05
2862.31855	7488.25
2864.83189	7468.15
2867.34368	7475.15
2869.85393	7482.15
2872.36264	7445.75
2874.8698	7471.25
2877.37543	7473.55
2879.87952	7474.15
2882.38207	7481.85
2884.88308	7491.75
2887.38256	7499.55
2889.88051	7492.75
2892.37692	7497.35
2894.8718	7510.95
2897.36515	7527.95
2899.85698	7539.75
2902.34727	7552.65
2904.83604	7576.45
2907.32328	7582.55
2909.809	7581.95
2912.29319	7601.05
2914.77587	7577.95
2917.25702	7612.25
2919.73665	7616.65
2922.21476	7614.65
2924.69136	7607.85
2927.16644	7607.15
2929.64	7619.35
2932.11205	7623.25
2934.58258	7596.15
2937.05161	7623.85
2939.51912	7600.05
2941.98513	7577.85
2944.44962	7562.55
2946.91261	7556.95
2949.37409	7553.45
2951.83407	7557.25
2954.29254	7560.85
2956.74951	7578.45
2959.20498	7567.85
2961.65895	7560.65
2964.11142	7564.35
2966.56239	7527.55
2969.01186	7543.15
2971.45984	7531.55
2973.90632	7516.45
2976.35131	7510.25
2978.7948	7506.65
2981.23681	7513.65
2983.67732	7484.65
2986.11635	7472.05
2988.55388	7449.95
2990.98993	7450.95
2993.4245	7432.05
2995.85758	7435.35
2998.28917	7411.85
3000.71928	7414.55
3003.14791	7387.15
3005.57506	7390.75
3008.00073	7359.45
3010.42493	7373.95
3012.84764	7360.15
3015.26888	7350.15
3017.68865	7368.95
3020.10694	7346.25
3022.52376	7329.75
3024.9391	7336.85
3027.35298	7342.45
3029.76539	7322.45
3032.17632	7328.15
3034.5858	7294.95
3036.9938	7314.75
3039.40034	7306.35
3041.80542	7311.25
3044.20903	7285.95
3046.61118	7308.55
3049.01187	7284.85
3051.4111	7273.55
3053.80888	7256.05
3056.20519	7260.65
3058.60005	7257.05
3060.99345	7275.95
3063.3854	7253.15
3065.7759	7226.55
3068.16494	7219.95
3070.55254	7210.45
3072.93868	7206.75
3075.32338	7184.85
3077.70662	7169.45
3080.08842	7167.95
3082.46878	7172.55
3084.84769	7164.85
3087.22515	7159.45
3089.60118	7159.75
3091.97576	7181.95
3094.3489	7188.55
3096.72061	7189.95
3099.09087	7194.45
3101.4597	7192.25
3103.82709	7210.95
3106.19305	7218.25
3108.55757	7210.65
3110.92066	7197.15
3113.28232	7202.85
3115.64255	7194.15
3118.00134	7155.15
3120.35871	7159.35
3122.71466	7166.85
3125.06917	7139.45
3127.42226	7118.65
3129.77393	7106.45
3132.12417	7099.25
3134.47299	7114.85
3136.82039	7149.85
3139.16636	7143.85
3141.51092	7140.55
3143.85406	7140.25
3146.19579	7155.25
3148.53609	7150.65
3150.87499	7179.75
3153.21246	7189.95
3155.54853	7192.65
3157.88318	7205.55
3160.21642	7219.05
3162.54826	7224.85
3164.87868	7223.65
3167.2077	7245.95
3169.5353	7231.55
3171.86151	7246.65
3174.18631	7238.35
3176.5097	7220.65
3178.83169	7226.45
3181.15228	7251.65
3183.47147	7231.45
3185.78926	7235.65
3188.10565	7210.15
3190.42065	7206.45
3192.73424	7233.05
3195.04645	7223.95
3197.35725	7226.05
3199.66667	7245.05
3201.97469	7252.85
3204.28132	7248.05
3206.58656	7277.95
3208.8904	7283.15
3211.19287	7265.95
3213.49394	7280.25
3215.79363	7287.55
3218.09193	7311.35
3220.38884	7281.35
3222.68438	7315.45
3224.97853	7298.55
3227.2713	7302.55
3229.56269	7311.75
3231.8527	7318.05
3234.14133	7285.65
3236.42858	7264.45
3238.71446	7281.75
3240.99896	7250.15
3243.28209	7232.95
3245.56384	7224.15
3247.84423	7252.75
3250.12324	7240.25
3252.40088	7247.75
3254.67715	7246.85
3256.95205	7236.45
3259.22558	7234.15
3261.49775	7244.05
3263.76855	7256.25
3266.03799	7248.45
3268.30606	7258.55
3270.57277	7264.15
3272.83812	7227.65
3275.10211	7225.15
3277.36474	7223.45
3279.62601	7203.95
3281.88593	7201.35
3284.14448	7234.65
3286.40168	7211.15
3288.65753	7223.65
3290.91202	7217.15
3293.16516	7196.75
3295.41695	7203.25
3297.66738	7175.25
3299.91647	7147.15
3302.16421	7088.05
3304.4106	7072.05
3306.65564	7053.85
3308.89933	6995.55
3311.14169	6969.75
3313.38269	6950.95
3315.62236	6913.25
3317.86068	6852.45
3320.09766	6841.35
3322.3333	6817.55
3324.5676	6790.25
3326.80056	6714.45
3329.03219	6673.45
3331.26248	3.55
3333.49143	-0.15
3335.71905	-0.15
