Data from AgNPs_APTES_FTO_UA_100uM_CRN_0uM_R6G_10uM_Scan_RamanShift__8__15-52-02-935.txt Node

Date: Mon Jul 11 15:52:02 BST 2022
User: TCL
Spectrometer: QEP01345
Trigger mode: 4
Integration Time (sec): 7.000000E0
Scans to average: 10
Electric dark correction enabled: true
Nonlinearity correction enabled: false
Boxcar width: 0
XAxis mode: Raman Shifts
Number of Pixels in Spectrum: 1044
>>>>>Begin Spectral Data<<<<<
46.04893	-0.85
50.45542	-0.65
54.85868	0.75
59.25871	-1.85
63.6555	39.45
68.04907	42.55
72.43941	46.45
76.82654	48.55
81.21044	54.35
85.59113	54.25
89.96862	56.15
94.34289	59.35
98.71396	60.35
103.08183	64.95
107.4465	62.95
111.80798	63.95
116.16626	64.15
120.52136	71.05
124.87327	73.45
129.222	78.05
133.56755	80.75
137.90993	90.95
142.24913	93.75
146.58517	105.25
150.91804	117.25
155.24774	144.95
159.57429	175.35
163.89768	227.85
168.21792	293.65
172.53501	403.85
176.84895	559.35
181.15975	763.15
185.46741	1075.35
189.77193	1496.85
194.07331	1979.25
198.37157	2568.55
202.6667	3176.65
206.9587	3781.25
211.24758	4377.15
215.53334	4984.35
219.81599	5644.85
224.09553	6352.35
228.37195	7130.15
232.64527	7975.65
236.91549	8873.45
241.18261	9694.35
245.44663	10491.35
249.70755	11163.95
253.96539	11641.75
258.22014	12010.85
262.4718	12261.25
266.72039	12357.85
270.96589	12343.85
275.20832	12169.95
279.44768	11923.75
283.68397	11616.15
287.91719	11385.25
292.14735	11200.35
296.37445	11130.65
300.59849	11122.35
304.81948	11147.05
309.03742	11104.95
313.25231	10924.25
317.46415	10644.15
321.67296	10345.55
325.87872	10099.75
330.08145	10006.45
334.28114	10000.55
338.47781	10097.15
342.67145	10207.25
346.86207	10397.25
351.04966	10653.55
355.23424	10900.05
359.4158	11131.95
363.59435	11357.05
367.76989	11506.05
371.94243	11610.15
376.11196	11687.45
380.27849	11797.55
384.44203	11893.05
388.60257	11955.05
392.76012	12039.45
396.91468	12165.15
401.06626	12331.05
405.21485	12418.05
409.36047	12312.95
413.50311	12098.15
417.64277	11877.15
421.77947	11769.05
425.9132	11714.15
430.04396	11717.65
434.17176	11752.05
438.2966	11867.75
442.41849	12082.15
446.53742	12300.85
450.6534	12529.35
454.76644	12693.35
458.87653	12774.75
462.98368	12788.55
467.08789	12736.35
471.18916	12610.15
475.2875	12507.95
479.38291	12416.25
483.4754	12384.55
487.56496	12335.15
491.6516	12334.35
495.73531	12299.95
499.81612	12321.25
503.89401	12427.85
507.96899	12465.15
512.04106	12483.45
516.11023	12505.25
520.1765	12509.25
524.23987	12520.15
528.30034	12475.55
532.35792	12449.95
536.41261	12434.85
540.46441	12357.55
544.51333	12315.05
548.55936	12315.85
552.60252	12381.15
556.64279	12529.75
560.6802	12606.95
564.71473	12671.65
568.7464	12752.05
572.7752	12789.75
576.80114	12762.85
580.82422	12799.55
584.84444	12926.05
588.86181	12992.65
592.87633	13027.65
596.888	13085.45
600.89682	13279.45
604.9028	14112.15
608.90594	16022.55
612.90624	17767.55
616.90371	16505.75
620.89834	13853.15
624.89015	12810.25
628.87913	12723.75
632.86528	13037.05
636.84862	13321.65
640.82913	13232.35
644.80683	12878.05
648.78172	12648.55
652.75379	12618.15
656.72306	12826.45
660.68952	13087.75
664.65319	13070.05
668.61405	13016.45
672.57211	13223.45
676.52738	13670.65
680.47986	14288.45
684.42955	15092.05
688.37646	15604.85
692.32058	15540.35
696.26192	15032.85
700.20048	14516.65
704.13626	14277.95
708.06928	14137.65
711.99952	13908.95
715.927	13575.45
719.85171	13235.45
723.77365	12935.95
727.69284	12771.95
731.60928	12740.95
735.52295	12705.85
739.43388	12672.85
743.34206	12620.45
747.24749	12531.55
751.15017	12465.95
755.05012	12475.35
758.94733	12751.55
762.8418	13380.65
766.73354	14484.35
770.62254	15649.35
774.50882	16291.65
778.39237	15832.45
782.27321	14700.35
786.15132	13687.95
790.02671	13040.55
793.89938	12717.35
797.76935	12506.95
801.6366	12368.65
805.50115	12309.35
809.36299	12223.85
813.22213	12116.85
817.07857	12058.35
820.93231	12051.15
824.78336	11987.35
828.63172	11973.85
832.47738	11930.15
836.32036	11895.35
840.16066	11888.75
843.99827	11903.85
847.8332	11921.85
851.66546	11956.65
855.49504	11981.75
859.32195	12033.85
863.1462	12078.95
866.96777	12062.35
870.78668	12083.95
874.60293	12121.95
878.41652	12138.05
882.22745	12151.45
886.03573	12167.05
889.84136	12160.15
893.64433	12118.85
897.44466	12049.75
901.24235	11977.85
905.0374	11901.95
908.8298	11828.45
912.61957	11763.15
916.40671	11833.45
920.19121	11857.35
923.97308	11905.25
927.75233	11955.65
931.52895	11952.05
935.30295	11927.15
939.07433	11795.35
942.84309	11763.55
946.60924	11743.95
950.37278	11783.55
954.13371	11810.15
957.89203	11804.95
961.64774	11782.75
965.40086	11687.95
969.15137	11618.65
972.89929	11525.85
976.64461	11479.45
980.38733	11454.15
984.12747	11454.25
987.86502	11445.65
991.59999	11526.35
995.33237	11573.85
999.06217	11730.05
1002.78939	11879.15
1006.51404	12060.65
1010.23611	12260.35
1013.95561	12449.95
1017.67255	12516.15
1021.38692	12434.55
1025.09872	12229.55
1028.80796	12067.15
1032.51465	11973.65
1036.21877	12000.85
1039.92035	12083.45
1043.61937	12098.05
1047.31584	12118.15
1051.00976	12138.95
1054.70114	12169.35
1058.38998	12230.55
1062.07627	12313.95
1065.76003	12430.65
1069.44126	12513.75
1073.11995	12703.25
1076.79611	12869.75
1080.46974	12946.95
1084.14085	13027.95
1087.80943	13083.25
1091.47549	13151.25
1095.13903	13148.15
1098.80005	13062.65
1102.45857	12872.25
1106.11456	12760.35
1109.76805	12815.55
1113.41903	12865.65
1117.06751	12984.85
1120.71348	13243.35
1124.35696	13524.75
1127.99793	13865.85
1131.63641	14052.85
1135.2724	14057.45
1138.90589	13885.45
1142.5369	13718.45
1146.16542	13518.25
1149.79145	13362.55
1153.415	13200.75
1157.03607	13158.55
1160.65467	13260.45
1164.27079	13569.85
1167.88443	13998.55
1171.49561	14614.15
1175.10432	15455.85
1178.71056	16602.25
1182.31434	17616.05
1185.91565	18147.45
1189.51451	18240.75
1193.11091	17960.05
1196.70485	17389.95
1200.29634	16777.15
1203.88538	16198.45
1207.47197	15549.85
1211.05612	15041.15
1214.63782	14627.85
1218.21708	14344.95
1221.79391	14189.55
1225.36829	14096.85
1228.94024	14059.45
1232.50976	13987.35
1236.07685	13942.45
1239.6415	13927.45
1243.20374	13969.45
1246.76355	14052.35
1250.32093	14215.15
1253.8759	14406.55
1257.42845	14685.55
1260.97859	15027.75
1264.52631	15388.45
1268.07163	15734.35
1271.61453	16054.75
1275.15503	16335.85
1278.69312	16558.55
1282.22882	16783.35
1285.76211	17034.55
1289.29301	17404.35
1292.82151	17910.45
1296.34761	18477.55
1299.87133	19178.35
1303.39266	20029.65
1306.9116	21103.65
1310.42815	22168.05
1313.94233	22743.75
1317.45412	22549.25
1320.96354	21899.05
1324.47058	21214.85
1327.97525	20533.45
1331.47754	20007.75
1334.97747	19825.25
1338.47502	19884.05
1341.97022	20258.05
1345.46305	20773.65
1348.95352	21428.35
1352.44163	22330.05
1355.92738	23292.05
1359.41078	24526.35
1362.89183	25508.95
1366.37053	24823.95
1369.84688	22555.55
1373.32088	20231.65
1376.79254	18774.45
1380.26186	18007.05
1383.72883	17595.05
1387.19347	17282.25
1390.65578	16990.05
1394.11575	16654.15
1397.57339	16477.25
1401.0287	16334.85
1404.48168	16225.45
1407.93234	16206.75
1411.38068	16110.45
1414.82669	15971.85
1418.27039	15698.55
1421.71177	15492.65
1425.15083	15322.25
1428.58758	15234.85
1432.02203	15294.65
1435.45416	15544.95
1438.88399	15832.15
1442.31151	16117.05
1445.73673	16431.75
1449.15965	16799.65
1452.58027	17162.85
1455.9986	17519.95
1459.41463	17929.85
1462.82837	18390.25
1466.23982	18717.75
1469.64898	18966.65
1473.05586	18990.45
1476.46045	18843.35
1479.86276	18594.45
1483.26279	18264.95
1486.66054	18038.35
1490.05602	17963.45
1493.44922	18049.45
1496.84016	18402.35
1500.22882	19171.75
1503.61521	20264.95
1506.99934	21466.95
1510.38121	22402.95
1513.76081	22473.35
1517.13816	21604.55
1520.51324	20259.25
1523.88607	18976.85
1527.25665	18119.05
1530.62498	17662.25
1533.99105	17407.45
1537.35488	17263.75
1540.71647	17124.45
1544.07581	16993.35
1547.4329	16883.25
1550.78776	16832.35
1554.14038	16786.05
1557.49077	16730.85
1560.83892	16888.25
1564.18484	17086.25
1567.52853	17318.25
1570.86999	17523.15
1574.20922	17644.75
1577.54624	17599.05
1580.88103	17177.75
1584.2136	16718.35
1587.54395	16433.85
1590.87208	16587.45
1594.19801	16987.45
1597.52172	17630.85
1600.84321	17915.25
1604.16251	17602.35
1607.47959	16934.85
1610.79447	16207.05
1614.10715	15413.45
1617.41763	14727.05
1620.7259	14202.35
1624.03199	13870.95
1627.33587	13792.05
1630.63757	13903.45
1633.93707	14343.75
1637.23439	15018.45
1640.52951	16056.05
1643.82246	17378.55
1647.11321	18562.25
1650.40179	19120.25
1653.68819	18539.25
1656.97241	17066.95
1660.25446	15510.85
1663.53433	14362.05
1666.81203	13630.75
1670.08756	13196.95
1673.36092	12883.45
1676.63211	12646.15
1679.90115	12459.95
1683.16801	12290.15
1686.43272	12140.65
1689.69527	11994.85
1692.95567	11870.35
1696.2139	11762.95
1699.46999	11672.85
1702.72392	11573.05
1705.97571	11444.35
1709.22535	11372.75
1712.47284	11300.65
1715.71819	11224.75
1718.96139	11139.85
1722.20246	11050.45
1725.44139	10979.45
1728.67818	10887.85
1731.91284	10792.55
1735.14537	10685.15
1738.37576	10595.75
1741.60403	10535.35
1744.83017	10480.85
1748.05418	10429.55
1751.27607	10395.55
1754.49584	10336.15
1757.71349	10330.85
1760.92903	10324.15
1764.14244	10303.75
1767.35375	10290.85
1770.56294	10262.95
1773.77002	10210.75
1776.97499	10222.45
1780.17785	10165.55
1783.37861	10122.15
1786.57727	10137.85
1789.77382	10103.85
1792.96828	10056.85
1796.16064	10031.35
1799.3509	10022.65
1802.53907	10008.75
1805.72514	9984.75
1808.90913	9970.85
1812.09102	9927.65
1815.27083	9894.95
1818.44856	9879.65
1821.6242	9855.35
1824.79776	9854.05
1827.96924	9850.35
1831.13864	9830.35
1834.30597	9823.05
1837.47122	9819.45
1840.6344	9774.85
1843.7955	9786.25
1846.95454	9801.15
1850.11151	9795.65
1853.26642	9775.65
1856.41926	9767.05
1859.57004	9761.35
1862.71876	9754.45
1865.86542	9744.85
1869.01003	9749.55
1872.15258	9742.45
1875.29308	9760.75
1878.43152	9735.25
1881.56792	9706.85
1884.70227	9696.15
1887.83457	9713.75
1890.96482	9712.35
1894.09304	9697.15
1897.21921	9692.25
1900.34335	9683.45
1903.46544	9711.85
1906.58551	9699.95
1909.70353	9667.95
1912.81953	9685.45
1915.93349	9654.25
1919.04543	9641.35
1922.15534	9610.85
1925.26322	9610.15
1928.36908	9617.05
1931.47292	9564.85
1934.57473	9560.15
1937.67453	9492.85
1940.77232	9506.55
1943.86808	9498.95
1946.96184	9479.55
1950.05358	9457.95
1953.14331	9449.85
1956.23103	9402.55
1959.31675	9367.65
1962.40046	9349.15
1965.48217	9348.05
1968.56188	9312.25
1971.63959	9281.15
1974.7153	9255.25
1977.78901	9229.15
1980.86073	9231.85
1983.93046	9176.95
1986.99819	9139.25
1990.06394	9149.65
1993.1277	9126.55
1996.18947	9102.55
1999.24925	9060.75
2002.30706	9037.55
2005.36288	9017.55
2008.41672	9009.25
2011.46859	8997.85
2014.51848	8966.75
2017.56639	8936.45
2020.61233	8941.85
2023.6563	8911.65
2026.6983	8892.55
2029.73833	8913.95
2032.7764	8868.85
2035.8125	8838.15
2038.84664	8827.05
2041.87881	8835.55
2044.90903	8823.55
2047.93729	8787.85
2050.96359	8832.35
2053.98794	8807.65
2057.01034	8819.45
2060.03078	8814.15
2063.04927	8804.95
2066.06582	8832.15
2069.08042	8863.65
2072.09307	8864.25
2075.10378	8875.15
2078.11255	8894.85
2081.11938	8913.15
2084.12426	8933.95
2087.12722	8920.35
2090.12824	8948.35
2093.12732	8973.25
2096.12447	8957.45
2099.11969	9007.05
2102.11299	8993.75
2105.10435	9003.65
2108.09379	9008.55
2111.08131	9008.25
2114.0669	9000.95
2117.05057	9023.65
2120.03233	9023.75
2123.01216	9017.95
2125.99008	9029.55
2128.96609	9033.75
2131.94018	9055.65
2134.91236	9038.45
2137.88263	9039.75
2140.851	9006.75
2143.81746	9018.35
2146.78201	8986.85
2149.74466	8980.15
2152.7054	8967.45
2155.66425	8945.35
2158.6212	8920.85
2161.57625	8909.45
2164.52941	8909.35
2167.48067	8911.55
2170.43004	8903.25
2173.37752	8894.35
2176.32311	8902.05
2179.26681	8907.75
2182.20863	8906.55
2185.14856	8901.35
2188.08661	8920.35
2191.02278	8894.75
2193.95707	8886.55
2196.88948	8878.35
2199.82001	8889.45
2202.74867	8898.75
2205.67545	8882.65
2208.60037	8873.95
2211.52341	8869.05
2214.44458	8844.55
2217.36388	8820.45
2220.28132	8814.05
2223.1969	8776.45
2226.11061	8793.45
2229.02246	8759.75
2231.93245	8775.85
2234.84058	8769.15
2237.74686	8763.05
2240.65128	8730.85
2243.55385	8723.35
2246.45456	8743.55
2249.35343	8701.85
2252.25044	8716.85
2255.14561	8699.85
2258.03893	8706.75
2260.93041	8722.15
2263.82004	8689.05
2266.70783	8671.75
2269.59378	8670.05
2272.4779	8644.25
2275.36017	8625.25
2278.24061	8602.25
2281.11922	8597.55
2283.996	8579.65
2286.87094	8563.65
2289.74405	8536.25
2292.61534	8552.65
2295.4848	8532.55
2298.35243	8530.65
2301.21824	8551.65
2304.08223	8535.45
2306.94439	8560.25
2309.80474	8550.25
2312.66327	8557.05
2315.51999	8522.85
2318.37489	8533.65
2321.22797	8515.15
2324.07925	8522.15
2326.92871	8522.75
2329.77637	8526.65
2332.62222	8480.65
2335.46626	8514.15
2338.3085	8477.85
2341.14893	8479.75
2343.98756	8495.85
2346.8244	8486.45
2349.65943	8494.45
2352.49267	8491.65
2355.32411	8492.15
2358.15376	8476.45
2360.98161	8498.15
2363.80768	8498.05
2366.63195	8515.85
2369.45444	8480.45
2372.27514	8483.15
2375.09405	8470.75
2377.91118	8464.75
2380.72652	8448.55
2383.54009	8465.05
2386.35187	8457.35
2389.16188	8413.75
2391.97011	8399.75
2394.77657	8414.35
2397.58125	8379.25
2400.38416	8372.75
2403.18529	8362.25
2405.98466	8358.35
2408.78226	8347.95
2411.57809	8360.45
2414.37216	8343.95
2417.16446	8353.55
2419.955	8342.75
2422.74378	8341.15
2425.5308	8313.25
2428.31606	8347.05
2431.09956	8331.75
2433.88131	8312.35
2436.6613	8323.75
2439.43954	8329.05
2442.21603	8336.35
2444.99077	8295.15
2447.76377	8334.05
2450.53501	8310.95
2453.30451	8317.65
2456.07226	8295.35
2458.83827	8290.55
2461.60254	8293.45
2464.36507	8285.05
2467.12586	8287.75
2469.88492	8294.55
2472.64224	8309.25
2475.39782	8294.95
2478.15167	8281.25
2480.90379	8306.95
2483.65417	8311.15
2486.40283	8306.45
2489.14976	8322.45
2491.89497	8333.15
2494.63845	8315.45
2497.3802	8331.35
2500.12024	8337.05
2502.85855	8298.45
2505.59514	8304.15
2508.33002	8291.55
2511.06318	8289.65
2513.79462	8274.25
2516.52435	8265.95
2519.25237	8256.35
2521.97867	8253.95
2524.70327	8245.95
2527.42616	8240.45
2530.14734	8260.55
2532.86681	8247.55
2535.58458	8226.75
2538.30065	8244.65
2541.01501	8249.35
2543.72768	8206.95
2546.43864	8211.45
2549.14791	8203.75
2551.85548	8220.55
2554.56136	8216.45
2557.26554	8194.75
2559.96803	8197.15
2562.66883	8195.85
2565.36794	8170.15
2568.06536	8151.05
2570.7611	8144.25
2573.45514	8149.25
2576.14751	8161.75
2578.83819	8139.05
2581.52719	8139.65
2584.21451	8115.15
2586.90015	8124.95
2589.58411	8078.35
2592.2664	8070.15
2594.94701	8088.55
2597.62594	8091.95
2600.30321	8079.25
2602.9788	8087.85
2605.65273	8057.45
2608.32498	8065.25
2610.99557	8071.95
2613.66449	8079.05
2616.33175	8050.15
2618.99734	8079.65
2621.66128	8061.95
2624.32355	8049.05
2626.98416	8025.45
2629.64311	8019.15
2632.30041	8045.85
2634.95605	8030.95
2637.61004	8032.55
2640.26238	8022.15
2642.91306	8003.45
2645.56209	7992.95
2648.20948	7993.45
2650.85521	7997.15
2653.4993	8017.75
2656.14175	8007.85
2658.78255	8013.75
2661.42171	8039.45
2664.05923	8042.95
2666.6951	8039.85
2669.32934	8033.25
2671.96194	8066.25
2674.59291	8071.95
2677.22224	8082.15
2679.84993	8075.15
2682.476	8055.85
2685.10043	8070.15
2687.72324	8044.75
2690.34441	8068.85
2692.96396	8072.95
2695.58188	8114.95
2698.19818	8121.25
2700.81285	8095.95
2703.4259	8102.65
2706.03733	8123.35
2708.64714	8106.85
2711.25533	8137.65
2713.86191	8119.55
2716.46687	8119.25
2719.07021	8112.45
2721.67194	8155.55
2724.27206	8142.65
2726.87057	8156.35
2729.46747	8155.45
2732.06276	8157.45
2734.65644	8193.15
2737.24852	8157.45
2739.83899	8137.75
2742.42786	8161.65
2745.01513	8150.95
2747.60079	8154.85
2750.18486	8147.85
2752.76733	8140.55
2755.3482	8133.35
2757.92747	8127.15
2760.50515	8136.25
2763.08123	8130.55
2765.65573	8104.45
2768.22863	8078.65
2770.79994	8106.75
2773.36967	8108.25
2775.9378	8101.45
2778.50435	8107.05
2781.06932	8088.95
2783.6327	8074.95
2786.1945	8070.85
2788.75471	8076.45
2791.31335	8053.35
2793.87041	8044.65
2796.42589	8030.25
2798.97979	8014.45
2801.53212	8015.75
2804.08288	8019.85
2806.63206	7995.25
2809.17967	7975.05
2811.72571	7984.85
2814.27018	7954.65
2816.81308	7928.55
2819.35442	7911.45
2821.89419	7914.15
2824.43239	7921.05
2826.96904	7901.85
2829.50412	7913.95
2832.03763	7878.15
2834.56959	7877.35
2837.1	7888.65
2839.62884	7892.45
2842.15613	7858.85
2844.68186	7880.75
2847.20604	7893.05
2849.72867	7902.05
2852.24974	7890.25
2854.76927	7914.85
2857.28724	7910.45
2859.80367	7873.85
2862.31855	7890.15
2864.83189	7872.05
2867.34368	7880.85
2869.85393	7876.05
2872.36264	7864.05
2874.8698	7857.35
2877.37543	7886.55
2879.87952	7875.25
2882.38207	7892.85
2884.88308	7897.95
2887.38256	7890.55
2889.88051	7903.35
2892.37692	7905.85
2894.8718	7908.35
2897.36515	7926.65
2899.85698	7945.85
2902.34727	7983.95
2904.83604	7989.35
2907.32328	8005.65
2909.809	8014.75
2912.29319	7989.55
2914.77587	7990.15
2917.25702	8029.05
2919.73665	8030.85
2922.21476	8037.75
2924.69136	8039.45
2927.16644	8026.55
2929.64	8011.85
2932.11205	8027.05
2934.58258	8010.25
2937.05161	8022.55
2939.51912	8000.85
2941.98513	7980.15
2944.44962	7975.45
2946.91261	7977.55
2949.37409	7959.15
2951.83407	7977.45
2954.29254	7980.05
2956.74951	7970.65
2959.20498	7971.25
2961.65895	7973.35
2964.11142	7993.35
2966.56239	7973.65
2969.01186	7979.85
2971.45984	7951.65
2973.90632	7934.35
2976.35131	7899.15
2978.7948	7924.95
2981.23681	7896.55
2983.67732	7893.55
2986.11635	7888.75
2988.55388	7879.85
2990.98993	7853.65
2993.4245	7845.85
2995.85758	7854.35
2998.28917	7823.25
3000.71928	7812.65
3003.14791	7803.55
3005.57506	7808.25
3008.00073	7768.75
3010.42493	7780.15
3012.84764	7754.45
3015.26888	7780.35
3017.68865	7752.95
3020.10694	7748.75
3022.52376	7747.25
3024.9391	7739.45
3027.35298	7736.85
3029.76539	7746.25
3032.17632	7750.75
3034.5858	7731.25
3036.9938	7712.35
3039.40034	7710.05
3041.80542	7722.25
3044.20903	7714.75
3046.61118	7719.15
3049.01187	7696.25
3051.4111	7689.95
3053.80888	7710.05
3056.20519	7679.95
3058.60005	7674.45
3060.99345	7675.35
3063.3854	7641.25
3065.7759	7629.75
3068.16494	7619.65
3070.55254	7609.45
3072.93868	7608.65
3075.32338	7594.55
3077.70662	7576.85
3080.08842	7551.95
3082.46878	7559.35
3084.84769	7564.05
3087.22515	7547.45
3089.60118	7550.65
3091.97576	7566.35
3094.3489	7578.95
3096.72061	7587.55
3099.09087	7592.85
3101.4597	7597.55
3103.82709	7616.25
3106.19305	7609.65
3108.55757	7603.65
3110.92066	7597.95
3113.28232	7595.35
3115.64255	7572.05
3118.00134	7569.75
3120.35871	7560.95
3122.71466	7543.35
3125.06917	7533.65
3127.42226	7513.35
3129.77393	7532.75
3132.12417	7506.95
3134.47299	7517.95
3136.82039	7536.85
3139.16636	7566.85
3141.51092	7538.25
3143.85406	7557.15
3146.19579	7552.25
3148.53609	7560.45
3150.87499	7568.45
3153.21246	7582.05
3155.54853	7606.05
3157.88318	7616.85
3160.21642	7632.95
3162.54826	7619.25
3164.87868	7639.15
3167.2077	7631.95
3169.5353	7619.25
3171.86151	7640.35
3174.18631	7637.95
3176.5097	7651.85
3178.83169	7605.35
3181.15228	7634.75
3183.47147	7636.05
3185.78926	7605.85
3188.10565	7594.75
3190.42065	7589.15
3192.73424	7609.75
3195.04645	7625.35
3197.35725	7627.55
3199.66667	7619.25
3201.97469	7628.75
3204.28132	7657.15
3206.58656	7690.15
3208.8904	7651.65
3211.19287	7654.55
3213.49394	7681.95
3215.79363	7689.85
3218.09193	7689.85
3220.38884	7688.05
3222.68438	7702.05
3224.97853	7702.85
3227.2713	7711.85
3229.56269	7700.15
3231.8527	7701.95
3234.14133	7665.95
3236.42858	7684.05
3238.71446	7666.45
3240.99896	7654.35
3243.28209	7646.85
3245.56384	7625.65
3247.84423	7648.05
3250.12324	7625.45
3252.40088	7647.85
3254.67715	7651.95
3256.95205	7627.05
3259.22558	7653.85
3261.49775	7648.05
3263.76855	7663.75
3266.03799	7665.65
3268.30606	7675.55
3270.57277	7643.65
3272.83812	7615.65
3275.10211	7621.45
3277.36474	7607.65
3279.62601	7621.85
3281.88593	7602.05
3284.14448	7613.15
3286.40168	7613.55
3288.65753	7612.75
3290.91202	7627.75
3293.16516	7615.65
3295.41695	7606.85
3297.66738	7542.65
3299.91647	7525.95
3302.16421	7489.85
3304.4106	7451.45
3306.65564	7441.45
3308.89933	7394.25
3311.14169	7375.55
3313.38269	7340.95
3315.62236	7301.15
3317.86068	7241.85
3320.09766	7206.45
3322.3333	7183.35
3324.5676	7172.05
3326.80056	7056.45
3329.03219	7032.55
3331.26248	3.45
3333.49143	0.55
3335.71905	0.05
