Data from AgNPs_FTO_APTES_UA_20uM_CRN_5uM_R6G_10uM_NaF_0.1M_Addition_RamanShift__24__13-59-52-165.txt Node

Date: Thu Feb 17 13:59:52 GMT 2022
User: TCL
Spectrometer: QEP01345
Trigger mode: 4
Integration Time (sec): 7.000000E0
Scans to average: 10
Electric dark correction enabled: true
Nonlinearity correction enabled: false
Boxcar width: 0
XAxis mode: Raman Shifts
Number of Pixels in Spectrum: 1044
>>>>>Begin Spectral Data<<<<<
46.04893	0.75
50.45542	-1.65
54.85868	-2.95
59.25871	-1.75
63.6555	132.35
68.04907	128.65
72.43941	139.15
76.82654	138.15
81.21044	143.15
85.59113	150.05
89.96862	150.65
94.34289	158.15
98.71396	160.95
103.08183	166.25
107.4465	176.25
111.80798	173.45
116.16626	181.45
120.52136	196.35
124.87327	193.75
129.222	210.35
133.56755	225.45
137.90993	241.15
142.24913	264.75
146.58517	304.55
150.91804	365.55
155.24774	429.45
159.57429	542.45
163.89768	698.25
168.21792	936.75
172.53501	1285.85
176.84895	1798.05
181.15975	2547.75
185.46741	3581.25
189.77193	4948.15
194.07331	6664.65
198.37157	8590.65
202.6667	10653.35
206.9587	12711.15
211.24758	14695.55
215.53334	16720.25
219.81599	18861.95
224.09553	21182.05
228.37195	23811.15
232.64527	26733.35
236.91549	29784.05
241.18261	32926.35
245.44663	35871.05
249.70755	38564.05
253.96539	40929.75
258.22014	42924.25
262.4718	44586.75
266.72039	45785.55
270.96589	46517.15
275.20832	46769.45
279.44768	46593.85
283.68397	46259.75
287.91719	45956.95
292.14735	45835.75
296.37445	45811.35
300.59849	45983.05
304.81948	46172.15
309.03742	46076.25
313.25231	45675.15
317.46415	44749.55
321.67296	43684.85
325.87872	42854.65
330.08145	42504.75
334.28114	42582.55
338.47781	43023.15
342.67145	43661.35
346.86207	44541.55
351.04966	45516.85
355.23424	46566.05
359.4158	47506.65
363.59435	48153.25
367.76989	48606.15
371.94243	48888.55
376.11196	49176.55
380.27849	49456.65
384.44203	49651.25
388.60257	49944.55
392.76012	50265.65
396.91468	50820.15
401.06626	51485.65
405.21485	52149.75
409.36047	52111.15
413.50311	51544.05
417.64277	50980.75
421.77947	50762.85
425.9132	51036.05
430.04396	51420.45
434.17176	51845.35
438.2966	52463.65
442.41849	53397.15
446.53742	54663.65
450.6534	56044.55
454.76644	57260.75
458.87653	57770.65
462.98368	57576.65
467.08789	56858.75
471.18916	56085.25
475.2875	55335.65
479.38291	54816.45
483.4754	54269.25
487.56496	53710.85
491.6516	53068.05
495.73531	52542.25
499.81612	52256.05
503.89401	52461.05
507.96899	52603.65
512.04106	52498.95
516.11023	52456.95
520.1765	52385.95
524.23987	52252.75
528.30034	52066.35
532.35792	51692.05
536.41261	51251.45
540.46441	50911.55
544.51333	50953.95
548.55936	51402.65
552.60252	52363.75
556.64279	53378.95
560.6802	54019.75
564.71473	54284.85
568.7464	54974.85
572.7752	55765.95
576.80114	56122.95
580.82422	56382.25
584.84444	56757.05
588.86181	57447.95
592.87633	58222.85
596.888	58726.85
600.89682	58973.05
604.9028	61020.55
608.90594	66535.15
612.90624	72264.05
616.90371	68782.05
620.89834	59065.15
624.89015	54926.85
628.87913	54305.15
632.86528	54191.75
636.84862	53826.65
640.82913	53153.35
644.80683	52020.05
648.78172	51237.05
652.75379	51236.65
656.72306	51988.55
660.68952	52980.25
664.65319	52886.05
668.61405	52124.35
672.57211	51860.55
676.52738	51924.85
680.47986	51894.05
684.42955	51761.75
688.37646	51819.15
692.32058	52116.55
696.26192	52568.85
700.20048	53106.85
704.13626	53472.15
708.06928	53271.95
711.99952	52937.65
715.927	52808.35
719.85171	52909.05
723.77365	52824.15
727.69284	52469.45
731.60928	52164.25
735.52295	52098.55
739.43388	52215.95
743.34206	52534.85
747.24749	52814.95
751.15017	53250.65
755.05012	53995.75
758.94733	55328.55
762.8418	57674.65
766.73354	61504.15
770.62254	65144.65
774.50882	66040.65
778.39237	63499.85
782.27321	59230.45
786.15132	55725.85
790.02671	53729.15
793.89938	52834.35
797.76935	52456.45
801.6366	52328.75
805.50115	52216.45
809.36299	52003.75
813.22213	51920.15
817.07857	51835.15
820.93231	51853.95
824.78336	51864.35
828.63172	51881.55
832.47738	51958.85
836.32036	52078.25
840.16066	52235.55
843.99827	52367.85
847.8332	52315.25
851.66546	52128.35
855.49504	52020.95
859.32195	52044.95
863.1462	51883.55
866.96777	51777.75
870.78668	51684.85
874.60293	51757.25
878.41652	51870.65
882.22745	51975.05
886.03573	52062.75
889.84136	51984.65
893.64433	51812.65
897.44466	51667.15
901.24235	51568.15
905.0374	51523.85
908.8298	51490.15
912.61957	51604.15
916.40671	51952.25
920.19121	52498.65
923.97308	53024.05
927.75233	53170.95
931.52895	52970.95
935.30295	52486.45
939.07433	51819.05
942.84309	51291.65
946.60924	51125.65
950.37278	51076.95
954.13371	50866.25
957.89203	50710.95
961.64774	50537.45
965.40086	50355.25
969.15137	50235.85
972.89929	50086.15
976.64461	49988.65
980.38733	50009.95
984.12747	50213.85
987.86502	50586.05
991.59999	51128.65
995.33237	51991.75
999.06217	53421.75
1002.78939	55162.75
1006.51404	56341.85
1010.23611	57016.75
1013.95561	57446.95
1017.67255	57516.65
1021.38692	57206.45
1025.09872	56941.85
1028.80796	57499.65
1032.51465	58889.55
1036.21877	60034.95
1039.92035	60097.25
1043.61937	59325.25
1047.31584	57935.15
1051.00976	56428.25
1054.70114	55603.05
1058.38998	55386.85
1062.07627	55524.65
1065.76003	55731.45
1069.44126	55983.55
1073.11995	56330.95
1076.79611	56653.15
1080.46974	57013.15
1084.14085	57425.05
1087.80943	57918.35
1091.47549	58143.25
1095.13903	57768.65
1098.80005	57074.35
1102.45857	56307.25
1106.11456	55920.25
1109.76805	55894.35
1113.41903	56368.45
1117.06751	56884.45
1120.71348	57513.95
1124.35696	58037.15
1127.99793	58412.75
1131.63641	58465.35
1135.2724	57901.65
1138.90589	57383.05
1142.5369	57080.75
1146.16542	56938.75
1149.79145	57039.55
1153.415	57442.95
1157.03607	58054.45
1160.65467	59008.95
1164.27079	60520.45
1167.88443	62706.05
1171.49561	65787.35
1175.10432	70016.95
1178.71056	75377.45
1182.31434	80458.15
1185.91565	83150.95
1189.51451	82911.15
1193.11091	80505.95
1196.70485	77129.95
1200.29634	74174.65
1203.88538	71826.25
1207.47197	70010.15
1211.05612	68406.55
1214.63782	67401.25
1218.21708	67205.65
1221.79391	67379.55
1225.36829	67445.25
1228.94024	66900.75
1232.50976	65920.75
1236.07685	65177.25
1239.6415	64994.95
1243.20374	65173.65
1246.76355	65592.25
1250.32093	66496.85
1253.8759	67779.55
1257.42845	69351.85
1260.97859	70790.95
1264.52631	71872.95
1268.07163	73101.25
1271.61453	74621.65
1275.15503	76321.15
1278.69312	78176.55
1282.22882	79718.15
1285.76211	81121.85
1289.29301	82663.45
1292.82151	84504.95
1296.34761	87076.35
1299.87133	90545.75
1303.39266	95280.65
1306.9116	101018.15
1310.42815	106915.95
1313.94233	110578.15
1317.45412	110689.25
1320.96354	108439.75
1324.47058	105452.85
1327.97525	102809.65
1331.47754	101032.95
1334.97747	100873.75
1338.47502	101953.85
1341.97022	103349.85
1345.46305	103617.05
1348.95352	102890.55
1352.44163	102032.05
1355.92738	103258.05
1359.41078	107301.45
1362.89183	111146.35
1366.37053	108750.45
1369.84688	100011.95
1373.32088	90537.05
1376.79254	84098.15
1380.26186	81059.15
1383.72883	79987.75
1387.19347	79492.05
1390.65578	78993.05
1394.11575	79026.95
1397.57339	79860.45
1401.0287	81420.05
1404.48168	83137.75
1407.93234	84620.45
1411.38068	85419.55
1414.82669	84894.05
1418.27039	82842.15
1421.71177	79735.55
1425.15083	77141.75
1428.58758	75702.95
1432.02203	75627.25
1435.45416	76333.15
1438.88399	77287.95
1442.31151	78218.25
1445.73673	79030.15
1449.15965	79783.25
1452.58027	80335.95
1455.9986	80261.15
1459.41463	80485.45
1462.82837	81231.05
1466.23982	82506.95
1469.64898	83938.65
1473.05586	85004.55
1476.46045	85464.95
1479.86276	85758.95
1483.26279	85883.05
1486.66054	86135.25
1490.05602	86989.85
1493.44922	87859.45
1496.84016	88651.55
1500.22882	89601.85
1503.61521	91811.05
1506.99934	94896.55
1510.38121	97438.75
1513.76081	97857.35
1517.13816	95366.05
1520.51324	91417.85
1523.88607	87803.35
1527.25665	85721.95
1530.62498	84643.75
1533.99105	84179.35
1537.35488	83766.25
1540.71647	83399.55
1544.07581	82798.75
1547.4329	81919.25
1550.78776	80873.75
1554.14038	79993.45
1557.49077	79688.55
1560.83892	79460.15
1564.18484	79362.45
1567.52853	79209.45
1570.86999	79129.15
1574.20922	79228.85
1577.54624	79357.55
1580.88103	78784.35
1584.2136	78589.45
1587.54395	80052.35
1590.87208	83430.25
1594.19801	88672.65
1597.52172	94160.65
1600.84321	96665.25
1604.16251	94108.15
1607.47959	88364.85
1610.79447	81938.45
1614.10715	75951.95
1617.41763	71244.55
1620.7259	67976.15
1624.03199	66267.05
1627.33587	66196.25
1630.63757	67552.05
1633.93707	70514.15
1637.23439	75039.25
1640.52951	80789.55
1643.82246	87066.25
1647.11321	91809.65
1650.40179	92575.65
1653.68819	87710.95
1656.97241	78983.25
1660.25446	70469.55
1663.53433	64091.25
1666.81203	60059.75
1670.08756	57479.95
1673.36092	55733.25
1676.63211	54585.25
1679.90115	53761.65
1683.16801	53108.15
1686.43272	52563.05
1689.69527	52319.05
1692.95567	52061.45
1696.2139	51935.85
1699.46999	51937.25
1702.72392	51779.35
1705.97571	51713.85
1709.22535	51591.95
1712.47284	51562.55
1715.71819	51604.85
1718.96139	51516.35
1722.20246	51377.45
1725.44139	51203.55
1728.67818	50951.95
1731.91284	50808.65
1735.14537	50552.45
1738.37576	50419.45
1741.60403	50330.15
1744.83017	50123.15
1748.05418	49960.95
1751.27607	49953.85
1754.49584	49886.65
1757.71349	49908.15
1760.92903	49911.95
1764.14244	49842.75
1767.35375	49809.65
1770.56294	49780.15
1773.77002	49739.05
1776.97499	49721.95
1780.17785	49626.85
1783.37861	49583.55
1786.57727	49506.05
1789.77382	49481.45
1792.96828	49518.95
1796.16064	49480.35
1799.3509	49389.05
1802.53907	49363.35
1805.72514	49214.35
1808.90913	49113.65
1812.09102	49041.95
1815.27083	49005.35
1818.44856	48979.65
1821.6242	48834.45
1824.79776	48804.65
1827.96924	48802.05
1831.13864	48723.85
1834.30597	48780.05
1837.47122	48712.75
1840.6344	48697.05
1843.7955	48720.05
1846.95454	48754.75
1850.11151	48708.05
1853.26642	48680.95
1856.41926	48712.45
1859.57004	48681.45
1862.71876	48616.85
1865.86542	48640.25
1869.01003	48617.35
1872.15258	48566.05
1875.29308	48608.35
1878.43152	48561.25
1881.56792	48584.05
1884.70227	48623.05
1887.83457	48597.95
1890.96482	48617.35
1894.09304	48558.05
1897.21921	48528.35
1900.34335	48427.95
1903.46544	48374.95
1906.58551	48484.95
1909.70353	48442.95
1912.81953	48454.65
1915.93349	48344.95
1919.04543	48249.55
1922.15534	48269.95
1925.26322	48172.75
1928.36908	48120.85
1931.47292	48039.85
1934.57473	47939.75
1937.67453	47829.25
1940.77232	47693.95
1943.86808	47567.95
1946.96184	47455.05
1950.05358	47294.35
1953.14331	47196.25
1956.23103	47075.05
1959.31675	46939.25
1962.40046	46741.45
1965.48217	46633.65
1968.56188	46483.35
1971.63959	46386.45
1974.7153	46253.15
1977.78901	46148.65
1980.86073	46036.85
1983.93046	45895.25
1986.99819	45757.95
1990.06394	45707.95
1993.1277	45572.95
1996.18947	45392.05
1999.24925	45320.95
2002.30706	45189.15
2005.36288	45082.75
2008.41672	44970.85
2011.46859	44755.45
2014.51848	44746.45
2017.56639	44547.15
2020.61233	44500.05
2023.6563	44401.25
2026.6983	44313.75
2029.73833	44183.95
2032.7764	44161.45
2035.8125	44121.75
2038.84664	44018.75
2041.87881	44020.65
2044.90903	43936.55
2047.93729	43941.55
2050.96359	43894.25
2053.98794	43796.25
2057.01034	43772.75
2060.03078	43744.75
2063.04927	43701.95
2066.06582	43727.05
2069.08042	43704.05
2072.09307	43611.35
2075.10378	43574.75
2078.11255	43557.95
2081.11938	43537.15
2084.12426	43508.05
2087.12722	43455.65
2090.12824	43477.55
2093.12732	43443.35
2096.12447	43441.35
2099.11969	43381.15
2102.11299	43446.95
2105.10435	43431.15
2108.09379	43468.65
2111.08131	43486.75
2114.0669	43466.05
2117.05057	43516.95
2120.03233	43590.05
2123.01216	43634.85
2125.99008	43682.35
2128.96609	43752.25
2131.94018	43805.05
2134.91236	43833.45
2137.88263	43815.85
2140.851	43837.95
2143.81746	43918.25
2146.78201	43898.55
2149.74466	43928.25
2152.7054	44012.75
2155.66425	43980.15
2158.6212	43970.75
2161.57625	43950.05
2164.52941	43884.85
2167.48067	43871.45
2170.43004	43884.85
2173.37752	43870.75
2176.32311	43972.75
2179.26681	43969.05
2182.20863	43937.95
2185.14856	44044.85
2188.08661	43975.15
2191.02278	43958.75
2193.95707	43953.45
2196.88948	43904.05
2199.82001	43936.85
2202.74867	43904.05
2205.67545	43899.15
2208.60037	43831.35
2211.52341	43890.45
2214.44458	43846.85
2217.36388	43775.25
2220.28132	43685.25
2223.1969	43677.55
2226.11061	43525.05
2229.02246	43394.65
2231.93245	43321.55
2234.84058	43285.65
2237.74686	43208.55
2240.65128	43176.85
2243.55385	43135.35
2246.45456	43115.15
2249.35343	43106.95
2252.25044	43036.95
2255.14561	42988.85
2258.03893	42978.05
2260.93041	42907.35
2263.82004	42805.35
2266.70783	42684.95
2269.59378	42549.95
2272.4779	42455.85
2275.36017	42406.95
2278.24061	42453.95
2281.11922	42241.65
2283.996	42152.65
2286.87094	42179.45
2289.74405	42183.05
2292.61534	42154.05
2295.4848	42098.25
2298.35243	42139.95
2301.21824	42062.65
2304.08223	42121.05
2306.94439	42144.85
2309.80474	42196.35
2312.66327	42183.95
2315.51999	42190.45
2318.37489	42173.45
2321.22797	42140.85
2324.07925	42157.05
2326.92871	42048.65
2329.77637	42008.95
2332.62222	41961.55
2335.46626	41968.65
2338.3085	42005.45
2341.14893	41979.75
2343.98756	41970.35
2346.8244	42035.15
2349.65943	42115.05
2352.49267	42070.45
2355.32411	42050.15
2358.15376	41987.35
2360.98161	41997.75
2363.80768	41914.55
2366.63195	41843.95
2369.45444	41813.25
2372.27514	41730.55
2375.09405	41731.35
2377.91118	41590.65
2380.72652	41496.25
2383.54009	41344.05
2386.35187	41343.95
2389.16188	41221.75
2391.97011	41214.25
2394.77657	41127.25
2397.58125	41045.95
2400.38416	40990.75
2403.18529	40880.95
2405.98466	40870.55
2408.78226	40820.95
2411.57809	40748.55
2414.37216	40707.45
2417.16446	40654.05
2419.955	40574.35
2422.74378	40582.85
2425.5308	40499.25
2428.31606	40526.15
2431.09956	40526.45
2433.88131	40457.35
2436.6613	40515.15
2439.43954	40491.05
2442.21603	40412.55
2444.99077	40395.05
2447.76377	40353.05
2450.53501	40327.55
2453.30451	40345.15
2456.07226	40323.05
2458.83827	40276.45
2461.60254	40236.45
2464.36507	40309.85
2467.12586	40262.25
2469.88492	40291.85
2472.64224	40301.85
2475.39782	40245.35
2478.15167	40344.65
2480.90379	40364.75
2483.65417	40402.05
2486.40283	40469.65
2489.14976	40451.95
2491.89497	40427.85
2494.63845	40473.45
2497.3802	40402.05
2500.12024	40436.05
2502.85855	40495.55
2505.59514	40391.25
2508.33002	40375.75
2511.06318	40305.65
2513.79462	40255.05
2516.52435	40187.45
2519.25237	40154.25
2521.97867	40163.65
2524.70327	40152.85
2527.42616	40105.65
2530.14734	40070.75
2532.86681	40022.55
2535.58458	40033.55
2538.30065	40024.25
2541.01501	40051.75
2543.72768	40014.25
2546.43864	40038.85
2549.14791	39942.45
2551.85548	39905.65
2554.56136	39812.25
2557.26554	39745.65
2559.96803	39709.45
2562.66883	39622.85
2565.36794	39668.45
2568.06536	39636.35
2570.7611	39560.55
2573.45514	39494.65
2576.14751	39479.85
2578.83819	39455.25
2581.52719	39471.25
2584.21451	39419.85
2586.90015	39425.15
2589.58411	39389.95
2592.2664	39365.45
2594.94701	39381.85
2597.62594	39388.25
2600.30321	39362.75
2602.9788	39340.05
2605.65273	39319.15
2608.32498	39364.75
2610.99557	39313.95
2613.66449	39358.95
2616.33175	39357.45
2618.99734	39294.55
2621.66128	39266.35
2624.32355	39265.65
2626.98416	39296.35
2629.64311	39279.15
2632.30041	39320.35
2634.95605	39274.15
2637.61004	39243.85
2640.26238	39246.15
2642.91306	39103.75
2645.56209	39006.95
2648.20948	39040.95
2650.85521	39011.55
2653.4993	39030.45
2656.14175	38961.45
2658.78255	39074.65
2661.42171	39093.95
2664.05923	39157.85
2666.6951	39121.25
2669.32934	39200.35
2671.96194	39170.25
2674.59291	39209.25
2677.22224	39277.85
2679.84993	39308.85
2682.476	39196.35
2685.10043	39217.65
2687.72324	39159.35
2690.34441	39109.15
2692.96396	39126.55
2695.58188	39118.05
2698.19818	39101.95
2700.81285	39042.05
2703.4259	38994.25
2706.03733	39133.25
2708.64714	39029.25
2711.25533	39084.65
2713.86191	39118.95
2716.46687	39204.75
2719.07021	39187.35
2721.67194	39203.85
2724.27206	39146.15
2726.87057	39167.75
2729.46747	39174.65
2732.06276	39203.35
2734.65644	39221.25
2737.24852	39283.25
2739.83899	39232.05
2742.42786	39314.35
2745.01513	39244.35
2747.60079	39233.05
2750.18486	39201.55
2752.76733	39207.75
2755.3482	39136.25
2757.92747	39125.25
2760.50515	39073.95
2763.08123	39078.05
2765.65573	39094.05
2768.22863	39122.65
2770.79994	39025.85
2773.36967	39064.05
2775.9378	39085.95
2778.50435	39078.05
2781.06932	39008.35
2783.6327	39041.25
2786.1945	38972.75
2788.75471	38961.55
2791.31335	38874.75
2793.87041	38831.25
2796.42589	38711.45
2798.97979	38748.95
2801.53212	38638.05
2804.08288	38624.45
2806.63206	38530.45
2809.17967	38465.45
2811.72571	38374.85
2814.27018	38286.55
2816.81308	38150.85
2819.35442	38155.65
2821.89419	38153.75
2824.43239	38193.75
2826.96904	38182.25
2829.50412	38191.75
2832.03763	38075.15
2834.56959	38026.65
2837.1	37985.25
2839.62884	37903.45
2842.15613	37865.35
2844.68186	37900.25
2847.20604	37863.05
2849.72867	37836.65
2852.24974	37784.35
2854.76927	37695.85
2857.28724	37708.25
2859.80367	37694.75
2862.31855	37696.15
2864.83189	37586.75
2867.34368	37544.05
2869.85393	37590.95
2872.36264	37515.75
2874.8698	37491.65
2877.37543	37462.85
2879.87952	37418.05
2882.38207	37495.75
2884.88308	37462.95
2887.38256	37501.95
2889.88051	37494.45
2892.37692	37546.25
2894.8718	37525.15
2897.36515	37596.75
2899.85698	37592.15
2902.34727	37626.45
2904.83604	37644.15
2907.32328	37698.05
2909.809	37726.25
2912.29319	37743.55
2914.77587	37750.95
2917.25702	37747.95
2919.73665	37689.15
2922.21476	37633.95
2924.69136	37620.15
2927.16644	37594.35
2929.64	37520.85
2932.11205	37518.65
2934.58258	37434.75
2937.05161	37499.15
2939.51912	37477.85
2941.98513	37485.55
2944.44962	37453.25
2946.91261	37350.75
2949.37409	37427.75
2951.83407	37397.75
2954.29254	37372.75
2956.74951	37398.35
2959.20498	37355.65
2961.65895	37346.85
2964.11142	37335.65
2966.56239	37287.65
2969.01186	37287.45
2971.45984	37160.95
2973.90632	37124.35
2976.35131	37071.35
2978.7948	37012.75
2981.23681	37009.45
2983.67732	36930.35
2986.11635	36810.05
2988.55388	36755.55
2990.98993	36701.85
2993.4245	36616.95
2995.85758	36607.75
2998.28917	36480.55
3000.71928	36395.65
3003.14791	36337.75
3005.57506	36372.15
3008.00073	36220.55
3010.42493	36189.05
3012.84764	36136.35
3015.26888	36090.35
3017.68865	36001.45
3020.10694	35924.55
3022.52376	35848.95
3024.9391	35826.75
3027.35298	35821.15
3029.76539	35735.35
3032.17632	35743.85
3034.5858	35729.55
3036.9938	35700.45
3039.40034	35663.85
3041.80542	35628.35
3044.20903	35542.15
3046.61118	35484.75
3049.01187	35448.15
3051.4111	35328.75
3053.80888	35284.35
3056.20519	35244.05
3058.60005	35134.75
3060.99345	35101.75
3063.3854	35014.05
3065.7759	34827.55
3068.16494	34759.15
3070.55254	34617.75
3072.93868	34573.55
3075.32338	34393.85
3077.70662	34350.25
3080.08842	34206.95
3082.46878	34232.15
3084.84769	34175.45
3087.22515	34119.35
3089.60118	34139.35
3091.97576	34099.25
3094.3489	34079.95
3096.72061	34079.75
3099.09087	34082.25
3101.4597	34050.05
3103.82709	34076.75
3106.19305	33971.75
3108.55757	33986.75
3110.92066	33882.95
3113.28232	33893.75
3115.64255	33798.35
3118.00134	33708.55
3120.35871	33626.15
3122.71466	33533.15
3125.06917	33453.35
3127.42226	33439.35
3129.77393	33474.45
3132.12417	33372.25
3134.47299	33363.65
3136.82039	33291.35
3139.16636	33271.85
3141.51092	33266.75
3143.85406	33266.85
3146.19579	33219.75
3148.53609	33240.65
3150.87499	33262.25
3153.21246	33272.05
3155.54853	33308.05
3157.88318	33242.35
3160.21642	33279.45
3162.54826	33237.75
3164.87868	33217.05
3167.2077	33113.75
3169.5353	33110.65
3171.86151	33122.05
3174.18631	33080.45
3176.5097	33064.55
3178.83169	33020.25
3181.15228	32997.75
3183.47147	32857.75
3185.78926	32898.55
3188.10565	32853.25
3190.42065	32842.75
3192.73424	32778.15
3195.04645	32742.75
3197.35725	32722.85
3199.66667	32741.35
3201.97469	32728.15
3204.28132	32672.55
3206.58656	32715.75
3208.8904	32749.55
3211.19287	32702.05
3213.49394	32727.65
3215.79363	32730.15
3218.09193	32773.85
3220.38884	32741.05
3222.68438	32767.65
3224.97853	32662.65
3227.2713	32671.95
3229.56269	32643.85
3231.8527	32683.55
3234.14133	32632.75
3236.42858	32523.95
3238.71446	32452.75
3240.99896	32388.85
3243.28209	32415.85
3245.56384	32336.35
3247.84423	32264.45
3250.12324	32258.35
3252.40088	32253.65
3254.67715	32264.05
3256.95205	32235.25
3259.22558	32164.45
3261.49775	32125.55
3263.76855	32116.75
3266.03799	32063.55
3268.30606	31999.65
3270.57277	31941.85
3272.83812	31894.25
3275.10211	31853.45
3277.36474	31776.95
3279.62601	31750.35
3281.88593	31741.65
3284.14448	31789.85
3286.40168	31716.05
3288.65753	31709.05
3290.91202	31700.15
3293.16516	31628.35
3295.41695	31576.05
3297.66738	31406.65
3299.91647	31228.55
3302.16421	31035.15
3304.4106	30922.15
3306.65564	30693.05
3308.89933	30487.75
3311.14169	30343.35
3313.38269	30096.65
3315.62236	29965.55
3317.86068	29690.75
3320.09766	29450.05
3322.3333	29269.25
3324.5676	29161.85
3326.80056	28715.95
3329.03219	28545.55
3331.26248	6.85
3333.49143	0.65
3335.71905	-1.05
