Data from AgNPs_FTO_APTES_UA_20uM_CRN_5uM_R6G_10uM_NaF_0.1M_Addition_RamanShift__30__14-06-52-174.txt Node

Date: Thu Feb 17 14:06:52 GMT 2022
User: TCL
Spectrometer: QEP01345
Trigger mode: 4
Integration Time (sec): 7.000000E0
Scans to average: 10
Electric dark correction enabled: true
Nonlinearity correction enabled: false
Boxcar width: 0
XAxis mode: Raman Shifts
Number of Pixels in Spectrum: 1044
>>>>>Begin Spectral Data<<<<<
46.04893	-0.75
50.45542	0.25
54.85868	-2.05
59.25871	-0.55
63.6555	73.25
68.04907	76.85
72.43941	79.85
76.82654	83.95
81.21044	87.15
85.59113	88.15
89.96862	89.85
94.34289	90.95
98.71396	95.75
103.08183	102.15
107.4465	101.75
111.80798	102.65
116.16626	108.85
120.52136	113.25
124.87327	113.05
129.222	120.05
133.56755	127.95
137.90993	131.15
142.24913	147.55
146.58517	167.25
150.91804	196.95
155.24774	227.15
159.57429	287.35
163.89768	375.15
168.21792	490.75
172.53501	671.65
176.84895	940.45
181.15975	1300.85
185.46741	1832.15
189.77193	2538.45
194.07331	3411.45
198.37157	4401.05
202.6667	5451.85
206.9587	6487.65
211.24758	7547.95
215.53334	8634.75
219.81599	9832.35
224.09553	11166.75
228.37195	12703.25
232.64527	14396.15
236.91549	16094.85
241.18261	17723.45
245.44663	19139.45
249.70755	20354.75
253.96539	21324.65
258.22014	22155.95
262.4718	22881.25
266.72039	23491.05
270.96589	23863.05
275.20832	23911.65
279.44768	23793.95
283.68397	23538.15
287.91719	23375.55
292.14735	23452.25
296.37445	23846.55
300.59849	24470.25
304.81948	25248.85
309.03742	25770.35
313.25231	25571.65
317.46415	24488.45
321.67296	22908.35
325.87872	21627.45
330.08145	20999.45
334.28114	20942.85
338.47781	21330.75
342.67145	21821.55
346.86207	22654.95
351.04966	23826.55
355.23424	25063.25
359.4158	26102.85
363.59435	26674.55
367.76989	26897.25
371.94243	26936.25
376.11196	26922.55
380.27849	26913.65
384.44203	26797.65
388.60257	26557.75
392.76012	26437.95
396.91468	26644.15
401.06626	27282.65
405.21485	27773.45
409.36047	27443.35
413.50311	26330.45
417.64277	25235.75
421.77947	24650.85
425.9132	24390.75
430.04396	24482.15
434.17176	24674.55
438.2966	24966.25
442.41849	25469.15
446.53742	26125.35
450.6534	26906.85
454.76644	27419.95
458.87653	27591.55
462.98368	27425.45
467.08789	26976.55
471.18916	26439.15
475.2875	25777.25
479.38291	25292.15
483.4754	24907.35
487.56496	24519.35
491.6516	24269.25
495.73531	24143.65
499.81612	24155.65
503.89401	24445.35
507.96899	24726.95
512.04106	25028.15
516.11023	25311.25
520.1765	25606.05
524.23987	25512.95
528.30034	25084.95
532.35792	24699.35
536.41261	24254.45
540.46441	23837.05
544.51333	23694.35
548.55936	23898.55
552.60252	24485.45
556.64279	25145.55
560.6802	25396.85
564.71473	25668.55
568.7464	26473.75
572.7752	27163.55
576.80114	26765.45
580.82422	26238.85
584.84444	26032.95
588.86181	25981.45
592.87633	26086.05
596.888	26239.95
600.89682	26971.05
604.9028	29670.55
608.90594	36767.95
612.90624	46033.15
616.90371	43981.25
620.89834	32067.15
624.89015	26477.65
628.87913	25500.15
632.86528	25615.05
636.84862	25852.85
640.82913	25487.35
644.80683	24490.15
648.78172	23768.55
652.75379	23894.45
656.72306	24788.45
660.68952	25912.85
664.65319	25755.35
668.61405	24606.05
672.57211	24062.95
676.52738	24016.15
680.47986	24062.95
684.42955	23971.25
688.37646	23901.65
692.32058	24094.55
696.26192	24304.15
700.20048	24646.25
704.13626	24915.25
708.06928	24941.95
711.99952	24748.05
715.927	24669.85
719.85171	24726.65
723.77365	24700.95
727.69284	24514.25
731.60928	24333.25
735.52295	24307.75
739.43388	24421.15
743.34206	24604.85
747.24749	24827.25
751.15017	25061.35
755.05012	25587.25
758.94733	26751.05
762.8418	29151.85
766.73354	33356.65
770.62254	37698.15
774.50882	39751.95
778.39237	37832.65
782.27321	33070.65
786.15132	28779.35
790.02671	26405.95
793.89938	25329.65
797.76935	24896.85
801.6366	24699.75
805.50115	24542.05
809.36299	24436.85
813.22213	24353.65
817.07857	24370.15
820.93231	24411.75
824.78336	24493.75
828.63172	24637.45
832.47738	24664.55
836.32036	24665.55
840.16066	24626.55
843.99827	24566.95
847.8332	24513.55
851.66546	24467.05
855.49504	24465.35
859.32195	24422.45
863.1462	24358.45
866.96777	24300.25
870.78668	24261.05
874.60293	24354.85
878.41652	24469.75
882.22745	24591.05
886.03573	24702.85
889.84136	24623.55
893.64433	24489.15
897.44466	24448.75
901.24235	24455.65
905.0374	24452.55
908.8298	24441.25
912.61957	24494.25
916.40671	24593.25
920.19121	24901.65
923.97308	25124.45
927.75233	25307.15
931.52895	25359.65
935.30295	25109.55
939.07433	24568.65
942.84309	24123.45
946.60924	23853.35
950.37278	23714.65
954.13371	23615.65
957.89203	23546.45
961.64774	23458.75
965.40086	23390.45
969.15137	23325.75
972.89929	23288.75
976.64461	23254.95
980.38733	23292.85
984.12747	23309.65
987.86502	23465.45
991.59999	23701.35
995.33237	24033.75
999.06217	24641.15
1002.78939	25391.85
1006.51404	26058.15
1010.23611	26619.75
1013.95561	26945.15
1017.67255	26938.45
1021.38692	26637.75
1025.09872	26310.35
1028.80796	26382.05
1032.51465	26834.55
1036.21877	27352.15
1039.92035	27476.05
1043.61937	27271.55
1047.31584	26898.15
1051.00976	26434.75
1054.70114	26194.15
1058.38998	26210.45
1062.07627	26366.95
1065.76003	26527.05
1069.44126	26711.75
1073.11995	26967.75
1076.79611	27129.75
1080.46974	27451.35
1084.14085	27936.45
1087.80943	28543.85
1091.47549	28768.15
1095.13903	28407.95
1098.80005	27644.55
1102.45857	26952.35
1106.11456	26699.75
1109.76805	26739.65
1113.41903	27229.35
1117.06751	27951.65
1120.71348	28817.95
1124.35696	29705.25
1127.99793	30400.45
1131.63641	30245.05
1135.2724	29246.75
1138.90589	28243.85
1142.5369	27637.45
1146.16542	27262.75
1149.79145	27045.75
1153.415	27158.75
1157.03607	27422.05
1160.65467	27898.15
1164.27079	28730.05
1167.88443	29983.95
1171.49561	32055.35
1175.10432	35369.15
1178.71056	39816.95
1182.31434	43325.55
1185.91565	44414.15
1189.51451	43408.55
1193.11091	40789.05
1196.70485	37857.05
1200.29634	35834.55
1203.88538	34298.05
1207.47197	32715.85
1211.05612	31339.65
1214.63782	30573.95
1218.21708	30496.25
1221.79391	30534.55
1225.36829	30620.55
1228.94024	30539.85
1232.50976	30405.05
1236.07685	30334.65
1239.6415	30491.25
1243.20374	30804.95
1246.76355	31079.85
1250.32093	31559.55
1253.8759	32314.65
1257.42845	33291.65
1260.97859	34153.25
1264.52631	34830.25
1268.07163	35523.45
1271.61453	36318.95
1275.15503	36981.65
1278.69312	37493.25
1282.22882	37935.25
1285.76211	38581.45
1289.29301	39511.25
1292.82151	40603.15
1296.34761	41840.75
1299.87133	43756.55
1303.39266	46836.25
1306.9116	51417.45
1310.42815	56271.25
1313.94233	58797.15
1317.45412	57593.95
1320.96354	54298.45
1324.47058	50780.85
1327.97525	47889.95
1331.47754	46219.15
1334.97747	46016.55
1338.47502	46917.05
1341.97022	48311.75
1345.46305	49803.75
1348.95352	51352.35
1352.44163	53345.45
1355.92738	57024.45
1359.41078	63456.05
1362.89183	69694.45
1366.37053	67892.15
1369.84688	58713.85
1373.32088	49562.15
1376.79254	43732.95
1380.26186	40665.75
1383.72883	39149.75
1387.19347	38301.95
1390.65578	37410.35
1394.11575	36686.95
1397.57339	36472.15
1401.0287	36703.35
1404.48168	37315.25
1407.93234	38228.95
1411.38068	39211.45
1414.82669	39533.55
1418.27039	38934.75
1421.71177	37756.35
1425.15083	36602.65
1428.58758	35983.95
1432.02203	36046.95
1435.45416	36265.05
1438.88399	36418.95
1442.31151	36520.35
1445.73673	36836.85
1449.15965	37103.95
1452.58027	37109.25
1455.9986	36853.55
1459.41463	36692.55
1462.82837	36952.45
1466.23982	37597.55
1469.64898	38440.35
1473.05586	39144.75
1476.46045	39694.65
1479.86276	40452.55
1483.26279	41397.65
1486.66054	42387.05
1490.05602	43808.55
1493.44922	45594.65
1496.84016	47887.55
1500.22882	51172.25
1503.61521	55928.05
1506.99934	61355.15
1510.38121	65926.75
1513.76081	67126.95
1517.13816	63612.05
1520.51324	57102.45
1523.88607	50944.45
1527.25665	46826.15
1530.62498	44432.25
1533.99105	42946.65
1537.35488	42011.35
1540.71647	41378.75
1544.07581	41099.55
1547.4329	40815.35
1550.78776	40437.25
1554.14038	40301.95
1557.49077	40435.25
1560.83892	40918.35
1564.18484	41647.45
1567.52853	42404.35
1570.86999	42896.15
1574.20922	43182.25
1577.54624	42749.05
1580.88103	41040.15
1584.2136	39153.15
1587.54395	38566.85
1590.87208	39558.85
1594.19801	42125.95
1597.52172	45305.45
1600.84321	46726.75
1604.16251	45258.05
1607.47959	42357.15
1610.79447	39131.65
1614.10715	36203.55
1617.41763	33928.05
1620.7259	32460.05
1624.03199	31796.25
1627.33587	31850.75
1630.63757	32591.85
1633.93707	34031.95
1637.23439	36167.45
1640.52951	39056.35
1643.82246	42807.25
1647.11321	46979.35
1650.40179	49784.15
1653.68819	48337.65
1656.97241	42875.65
1660.25446	36771.35
1663.53433	32460.15
1666.81203	29814.15
1670.08756	28260.55
1673.36092	27241.15
1676.63211	26613.45
1679.90115	26149.35
1683.16801	25817.95
1686.43272	25583.75
1689.69527	25458.45
1692.95567	25334.75
1696.2139	25242.95
1699.46999	25286.15
1702.72392	25220.75
1705.97571	25198.15
1709.22535	25105.15
1712.47284	25159.95
1715.71819	25196.95
1718.96139	25167.05
1722.20246	25123.55
1725.44139	24988.05
1728.67818	24832.35
1731.91284	24709.65
1735.14537	24570.65
1738.37576	24499.45
1741.60403	24428.45
1744.83017	24352.35
1748.05418	24272.55
1751.27607	24256.55
1754.49584	24260.35
1757.71349	24247.55
1760.92903	24276.75
1764.14244	24208.85
1767.35375	24194.85
1770.56294	24163.55
1773.77002	24120.25
1776.97499	24121.85
1780.17785	24034.25
1783.37861	24002.65
1786.57727	23970.35
1789.77382	23927.65
1792.96828	23951.35
1796.16064	23944.35
1799.3509	23919.75
1802.53907	23923.25
1805.72514	23824.75
1808.90913	23790.05
1812.09102	23713.15
1815.27083	23683.15
1818.44856	23656.65
1821.6242	23609.45
1824.79776	23625.55
1827.96924	23630.75
1831.13864	23576.65
1834.30597	23577.65
1837.47122	23547.45
1840.6344	23531.15
1843.7955	23564.95
1846.95454	23555.45
1850.11151	23587.15
1853.26642	23507.65
1856.41926	23571.25
1859.57004	23544.65
1862.71876	23547.85
1865.86542	23559.95
1869.01003	23542.75
1872.15258	23536.05
1875.29308	23575.35
1878.43152	23513.45
1881.56792	23537.25
1884.70227	23575.05
1887.83457	23565.95
1890.96482	23555.05
1894.09304	23574.75
1897.21921	23547.15
1900.34335	23518.15
1903.46544	23488.15
1906.58551	23528.85
1909.70353	23507.75
1912.81953	23548.85
1915.93349	23528.35
1919.04543	23457.75
1922.15534	23463.75
1925.26322	23445.95
1928.36908	23423.15
1931.47292	23381.75
1934.57473	23301.65
1937.67453	23222.15
1940.77232	23183.95
1943.86808	23086.15
1946.96184	23032.45
1950.05358	22948.15
1953.14331	22913.45
1956.23103	22853.15
1959.31675	22794.95
1962.40046	22705.75
1965.48217	22651.25
1968.56188	22545.85
1971.63959	22519.65
1974.7153	22466.25
1977.78901	22386.65
1980.86073	22325.65
1983.93046	22259.65
1986.99819	22214.75
1990.06394	22142.55
1993.1277	22071.25
1996.18947	22042.25
1999.24925	21961.15
2002.30706	21913.65
2005.36288	21853.95
2008.41672	21799.85
2011.46859	21742.65
2014.51848	21673.35
2017.56639	21614.85
2020.61233	21543.85
2023.6563	21508.65
2026.6983	21445.15
2029.73833	21418.75
2032.7764	21339.35
2035.8125	21364.15
2038.84664	21323.55
2041.87881	21299.75
2044.90903	21263.75
2047.93729	21236.45
2050.96359	21186.35
2053.98794	21180.65
2057.01034	21155.55
2060.03078	21142.15
2063.04927	21155.25
2066.06582	21123.75
2069.08042	21108.85
2072.09307	21073.75
2075.10378	21030.35
2078.11255	20990.95
2081.11938	20996.05
2084.12426	21007.95
2087.12722	21015.15
2090.12824	20982.55
2093.12732	20998.95
2096.12447	20997.15
2099.11969	20981.15
2102.11299	20965.05
2105.10435	20999.45
2108.09379	21001.15
2111.08131	21011.55
2114.0669	20981.25
2117.05057	21035.35
2120.03233	21036.95
2123.01216	21099.95
2125.99008	21144.65
2128.96609	21113.35
2131.94018	21143.85
2134.91236	21167.35
2137.88263	21166.45
2140.851	21158.65
2143.81746	21213.05
2146.78201	21194.65
2149.74466	21201.65
2152.7054	21222.75
2155.66425	21203.95
2158.6212	21183.55
2161.57625	21169.15
2164.52941	21160.25
2167.48067	21181.65
2170.43004	21120.15
2173.37752	21168.75
2176.32311	21159.85
2179.26681	21170.35
2182.20863	21162.75
2185.14856	21209.75
2188.08661	21181.05
2191.02278	21216.25
2193.95707	21151.15
2196.88948	21107.45
2199.82001	21123.85
2202.74867	21084.25
2205.67545	21090.15
2208.60037	21092.45
2211.52341	21098.25
2214.44458	21088.55
2217.36388	21030.35
2220.28132	21011.35
2223.1969	20949.95
2226.11061	20936.05
2229.02246	20820.55
2231.93245	20816.85
2234.84058	20781.25
2237.74686	20703.05
2240.65128	20739.55
2243.55385	20714.55
2246.45456	20695.35
2249.35343	20678.85
2252.25044	20715.65
2255.14561	20673.25
2258.03893	20683.55
2260.93041	20629.05
2263.82004	20607.25
2266.70783	20549.25
2269.59378	20467.85
2272.4779	20450.75
2275.36017	20411.05
2278.24061	20409.85
2281.11922	20346.05
2283.996	20291.15
2286.87094	20289.45
2289.74405	20273.65
2292.61534	20221.85
2295.4848	20209.65
2298.35243	20209.55
2301.21824	20159.55
2304.08223	20197.45
2306.94439	20187.45
2309.80474	20237.95
2312.66327	20220.65
2315.51999	20216.15
2318.37489	20177.05
2321.22797	20205.25
2324.07925	20184.85
2326.92871	20109.15
2329.77637	20078.25
2332.62222	20113.95
2335.46626	20079.75
2338.3085	20064.25
2341.14893	20096.15
2343.98756	20090.65
2346.8244	20115.85
2349.65943	20120.95
2352.49267	20128.65
2355.32411	20145.65
2358.15376	20121.45
2360.98161	20168.95
2363.80768	20157.25
2366.63195	20139.75
2369.45444	20129.85
2372.27514	20082.15
2375.09405	20079.95
2377.91118	20036.15
2380.72652	19929.95
2383.54009	19871.15
2386.35187	19807.85
2389.16188	19726.75
2391.97011	19664.75
2394.77657	19649.15
2397.58125	19623.95
2400.38416	19589.05
2403.18529	19568.65
2405.98466	19491.15
2408.78226	19480.75
2411.57809	19414.95
2414.37216	19398.85
2417.16446	19402.15
2419.955	19377.55
2422.74378	19367.55
2425.5308	19334.35
2428.31606	19317.25
2431.09956	19348.05
2433.88131	19306.65
2436.6613	19304.35
2439.43954	19309.85
2442.21603	19291.95
2444.99077	19273.45
2447.76377	19228.45
2450.53501	19246.55
2453.30451	19258.75
2456.07226	19246.25
2458.83827	19243.95
2461.60254	19185.55
2464.36507	19213.65
2467.12586	19182.65
2469.88492	19188.45
2472.64224	19181.15
2475.39782	19200.75
2478.15167	19243.05
2480.90379	19243.05
2483.65417	19301.35
2486.40283	19343.35
2489.14976	19343.05
2491.89497	19303.85
2494.63845	19365.55
2497.3802	19380.65
2500.12024	19321.55
2502.85855	19313.55
2505.59514	19292.55
2508.33002	19194.35
2511.06318	19180.55
2513.79462	19142.85
2516.52435	19083.15
2519.25237	19015.25
2521.97867	19029.65
2524.70327	18994.95
2527.42616	19012.25
2530.14734	18970.15
2532.86681	18941.35
2535.58458	18958.35
2538.30065	18919.55
2541.01501	18922.05
2543.72768	18926.95
2546.43864	18903.65
2549.14791	18903.95
2551.85548	18860.25
2554.56136	18826.15
2557.26554	18828.65
2559.96803	18778.15
2562.66883	18748.65
2565.36794	18730.75
2568.06536	18713.95
2570.7611	18672.75
2573.45514	18668.55
2576.14751	18642.05
2578.83819	18612.25
2581.52719	18599.45
2584.21451	18564.45
2586.90015	18570.25
2589.58411	18524.95
2592.2664	18550.05
2594.94701	18541.05
2597.62594	18540.75
2600.30321	18528.75
2602.9788	18531.65
2605.65273	18477.75
2608.32498	18507.75
2610.99557	18475.25
2613.66449	18507.95
2616.33175	18477.95
2618.99734	18454.55
2621.66128	18477.05
2624.32355	18454.55
2626.98416	18457.45
2629.64311	18403.25
2632.30041	18436.45
2634.95605	18440.65
2637.61004	18375.45
2640.26238	18375.75
2642.91306	18295.85
2645.56209	18267.75
2648.20948	18262.75
2650.85521	18247.15
2653.4993	18238.15
2656.14175	18236.75
2658.78255	18249.85
2661.42171	18256.55
2664.05923	18322.45
2666.6951	18335.45
2669.32934	18335.25
2671.96194	18337.75
2674.59291	18387.65
2677.22224	18387.25
2679.84993	18411.05
2682.476	18388.25
2685.10043	18416.35
2687.72324	18386.85
2690.34441	18378.15
2692.96396	18327.95
2695.58188	18383.35
2698.19818	18306.35
2700.81285	18320.45
2703.4259	18326.85
2706.03733	18339.95
2708.64714	18304.95
2711.25533	18307.25
2713.86191	18306.95
2716.46687	18348.95
2719.07021	18322.65
2721.67194	18349.15
2724.27206	18328.35
2726.87057	18356.75
2729.46747	18347.35
2732.06276	18318.15
2734.65644	18347.45
2737.24852	18372.05
2739.83899	18327.25
2742.42786	18356.25
2745.01513	18330.85
2747.60079	18330.05
2750.18486	18297.55
2752.76733	18324.35
2755.3482	18283.55
2757.92747	18269.55
2760.50515	18222.45
2763.08123	18220.45
2765.65573	18215.75
2768.22863	18212.85
2770.79994	18163.55
2773.36967	18176.35
2775.9378	18182.05
2778.50435	18188.35
2781.06932	18146.25
2783.6327	18135.85
2786.1945	18162.65
2788.75471	18118.45
2791.31335	18102.65
2793.87041	18052.15
2796.42589	17993.05
2798.97979	18019.45
2801.53212	17956.55
2804.08288	17960.45
2806.63206	17950.95
2809.17967	17893.65
2811.72571	17860.65
2814.27018	17837.15
2816.81308	17826.75
2819.35442	17813.55
2821.89419	17810.75
2824.43239	17841.95
2826.96904	17855.45
2829.50412	17845.35
2832.03763	17820.35
2834.56959	17798.15
2837.1	17794.85
2839.62884	17790.75
2842.15613	17722.65
2844.68186	17766.25
2847.20604	17769.35
2849.72867	17745.35
2852.24974	17718.65
2854.76927	17734.35
2857.28724	17685.25
2859.80367	17695.95
2862.31855	17682.05
2864.83189	17657.45
2867.34368	17646.45
2869.85393	17650.95
2872.36264	17617.75
2874.8698	17597.65
2877.37543	17598.35
2879.87952	17568.95
2882.38207	17530.95
2884.88308	17516.25
2887.38256	17553.25
2889.88051	17545.45
2892.37692	17563.55
2894.8718	17557.85
2897.36515	17569.35
2899.85698	17567.35
2902.34727	17600.85
2904.83604	17571.55
2907.32328	17582.95
2909.809	17590.85
2912.29319	17578.85
2914.77587	17588.65
2917.25702	17578.85
2919.73665	17544.25
2922.21476	17546.45
2924.69136	17524.55
2927.16644	17520.75
2929.64	17460.05
2932.11205	17457.95
2934.58258	17416.15
2937.05161	17459.05
2939.51912	17468.65
2941.98513	17406.15
2944.44962	17377.95
2946.91261	17349.25
2949.37409	17370.85
2951.83407	17343.25
2954.29254	17328.55
2956.74951	17325.35
2959.20498	17321.05
2961.65895	17291.35
2964.11142	17279.35
2966.56239	17252.05
2969.01186	17237.35
2971.45984	17171.85
2973.90632	17168.45
2976.35131	17136.65
2978.7948	17122.35
2981.23681	17077.85
2983.67732	17047.35
2986.11635	16965.45
2988.55388	16942.45
2990.98993	16945.85
2993.4245	16926.95
2995.85758	16872.35
2998.28917	16804.15
3000.71928	16795.15
3003.14791	16762.95
3005.57506	16759.65
3008.00073	16720.75
3010.42493	16734.05
3012.84764	16654.75
3015.26888	16682.55
3017.68865	16585.35
3020.10694	16570.75
3022.52376	16529.75
3024.9391	16514.75
3027.35298	16500.65
3029.76539	16494.75
3032.17632	16480.85
3034.5858	16431.15
3036.9938	16408.95
3039.40034	16391.95
3041.80542	16380.05
3044.20903	16364.85
3046.61118	16330.85
3049.01187	16279.15
3051.4111	16253.65
3053.80888	16193.95
3056.20519	16164.95
3058.60005	16115.45
3060.99345	16072.55
3063.3854	16055.65
3065.7759	15980.05
3068.16494	15927.95
3070.55254	15859.25
3072.93868	15821.95
3075.32338	15729.55
3077.70662	15720.25
3080.08842	15680.05
3082.46878	15623.55
3084.84769	15623.05
3087.22515	15621.65
3089.60118	15549.05
3091.97576	15575.65
3094.3489	15541.55
3096.72061	15546.95
3099.09087	15555.45
3101.4597	15531.45
3103.82709	15537.95
3106.19305	15485.25
3108.55757	15489.95
3110.92066	15473.25
3113.28232	15431.95
3115.64255	15398.25
3118.00134	15345.65
3120.35871	15291.05
3122.71466	15254.35
3125.06917	15239.15
3127.42226	15200.55
3129.77393	15220.35
3132.12417	15174.95
3134.47299	15160.85
3136.82039	15171.45
3139.16636	15167.55
3141.51092	15134.75
3143.85406	15102.75
3146.19579	15118.05
3148.53609	15117.85
3150.87499	15134.65
3153.21246	15120.05
3155.54853	15119.25
3157.88318	15136.45
3160.21642	15134.25
3162.54826	15099.25
3164.87868	15101.55
3167.2077	15053.35
3169.5353	15058.75
3171.86151	15029.05
3174.18631	14993.35
3176.5097	15017.45
3178.83169	14980.25
3181.15228	14969.45
3183.47147	14950.85
3185.78926	14926.25
3188.10565	14913.85
3190.42065	14895.15
3192.73424	14908.35
3195.04645	14875.35
3197.35725	14863.15
3199.66667	14823.55
3201.97469	14849.15
3204.28132	14848.65
3206.58656	14856.05
3208.8904	14852.25
3211.19287	14847.75
3213.49394	14863.95
3215.79363	14873.75
3218.09193	14843.25
3220.38884	14871.35
3222.68438	14860.05
3224.97853	14821.85
3227.2713	14830.85
3229.56269	14820.65
3231.8527	14786.75
3234.14133	14776.95
3236.42858	14733.25
3238.71446	14703.25
3240.99896	14661.45
3243.28209	14659.25
3245.56384	14645.25
3247.84423	14622.25
3250.12324	14587.75
3252.40088	14563.85
3254.67715	14582.05
3256.95205	14548.05
3259.22558	14556.55
3261.49775	14534.85
3263.76855	14522.75
3266.03799	14472.05
3268.30606	14478.35
3270.57277	14458.15
3272.83812	14391.45
3275.10211	14408.05
3277.36474	14355.35
3279.62601	14346.65
3281.88593	14323.75
3284.14448	14336.05
3286.40168	14321.75
3288.65753	14301.05
3290.91202	14285.95
3293.16516	14245.75
3295.41695	14241.25
3297.66738	14164.15
3299.91647	14073.25
3302.16421	13989.25
3304.4106	13925.15
3306.65564	13826.45
3308.89933	13737.85
3311.14169	13670.15
3313.38269	13566.75
3315.62236	13473.95
3317.86068	13343.45
3320.09766	13229.15
3322.3333	13166.45
3324.5676	13095.15
3326.80056	12917.05
3329.03219	12816.75
3331.26248	3.25
3333.49143	0.65
3335.71905	0.05
