Data from AgNPs_FTO_APTES_UA_20uM_CRN_0uM_R6G_10uM_NaF_0.1M_Addition_RamanShift__41__11-37-31-980.txt Node

Date: Thu Feb 17 11:37:31 GMT 2022
User: TCL
Spectrometer: QEP01345
Trigger mode: 4
Integration Time (sec): 7.000000E0
Scans to average: 10
Electric dark correction enabled: true
Nonlinearity correction enabled: false
Boxcar width: 0
XAxis mode: Raman Shifts
Number of Pixels in Spectrum: 1044
>>>>>Begin Spectral Data<<<<<
46.04893	-1.05
50.45542	-0.65
54.85868	-2.45
59.25871	-0.45
63.6555	104.55
68.04907	105.55
72.43941	108.65
76.82654	111.25
81.21044	116.85
85.59113	118.65
89.96862	123.45
94.34289	128.05
98.71396	128.15
103.08183	134.95
107.4465	140.95
111.80798	138.55
116.16626	145.95
120.52136	152.95
124.87327	156.65
129.222	164.35
133.56755	178.65
137.90993	195.35
142.24913	214.75
146.58517	243.45
150.91804	279.75
155.24774	341.65
159.57429	430.45
163.89768	559.35
168.21792	735.75
172.53501	1017.95
176.84895	1423.45
181.15975	2006.65
185.46741	2832.95
189.77193	3908.45
194.07331	5238.85
198.37157	6735.95
202.6667	8366.95
206.9587	9942.15
211.24758	11496.55
215.53334	13039.65
219.81599	14609.35
224.09553	16318.25
228.37195	18293.55
232.64527	20393.15
236.91549	22688.25
241.18261	25087.55
245.44663	27304.55
249.70755	29450.15
253.96539	31280.25
258.22014	32760.95
262.4718	33930.55
266.72039	34691.35
270.96589	35139.75
275.20832	35117.75
279.44768	34891.55
283.68397	34574.35
287.91719	34253.25
292.14735	33974.85
296.37445	33754.85
300.59849	33645.95
304.81948	33661.05
309.03742	33673.55
313.25231	33618.65
317.46415	33530.95
321.67296	33295.65
325.87872	33116.95
330.08145	33068.55
334.28114	33087.65
338.47781	33321.55
342.67145	33729.35
346.86207	34194.55
351.04966	34798.15
355.23424	35242.15
359.4158	35656.95
363.59435	36004.25
367.76989	36165.85
371.94243	36278.05
376.11196	36410.15
380.27849	36518.05
384.44203	36736.95
388.60257	37005.05
392.76012	37402.35
396.91468	37932.15
401.06626	38493.35
405.21485	38886.85
409.36047	38862.85
413.50311	38657.25
417.64277	38718.55
421.77947	39052.45
425.9132	39437.65
430.04396	39763.15
434.17176	40012.55
438.2966	40288.45
442.41849	40768.15
446.53742	41556.75
450.6534	42363.75
454.76644	42922.25
458.87653	43080.85
462.98368	42970.25
467.08789	42680.15
471.18916	42239.25
475.2875	41684.15
479.38291	41338.35
483.4754	40994.75
487.56496	40785.45
491.6516	40632.55
495.73531	40382.65
499.81612	40171.05
503.89401	40362.15
507.96899	40616.65
512.04106	40709.95
516.11023	40548.65
520.1765	40222.55
524.23987	40069.35
528.30034	39967.35
532.35792	39725.35
536.41261	39394.95
540.46441	39104.95
544.51333	39096.95
548.55936	39195.35
552.60252	39678.75
556.64279	40370.35
560.6802	41005.95
564.71473	41456.65
568.7464	42141.25
572.7752	43373.45
576.80114	45093.25
580.82422	47066.25
584.84444	48938.35
588.86181	51737.15
592.87633	54809.75
596.888	55706.45
600.89682	53071.35
604.9028	50087.95
608.90594	49437.55
612.90624	49708.15
616.90371	47191.45
620.89834	43280.65
624.89015	41792.25
628.87913	41824.75
632.86528	42248.95
636.84862	42095.55
640.82913	41366.15
644.80683	40591.55
648.78172	40074.85
652.75379	40034.65
656.72306	40368.85
660.68952	40751.05
664.65319	40711.25
668.61405	40336.65
672.57211	40322.45
676.52738	40481.75
680.47986	40500.85
684.42955	40363.55
688.37646	40289.75
692.32058	40485.75
696.26192	40902.05
700.20048	41346.65
704.13626	41676.95
708.06928	41915.25
711.99952	42002.25
715.927	41889.05
719.85171	41961.25
723.77365	41715.75
727.69284	41317.35
731.60928	40796.65
735.52295	40630.15
739.43388	40698.65
743.34206	40812.05
747.24749	41077.35
751.15017	41454.05
755.05012	42116.35
758.94733	42840.95
762.8418	44061.95
766.73354	45764.55
770.62254	47194.55
774.50882	47179.95
778.39237	45783.55
782.27321	44173.65
786.15132	42812.35
790.02671	41917.95
793.89938	41426.15
797.76935	41127.45
801.6366	40983.45
805.50115	40903.45
809.36299	40835.15
813.22213	40678.25
817.07857	40614.35
820.93231	40488.55
824.78336	40403.85
828.63172	40342.55
832.47738	40336.95
836.32036	40297.95
840.16066	40345.35
843.99827	40350.35
847.8332	40462.25
851.66546	40592.55
855.49504	40683.65
859.32195	40744.55
863.1462	40719.15
866.96777	40760.95
870.78668	40770.25
874.60293	40828.35
878.41652	40852.45
882.22745	41001.45
886.03573	41090.35
889.84136	41152.75
893.64433	40994.35
897.44466	40893.95
901.24235	40893.65
905.0374	40848.65
908.8298	40770.15
912.61957	40800.65
916.40671	41101.15
920.19121	41528.75
923.97308	41965.15
927.75233	42053.95
931.52895	41702.15
935.30295	41078.65
939.07433	40559.75
942.84309	40148.45
946.60924	40003.05
950.37278	39925.05
954.13371	39955.65
957.89203	39870.55
961.64774	39921.35
965.40086	39937.75
969.15137	39956.25
972.89929	39830.35
976.64461	39703.35
980.38733	39635.45
984.12747	39641.55
987.86502	39808.25
991.59999	39972.45
995.33237	40218.65
999.06217	40638.25
1002.78939	41283.85
1006.51404	42066.95
1010.23611	42798.15
1013.95561	43287.85
1017.67255	43349.45
1021.38692	42900.75
1025.09872	42197.15
1028.80796	41617.05
1032.51465	41335.55
1036.21877	41329.25
1039.92035	41436.35
1043.61937	41524.55
1047.31584	41642.05
1051.00976	41748.75
1054.70114	41915.05
1058.38998	42174.25
1062.07627	42414.95
1065.76003	42888.65
1069.44126	43390.45
1073.11995	44108.35
1076.79611	44692.65
1080.46974	44902.45
1084.14085	45125.05
1087.80943	45436.15
1091.47549	45865.15
1095.13903	45923.15
1098.80005	45486.35
1102.45857	44702.95
1106.11456	44005.65
1109.76805	43626.65
1113.41903	43610.25
1117.06751	43659.05
1120.71348	43890.95
1124.35696	44181.05
1127.99793	44446.95
1131.63641	44672.65
1135.2724	44673.85
1138.90589	44779.35
1142.5369	44934.65
1146.16542	45257.65
1149.79145	45652.65
1153.415	46126.25
1157.03607	46480.05
1160.65467	47320.45
1164.27079	48615.45
1167.88443	50223.65
1171.49561	51974.45
1175.10432	54042.85
1178.71056	56503.05
1182.31434	58701.05
1185.91565	59770.85
1189.51451	59575.55
1193.11091	58718.75
1196.70485	57659.45
1200.29634	56377.25
1203.88538	55502.05
1207.47197	55451.75
1211.05612	55518.55
1214.63782	55161.65
1218.21708	54169.75
1221.79391	53110.35
1225.36829	52313.55
1228.94024	51843.15
1232.50976	51338.45
1236.07685	50719.65
1239.6415	50128.05
1243.20374	49969.55
1246.76355	50102.95
1250.32093	50562.55
1253.8759	51243.65
1257.42845	52270.25
1260.97859	53400.65
1264.52631	54705.45
1268.07163	56055.15
1271.61453	57301.75
1275.15503	58556.75
1278.69312	59856.35
1282.22882	61375.75
1285.76211	63302.45
1289.29301	65366.15
1292.82151	67619.85
1296.34761	70262.75
1299.87133	73386.65
1303.39266	76386.65
1306.9116	78897.25
1310.42815	80702.05
1313.94233	81325.45
1317.45412	80586.45
1320.96354	79277.05
1324.47058	78279.65
1327.97525	77778.25
1331.47754	77469.95
1334.97747	76996.85
1338.47502	76590.75
1341.97022	76119.15
1345.46305	75581.75
1348.95352	74941.65
1352.44163	74347.15
1355.92738	74530.65
1359.41078	75911.75
1362.89183	77232.55
1366.37053	76724.15
1369.84688	73260.45
1373.32088	67784.15
1376.79254	63709.55
1380.26186	62066.85
1383.72883	62098.85
1387.19347	62141.55
1390.65578	61630.85
1394.11575	61500.45
1397.57339	61907.05
1401.0287	62736.85
1404.48168	63387.75
1407.93234	63363.85
1411.38068	62340.15
1414.82669	60762.85
1418.27039	58936.15
1421.71177	57250.95
1425.15083	55945.25
1428.58758	55407.35
1432.02203	56005.95
1435.45416	57062.05
1438.88399	58398.95
1442.31151	59300.45
1445.73673	59780.05
1449.15965	60057.15
1452.58027	60204.05
1455.9986	60263.25
1459.41463	60640.85
1462.82837	61402.35
1466.23982	62395.65
1469.64898	63233.55
1473.05586	63831.75
1476.46045	64048.65
1479.86276	64016.85
1483.26279	63768.45
1486.66054	63653.45
1490.05602	63975.95
1493.44922	64566.85
1496.84016	65150.35
1500.22882	65418.65
1503.61521	65550.05
1506.99934	65492.05
1510.38121	65404.65
1513.76081	64994.05
1517.13816	64407.35
1520.51324	64083.85
1523.88607	64336.65
1527.25665	64946.45
1530.62498	65395.35
1533.99105	65127.25
1537.35488	64199.05
1540.71647	62720.15
1544.07581	61275.55
1547.4329	59850.75
1550.78776	58640.35
1554.14038	57865.45
1557.49077	57498.15
1560.83892	57226.95
1564.18484	57076.75
1567.52853	57037.35
1570.86999	57264.15
1574.20922	57960.55
1577.54624	58632.55
1580.88103	58887.55
1584.2136	59544.45
1587.54395	61449.75
1590.87208	64348.45
1594.19801	67789.25
1597.52172	70747.05
1600.84321	71397.15
1604.16251	68695.45
1607.47959	64271.55
1610.79447	59707.25
1614.10715	55589.65
1617.41763	52403.95
1620.7259	50237.75
1624.03199	49154.35
1627.33587	49198.05
1630.63757	50289.75
1633.93707	52853.45
1637.23439	57329.45
1640.52951	64138.15
1643.82246	72252.15
1647.11321	78700.65
1650.40179	79348.45
1653.68819	73667.85
1656.97241	64949.95
1660.25446	56736.45
1663.53433	50966.55
1666.81203	47317.35
1670.08756	45069.65
1673.36092	43743.05
1676.63211	42818.45
1679.90115	42148.65
1683.16801	41580.05
1686.43272	41221.95
1689.69527	40951.85
1692.95567	40713.35
1696.2139	40597.55
1699.46999	40552.45
1702.72392	40382.35
1705.97571	40308.95
1709.22535	40182.85
1712.47284	40196.05
1715.71819	40193.85
1718.96139	40172.15
1722.20246	40086.15
1725.44139	39912.45
1728.67818	39715.85
1731.91284	39536.15
1735.14537	39374.65
1738.37576	39241.85
1741.60403	39129.15
1744.83017	39008.95
1748.05418	38941.15
1751.27607	38925.25
1754.49584	38871.45
1757.71349	38856.35
1760.92903	38862.95
1764.14244	38823.35
1767.35375	38786.65
1770.56294	38689.65
1773.77002	38702.15
1776.97499	38663.65
1780.17785	38678.55
1783.37861	38569.05
1786.57727	38497.25
1789.77382	38449.65
1792.96828	38432.15
1796.16064	38367.35
1799.3509	38283.15
1802.53907	38212.05
1805.72514	38118.45
1808.90913	38049.95
1812.09102	37961.25
1815.27083	37866.15
1818.44856	37825.55
1821.6242	37758.35
1824.79776	37706.65
1827.96924	37730.15
1831.13864	37697.15
1834.30597	37700.45
1837.47122	37637.85
1840.6344	37559.55
1843.7955	37615.75
1846.95454	37712.15
1850.11151	37679.55
1853.26642	37660.85
1856.41926	37680.65
1859.57004	37729.25
1862.71876	37653.35
1865.86542	37564.05
1869.01003	37502.95
1872.15258	37438.45
1875.29308	37434.65
1878.43152	37363.95
1881.56792	37353.15
1884.70227	37327.05
1887.83457	37349.25
1890.96482	37268.25
1894.09304	37202.35
1897.21921	37171.35
1900.34335	37069.05
1903.46544	37026.05
1906.58551	37009.55
1909.70353	36963.05
1912.81953	36896.65
1915.93349	36876.65
1919.04543	36806.85
1922.15534	36734.65
1925.26322	36665.75
1928.36908	36628.55
1931.47292	36523.65
1934.57473	36374.05
1937.67453	36304.85
1940.77232	36218.05
1943.86808	36142.85
1946.96184	36068.25
1950.05358	35928.55
1953.14331	35865.15
1956.23103	35765.95
1959.31675	35610.05
1962.40046	35533.45
1965.48217	35373.85
1968.56188	35277.65
1971.63959	35227.85
1974.7153	35149.15
1977.78901	34969.25
1980.86073	34837.45
1983.93046	34789.15
1986.99819	34678.05
1990.06394	34606.95
1993.1277	34515.95
1996.18947	34368.85
1999.24925	34373.45
2002.30706	34263.15
2005.36288	34093.35
2008.41672	33991.95
2011.46859	33948.45
2014.51848	33878.95
2017.56639	33758.85
2020.61233	33663.85
2023.6563	33550.15
2026.6983	33466.85
2029.73833	33408.35
2032.7764	33320.45
2035.8125	33268.25
2038.84664	33159.55
2041.87881	33149.55
2044.90903	33066.95
2047.93729	33005.75
2050.96359	33006.05
2053.98794	32942.25
2057.01034	32913.85
2060.03078	32964.05
2063.04927	32921.75
2066.06582	32956.05
2069.08042	32934.15
2072.09307	32893.15
2075.10378	32842.45
2078.11255	32781.35
2081.11938	32796.45
2084.12426	32717.65
2087.12722	32689.25
2090.12824	32748.05
2093.12732	32757.55
2096.12447	32767.15
2099.11969	32722.75
2102.11299	32717.75
2105.10435	32745.25
2108.09379	32744.05
2111.08131	32803.55
2114.0669	32771.45
2117.05057	32743.35
2120.03233	32772.65
2123.01216	32783.65
2125.99008	32847.45
2128.96609	32862.45
2131.94018	32930.05
2134.91236	32955.75
2137.88263	32989.75
2140.851	33012.95
2143.81746	33010.15
2146.78201	33026.75
2149.74466	33041.75
2152.7054	33045.05
2155.66425	33056.05
2158.6212	33010.15
2161.57625	32985.55
2164.52941	33009.15
2167.48067	32947.55
2170.43004	32928.85
2173.37752	32928.65
2176.32311	32975.25
2179.26681	32998.25
2182.20863	32961.85
2185.14856	33025.45
2188.08661	32963.55
2191.02278	32955.65
2193.95707	32873.35
2196.88948	32864.15
2199.82001	32870.55
2202.74867	32833.35
2205.67545	32784.45
2208.60037	32694.45
2211.52341	32643.25
2214.44458	32601.45
2217.36388	32551.75
2220.28132	32524.95
2223.1969	32492.75
2226.11061	32452.75
2229.02246	32333.55
2231.93245	32280.45
2234.84058	32280.65
2237.74686	32226.85
2240.65128	32222.95
2243.55385	32146.55
2246.45456	32102.55
2249.35343	32015.95
2252.25044	32005.75
2255.14561	31930.15
2258.03893	31928.05
2260.93041	31797.35
2263.82004	31708.55
2266.70783	31646.65
2269.59378	31568.05
2272.4779	31458.05
2275.36017	31431.35
2278.24061	31408.35
2281.11922	31326.75
2283.996	31226.95
2286.87094	31256.65
2289.74405	31175.25
2292.61534	31137.95
2295.4848	31105.35
2298.35243	31117.45
2301.21824	31067.95
2304.08223	31031.65
2306.94439	31023.85
2309.80474	30973.25
2312.66327	30948.55
2315.51999	30901.05
2318.37489	30861.15
2321.22797	30804.15
2324.07925	30833.25
2326.92871	30757.85
2329.77637	30665.55
2332.62222	30650.65
2335.46626	30633.55
2338.3085	30609.75
2341.14893	30581.85
2343.98756	30532.85
2346.8244	30487.85
2349.65943	30512.55
2352.49267	30486.45
2355.32411	30481.25
2358.15376	30517.05
2360.98161	30466.75
2363.80768	30429.25
2366.63195	30393.35
2369.45444	30404.65
2372.27514	30314.35
2375.09405	30329.95
2377.91118	30204.05
2380.72652	30187.95
2383.54009	30082.15
2386.35187	30097.25
2389.16188	29967.95
2391.97011	29903.05
2394.77657	29883.35
2397.58125	29850.85
2400.38416	29811.25
2403.18529	29702.05
2405.98466	29688.85
2408.78226	29680.95
2411.57809	29643.95
2414.37216	29634.65
2417.16446	29643.75
2419.955	29587.05
2422.74378	29513.95
2425.5308	29492.25
2428.31606	29517.25
2431.09956	29534.75
2433.88131	29487.65
2436.6613	29460.85
2439.43954	29498.55
2442.21603	29427.35
2444.99077	29371.25
2447.76377	29413.85
2450.53501	29353.25
2453.30451	29321.35
2456.07226	29304.65
2458.83827	29298.15
2461.60254	29225.35
2464.36507	29209.55
2467.12586	29223.35
2469.88492	29221.45
2472.64224	29170.15
2475.39782	29181.95
2478.15167	29182.05
2480.90379	29162.15
2483.65417	29155.15
2486.40283	29120.15
2489.14976	29131.95
2491.89497	29092.15
2494.63845	29088.25
2497.3802	29066.65
2500.12024	29022.55
2502.85855	29015.15
2505.59514	28979.25
2508.33002	28949.65
2511.06318	28920.75
2513.79462	28918.95
2516.52435	28925.95
2519.25237	28848.55
2521.97867	28887.95
2524.70327	28858.55
2527.42616	28775.25
2530.14734	28778.25
2532.86681	28718.05
2535.58458	28686.45
2538.30065	28714.35
2541.01501	28657.25
2543.72768	28689.95
2546.43864	28603.15
2549.14791	28524.85
2551.85548	28520.15
2554.56136	28455.95
2557.26554	28435.65
2559.96803	28351.25
2562.66883	28324.35
2565.36794	28318.05
2568.06536	28268.25
2570.7611	28194.95
2573.45514	28167.15
2576.14751	28133.65
2578.83819	28100.95
2581.52719	28124.95
2584.21451	28079.85
2586.90015	28001.05
2589.58411	27926.55
2592.2664	27978.35
2594.94701	27896.45
2597.62594	27901.45
2600.30321	27891.75
2602.9788	27875.65
2605.65273	27846.05
2608.32498	27809.65
2610.99557	27766.85
2613.66449	27769.75
2616.33175	27746.95
2618.99734	27735.85
2621.66128	27630.35
2624.32355	27622.35
2626.98416	27579.35
2629.64311	27527.75
2632.30041	27517.65
2634.95605	27443.45
2637.61004	27472.65
2640.26238	27458.35
2642.91306	27436.45
2645.56209	27412.15
2648.20948	27418.05
2650.85521	27417.25
2653.4993	27398.55
2656.14175	27432.55
2658.78255	27426.95
2661.42171	27472.75
2664.05923	27479.05
2666.6951	27438.45
2669.32934	27505.95
2671.96194	27435.95
2674.59291	27487.85
2677.22224	27465.35
2679.84993	27457.65
2682.476	27454.65
2685.10043	27436.35
2687.72324	27418.05
2690.34441	27378.05
2692.96396	27399.65
2695.58188	27444.75
2698.19818	27432.05
2700.81285	27394.05
2703.4259	27386.05
2706.03733	27434.75
2708.64714	27398.25
2711.25533	27428.25
2713.86191	27423.85
2716.46687	27459.65
2719.07021	27408.25
2721.67194	27450.75
2724.27206	27454.25
2726.87057	27459.35
2729.46747	27500.85
2732.06276	27489.95
2734.65644	27471.65
2737.24852	27455.55
2739.83899	27416.15
2742.42786	27453.95
2745.01513	27409.55
2747.60079	27346.35
2750.18486	27367.65
2752.76733	27347.05
2755.3482	27275.25
2757.92747	27261.95
2760.50515	27220.95
2763.08123	27221.05
2765.65573	27150.25
2768.22863	27158.45
2770.79994	27108.85
2773.36967	27101.65
2775.9378	27128.55
2778.50435	27077.45
2781.06932	27089.55
2783.6327	27084.35
2786.1945	27040.85
2788.75471	26999.15
2791.31335	26894.45
2793.87041	26874.05
2796.42589	26803.95
2798.97979	26817.65
2801.53212	26731.35
2804.08288	26693.15
2806.63206	26631.85
2809.17967	26588.75
2811.72571	26481.15
2814.27018	26392.45
2816.81308	26333.15
2819.35442	26291.75
2821.89419	26254.05
2824.43239	26234.35
2826.96904	26169.55
2829.50412	26178.85
2832.03763	26092.25
2834.56959	26060.45
2837.1	26058.15
2839.62884	26002.25
2842.15613	25964.95
2844.68186	25978.75
2847.20604	25964.95
2849.72867	25919.05
2852.24974	25922.55
2854.76927	25853.95
2857.28724	25820.65
2859.80367	25796.55
2862.31855	25790.75
2864.83189	25719.85
2867.34368	25663.75
2869.85393	25646.85
2872.36264	25597.05
2874.8698	25558.25
2877.37543	25516.75
2879.87952	25499.15
2882.38207	25531.25
2884.88308	25505.15
2887.38256	25543.25
2889.88051	25512.45
2892.37692	25511.85
2894.8718	25512.75
2897.36515	25549.05
2899.85698	25511.85
2902.34727	25571.55
2904.83604	25522.85
2907.32328	25527.05
2909.809	25578.95
2912.29319	25625.55
2914.77587	25567.65
2917.25702	25532.75
2919.73665	25507.15
2922.21476	25525.35
2924.69136	25467.75
2927.16644	25471.15
2929.64	25459.95
2932.11205	25408.25
2934.58258	25401.75
2937.05161	25398.95
2939.51912	25431.95
2941.98513	25376.95
2944.44962	25362.05
2946.91261	25286.15
2949.37409	25346.25
2951.83407	25284.95
2954.29254	25273.65
2956.74951	25299.55
2959.20498	25255.75
2961.65895	25250.85
2964.11142	25291.25
2966.56239	25212.25
2969.01186	25202.65
2971.45984	25077.85
2973.90632	25095.35
2976.35131	25035.25
2978.7948	25045.35
2981.23681	24960.75
2983.67732	24911.05
2986.11635	24844.65
2988.55388	24788.55
2990.98993	24741.25
2993.4245	24678.35
2995.85758	24623.35
2998.28917	24506.25
3000.71928	24485.95
3003.14791	24419.05
3005.57506	24389.45
3008.00073	24329.85
3010.42493	24341.85
3012.84764	24279.35
3015.26888	24316.65
3017.68865	24241.25
3020.10694	24179.55
3022.52376	24099.75
3024.9391	24087.15
3027.35298	24028.95
3029.76539	24061.35
3032.17632	23988.35
3034.5858	23934.65
3036.9938	23933.75
3039.40034	23892.05
3041.80542	23904.25
3044.20903	23869.05
3046.61118	23838.45
3049.01187	23747.35
3051.4111	23753.75
3053.80888	23700.95
3056.20519	23620.55
3058.60005	23574.45
3060.99345	23519.65
3063.3854	23439.75
3065.7759	23409.55
3068.16494	23358.85
3070.55254	23260.95
3072.93868	23185.35
3075.32338	23132.95
3077.70662	23100.35
3080.08842	23006.75
3082.46878	22976.15
3084.84769	22902.75
3087.22515	22921.95
3089.60118	22879.65
3091.97576	22848.55
3094.3489	22855.55
3096.72061	22839.15
3099.09087	22834.65
3101.4597	22854.95
3103.82709	22814.45
3106.19305	22794.65
3108.55757	22790.85
3110.92066	22747.15
3113.28232	22686.25
3115.64255	22641.75
3118.00134	22563.15
3120.35871	22529.95
3122.71466	22420.05
3125.06917	22373.15
3127.42226	22327.75
3129.77393	22307.85
3132.12417	22252.05
3134.47299	22257.75
3136.82039	22194.45
3139.16636	22209.65
3141.51092	22190.95
3143.85406	22195.05
3146.19579	22163.45
3148.53609	22146.15
3150.87499	22148.85
3153.21246	22177.45
3155.54853	22190.25
3157.88318	22145.55
3160.21642	22161.15
3162.54826	22133.85
3164.87868	22098.15
3167.2077	22052.45
3169.5353	22034.95
3171.86151	22028.55
3174.18631	22031.25
3176.5097	22043.35
3178.83169	21985.45
3181.15228	21934.65
3183.47147	21831.35
3185.78926	21827.35
3188.10565	21790.05
3190.42065	21755.85
3192.73424	21701.15
3195.04645	21663.15
3197.35725	21643.45
3199.66667	21618.75
3201.97469	21649.45
3204.28132	21633.95
3206.58656	21581.25
3208.8904	21604.35
3211.19287	21585.45
3213.49394	21576.95
3215.79363	21571.85
3218.09193	21618.55
3220.38884	21574.35
3222.68438	21643.35
3224.97853	21527.95
3227.2713	21527.95
3229.56269	21510.65
3231.8527	21447.35
3234.14133	21442.15
3236.42858	21357.95
3238.71446	21318.35
3240.99896	21294.25
3243.28209	21304.75
3245.56384	21244.65
3247.84423	21194.15
3250.12324	21177.65
3252.40088	21148.85
3254.67715	21148.15
3256.95205	21084.35
3259.22558	21081.85
3261.49775	21054.55
3263.76855	20987.25
3266.03799	20953.45
3268.30606	20901.95
3270.57277	20905.45
3272.83812	20855.55
3275.10211	20816.65
3277.36474	20749.05
3279.62601	20762.05
3281.88593	20740.65
3284.14448	20690.95
3286.40168	20713.85
3288.65753	20656.05
3290.91202	20669.95
3293.16516	20581.45
3295.41695	20544.35
3297.66738	20461.35
3299.91647	20357.05
3302.16421	20175.25
3304.4106	20095.25
3306.65564	19930.65
3308.89933	19800.95
3311.14169	19688.85
3313.38269	19528.55
3315.62236	19399.25
3317.86068	19191.35
3320.09766	19019.85
3322.3333	18894.75
3324.5676	18809.55
3326.80056	18518.15
3329.03219	18393.65
3331.26248	6.05
3333.49143	0.45
3335.71905	-0.65
