Data from AgNPs_FTO_APTES_UA_20uM_CRN_0uM_R6G_10uM_NaF_0.1M_Addition_RamanShift__13__11-04-51-936.txt Node

Date: Thu Feb 17 11:04:51 GMT 2022
User: TCL
Spectrometer: QEP01345
Trigger mode: 4
Integration Time (sec): 7.000000E0
Scans to average: 10
Electric dark correction enabled: true
Nonlinearity correction enabled: false
Boxcar width: 0
XAxis mode: Raman Shifts
Number of Pixels in Spectrum: 1044
>>>>>Begin Spectral Data<<<<<
46.04893	2.45
50.45542	0.25
54.85868	-2.25
59.25871	0.05
63.6555	40.45
68.04907	42.65
72.43941	48.75
76.82654	45.15
81.21044	48.95
85.59113	52.35
89.96862	53.35
94.34289	54.15
98.71396	55.65
103.08183	57.95
107.4465	57.75
111.80798	57.65
116.16626	62.55
120.52136	68.55
124.87327	64.15
129.222	68.95
133.56755	75.55
137.90993	75.95
142.24913	84.25
146.58517	94.75
150.91804	112.45
155.24774	131.45
159.57429	169.15
163.89768	216.75
168.21792	286.95
172.53501	396.95
176.84895	553.45
181.15975	771.75
185.46741	1091.95
189.77193	1492.25
194.07331	2005.75
198.37157	2570.45
202.6667	3165.35
206.9587	3761.15
211.24758	4375.65
215.53334	5009.15
219.81599	5700.65
224.09553	6522.75
228.37195	7421.25
232.64527	8350.05
236.91549	9306.65
241.18261	10146.35
245.44663	10860.95
249.70755	11381.55
253.96539	11789.15
258.22014	12188.35
262.4718	12514.95
266.72039	12784.45
270.96589	12905.25
275.20832	12824.55
279.44768	12606.25
283.68397	12340.85
287.91719	12201.55
292.14735	12199.65
296.37445	12399.95
300.59849	12819.35
304.81948	13370.05
309.03742	13852.45
313.25231	13980.85
317.46415	13636.85
321.67296	12793.65
325.87872	11963.45
330.08145	11492.85
334.28114	11375.75
338.47781	11506.35
342.67145	11743.55
346.86207	12147.25
351.04966	12773.15
355.23424	13482.85
359.4158	13970.35
363.59435	14168.75
367.76989	14139.55
371.94243	14021.85
376.11196	13935.75
380.27849	13851.45
384.44203	13718.25
388.60257	13635.45
392.76012	13634.25
396.91468	13725.45
401.06626	14021.45
405.21485	14213.35
409.36047	13926.95
413.50311	13213.45
417.64277	12585.45
421.77947	12267.95
425.9132	12185.35
430.04396	12219.55
434.17176	12210.65
438.2966	12353.05
442.41849	12640.65
446.53742	13087.45
450.6534	13506.85
454.76644	13670.05
458.87653	13532.85
462.98368	13199.15
467.08789	12897.35
471.18916	12561.35
475.2875	12213.95
479.38291	11928.85
483.4754	11701.05
487.56496	11580.45
491.6516	11474.65
495.73531	11445.05
499.81612	11452.45
503.89401	11589.55
507.96899	11792.95
512.04106	11917.35
516.11023	12030.95
520.1765	12067.05
524.23987	12007.35
528.30034	11858.65
532.35792	11705.85
536.41261	11453.85
540.46441	11092.45
544.51333	10874.15
548.55936	10912.85
552.60252	11239.55
556.64279	11674.65
560.6802	12039.55
564.71473	12284.05
568.7464	12780.55
572.7752	13290.65
576.80114	13163.25
580.82422	12937.85
584.84444	12986.25
588.86181	13340.75
592.87633	13933.85
596.888	14210.15
600.89682	13836.75
604.9028	14419.45
608.90594	17893.05
612.90624	23141.65
616.90371	22585.75
620.89834	15596.25
624.89015	11826.35
628.87913	11043.45
632.86528	11216.85
636.84862	11447.15
640.82913	11266.45
644.80683	10699.25
648.78172	10291.65
652.75379	10263.35
656.72306	10645.05
660.68952	11197.55
664.65319	11059.85
668.61405	10382.35
672.57211	10045.75
676.52738	10053.25
680.47986	10045.25
684.42955	9901.95
688.37646	9768.95
692.32058	9739.75
696.26192	9894.45
700.20048	10073.65
704.13626	10192.55
708.06928	10199.65
711.99952	10114.15
715.927	10063.65
719.85171	10128.75
723.77365	10159.25
727.69284	10061.95
731.60928	9909.65
735.52295	9883.25
739.43388	9946.65
743.34206	9974.25
747.24749	10025.45
751.15017	10106.05
755.05012	10315.85
758.94733	10863.85
762.8418	12225.55
766.73354	14678.55
770.62254	17194.15
774.50882	18202.65
778.39237	17193.25
782.27321	14848.85
786.15132	12504.45
790.02671	11043.25
793.89938	10281.35
797.76935	9978.65
801.6366	9830.65
805.50115	9738.55
809.36299	9624.65
813.22213	9518.55
817.07857	9424.95
820.93231	9383.65
824.78336	9375.65
828.63172	9363.75
832.47738	9397.55
836.32036	9312.85
840.16066	9274.75
843.99827	9221.55
847.8332	9234.95
851.66546	9207.85
855.49504	9206.25
859.32195	9178.85
863.1462	9140.35
866.96777	9110.75
870.78668	9106.75
874.60293	9111.35
878.41652	9123.15
882.22745	9211.05
886.03573	9257.45
889.84136	9247.45
893.64433	9239.95
897.44466	9228.95
901.24235	9222.15
905.0374	9161.95
908.8298	9027.15
912.61957	8943.85
916.40671	8980.45
920.19121	9083.75
923.97308	9222.25
927.75233	9393.55
931.52895	9497.75
935.30295	9331.85
939.07433	8970.35
942.84309	8625.35
946.60924	8449.55
950.37278	8351.45
954.13371	8318.95
957.89203	8278.35
961.64774	8239.15
965.40086	8210.55
969.15137	8193.25
972.89929	8118.05
976.64461	8074.05
980.38733	8039.55
984.12747	8020.85
987.86502	8042.25
991.59999	8126.15
995.33237	8237.45
999.06217	8437.55
1002.78939	8714.45
1006.51404	8971.45
1010.23611	9256.05
1013.95561	9429.85
1017.67255	9436.45
1021.38692	9234.05
1025.09872	8925.45
1028.80796	8673.05
1032.51465	8526.35
1036.21877	8491.55
1039.92035	8525.45
1043.61937	8551.05
1047.31584	8594.25
1051.00976	8619.85
1054.70114	8648.25
1058.38998	8615.95
1062.07627	8633.05
1065.76003	8696.35
1069.44126	8769.25
1073.11995	8936.65
1076.79611	9148.85
1080.46974	9382.55
1084.14085	9723.95
1087.80943	10149.75
1091.47549	10355.05
1095.13903	10155.15
1098.80005	9738.05
1102.45857	9317.95
1106.11456	9091.35
1109.76805	9097.75
1113.41903	9294.05
1117.06751	9667.15
1120.71348	10133.85
1124.35696	10736.65
1127.99793	11274.15
1131.63641	11341.75
1135.2724	10776.95
1138.90589	10137.15
1142.5369	9772.95
1146.16542	9551.95
1149.79145	9495.45
1153.415	9470.65
1157.03607	9579.45
1160.65467	9935.35
1164.27079	10548.05
1167.88443	11540.75
1171.49561	12910.75
1175.10432	14956.65
1178.71056	17614.25
1182.31434	19885.25
1185.91565	20600.25
1189.51451	19935.75
1193.11091	18613.05
1196.70485	16999.45
1200.29634	15553.35
1203.88538	14342.95
1207.47197	13218.25
1211.05612	12264.35
1214.63782	11740.65
1218.21708	11588.75
1221.79391	11654.95
1225.36829	11804.45
1228.94024	11760.25
1232.50976	11496.45
1236.07685	11167.65
1239.6415	10995.75
1243.20374	10897.05
1246.76355	10855.95
1250.32093	10939.75
1253.8759	11173.15
1257.42845	11633.25
1260.97859	12261.45
1264.52631	12987.45
1268.07163	13716.15
1271.61453	14311.75
1275.15503	14774.85
1278.69312	15062.15
1282.22882	15297.25
1285.76211	15816.95
1289.29301	16611.85
1292.82151	17622.55
1296.34761	18663.65
1299.87133	20025.25
1303.39266	22016.75
1306.9116	24770.05
1310.42815	27914.45
1313.94233	30037.05
1317.45412	29727.75
1320.96354	27622.75
1324.47058	25122.45
1327.97525	22895.85
1331.47754	21366.45
1334.97747	20507.75
1338.47502	20186.05
1341.97022	20266.95
1345.46305	20841.55
1348.95352	21957.35
1352.44163	23583.05
1355.92738	25988.65
1359.41078	29808.15
1362.89183	33831.95
1366.37053	33543.55
1369.84688	28183.25
1373.32088	22125.95
1376.79254	18377.15
1380.26186	16614.15
1383.72883	15753.05
1387.19347	15115.15
1390.65578	14546.45
1394.11575	14307.75
1397.57339	14424.95
1401.0287	14747.65
1404.48168	14981.75
1407.93234	14956.15
1411.38068	14686.45
1414.82669	14239.55
1418.27039	13733.75
1421.71177	13273.35
1425.15083	12769.15
1428.58758	12548.25
1432.02203	12697.25
1435.45416	13081.55
1438.88399	13403.15
1442.31151	13550.65
1445.73673	13674.15
1449.15965	13845.75
1452.58027	13868.35
1455.9986	13852.15
1459.41463	13932.85
1462.82837	14210.85
1466.23982	14561.55
1469.64898	14895.65
1473.05586	15091.55
1476.46045	15083.45
1479.86276	15085.45
1483.26279	15137.35
1486.66054	15343.45
1490.05602	15840.65
1493.44922	16650.25
1496.84016	17758.75
1500.22882	19547.95
1503.61521	22152.85
1506.99934	25323.25
1510.38121	28398.95
1513.76081	29860.75
1517.13816	28297.35
1520.51324	24545.25
1523.88607	20732.05
1527.25665	18188.65
1530.62498	16771.15
1533.99105	15917.95
1537.35488	15233.45
1540.71647	14671.95
1544.07581	14175.55
1547.4329	13855.85
1550.78776	13679.85
1554.14038	13654.95
1557.49077	13789.45
1560.83892	14084.85
1564.18484	14551.75
1567.52853	15112.85
1570.86999	15605.65
1574.20922	15990.85
1577.54624	15951.15
1580.88103	15167.15
1584.2136	13962.95
1587.54395	13456.35
1590.87208	13826.55
1594.19801	14999.55
1597.52172	16507.35
1600.84321	17203.95
1604.16251	16387.85
1607.47959	14860.35
1610.79447	13249.65
1614.10715	11777.05
1617.41763	10548.75
1620.7259	9694.25
1624.03199	9296.75
1627.33587	9265.95
1630.63757	9661.55
1633.93707	10616.85
1637.23439	12321.35
1640.52951	14970.95
1643.82246	18507.65
1647.11321	22074.65
1650.40179	23937.75
1653.68819	22560.45
1656.97241	18473.35
1660.25446	14028.75
1663.53433	10883.75
1666.81203	9012.35
1670.08756	7974.85
1673.36092	7374.35
1676.63211	6992.65
1679.90115	6758.65
1683.16801	6558.45
1686.43272	6437.15
1689.69527	6340.25
1692.95567	6260.55
1696.2139	6215.55
1699.46999	6191.65
1702.72392	6149.55
1705.97571	6120.35
1709.22535	6057.85
1712.47284	6074.05
1715.71819	6080.65
1718.96139	6056.85
1722.20246	6014.75
1725.44139	5952.95
1728.67818	5884.05
1731.91284	5794.75
1735.14537	5741.35
1738.37576	5631.25
1741.60403	5643.15
1744.83017	5616.55
1748.05418	5586.25
1751.27607	5545.45
1754.49584	5536.45
1757.71349	5494.95
1760.92903	5489.75
1764.14244	5474.75
1767.35375	5457.45
1770.56294	5425.45
1773.77002	5403.75
1776.97499	5375.75
1780.17785	5348.35
1783.37861	5323.75
1786.57727	5305.85
1789.77382	5287.55
1792.96828	5279.95
1796.16064	5276.55
1799.3509	5242.75
1802.53907	5243.25
1805.72514	5213.85
1808.90913	5198.35
1812.09102	5164.05
1815.27083	5151.15
1818.44856	5144.95
1821.6242	5115.95
1824.79776	5124.45
1827.96924	5124.25
1831.13864	5120.75
1834.30597	5100.75
1837.47122	5111.45
1840.6344	5095.05
1843.7955	5097.15
1846.95454	5101.55
1850.11151	5078.85
1853.26642	5064.75
1856.41926	5070.65
1859.57004	5065.75
1862.71876	5041.65
1865.86542	5014.65
1869.01003	4991.85
1872.15258	5000.95
1875.29308	4984.45
1878.43152	5005.95
1881.56792	4981.35
1884.70227	4977.75
1887.83457	4948.25
1890.96482	4969.45
1894.09304	4944.25
1897.21921	4945.95
1900.34335	4927.15
1903.46544	4910.35
1906.58551	4917.05
1909.70353	4902.05
1912.81953	4892.95
1915.93349	4881.55
1919.04543	4837.35
1922.15534	4798.45
1925.26322	4775.65
1928.36908	4760.75
1931.47292	4739.35
1934.57473	4693.65
1937.67453	4682.55
1940.77232	4653.75
1943.86808	4629.95
1946.96184	4614.25
1950.05358	4579.65
1953.14331	4597.75
1956.23103	4563.65
1959.31675	4558.05
1962.40046	4526.15
1965.48217	4528.45
1968.56188	4514.75
1971.63959	4497.85
1974.7153	4504.45
1977.78901	4462.75
1980.86073	4465.95
1983.93046	4442.05
1986.99819	4412.65
1990.06394	4393.95
1993.1277	4370.15
1996.18947	4351.15
1999.24925	4333.45
2002.30706	4318.65
2005.36288	4293.85
2008.41672	4277.75
2011.46859	4267.45
2014.51848	4244.65
2017.56639	4233.45
2020.61233	4226.85
2023.6563	4193.45
2026.6983	4183.65
2029.73833	4159.45
2032.7764	4144.95
2035.8125	4143.55
2038.84664	4121.45
2041.87881	4128.85
2044.90903	4115.35
2047.93729	4098.45
2050.96359	4075.65
2053.98794	4079.25
2057.01034	4070.25
2060.03078	4074.85
2063.04927	4066.95
2066.06582	4041.95
2069.08042	4035.65
2072.09307	4057.25
2075.10378	4030.05
2078.11255	4033.75
2081.11938	4016.45
2084.12426	4009.65
2087.12722	4008.55
2090.12824	4021.35
2093.12732	4024.25
2096.12447	4027.75
2099.11969	4011.75
2102.11299	4003.65
2105.10435	4002.35
2108.09379	4008.35
2111.08131	4017.35
2114.0669	4000.75
2117.05057	3995.65
2120.03233	4002.15
2123.01216	4001.15
2125.99008	4027.55
2128.96609	4003.65
2131.94018	4009.55
2134.91236	4009.05
2137.88263	4006.55
2140.851	4002.55
2143.81746	3991.25
2146.78201	4001.55
2149.74466	3978.05
2152.7054	3984.45
2155.66425	3965.15
2158.6212	3972.65
2161.57625	3965.95
2164.52941	3969.65
2167.48067	3949.95
2170.43004	3932.45
2173.37752	3950.75
2176.32311	3943.35
2179.26681	3936.35
2182.20863	3946.35
2185.14856	3946.45
2188.08661	3941.45
2191.02278	3945.45
2193.95707	3920.85
2196.88948	3914.05
2199.82001	3908.35
2202.74867	3913.65
2205.67545	3903.35
2208.60037	3893.15
2211.52341	3878.25
2214.44458	3870.85
2217.36388	3862.25
2220.28132	3857.35
2223.1969	3840.15
2226.11061	3837.45
2229.02246	3814.15
2231.93245	3804.75
2234.84058	3824.95
2237.74686	3805.75
2240.65128	3792.35
2243.55385	3796.65
2246.45456	3783.85
2249.35343	3775.35
2252.25044	3776.35
2255.14561	3782.05
2258.03893	3782.95
2260.93041	3780.75
2263.82004	3765.25
2266.70783	3773.85
2269.59378	3738.85
2272.4779	3743.15
2275.36017	3732.45
2278.24061	3713.85
2281.11922	3709.65
2283.996	3707.45
2286.87094	3687.85
2289.74405	3685.85
2292.61534	3650.65
2295.4848	3658.75
2298.35243	3658.25
2301.21824	3630.75
2304.08223	3644.35
2306.94439	3636.75
2309.80474	3644.25
2312.66327	3648.05
2315.51999	3632.55
2318.37489	3618.45
2321.22797	3604.65
2324.07925	3606.55
2326.92871	3612.05
2329.77637	3606.55
2332.62222	3598.65
2335.46626	3606.65
2338.3085	3590.75
2341.14893	3602.35
2343.98756	3607.55
2346.8244	3609.35
2349.65943	3601.85
2352.49267	3615.75
2355.32411	3629.45
2358.15376	3651.55
2360.98161	3662.75
2363.80768	3671.35
2366.63195	3689.65
2369.45444	3689.75
2372.27514	3670.35
2375.09405	3679.85
2377.91118	3659.15
2380.72652	3631.45
2383.54009	3613.65
2386.35187	3586.95
2389.16188	3566.25
2391.97011	3546.35
2394.77657	3537.35
2397.58125	3527.35
2400.38416	3514.75
2403.18529	3503.15
2405.98466	3499.65
2408.78226	3480.85
2411.57809	3479.85
2414.37216	3490.95
2417.16446	3474.65
2419.955	3475.25
2422.74378	3489.85
2425.5308	3474.25
2428.31606	3468.15
2431.09956	3483.45
2433.88131	3479.85
2436.6613	3489.75
2439.43954	3490.15
2442.21603	3489.65
2444.99077	3494.05
2447.76377	3500.25
2450.53501	3500.95
2453.30451	3508.15
2456.07226	3515.95
2458.83827	3504.05
2461.60254	3507.75
2464.36507	3514.75
2467.12586	3512.05
2469.88492	3502.15
2472.64224	3513.65
2475.39782	3513.25
2478.15167	3515.55
2480.90379	3527.25
2483.65417	3557.15
2486.40283	3554.45
2489.14976	3570.45
2491.89497	3574.95
2494.63845	3574.35
2497.3802	3564.35
2500.12024	3572.95
2502.85855	3551.25
2505.59514	3541.15
2508.33002	3523.65
2511.06318	3498.75
2513.79462	3484.25
2516.52435	3469.85
2519.25237	3457.35
2521.97867	3442.05
2524.70327	3410.85
2527.42616	3415.05
2530.14734	3393.95
2532.86681	3406.75
2535.58458	3405.85
2538.30065	3412.65
2541.01501	3406.05
2543.72768	3410.95
2546.43864	3425.55
2549.14791	3417.35
2551.85548	3418.45
2554.56136	3407.95
2557.26554	3419.45
2559.96803	3410.35
2562.66883	3395.55
2565.36794	3388.35
2568.06536	3385.65
2570.7611	3399.65
2573.45514	3390.85
2576.14751	3375.85
2578.83819	3378.35
2581.52719	3389.15
2584.21451	3360.25
2586.90015	3359.45
2589.58411	3348.45
2592.2664	3354.25
2594.94701	3348.55
2597.62594	3355.85
2600.30321	3335.85
2602.9788	3345.85
2605.65273	3356.55
2608.32498	3355.85
2610.99557	3354.15
2613.66449	3347.85
2616.33175	3353.15
2618.99734	3351.35
2621.66128	3343.25
2624.32355	3337.15
2626.98416	3337.55
2629.64311	3352.25
2632.30041	3328.35
2634.95605	3329.15
2637.61004	3316.85
2640.26238	3311.45
2642.91306	3322.55
2645.56209	3308.85
2648.20948	3306.35
2650.85521	3307.05
2653.4993	3333.55
2656.14175	3318.05
2658.78255	3319.45
2661.42171	3338.55
2664.05923	3333.65
2666.6951	3349.85
2669.32934	3348.35
2671.96194	3342.05
2674.59291	3349.45
2677.22224	3347.15
2679.84993	3350.95
2682.476	3350.05
2685.10043	3339.55
2687.72324	3334.55
2690.34441	3332.55
2692.96396	3335.05
2695.58188	3333.55
2698.19818	3321.65
2700.81285	3319.15
2703.4259	3318.45
2706.03733	3320.95
2708.64714	3314.25
2711.25533	3347.05
2713.86191	3354.45
2716.46687	3352.35
2719.07021	3360.25
2721.67194	3360.25
2724.27206	3362.95
2726.87057	3366.65
2729.46747	3368.25
2732.06276	3348.35
2734.65644	3350.75
2737.24852	3337.15
2739.83899	3327.95
2742.42786	3341.25
2745.01513	3323.55
2747.60079	3317.95
2750.18486	3323.65
2752.76733	3322.75
2755.3482	3311.25
2757.92747	3308.05
2760.50515	3314.95
2763.08123	3301.85
2765.65573	3298.55
2768.22863	3288.75
2770.79994	3295.55
2773.36967	3300.05
2775.9378	3299.45
2778.50435	3308.55
2781.06932	3307.95
2783.6327	3304.45
2786.1945	3299.45
2788.75471	3304.45
2791.31335	3302.15
2793.87041	3297.95
2796.42589	3295.65
2798.97979	3295.25
2801.53212	3293.65
2804.08288	3272.75
2806.63206	3271.95
2809.17967	3287.15
2811.72571	3285.45
2814.27018	3273.15
2816.81308	3277.25
2819.35442	3288.55
2821.89419	3289.15
2824.43239	3294.55
2826.96904	3295.15
2829.50412	3304.95
2832.03763	3296.95
2834.56959	3303.65
2837.1	3297.05
2839.62884	3297.25
2842.15613	3320.95
2844.68186	3331.35
2847.20604	3353.95
2849.72867	3367.35
2852.24974	3377.95
2854.76927	3373.25
2857.28724	3380.05
2859.80367	3375.75
2862.31855	3392.55
2864.83189	3387.05
2867.34368	3380.85
2869.85393	3399.55
2872.36264	3399.85
2874.8698	3407.35
2877.37543	3390.85
2879.87952	3382.05
2882.38207	3389.45
2884.88308	3393.35
2887.38256	3391.75
2889.88051	3376.35
2892.37692	3370.15
2894.8718	3369.65
2897.36515	3386.45
2899.85698	3381.85
2902.34727	3403.55
2904.83604	3395.35
2907.32328	3407.95
2909.809	3403.65
2912.29319	3407.45
2914.77587	3414.95
2917.25702	3420.05
2919.73665	3407.35
2922.21476	3408.75
2924.69136	3394.55
2927.16644	3384.95
2929.64	3372.95
2932.11205	3367.75
2934.58258	3356.45
2937.05161	3359.05
2939.51912	3340.65
2941.98513	3325.25
2944.44962	3307.15
2946.91261	3286.85
2949.37409	3283.85
2951.83407	3272.15
2954.29254	3275.15
2956.74951	3259.25
2959.20498	3264.45
2961.65895	3255.45
2964.11142	3261.95
2966.56239	3229.05
2969.01186	3221.95
2971.45984	3209.55
2973.90632	3180.65
2976.35131	3181.45
2978.7948	3160.05
2981.23681	3149.45
2983.67732	3149.05
2986.11635	3151.35
2988.55388	3134.35
2990.98993	3129.95
2993.4245	3117.45
2995.85758	3103.65
2998.28917	3108.25
3000.71928	3110.85
3003.14791	3089.75
3005.57506	3084.45
3008.00073	3078.05
3010.42493	3073.35
3012.84764	3079.05
3015.26888	3088.05
3017.68865	3065.35
3020.10694	3064.45
3022.52376	3050.65
3024.9391	3054.45
3027.35298	3033.45
3029.76539	3019.65
3032.17632	3028.45
3034.5858	3013.25
3036.9938	3009.85
3039.40034	3011.15
3041.80542	3001.25
3044.20903	3007.85
3046.61118	2996.75
3049.01187	2991.95
3051.4111	2976.55
3053.80888	2975.75
3056.20519	2973.35
3058.60005	2960.75
3060.99345	2967.25
3063.3854	2948.65
3065.7759	2954.75
3068.16494	2945.95
3070.55254	2942.35
3072.93868	2937.35
3075.32338	2920.65
3077.70662	2916.45
3080.08842	2902.65
3082.46878	2894.45
3084.84769	2892.25
3087.22515	2890.35
3089.60118	2888.95
3091.97576	2876.05
3094.3489	2882.35
3096.72061	2888.05
3099.09087	2895.85
3101.4597	2883.35
3103.82709	2883.85
3106.19305	2880.45
3108.55757	2889.55
3110.92066	2881.65
3113.28232	2885.55
3115.64255	2875.85
3118.00134	2870.55
3120.35871	2873.65
3122.71466	2864.35
3125.06917	2858.85
3127.42226	2860.45
3129.77393	2862.55
3132.12417	2861.05
3134.47299	2859.55
3136.82039	2859.35
3139.16636	2849.75
3141.51092	2863.25
3143.85406	2877.05
3146.19579	2880.95
3148.53609	2886.25
3150.87499	2883.05
3153.21246	2888.15
3155.54853	2894.35
3157.88318	2899.35
3160.21642	2917.95
3162.54826	2907.15
3164.87868	2900.15
3167.2077	2906.95
3169.5353	2921.15
3171.86151	2930.75
3174.18631	2919.05
3176.5097	2919.65
3178.83169	2908.65
3181.15228	2916.95
3183.47147	2905.35
3185.78926	2912.55
3188.10565	2901.15
3190.42065	2897.55
3192.73424	2907.95
3195.04645	2908.45
3197.35725	2898.65
3199.66667	2902.35
3201.97469	2908.65
3204.28132	2913.65
3206.58656	2925.35
3208.8904	2927.25
3211.19287	2941.75
3213.49394	2930.45
3215.79363	2937.35
3218.09193	2942.75
3220.38884	2946.15
3222.68438	2949.75
3224.97853	2942.85
3227.2713	2950.45
3229.56269	2928.85
3231.8527	2936.15
3234.14133	2937.85
3236.42858	2927.75
3238.71446	2927.95
3240.99896	2927.65
3243.28209	2921.85
3245.56384	2931.15
3247.84423	2930.55
3250.12324	2910.75
3252.40088	2913.95
3254.67715	2911.45
3256.95205	2897.55
3259.22558	2912.05
3261.49775	2898.05
3263.76855	2895.75
3266.03799	2875.65
3268.30606	2882.95
3270.57277	2886.25
3272.83812	2881.05
3275.10211	2889.15
3277.36474	2884.45
3279.62601	2877.75
3281.88593	2889.85
3284.14448	2893.25
3286.40168	2889.85
3288.65753	2901.65
3290.91202	2884.75
3293.16516	2887.75
3295.41695	2885.05
3297.66738	2878.55
3299.91647	2860.65
3302.16421	2840.65
3304.4106	2823.55
3306.65564	2801.05
3308.89933	2779.05
3311.14169	2760.15
3313.38269	2745.65
3315.62236	2722.65
3317.86068	2698.95
3320.09766	2667.65
3322.3333	2643.55
3324.5676	2652.65
3326.80056	2605.35
3329.03219	2565.95
3331.26248	0.35
3333.49143	-0.35
3335.71905	-0.35
