Data from AgNPs_FTO_APTES_UA_20uM_CRN_20uM_R6G_10uM_NaF_0.1M_Addition_RamanShift__30__15-25-02-277.txt Node

Date: Thu Feb 17 15:25:02 GMT 2022
User: TCL
Spectrometer: QEP01345
Trigger mode: 4
Integration Time (sec): 7.000000E0
Scans to average: 10
Electric dark correction enabled: true
Nonlinearity correction enabled: false
Boxcar width: 0
XAxis mode: Raman Shifts
Number of Pixels in Spectrum: 1044
>>>>>Begin Spectral Data<<<<<
46.04893	0.35
50.45542	-0.55
54.85868	-2.85
59.25871	-0.35
63.6555	57.25
68.04907	60.25
72.43941	67.25
76.82654	69.35
81.21044	67.55
85.59113	72.25
89.96862	76.75
94.34289	78.15
98.71396	78.95
103.08183	80.65
107.4465	85.05
111.80798	82.05
116.16626	87.35
120.52136	91.75
124.87327	89.65
129.222	96.05
133.56755	99.85
137.90993	101.65
142.24913	112.25
146.58517	124.55
150.91804	145.95
155.24774	163.05
159.57429	202.15
163.89768	255.05
168.21792	336.65
172.53501	456.55
176.84895	632.95
181.15975	883.05
185.46741	1240.45
189.77193	1713.15
194.07331	2305.85
198.37157	2971.85
202.6667	3701.25
206.9587	4403.35
211.24758	5124.45
215.53334	5823.35
219.81599	6597.05
224.09553	7473.35
228.37195	8427.45
232.64527	9509.75
236.91549	10643.85
241.18261	11756.65
245.44663	12759.45
249.70755	13604.25
253.96539	14365.85
258.22014	14964.15
262.4718	15481.05
266.72039	15917.85
270.96589	16128.05
275.20832	16180.05
279.44768	15970.35
283.68397	15731.85
287.91719	15554.05
292.14735	15489.45
296.37445	15642.65
300.59849	16000.45
304.81948	16480.15
309.03742	16748.75
313.25231	16723.45
317.46415	16196.05
321.67296	15418.55
325.87872	14783.55
330.08145	14497.45
334.28114	14532.25
338.47781	14742.55
342.67145	15097.55
346.86207	15573.45
351.04966	16240.45
355.23424	17014.95
359.4158	17614.15
363.59435	18020.95
367.76989	18288.95
371.94243	18453.85
376.11196	18562.25
380.27849	18622.05
384.44203	18633.15
388.60257	18522.65
392.76012	18467.75
396.91468	18609.05
401.06626	18954.15
405.21485	19259.05
409.36047	19124.65
413.50311	18514.85
417.64277	17959.35
421.77947	17624.35
425.9132	17528.35
430.04396	17539.25
434.17176	17689.65
438.2966	17920.85
442.41849	18241.05
446.53742	18626.25
450.6534	19051.05
454.76644	19361.95
458.87653	19511.45
462.98368	19435.95
467.08789	19213.25
471.18916	18888.05
475.2875	18549.25
479.38291	18269.85
483.4754	18105.45
487.56496	17956.55
491.6516	17823.25
495.73531	17792.55
499.81612	17786.05
503.89401	17936.75
507.96899	18109.05
512.04106	18328.05
516.11023	18590.35
520.1765	18861.95
524.23987	18882.25
528.30034	18698.25
532.35792	18454.95
536.41261	18274.05
540.46441	18018.55
544.51333	17933.45
548.55936	17988.95
552.60252	18229.55
556.64279	18467.35
560.6802	18568.95
564.71473	18650.15
568.7464	19058.75
572.7752	19350.05
576.80114	19109.35
580.82422	18790.95
584.84444	18709.25
588.86181	18741.05
592.87633	18846.15
596.888	19040.55
600.89682	19487.85
604.9028	20981.05
608.90594	24838.65
612.90624	29961.95
616.90371	29189.75
620.89834	22943.15
624.89015	20008.05
628.87913	19428.55
632.86528	19425.15
636.84862	19508.45
640.82913	19378.95
644.80683	18888.65
648.78172	18558.95
652.75379	18647.75
656.72306	19113.95
660.68952	19721.45
664.65319	19621.45
668.61405	19071.95
672.57211	18804.85
676.52738	18790.85
680.47986	18848.65
684.42955	18816.35
688.37646	18834.45
692.32058	18918.35
696.26192	19041.85
700.20048	19225.15
704.13626	19344.05
708.06928	19317.85
711.99952	19222.65
715.927	19211.75
719.85171	19273.75
723.77365	19280.15
727.69284	19224.15
731.60928	19166.35
735.52295	19181.05
739.43388	19306.25
743.34206	19424.65
747.24749	19481.65
751.15017	19579.05
755.05012	19862.75
758.94733	20389.15
762.8418	21546.65
766.73354	23498.05
770.62254	25706.65
774.50882	27100.55
778.39237	26431.65
782.27321	23965.95
786.15132	21702.45
790.02671	20405.55
793.89938	19898.25
797.76935	19685.65
801.6366	19598.65
805.50115	19534.65
809.36299	19512.75
813.22213	19488.35
817.07857	19537.25
820.93231	19539.55
824.78336	19600.65
828.63172	19692.95
832.47738	19749.75
836.32036	19762.95
840.16066	19750.15
843.99827	19802.05
847.8332	19761.25
851.66546	19762.85
855.49504	19760.35
859.32195	19799.35
863.1462	19770.95
866.96777	19733.55
870.78668	19725.85
874.60293	19789.25
878.41652	19850.65
882.22745	19911.25
886.03573	20026.75
889.84136	19972.65
893.64433	19923.05
897.44466	19888.85
901.24235	19899.85
905.0374	19889.05
908.8298	19877.35
912.61957	19833.45
916.40671	19910.25
920.19121	20017.05
923.97308	20114.15
927.75233	20265.65
931.52895	20354.95
935.30295	20294.25
939.07433	20028.95
942.84309	19789.55
946.60924	19638.45
950.37278	19552.25
954.13371	19506.05
957.89203	19428.35
961.64774	19393.05
965.40086	19371.45
969.15137	19325.05
972.89929	19309.15
976.64461	19326.45
980.38733	19332.65
984.12747	19388.65
987.86502	19493.65
991.59999	19596.35
995.33237	19842.45
999.06217	20194.55
1002.78939	20624.45
1006.51404	20938.55
1010.23611	21181.15
1013.95561	21397.05
1017.67255	21426.95
1021.38692	21324.95
1025.09872	21206.55
1028.80796	21280.95
1032.51465	21663.65
1036.21877	21958.65
1039.92035	22015.35
1043.61937	21838.25
1047.31584	21515.95
1051.00976	21201.95
1054.70114	21079.15
1058.38998	21021.65
1062.07627	21046.65
1065.76003	21093.55
1069.44126	21128.45
1073.11995	21226.15
1076.79611	21312.45
1080.46974	21487.65
1084.14085	21751.85
1087.80943	22048.05
1091.47549	22204.05
1095.13903	21946.65
1098.80005	21572.85
1102.45857	21282.55
1106.11456	21216.55
1109.76805	21381.95
1113.41903	21689.85
1117.06751	22090.85
1120.71348	22571.05
1124.35696	23044.15
1127.99793	23432.75
1131.63641	23305.15
1135.2724	22691.25
1138.90589	22160.75
1142.5369	21786.75
1146.16542	21550.55
1149.79145	21364.85
1153.415	21344.45
1157.03607	21451.65
1160.65467	21667.05
1164.27079	22037.55
1167.88443	22596.45
1171.49561	23577.55
1175.10432	25164.45
1178.71056	27402.65
1182.31434	29255.65
1185.91565	29944.05
1189.51451	29365.55
1193.11091	27969.75
1196.70485	26356.25
1200.29634	25298.35
1203.88538	24599.15
1207.47197	23919.65
1211.05612	23267.55
1214.63782	22877.25
1218.21708	22820.25
1221.79391	22897.85
1225.36829	22993.45
1228.94024	23070.75
1232.50976	23055.05
1236.07685	23018.05
1239.6415	23164.95
1243.20374	23330.55
1246.76355	23543.55
1250.32093	23832.25
1253.8759	24258.15
1257.42845	24770.05
1260.97859	25160.45
1264.52631	25469.85
1268.07163	25714.75
1271.61453	26036.55
1275.15503	26375.25
1278.69312	26689.65
1282.22882	26925.25
1285.76211	27243.85
1289.29301	27638.85
1292.82151	28058.65
1296.34761	28551.05
1299.87133	29426.25
1303.39266	30972.55
1306.9116	33276.65
1310.42815	35750.45
1313.94233	36811.25
1317.45412	35877.15
1320.96354	33891.85
1324.47058	31863.45
1327.97525	30161.85
1331.47754	29349.85
1334.97747	29368.75
1338.47502	30045.25
1341.97022	31130.65
1345.46305	32160.25
1348.95352	33218.65
1352.44163	34410.05
1355.92738	36460.55
1359.41078	39885.55
1362.89183	43205.45
1366.37053	42009.65
1369.84688	37060.95
1373.32088	32188.55
1376.79254	29065.75
1380.26186	27459.15
1383.72883	26608.05
1387.19347	26078.65
1390.65578	25600.65
1394.11575	25190.95
1397.57339	24901.35
1401.0287	25011.55
1404.48168	25318.55
1407.93234	25899.35
1411.38068	26538.55
1414.82669	26999.85
1418.27039	26922.65
1421.71177	26475.95
1425.15083	26073.65
1428.58758	25910.25
1432.02203	26023.75
1435.45416	26138.85
1438.88399	26098.15
1442.31151	26060.65
1445.73673	26087.25
1449.15965	26164.75
1452.58027	26051.95
1455.9986	25811.95
1459.41463	25669.55
1462.82837	25700.75
1466.23982	26013.75
1469.64898	26451.65
1473.05586	26847.05
1476.46045	27180.95
1479.86276	27695.05
1483.26279	28287.85
1486.66054	28935.55
1490.05602	29707.75
1493.44922	30727.55
1496.84016	31940.75
1500.22882	33712.45
1503.61521	36115.05
1506.99934	38951.75
1510.38121	41223.85
1513.76081	41598.95
1517.13816	39463.45
1520.51324	35870.15
1523.88607	32597.05
1527.25665	30445.85
1530.62498	29196.05
1533.99105	28428.35
1537.35488	28057.75
1540.71647	27929.75
1544.07581	27934.15
1547.4329	28060.15
1550.78776	28116.75
1554.14038	28102.45
1557.49077	28167.35
1560.83892	28370.45
1564.18484	28660.15
1567.52853	28970.15
1570.86999	29240.55
1574.20922	29419.85
1577.54624	29187.45
1580.88103	28399.25
1584.2136	27425.35
1587.54395	27070.75
1590.87208	27481.15
1594.19801	28737.95
1597.52172	30410.05
1600.84321	31263.35
1604.16251	30774.95
1607.47959	29457.75
1610.79447	27925.75
1614.10715	26420.25
1617.41763	25268.55
1620.7259	24551.45
1624.03199	24219.55
1627.33587	24322.25
1630.63757	24613.65
1633.93707	25351.15
1637.23439	26377.75
1640.52951	27647.35
1643.82246	29249.65
1647.11321	31051.15
1650.40179	32242.85
1653.68819	31519.45
1656.97241	28895.15
1660.25446	26036.45
1663.53433	24169.55
1666.81203	22975.25
1670.08756	22303.85
1673.36092	21910.25
1676.63211	21606.75
1679.90115	21404.45
1683.16801	21170.05
1686.43272	21052.35
1689.69527	21002.45
1692.95567	20936.45
1696.2139	20949.05
1699.46999	20943.15
1702.72392	20948.75
1705.97571	20924.45
1709.22535	20877.65
1712.47284	20917.75
1715.71819	20939.25
1718.96139	20929.65
1722.20246	20890.45
1725.44139	20842.05
1728.67818	20793.85
1731.91284	20687.65
1735.14537	20619.15
1738.37576	20536.05
1741.60403	20542.25
1744.83017	20499.65
1748.05418	20461.15
1751.27607	20461.95
1754.49584	20469.75
1757.71349	20439.95
1760.92903	20497.95
1764.14244	20462.25
1767.35375	20465.35
1770.56294	20418.25
1773.77002	20397.25
1776.97499	20394.55
1780.17785	20340.75
1783.37861	20369.75
1786.57727	20361.15
1789.77382	20350.05
1792.96828	20338.25
1796.16064	20269.25
1799.3509	20245.85
1802.53907	20244.45
1805.72514	20218.45
1808.90913	20175.45
1812.09102	20172.65
1815.27083	20120.35
1818.44856	20124.65
1821.6242	20104.65
1824.79776	20085.45
1827.96924	20100.15
1831.13864	20085.55
1834.30597	20055.45
1837.47122	20052.75
1840.6344	20038.65
1843.7955	20061.05
1846.95454	20013.65
1850.11151	20037.75
1853.26642	20034.85
1856.41926	20019.25
1859.57004	20042.25
1862.71876	20052.35
1865.86542	20023.95
1869.01003	20048.45
1872.15258	20052.15
1875.29308	20075.85
1878.43152	20059.05
1881.56792	20058.05
1884.70227	20039.65
1887.83457	20017.95
1890.96482	20003.85
1894.09304	20009.85
1897.21921	20001.65
1900.34335	19991.45
1903.46544	19945.55
1906.58551	19967.75
1909.70353	19941.85
1912.81953	19991.05
1915.93349	19909.45
1919.04543	19897.95
1922.15534	19860.55
1925.26322	19841.15
1928.36908	19817.25
1931.47292	19828.25
1934.57473	19825.45
1937.67453	19763.55
1940.77232	19735.55
1943.86808	19691.05
1946.96184	19641.65
1950.05358	19614.25
1953.14331	19546.55
1956.23103	19530.95
1959.31675	19443.55
1962.40046	19388.45
1965.48217	19356.05
1968.56188	19292.85
1971.63959	19263.35
1974.7153	19219.95
1977.78901	19154.95
1980.86073	19128.25
1983.93046	19057.95
1986.99819	19017.45
1990.06394	18951.75
1993.1277	18939.85
1996.18947	18829.25
1999.24925	18822.25
2002.30706	18792.15
2005.36288	18737.25
2008.41672	18665.95
2011.46859	18646.75
2014.51848	18604.45
2017.56639	18547.35
2020.61233	18513.65
2023.6563	18473.45
2026.6983	18421.35
2029.73833	18394.15
2032.7764	18369.25
2035.8125	18347.35
2038.84664	18306.25
2041.87881	18271.25
2044.90903	18218.85
2047.93729	18210.65
2050.96359	18216.65
2053.98794	18212.15
2057.01034	18193.15
2060.03078	18187.55
2063.04927	18183.35
2066.06582	18172.05
2069.08042	18120.25
2072.09307	18135.15
2075.10378	18101.55
2078.11255	18096.25
2081.11938	18125.35
2084.12426	18088.35
2087.12722	18096.55
2090.12824	18080.15
2093.12732	18074.35
2096.12447	18096.95
2099.11969	18111.75
2102.11299	18110.65
2105.10435	18139.35
2108.09379	18126.75
2111.08131	18145.65
2114.0669	18131.45
2117.05057	18177.75
2120.03233	18220.25
2123.01216	18210.25
2125.99008	18224.85
2128.96609	18221.25
2131.94018	18245.45
2134.91236	18220.85
2137.88263	18294.55
2140.851	18255.15
2143.81746	18307.95
2146.78201	18329.45
2149.74466	18323.75
2152.7054	18334.35
2155.66425	18330.55
2158.6212	18302.95
2161.57625	18323.25
2164.52941	18299.75
2167.48067	18324.95
2170.43004	18302.45
2173.37752	18321.35
2176.32311	18369.25
2179.26681	18369.65
2182.20863	18332.35
2185.14856	18324.05
2188.08661	18314.45
2191.02278	18337.35
2193.95707	18335.85
2196.88948	18317.65
2199.82001	18294.45
2202.74867	18292.25
2205.67545	18311.05
2208.60037	18278.45
2211.52341	18267.95
2214.44458	18254.05
2217.36388	18246.65
2220.28132	18198.15
2223.1969	18158.65
2226.11061	18149.55
2229.02246	18103.35
2231.93245	18069.95
2234.84058	18044.65
2237.74686	17990.75
2240.65128	18001.55
2243.55385	17929.35
2246.45456	17999.95
2249.35343	17960.75
2252.25044	17907.75
2255.14561	17930.55
2258.03893	17929.95
2260.93041	17890.15
2263.82004	17856.25
2266.70783	17829.95
2269.59378	17802.85
2272.4779	17763.95
2275.36017	17710.25
2278.24061	17693.55
2281.11922	17633.35
2283.996	17603.75
2286.87094	17598.35
2289.74405	17551.55
2292.61534	17542.95
2295.4848	17525.35
2298.35243	17573.75
2301.21824	17540.85
2304.08223	17539.85
2306.94439	17526.85
2309.80474	17527.95
2312.66327	17526.75
2315.51999	17527.65
2318.37489	17501.95
2321.22797	17501.65
2324.07925	17472.05
2326.92871	17445.25
2329.77637	17459.45
2332.62222	17385.45
2335.46626	17421.25
2338.3085	17398.95
2341.14893	17364.25
2343.98756	17405.95
2346.8244	17394.55
2349.65943	17380.25
2352.49267	17376.45
2355.32411	17412.55
2358.15376	17414.65
2360.98161	17382.25
2363.80768	17369.75
2366.63195	17383.15
2369.45444	17339.25
2372.27514	17311.55
2375.09405	17269.15
2377.91118	17223.35
2380.72652	17195.85
2383.54009	17141.75
2386.35187	17134.45
2389.16188	17064.35
2391.97011	17055.85
2394.77657	16984.15
2397.58125	16974.55
2400.38416	16955.45
2403.18529	16923.15
2405.98466	16872.15
2408.78226	16847.95
2411.57809	16815.65
2414.37216	16805.15
2417.16446	16770.05
2419.955	16789.45
2422.74378	16783.05
2425.5308	16732.25
2428.31606	16738.35
2431.09956	16746.85
2433.88131	16718.95
2436.6613	16764.65
2439.43954	16732.05
2442.21603	16719.05
2444.99077	16671.05
2447.76377	16695.75
2450.53501	16680.45
2453.30451	16667.15
2456.07226	16643.85
2458.83827	16621.45
2461.60254	16617.45
2464.36507	16571.75
2467.12586	16587.15
2469.88492	16561.35
2472.64224	16569.15
2475.39782	16597.85
2478.15167	16574.95
2480.90379	16597.05
2483.65417	16589.95
2486.40283	16592.05
2489.14976	16617.85
2491.89497	16622.95
2494.63845	16642.15
2497.3802	16602.65
2500.12024	16598.65
2502.85855	16557.15
2505.59514	16567.25
2508.33002	16505.75
2511.06318	16441.45
2513.79462	16413.75
2516.52435	16411.65
2519.25237	16411.85
2521.97867	16376.45
2524.70327	16376.05
2527.42616	16326.05
2530.14734	16301.15
2532.86681	16315.55
2535.58458	16291.15
2538.30065	16285.95
2541.01501	16315.15
2543.72768	16279.65
2546.43864	16250.05
2549.14791	16226.05
2551.85548	16187.55
2554.56136	16189.55
2557.26554	16150.45
2559.96803	16092.65
2562.66883	16124.05
2565.36794	16079.15
2568.06536	16079.45
2570.7611	16056.25
2573.45514	16038.65
2576.14751	15991.65
2578.83819	16001.85
2581.52719	15963.65
2584.21451	15943.45
2586.90015	15936.85
2589.58411	15872.75
2592.2664	15865.75
2594.94701	15842.05
2597.62594	15872.35
2600.30321	15845.35
2602.9788	15841.95
2605.65273	15813.95
2608.32498	15807.15
2610.99557	15763.55
2613.66449	15813.25
2616.33175	15789.65
2618.99734	15787.35
2621.66128	15780.65
2624.32355	15768.25
2626.98416	15733.95
2629.64311	15687.75
2632.30041	15729.35
2634.95605	15687.45
2637.61004	15706.95
2640.26238	15639.35
2642.91306	15660.95
2645.56209	15612.85
2648.20948	15592.75
2650.85521	15582.15
2653.4993	15564.25
2656.14175	15571.55
2658.78255	15572.05
2661.42171	15585.45
2664.05923	15611.65
2666.6951	15603.75
2669.32934	15619.95
2671.96194	15621.05
2674.59291	15599.45
2677.22224	15638.95
2679.84993	15654.55
2682.476	15619.15
2685.10043	15649.85
2687.72324	15598.85
2690.34441	15609.35
2692.96396	15604.15
2695.58188	15611.75
2698.19818	15587.85
2700.81285	15580.45
2703.4259	15593.45
2706.03733	15635.15
2708.64714	15604.55
2711.25533	15594.35
2713.86191	15605.15
2716.46687	15624.95
2719.07021	15619.85
2721.67194	15626.65
2724.27206	15587.05
2726.87057	15654.55
2729.46747	15625.65
2732.06276	15647.15
2734.65644	15620.55
2737.24852	15625.35
2739.83899	15581.95
2742.42786	15587.65
2745.01513	15561.75
2747.60079	15575.75
2750.18486	15554.75
2752.76733	15512.45
2755.3482	15523.85
2757.92747	15510.95
2760.50515	15498.45
2763.08123	15491.95
2765.65573	15447.35
2768.22863	15449.05
2770.79994	15417.05
2773.36967	15391.45
2775.9378	15406.75
2778.50435	15403.25
2781.06932	15376.05
2783.6327	15377.75
2786.1945	15351.35
2788.75471	15331.15
2791.31335	15292.65
2793.87041	15307.95
2796.42589	15214.55
2798.97979	15254.75
2801.53212	15179.65
2804.08288	15187.05
2806.63206	15175.15
2809.17967	15102.75
2811.72571	15056.35
2814.27018	15044.75
2816.81308	15036.75
2819.35442	15028.95
2821.89419	15026.55
2824.43239	15056.85
2826.96904	15020.45
2829.50412	15022.95
2832.03763	14976.55
2834.56959	15013.15
2837.1	14964.75
2839.62884	14971.15
2842.15613	14926.65
2844.68186	14952.75
2847.20604	14909.95
2849.72867	14883.75
2852.24974	14910.75
2854.76927	14883.75
2857.28724	14863.85
2859.80367	14853.05
2862.31855	14832.25
2864.83189	14804.45
2867.34368	14804.25
2869.85393	14799.45
2872.36264	14787.35
2874.8698	14769.85
2877.37543	14771.55
2879.87952	14784.05
2882.38207	14697.45
2884.88308	14736.25
2887.38256	14719.15
2889.88051	14706.75
2892.37692	14740.15
2894.8718	14727.05
2897.36515	14723.35
2899.85698	14737.35
2902.34727	14734.75
2904.83604	14750.15
2907.32328	14771.45
2909.809	14782.85
2912.29319	14771.65
2914.77587	14787.65
2917.25702	14776.25
2919.73665	14719.95
2922.21476	14746.15
2924.69136	14738.75
2927.16644	14741.85
2929.64	14716.35
2932.11205	14693.25
2934.58258	14646.45
2937.05161	14671.25
2939.51912	14674.35
2941.98513	14674.95
2944.44962	14674.85
2946.91261	14628.15
2949.37409	14651.55
2951.83407	14624.95
2954.29254	14629.85
2956.74951	14628.65
2959.20498	14645.15
2961.65895	14613.85
2964.11142	14589.75
2966.56239	14590.95
2969.01186	14571.85
2971.45984	14553.35
2973.90632	14517.45
2976.35131	14509.65
2978.7948	14496.15
2981.23681	14458.25
2983.67732	14462.15
2986.11635	14421.85
2988.55388	14413.45
2990.98993	14336.55
2993.4245	14343.15
2995.85758	14323.25
2998.28917	14269.55
3000.71928	14258.85
3003.14791	14224.95
3005.57506	14223.55
3008.00073	14166.35
3010.42493	14171.35
3012.84764	14117.25
3015.26888	14140.95
3017.68865	14101.25
3020.10694	14127.05
3022.52376	14029.05
3024.9391	14071.05
3027.35298	14014.85
3029.76539	14016.65
3032.17632	13995.65
3034.5858	13972.45
3036.9938	13987.25
3039.40034	13968.95
3041.80542	13981.45
3044.20903	13952.25
3046.61118	13923.95
3049.01187	13893.05
3051.4111	13885.95
3053.80888	13847.05
3056.20519	13786.25
3058.60005	13762.65
3060.99345	13764.95
3063.3854	13722.65
3065.7759	13696.45
3068.16494	13631.85
3070.55254	13586.15
3072.93868	13574.05
3075.32338	13528.35
3077.70662	13523.65
3080.08842	13475.45
3082.46878	13476.25
3084.84769	13439.25
3087.22515	13430.75
3089.60118	13440.75
3091.97576	13417.95
3094.3489	13416.45
3096.72061	13421.35
3099.09087	13451.25
3101.4597	13468.55
3103.82709	13436.65
3106.19305	13408.95
3108.55757	13418.45
3110.92066	13385.15
3113.28232	13360.45
3115.64255	13302.45
3118.00134	13289.45
3120.35871	13263.35
3122.71466	13263.35
3125.06917	13256.05
3127.42226	13189.25
3129.77393	13230.35
3132.12417	13188.45
3134.47299	13174.55
3136.82039	13149.55
3139.16636	13146.65
3141.51092	13116.85
3143.85406	13152.25
3146.19579	13155.45
3148.53609	13155.35
3150.87499	13162.75
3153.21246	13170.05
3155.54853	13209.45
3157.88318	13177.45
3160.21642	13202.25
3162.54826	13200.75
3164.87868	13154.05
3167.2077	13164.85
3169.5353	13192.85
3171.86151	13188.65
3174.18631	13161.45
3176.5097	13146.75
3178.83169	13127.85
3181.15228	13108.35
3183.47147	13075.85
3185.78926	13071.95
3188.10565	13093.95
3190.42065	13051.05
3192.73424	13024.15
3195.04645	13019.05
3197.35725	13016.25
3199.66667	13052.45
3201.97469	13043.65
3204.28132	13036.65
3206.58656	13067.35
3208.8904	13059.55
3211.19287	13069.95
3213.49394	13061.75
3215.79363	13082.95
3218.09193	13097.05
3220.38884	13091.95
3222.68438	13121.85
3224.97853	13090.25
3227.2713	13096.15
3229.56269	13057.95
3231.8527	13064.15
3234.14133	13025.65
3236.42858	12993.35
3238.71446	12978.55
3240.99896	12960.25
3243.28209	12927.45
3245.56384	12926.45
3247.84423	12932.35
3250.12324	12916.85
3252.40088	12878.45
3254.67715	12855.55
3256.95205	12867.95
3259.22558	12869.95
3261.49775	12873.15
3263.76855	12825.85
3266.03799	12815.55
3268.30606	12809.05
3270.57277	12804.25
3272.83812	12777.75
3275.10211	12748.85
3277.36474	12725.95
3279.62601	12723.15
3281.88593	12691.45
3284.14448	12683.25
3286.40168	12676.75
3288.65753	12682.15
3290.91202	12698.65
3293.16516	12658.95
3295.41695	12637.85
3297.66738	12568.05
3299.91647	12506.45
3302.16421	12429.45
3304.4106	12366.25
3306.65564	12285.75
3308.89933	12223.35
3311.14169	12123.15
3313.38269	12026.15
3315.62236	11973.35
3317.86068	11895.05
3320.09766	11795.15
3322.3333	11720.05
3324.5676	11652.25
3326.80056	11489.05
3329.03219	11394.15
3331.26248	3.55
3333.49143	1.45
3335.71905	-0.95
