Data from AgNPs_FTO_APTES_UA_20uM_CRN_0uM_R6G_10uM_NaF_0.1M_Addition_RamanShift__28__11-22-21-960.txt Node

Date: Thu Feb 17 11:22:21 GMT 2022
User: TCL
Spectrometer: QEP01345
Trigger mode: 4
Integration Time (sec): 7.000000E0
Scans to average: 10
Electric dark correction enabled: true
Nonlinearity correction enabled: false
Boxcar width: 0
XAxis mode: Raman Shifts
Number of Pixels in Spectrum: 1044
>>>>>Begin Spectral Data<<<<<
46.04893	1.55
50.45542	-0.65
54.85868	-1.55
59.25871	0.35
63.6555	32.85
68.04907	31.25
72.43941	37.65
76.82654	36.75
81.21044	41.05
85.59113	45.65
89.96862	46.25
94.34289	47.45
98.71396	45.25
103.08183	50.35
107.4465	47.55
111.80798	47.75
116.16626	52.15
120.52136	52.05
124.87327	50.85
129.222	52.45
133.56755	54.45
137.90993	55.65
142.24913	57.35
146.58517	64.85
150.91804	75.25
155.24774	84.05
159.57429	103.05
163.89768	126.85
168.21792	168.55
172.53501	226.55
176.84895	304.15
181.15975	428.65
185.46741	594.95
189.77193	806.45
194.07331	1082.65
198.37157	1388.85
202.6667	1718.85
206.9587	2036.15
211.24758	2376.05
215.53334	2746.15
219.81599	3177.65
224.09553	3646.65
228.37195	4193.55
232.64527	4793.55
236.91549	5383.05
241.18261	5910.65
245.44663	6307.35
249.70755	6606.95
253.96539	6782.95
258.22014	6847.25
262.4718	6850.25
266.72039	6805.15
270.96589	6746.85
275.20832	6582.25
279.44768	6399.95
283.68397	6198.65
287.91719	6086.15
292.14735	6167.45
296.37445	6471.35
300.59849	7011.25
304.81948	7677.55
309.03742	8246.65
313.25231	8389.55
317.46415	7871.65
321.67296	6908.85
325.87872	6057.05
330.08145	5652.15
334.28114	5625.55
338.47781	5778.35
342.67145	6055.75
346.86207	6492.85
351.04966	7196.95
355.23424	8012.05
359.4158	8611.15
363.59435	8863.15
367.76989	8887.55
371.94243	8739.75
376.11196	8564.85
380.27849	8385.85
384.44203	8129.85
388.60257	7811.65
392.76012	7605.55
396.91468	7609.65
401.06626	7862.75
405.21485	8086.75
409.36047	7780.55
413.50311	7020.85
417.64277	6281.75
421.77947	5868.45
425.9132	5693.55
430.04396	5715.35
434.17176	5802.25
438.2966	6030.45
442.41849	6447.25
446.53742	6937.25
450.6534	7340.55
454.76644	7494.65
458.87653	7288.55
462.98368	6929.95
467.08789	6541.25
471.18916	6196.55
475.2875	5811.95
479.38291	5467.15
483.4754	5197.35
487.56496	5010.35
491.6516	4943.95
495.73531	4928.95
499.81612	4959.45
503.89401	5083.05
507.96899	5282.25
512.04106	5494.95
516.11023	5771.35
520.1765	6005.25
524.23987	6029.55
528.30034	5892.25
532.35792	5686.45
536.41261	5432.55
540.46441	5149.25
544.51333	4985.15
548.55936	4969.05
552.60252	5139.65
556.64279	5402.15
560.6802	5559.15
564.71473	5711.85
568.7464	6220.75
572.7752	6520.85
576.80114	6059.85
580.82422	5475.95
584.84444	5250.65
588.86181	5425.45
592.87633	5863.65
596.888	6114.75
600.89682	6180.65
604.9028	7378.75
608.90594	11198.35
612.90624	16648.85
616.90371	16174.05
620.89834	9315.75
624.89015	5793.85
628.87913	5054.65
632.86528	5068.85
636.84862	5217.05
640.82913	5066.45
644.80683	4579.55
648.78172	4251.05
652.75379	4295.85
656.72306	4802.25
660.68952	5372.15
664.65319	5205.05
668.61405	4525.85
672.57211	4198.75
676.52738	4166.75
680.47986	4112.45
684.42955	4005.15
688.37646	3964.35
692.32058	4009.15
696.26192	4151.15
700.20048	4314.75
704.13626	4410.45
708.06928	4375.25
711.99952	4268.05
715.927	4237.85
719.85171	4310.95
723.77365	4343.55
727.69284	4247.35
731.60928	4216.35
735.52295	4254.95
739.43388	4295.55
743.34206	4311.45
747.24749	4304.25
751.15017	4309.15
755.05012	4448.15
758.94733	4974.35
762.8418	6209.65
766.73354	8356.25
770.62254	10618.75
774.50882	12104.55
778.39237	11869.45
782.27321	9575.75
786.15132	6891.15
790.02671	5359.55
793.89938	4702.35
797.76935	4459.05
801.6366	4325.35
805.50115	4249.35
809.36299	4214.85
813.22213	4176.95
817.07857	4136.25
820.93231	4128.95
824.78336	4156.65
828.63172	4204.55
832.47738	4240.65
836.32036	4189.85
840.16066	4096.55
843.99827	4023.25
847.8332	3976.15
851.66546	3973.55
855.49504	4004.65
859.32195	3981.85
863.1462	3906.55
866.96777	3873.45
870.78668	3868.95
874.60293	3908.85
878.41652	3960.15
882.22745	4031.45
886.03573	4094.05
889.84136	4054.25
893.64433	4006.75
897.44466	4001.25
901.24235	3988.85
905.0374	3926.95
908.8298	3848.05
912.61957	3783.35
916.40671	3792.95
920.19121	3835.85
923.97308	3918.45
927.75233	4058.45
931.52895	4207.45
935.30295	4128.35
939.07433	3839.25
942.84309	3589.55
946.60924	3440.75
950.37278	3367.75
954.13371	3329.05
957.89203	3315.95
961.64774	3281.65
965.40086	3259.75
969.15137	3254.65
972.89929	3255.35
976.64461	3255.65
980.38733	3269.65
984.12747	3266.35
987.86502	3293.85
991.59999	3337.85
995.33237	3421.25
999.06217	3585.05
1002.78939	3780.75
1006.51404	3941.45
1010.23611	4117.05
1013.95561	4257.35
1017.67255	4187.45
1021.38692	3972.05
1025.09872	3739.25
1028.80796	3600.55
1032.51465	3566.65
1036.21877	3632.15
1039.92035	3753.25
1043.61937	3826.85
1047.31584	3852.05
1051.00976	3824.35
1054.70114	3746.25
1058.38998	3704.85
1062.07627	3662.85
1065.76003	3671.65
1069.44126	3687.85
1073.11995	3789.55
1076.79611	4002.85
1080.46974	4293.95
1084.14085	4689.05
1087.80943	5041.45
1091.47549	5093.95
1095.13903	4859.45
1098.80005	4415.45
1102.45857	4116.75
1106.11456	4078.45
1109.76805	4253.45
1113.41903	4570.85
1117.06751	5070.25
1120.71348	5719.15
1124.35696	6462.15
1127.99793	6934.35
1131.63641	6655.75
1135.2724	5829.55
1138.90589	5123.45
1142.5369	4749.75
1146.16542	4499.35
1149.79145	4368.15
1153.415	4306.15
1157.03607	4379.45
1160.65467	4560.15
1164.27079	4955.45
1167.88443	5590.75
1171.49561	6647.45
1175.10432	8394.45
1178.71056	10704.35
1182.31434	12379.55
1185.91565	12690.05
1189.51451	12081.55
1193.11091	10959.65
1196.70485	9649.65
1200.29634	8547.35
1203.88538	7568.35
1207.47197	6537.65
1211.05612	5723.25
1214.63782	5358.15
1218.21708	5288.45
1221.79391	5261.05
1225.36829	5143.75
1228.94024	4975.65
1232.50976	4872.85
1236.07685	4930.65
1239.6415	5102.15
1243.20374	5241.15
1246.76355	5239.25
1250.32093	5282.95
1253.8759	5500.35
1257.42845	5865.95
1260.97859	6359.85
1264.52631	6925.55
1268.07163	7389.35
1271.61453	7689.85
1275.15503	7802.75
1278.69312	7714.45
1282.22882	7774.95
1285.76211	8192.95
1289.29301	8891.85
1292.82151	9606.85
1296.34761	10292.85
1299.87133	11181.55
1303.39266	12661.15
1306.9116	15133.95
1310.42815	17872.05
1313.94233	19094.75
1317.45412	17917.35
1320.96354	15402.25
1324.47058	12879.95
1327.97525	10875.55
1331.47754	9880.95
1334.97747	9739.25
1338.47502	10199.65
1341.97022	10804.35
1345.46305	11654.05
1348.95352	13191.85
1352.44163	15446.95
1355.92738	18568.75
1359.41078	22655.05
1362.89183	25660.25
1366.37053	24061.25
1369.84688	19262.45
1373.32088	14841.55
1376.79254	12012.95
1380.26186	10468.75
1383.72883	9387.85
1387.19347	8469.45
1390.65578	7531.65
1394.11575	6931.15
1397.57339	6644.45
1401.0287	6625.05
1404.48168	6709.25
1407.93234	6807.85
1411.38068	6907.25
1414.82669	6941.15
1418.27039	6788.55
1421.71177	6608.95
1425.15083	6521.95
1428.58758	6669.45
1432.02203	6980.85
1435.45416	7258.85
1438.88399	7352.85
1442.31151	7289.45
1445.73673	7232.55
1449.15965	7217.25
1452.58027	7048.55
1455.9986	6738.35
1459.41463	6623.45
1462.82837	6815.55
1466.23982	7238.35
1469.64898	7734.85
1473.05586	8120.45
1476.46045	8424.75
1479.86276	8786.45
1483.26279	9127.95
1486.66054	9372.55
1490.05602	9732.65
1493.44922	10192.65
1496.84016	11004.45
1500.22882	12793.55
1503.61521	15533.05
1506.99934	18613.95
1510.38121	21298.65
1513.76081	22140.65
1517.13816	19934.95
1520.51324	15909.55
1523.88607	12355.05
1527.25665	10247.85
1530.62498	9272.45
1533.99105	8840.15
1537.35488	8581.35
1540.71647	8428.15
1544.07581	8350.15
1547.4329	8243.85
1550.78776	8015.85
1554.14038	7806.35
1557.49077	7673.15
1560.83892	7773.75
1564.18484	8163.65
1567.52853	8792.65
1570.86999	9453.15
1574.20922	9857.25
1577.54624	9735.45
1580.88103	8795.05
1584.2136	7500.55
1587.54395	6808.65
1590.87208	6964.15
1594.19801	7900.65
1597.52172	9366.65
1600.84321	10343.15
1604.16251	10124.75
1607.47959	8884.75
1610.79447	7371.95
1614.10715	6007.45
1617.41763	5106.25
1620.7259	4612.35
1624.03199	4425.25
1627.33587	4454.95
1630.63757	4678.35
1633.93707	5197.55
1637.23439	6171.05
1640.52951	7786.15
1643.82246	10123.55
1647.11321	12720.65
1650.40179	14227.95
1653.68819	13297.65
1656.97241	10360.55
1660.25446	7415.95
1663.53433	5492.25
1666.81203	4417.05
1670.08756	3836.75
1673.36092	3486.75
1676.63211	3272.95
1679.90115	3129.05
1683.16801	3012.55
1686.43272	2923.45
1689.69527	2875.05
1692.95567	2845.15
1696.2139	2824.95
1699.46999	2821.55
1702.72392	2811.25
1705.97571	2783.95
1709.22535	2729.85
1712.47284	2726.55
1715.71819	2760.05
1718.96139	2768.55
1722.20246	2747.75
1725.44139	2714.05
1728.67818	2660.05
1731.91284	2581.35
1735.14537	2527.55
1738.37576	2436.15
1741.60403	2451.85
1744.83017	2435.95
1748.05418	2419.55
1751.27607	2405.05
1754.49584	2396.85
1757.71349	2385.95
1760.92903	2374.25
1764.14244	2359.65
1767.35375	2345.45
1770.56294	2319.35
1773.77002	2295.95
1776.97499	2264.75
1780.17785	2242.95
1783.37861	2216.15
1786.57727	2198.65
1789.77382	2188.85
1792.96828	2184.05
1796.16064	2169.45
1799.3509	2159.55
1802.53907	2152.05
1805.72514	2141.35
1808.90913	2125.45
1812.09102	2106.55
1815.27083	2089.75
1818.44856	2064.05
1821.6242	2061.25
1824.79776	2046.85
1827.96924	2044.35
1831.13864	2037.15
1834.30597	2022.75
1837.47122	2017.75
1840.6344	2008.35
1843.7955	1988.35
1846.95454	1988.85
1850.11151	1993.05
1853.26642	1989.15
1856.41926	1980.75
1859.57004	1982.75
1862.71876	1967.65
1865.86542	1973.15
1869.01003	1967.95
1872.15258	1966.65
1875.29308	1971.45
1878.43152	1969.65
1881.56792	1970.05
1884.70227	1970.25
1887.83457	1966.05
1890.96482	1967.45
1894.09304	1963.15
1897.21921	1966.65
1900.34335	1965.05
1903.46544	1962.75
1906.58551	1962.65
1909.70353	1977.05
1912.81953	1962.15
1915.93349	1961.45
1919.04543	1955.85
1922.15534	1944.55
1925.26322	1933.95
1928.36908	1933.65
1931.47292	1914.15
1934.57473	1900.35
1937.67453	1880.15
1940.77232	1860.35
1943.86808	1859.05
1946.96184	1855.25
1950.05358	1836.05
1953.14331	1822.85
1956.23103	1824.05
1959.31675	1826.25
1962.40046	1822.55
1965.48217	1808.95
1968.56188	1811.25
1971.63959	1819.75
1974.7153	1817.25
1977.78901	1791.15
1980.86073	1804.05
1983.93046	1780.45
1986.99819	1766.15
1990.06394	1753.45
1993.1277	1743.05
1996.18947	1734.95
1999.24925	1730.55
2002.30706	1703.45
2005.36288	1696.35
2008.41672	1697.75
2011.46859	1682.35
2014.51848	1683.85
2017.56639	1676.05
2020.61233	1676.05
2023.6563	1657.15
2026.6983	1655.65
2029.73833	1645.35
2032.7764	1641.85
2035.8125	1636.45
2038.84664	1624.85
2041.87881	1630.65
2044.90903	1625.25
2047.93729	1616.65
2050.96359	1614.35
2053.98794	1612.15
2057.01034	1609.35
2060.03078	1599.75
2063.04927	1585.35
2066.06582	1579.55
2069.08042	1578.85
2072.09307	1583.25
2075.10378	1581.35
2078.11255	1574.65
2081.11938	1570.65
2084.12426	1572.95
2087.12722	1565.05
2090.12824	1565.15
2093.12732	1565.45
2096.12447	1569.45
2099.11969	1561.65
2102.11299	1554.55
2105.10435	1557.35
2108.09379	1555.45
2111.08131	1556.05
2114.0669	1550.75
2117.05057	1555.65
2120.03233	1558.85
2123.01216	1559.85
2125.99008	1559.85
2128.96609	1551.65
2131.94018	1551.45
2134.91236	1552.05
2137.88263	1552.15
2140.851	1554.85
2143.81746	1536.35
2146.78201	1530.45
2149.74466	1523.05
2152.7054	1524.25
2155.66425	1514.35
2158.6212	1519.95
2161.57625	1513.25
2164.52941	1506.85
2167.48067	1497.85
2170.43004	1493.35
2173.37752	1496.95
2176.32311	1499.95
2179.26681	1492.85
2182.20863	1500.65
2185.14856	1506.35
2188.08661	1503.05
2191.02278	1496.85
2193.95707	1491.35
2196.88948	1479.25
2199.82001	1476.05
2202.74867	1480.65
2205.67545	1464.15
2208.60037	1475.25
2211.52341	1472.25
2214.44458	1465.85
2217.36388	1456.85
2220.28132	1450.75
2223.1969	1427.45
2226.11061	1436.45
2229.02246	1421.05
2231.93245	1417.35
2234.84058	1419.05
2237.74686	1420.45
2240.65128	1422.95
2243.55385	1412.65
2246.45456	1428.05
2249.35343	1406.15
2252.25044	1422.85
2255.14561	1425.95
2258.03893	1422.05
2260.93041	1430.45
2263.82004	1430.55
2266.70783	1429.85
2269.59378	1419.45
2272.4779	1414.65
2275.36017	1406.65
2278.24061	1405.05
2281.11922	1403.25
2283.996	1396.35
2286.87094	1380.05
2289.74405	1371.65
2292.61534	1378.45
2295.4848	1376.15
2298.35243	1356.35
2301.21824	1352.05
2304.08223	1351.65
2306.94439	1349.15
2309.80474	1354.45
2312.66327	1344.55
2315.51999	1346.85
2318.37489	1348.65
2321.22797	1346.95
2324.07925	1345.35
2326.92871	1341.85
2329.77637	1349.55
2332.62222	1340.35
2335.46626	1347.25
2338.3085	1336.75
2341.14893	1343.85
2343.98756	1333.35
2346.8244	1345.05
2349.65943	1345.75
2352.49267	1362.25
2355.32411	1366.65
2358.15376	1381.25
2360.98161	1396.25
2363.80768	1421.35
2366.63195	1417.95
2369.45444	1435.05
2372.27514	1438.95
2375.09405	1435.05
2377.91118	1431.75
2380.72652	1416.15
2383.54009	1394.65
2386.35187	1376.35
2389.16188	1359.25
2391.97011	1347.45
2394.77657	1326.85
2397.58125	1320.55
2400.38416	1313.25
2403.18529	1301.15
2405.98466	1297.65
2408.78226	1287.85
2411.57809	1291.05
2414.37216	1290.05
2417.16446	1287.15
2419.955	1287.15
2422.74378	1281.85
2425.5308	1283.65
2428.31606	1285.95
2431.09956	1299.85
2433.88131	1292.75
2436.6613	1310.05
2439.43954	1309.75
2442.21603	1315.15
2444.99077	1312.25
2447.76377	1328.15
2450.53501	1324.15
2453.30451	1332.25
2456.07226	1343.95
2458.83827	1335.65
2461.60254	1343.35
2464.36507	1333.45
2467.12586	1334.35
2469.88492	1343.15
2472.64224	1334.65
2475.39782	1344.85
2478.15167	1360.55
2480.90379	1367.25
2483.65417	1380.55
2486.40283	1399.75
2489.14976	1414.55
2491.89497	1431.75
2494.63845	1432.05
2497.3802	1434.05
2500.12024	1423.35
2502.85855	1409.95
2505.59514	1389.35
2508.33002	1364.75
2511.06318	1356.65
2513.79462	1333.55
2516.52435	1315.95
2519.25237	1298.85
2521.97867	1279.05
2524.70327	1280.15
2527.42616	1273.85
2530.14734	1272.15
2532.86681	1276.85
2535.58458	1269.25
2538.30065	1272.55
2541.01501	1272.75
2543.72768	1294.15
2546.43864	1294.05
2549.14791	1291.25
2551.85548	1291.95
2554.56136	1302.85
2557.26554	1306.35
2559.96803	1293.95
2562.66883	1295.45
2565.36794	1303.45
2568.06536	1300.55
2570.7611	1298.75
2573.45514	1292.95
2576.14751	1297.45
2578.83819	1286.95
2581.52719	1294.55
2584.21451	1276.45
2586.90015	1273.05
2589.58411	1272.95
2592.2664	1267.85
2594.94701	1269.65
2597.62594	1268.15
2600.30321	1280.55
2602.9788	1273.55
2605.65273	1284.85
2608.32498	1283.25
2610.99557	1288.85
2613.66449	1299.65
2616.33175	1288.55
2618.99734	1298.05
2621.66128	1288.45
2624.32355	1285.25
2626.98416	1277.85
2629.64311	1289.65
2632.30041	1271.15
2634.95605	1266.95
2637.61004	1261.95
2640.26238	1257.05
2642.91306	1261.15
2645.56209	1243.35
2648.20948	1262.45
2650.85521	1249.25
2653.4993	1267.35
2656.14175	1276.85
2658.78255	1272.35
2661.42171	1284.55
2664.05923	1294.25
2666.6951	1311.05
2669.32934	1299.95
2671.96194	1301.05
2674.59291	1318.45
2677.22224	1313.45
2679.84993	1320.75
2682.476	1315.05
2685.10043	1316.75
2687.72324	1305.75
2690.34441	1311.75
2692.96396	1306.95
2695.58188	1312.05
2698.19818	1321.55
2700.81285	1314.15
2703.4259	1336.15
2706.03733	1348.65
2708.64714	1345.85
2711.25533	1350.05
2713.86191	1355.85
2716.46687	1370.75
2719.07021	1369.15
2721.67194	1369.95
2724.27206	1369.65
2726.87057	1375.05
2729.46747	1374.55
2732.06276	1367.75
2734.65644	1364.85
2737.24852	1350.65
2739.83899	1350.55
2742.42786	1337.65
2745.01513	1337.15
2747.60079	1334.55
2750.18486	1325.65
2752.76733	1328.35
2755.3482	1322.05
2757.92747	1316.15
2760.50515	1326.05
2763.08123	1310.75
2765.65573	1319.85
2768.22863	1322.25
2770.79994	1318.35
2773.36967	1332.95
2775.9378	1334.15
2778.50435	1342.95
2781.06932	1363.35
2783.6327	1363.55
2786.1945	1367.65
2788.75471	1384.95
2791.31335	1390.05
2793.87041	1390.95
2796.42589	1398.95
2798.97979	1413.65
2801.53212	1422.55
2804.08288	1429.85
2806.63206	1442.95
2809.17967	1454.75
2811.72571	1465.75
2814.27018	1474.35
2816.81308	1486.15
2819.35442	1505.65
2821.89419	1513.05
2824.43239	1517.95
2826.96904	1539.15
2829.50412	1550.45
2832.03763	1551.55
2834.56959	1566.55
2837.1	1568.85
2839.62884	1591.05
2842.15613	1616.05
2844.68186	1667.85
2847.20604	1713.55
2849.72867	1758.95
2852.24974	1777.75
2854.76927	1776.45
2857.28724	1793.95
2859.80367	1778.45
2862.31855	1774.55
2864.83189	1766.15
2867.34368	1764.05
2869.85393	1756.35
2872.36264	1744.55
2874.8698	1745.25
2877.37543	1738.05
2879.87952	1726.65
2882.38207	1718.35
2884.88308	1702.85
2887.38256	1708.45
2889.88051	1697.65
2892.37692	1707.35
2894.8718	1705.95
2897.36515	1710.95
2899.85698	1701.45
2902.34727	1722.55
2904.83604	1710.25
2907.32328	1723.35
2909.809	1710.65
2912.29319	1710.55
2914.77587	1710.45
2917.25702	1700.45
2919.73665	1685.25
2922.21476	1698.35
2924.69136	1686.15
2927.16644	1676.25
2929.64	1663.65
2932.11205	1656.55
2934.58258	1632.05
2937.05161	1618.45
2939.51912	1597.35
2941.98513	1567.95
2944.44962	1540.45
2946.91261	1499.45
2949.37409	1480.55
2951.83407	1451.45
2954.29254	1443.75
2956.74951	1431.55
2959.20498	1421.05
2961.65895	1414.45
2964.11142	1409.95
2966.56239	1393.05
2969.01186	1388.25
2971.45984	1368.95
2973.90632	1361.55
2976.35131	1355.75
2978.7948	1341.35
2981.23681	1331.85
2983.67732	1327.55
2986.11635	1316.45
2988.55388	1304.25
2990.98993	1297.25
2993.4245	1291.45
2995.85758	1294.15
2998.28917	1274.35
3000.71928	1277.25
3003.14791	1277.55
3005.57506	1275.75
3008.00073	1267.95
3010.42493	1273.55
3012.84764	1274.85
3015.26888	1269.15
3017.68865	1270.85
3020.10694	1269.05
3022.52376	1269.25
3024.9391	1261.55
3027.35298	1265.05
3029.76539	1248.35
3032.17632	1248.85
3034.5858	1247.35
3036.9938	1234.95
3039.40034	1233.35
3041.80542	1231.25
3044.20903	1227.75
3046.61118	1226.45
3049.01187	1235.25
3051.4111	1224.05
3053.80888	1227.35
3056.20519	1223.85
3058.60005	1221.15
3060.99345	1229.95
3063.3854	1227.15
3065.7759	1224.35
3068.16494	1225.05
3070.55254	1225.95
3072.93868	1224.25
3075.32338	1210.75
3077.70662	1212.75
3080.08842	1200.55
3082.46878	1197.05
3084.84769	1192.45
3087.22515	1183.05
3089.60118	1185.75
3091.97576	1176.55
3094.3489	1182.85
3096.72061	1170.45
3099.09087	1169.75
3101.4597	1178.05
3103.82709	1173.55
3106.19305	1173.45
3108.55757	1166.85
3110.92066	1166.65
3113.28232	1171.95
3115.64255	1171.15
3118.00134	1170.55
3120.35871	1173.25
3122.71466	1180.05
3125.06917	1181.45
3127.42226	1181.95
3129.77393	1204.95
3132.12417	1196.65
3134.47299	1206.35
3136.82039	1204.95
3139.16636	1220.35
3141.51092	1219.75
3143.85406	1212.85
3146.19579	1216.95
3148.53609	1224.65
3150.87499	1223.35
3153.21246	1238.85
3155.54853	1238.45
3157.88318	1242.85
3160.21642	1250.45
3162.54826	1253.05
3164.87868	1245.85
3167.2077	1252.55
3169.5353	1257.25
3171.86151	1264.55
3174.18631	1268.05
3176.5097	1282.15
3178.83169	1280.05
3181.15228	1282.95
3183.47147	1296.25
3185.78926	1290.35
3188.10565	1302.15
3190.42065	1308.55
3192.73424	1315.95
3195.04645	1315.25
3197.35725	1318.25
3199.66667	1321.15
3201.97469	1318.05
3204.28132	1340.15
3206.58656	1337.45
3208.8904	1343.95
3211.19287	1349.45
3213.49394	1353.25
3215.79363	1357.75
3218.09193	1363.45
3220.38884	1364.35
3222.68438	1372.55
3224.97853	1373.45
3227.2713	1371.35
3229.56269	1373.25
3231.8527	1375.65
3234.14133	1364.45
3236.42858	1377.35
3238.71446	1378.15
3240.99896	1369.15
3243.28209	1375.25
3245.56384	1386.15
3247.84423	1377.15
3250.12324	1384.85
3252.40088	1375.35
3254.67715	1371.05
3256.95205	1378.35
3259.22558	1372.85
3261.49775	1368.05
3263.76855	1368.75
3266.03799	1367.25
3268.30606	1360.55
3270.57277	1358.95
3272.83812	1355.95
3275.10211	1368.05
3277.36474	1363.35
3279.62601	1356.35
3281.88593	1361.35
3284.14448	1363.95
3286.40168	1367.85
3288.65753	1382.95
3290.91202	1359.15
3293.16516	1375.15
3295.41695	1369.45
3297.66738	1362.55
3299.91647	1355.55
3302.16421	1343.75
3304.4106	1334.45
3306.65564	1338.55
3308.89933	1319.75
3311.14169	1303.05
3313.38269	1292.15
3315.62236	1284.45
3317.86068	1269.15
3320.09766	1259.15
3322.3333	1253.25
3324.5676	1249.85
3326.80056	1233.05
3329.03219	1219.55
3331.26248	0.65
3333.49143	0.15
3335.71905	0.15
