Data from AgNPs_FTO_APTES_UA_20uM_CRN_2uM_R6G_10uM_NaF_0.1M_Addition_RamanShift__0__12-40-32-061.txt Node

Date: Thu Feb 17 12:40:32 GMT 2022
User: TCL
Spectrometer: QEP01345
Trigger mode: 4
Integration Time (sec): 7.000000E0
Scans to average: 10
Electric dark correction enabled: true
Nonlinearity correction enabled: false
Boxcar width: 0
XAxis mode: Raman Shifts
Number of Pixels in Spectrum: 1044
>>>>>Begin Spectral Data<<<<<
46.04893	0.15
50.45542	-1.35
54.85868	-1.85
59.25871	-0.35
63.6555	39.15
68.04907	37.15
72.43941	39.75
76.82654	39.75
81.21044	41.25
85.59113	44.05
89.96862	44.05
94.34289	45.85
98.71396	46.05
103.08183	47.25
107.4465	53.55
111.80798	48.95
116.16626	56.25
120.52136	59.75
124.87327	59.65
129.222	61.45
133.56755	68.65
137.90993	71.95
142.24913	77.55
146.58517	88.85
150.91804	107.25
155.24774	119.75
159.57429	155.65
163.89768	206.85
168.21792	277.35
172.53501	381.75
176.84895	524.55
181.15975	750.45
185.46741	1052.85
189.77193	1446.95
194.07331	1947.45
198.37157	2503.35
202.6667	3090.45
206.9587	3700.25
211.24758	4288.85
215.53334	4878.25
219.81599	5507.95
224.09553	6208.45
228.37195	7022.35
232.64527	7843.45
236.91549	8734.85
241.18261	9609.25
245.44663	10377.15
249.70755	11071.65
253.96539	11662.65
258.22014	12226.45
262.4718	12659.35
266.72039	13005.45
270.96589	13178.15
275.20832	13185.15
279.44768	13079.35
283.68397	12921.95
287.91719	12756.85
292.14735	12729.65
296.37445	12718.55
300.59849	12880.35
304.81948	13070.25
309.03742	13221.25
313.25231	13188.45
317.46415	12965.15
321.67296	12575.45
325.87872	12272.15
330.08145	12113.75
334.28114	12145.55
338.47781	12241.45
342.67145	12459.95
346.86207	12706.85
351.04966	13048.65
355.23424	13425.65
359.4158	13727.15
363.59435	13926.75
367.76989	14043.95
371.94243	14160.65
376.11196	14215.85
380.27849	14268.75
384.44203	14321.05
388.60257	14332.65
392.76012	14403.95
396.91468	14545.65
401.06626	14728.85
405.21485	14969.25
409.36047	14913.55
413.50311	14684.25
417.64277	14549.75
421.77947	14566.45
425.9132	14722.55
430.04396	14883.15
434.17176	14958.55
438.2966	15082.65
442.41849	15265.65
446.53742	15664.45
450.6534	16129.35
454.76644	16418.55
458.87653	16446.35
462.98368	16219.75
467.08789	15882.65
471.18916	15554.95
475.2875	15288.25
479.38291	15107.15
483.4754	15007.65
487.56496	14864.15
491.6516	14758.25
495.73531	14596.95
499.81612	14485.75
503.89401	14486.65
507.96899	14536.45
512.04106	14556.75
516.11023	14559.45
520.1765	14547.85
524.23987	14507.15
528.30034	14513.35
532.35792	14374.35
536.41261	14224.65
540.46441	14020.55
544.51333	13907.15
548.55936	13983.55
552.60252	14253.95
556.64279	14643.85
560.6802	14938.25
564.71473	15131.05
568.7464	15427.35
572.7752	15834.35
576.80114	15978.75
580.82422	16052.85
584.84444	16387.25
588.86181	17034.75
592.87633	17766.85
596.888	17908.75
600.89682	17398.35
604.9028	17481.45
608.90594	19160.05
612.90624	21400.05
616.90371	20342.85
620.89834	16629.45
624.89015	14899.05
628.87913	14591.15
632.86528	14642.95
636.84862	14639.75
640.82913	14430.95
644.80683	14093.75
648.78172	13875.75
652.75379	13891.15
656.72306	14185.45
660.68952	14554.35
664.65319	14458.55
668.61405	14104.45
672.57211	13968.95
676.52738	14028.95
680.47986	14046.05
684.42955	13964.15
688.37646	13967.55
692.32058	14123.35
696.26192	14380.25
700.20048	14728.25
704.13626	14980.95
708.06928	15016.75
711.99952	14906.65
715.927	14820.45
719.85171	14799.05
723.77365	14758.95
727.69284	14563.85
731.60928	14415.15
735.52295	14365.05
739.43388	14392.45
743.34206	14439.35
747.24749	14522.55
751.15017	14562.95
755.05012	14740.15
758.94733	15131.65
762.8418	15921.25
766.73354	17134.15
770.62254	18395.85
774.50882	18886.55
778.39237	18224.65
782.27321	16877.25
786.15132	15649.15
790.02671	14905.25
793.89938	14537.45
797.76935	14430.65
801.6366	14385.95
805.50115	14321.35
809.36299	14286.95
813.22213	14227.75
817.07857	14203.05
820.93231	14196.45
824.78336	14188.25
828.63172	14163.45
832.47738	14203.95
836.32036	14233.55
840.16066	14258.15
843.99827	14232.65
847.8332	14228.05
851.66546	14198.25
855.49504	14247.95
859.32195	14233.35
863.1462	14194.95
866.96777	14171.25
870.78668	14154.95
874.60293	14179.25
878.41652	14238.75
882.22745	14283.35
886.03573	14287.85
889.84136	14319.25
893.64433	14239.85
897.44466	14205.35
901.24235	14148.95
905.0374	14121.75
908.8298	14120.65
912.61957	14107.65
916.40671	14236.65
920.19121	14326.65
923.97308	14457.75
927.75233	14515.15
931.52895	14478.55
935.30295	14367.75
939.07433	14135.05
942.84309	13972.65
946.60924	13876.15
950.37278	13866.35
954.13371	13863.15
957.89203	13844.35
961.64774	13827.15
965.40086	13808.05
969.15137	13796.75
972.89929	13729.75
976.64461	13729.65
980.38733	13727.95
984.12747	13808.05
987.86502	13888.95
991.59999	14052.95
995.33237	14243.45
999.06217	14473.75
1002.78939	14796.55
1006.51404	15102.05
1010.23611	15334.35
1013.95561	15470.95
1017.67255	15473.85
1021.38692	15258.35
1025.09872	15020.85
1028.80796	14868.05
1032.51465	14958.15
1036.21877	15120.65
1039.92035	15135.75
1043.61937	15084.25
1047.31584	14984.75
1051.00976	14881.45
1054.70114	14801.15
1058.38998	14816.65
1062.07627	14884.15
1065.76003	14996.15
1069.44126	15151.35
1073.11995	15396.75
1076.79611	15576.65
1080.46974	15714.05
1084.14085	15901.75
1087.80943	16160.85
1091.47549	16298.15
1095.13903	16255.65
1098.80005	16048.45
1102.45857	15752.65
1106.11456	15595.15
1109.76805	15559.45
1113.41903	15686.95
1117.06751	15839.15
1120.71348	16072.75
1124.35696	16294.75
1127.99793	16442.55
1131.63641	16520.85
1135.2724	16274.45
1138.90589	16057.45
1142.5369	15988.85
1146.16542	15945.05
1149.79145	15978.35
1153.415	16087.75
1157.03607	16258.35
1160.65467	16614.65
1164.27079	17173.65
1167.88443	17915.45
1171.49561	18899.75
1175.10432	20260.25
1178.71056	22035.65
1182.31434	23620.95
1185.91565	24012.75
1189.51451	23502.75
1193.11091	22428.65
1196.70485	21398.45
1200.29634	20631.25
1203.88538	20122.85
1207.47197	19718.25
1211.05612	19343.15
1214.63782	19028.05
1218.21708	18818.95
1221.79391	18742.05
1225.36829	18729.15
1228.94024	18584.65
1232.50976	18303.85
1236.07685	17984.65
1239.6415	17860.45
1243.20374	17931.65
1246.76355	18157.35
1250.32093	18433.95
1253.8759	18808.55
1257.42845	19309.15
1260.97859	19817.95
1264.52631	20286.85
1268.07163	20796.95
1271.61453	21220.95
1275.15503	21553.05
1278.69312	21878.55
1282.22882	22234.35
1285.76211	22818.35
1289.29301	23599.65
1292.82151	24509.65
1296.34761	25623.15
1299.87133	26969.35
1303.39266	28559.85
1306.9116	30405.85
1310.42815	32229.55
1313.94233	33373.05
1317.45412	33166.05
1320.96354	32140.85
1324.47058	30946.65
1327.97525	29934.85
1331.47754	28871.85
1334.97747	28352.85
1338.47502	27992.25
1341.97022	27638.65
1345.46305	27298.45
1348.95352	27391.25
1352.44163	28037.25
1355.92738	29570.95
1359.41078	31895.65
1362.89183	34043.55
1366.37053	33694.85
1369.84688	30464.15
1373.32088	26653.55
1376.79254	24218.05
1380.26186	23370.75
1383.72883	23384.45
1387.19347	23457.45
1390.65578	23093.05
1394.11575	22726.55
1397.57339	22717.55
1401.0287	22952.85
1404.48168	23233.55
1407.93234	23347.45
1411.38068	23100.45
1414.82669	22652.25
1418.27039	22014.45
1421.71177	21234.65
1425.15083	20510.55
1428.58758	20206.15
1432.02203	20330.25
1435.45416	20855.55
1438.88399	21368.65
1442.31151	21726.45
1445.73673	22041.75
1449.15965	22181.85
1452.58027	22001.45
1455.9986	21738.35
1459.41463	21657.85
1462.82837	21835.05
1466.23982	22221.85
1469.64898	22666.55
1473.05586	23084.05
1476.46045	23259.65
1479.86276	23399.95
1483.26279	23421.75
1486.66054	23376.95
1490.05602	23597.65
1493.44922	23906.55
1496.84016	24295.75
1500.22882	24991.95
1503.61521	25991.35
1506.99934	27309.85
1510.38121	28472.65
1513.76081	28841.15
1517.13816	27928.55
1520.51324	26297.75
1523.88607	24765.55
1527.25665	23911.65
1530.62498	23541.65
1533.99105	23297.35
1537.35488	22964.05
1540.71647	22607.65
1544.07581	22139.45
1547.4329	21746.35
1550.78776	21361.75
1554.14038	21066.15
1557.49077	20918.95
1560.83892	20911.15
1564.18484	21053.85
1567.52853	21246.15
1570.86999	21562.75
1574.20922	21935.45
1577.54624	22097.15
1580.88103	21942.05
1584.2136	21794.05
1587.54395	22206.85
1590.87208	23332.45
1594.19801	24987.45
1597.52172	26613.95
1600.84321	27219.35
1604.16251	26143.05
1607.47959	24164.15
1610.79447	21924.95
1614.10715	20101.15
1617.41763	18751.15
1620.7259	17987.95
1624.03199	17693.75
1627.33587	17835.75
1630.63757	18376.05
1633.93707	19494.15
1637.23439	21229.55
1640.52951	23892.15
1643.82246	27187.05
1647.11321	30106.15
1650.40179	31073.15
1653.68819	29255.85
1656.97241	25637.05
1660.25446	22098.85
1663.53433	19627.25
1666.81203	18009.75
1670.08756	16961.95
1673.36092	16204.35
1676.63211	15640.05
1679.90115	15284.55
1683.16801	15077.45
1686.43272	14971.35
1689.69527	15057.65
1692.95567	15338.85
1696.2139	15890.45
1699.46999	16548.85
1702.72392	16537.25
1705.97571	15992.45
1709.22535	15253.75
1712.47284	14766.05
1715.71819	14548.75
1718.96139	14381.55
1722.20246	14263.85
1725.44139	14159.75
1728.67818	14145.45
1731.91284	14045.05
1735.14537	13952.55
1738.37576	13890.85
1741.60403	13948.55
1744.83017	13999.85
1748.05418	14072.45
1751.27607	14233.45
1754.49584	14568.95
1757.71349	14977.15
1760.92903	15170.75
1764.14244	15112.25
1767.35375	15081.55
1770.56294	15082.05
1773.77002	14868.85
1776.97499	14489.65
1780.17785	14074.75
1783.37861	13847.35
1786.57727	13667.25
1789.77382	13551.15
1792.96828	13501.05
1796.16064	13466.15
1799.3509	13456.55
1802.53907	13399.05
1805.72514	13338.55
1808.90913	13288.45
1812.09102	13286.05
1815.27083	13281.75
1818.44856	13244.25
1821.6242	13195.25
1824.79776	13169.85
1827.96924	13189.75
1831.13864	13183.55
1834.30597	13156.45
1837.47122	13147.85
1840.6344	13114.15
1843.7955	13126.35
1846.95454	13107.55
1850.11151	13117.65
1853.26642	13117.45
1856.41926	13130.35
1859.57004	13095.65
1862.71876	13058.25
1865.86542	13056.95
1869.01003	13098.65
1872.15258	13036.75
1875.29308	13040.35
1878.43152	13006.15
1881.56792	13025.85
1884.70227	13046.35
1887.83457	13046.35
1890.96482	13045.95
1894.09304	13017.75
1897.21921	12999.45
1900.34335	12993.05
1903.46544	12983.85
1906.58551	13003.35
1909.70353	13009.35
1912.81953	12970.85
1915.93349	12942.75
1919.04543	12913.45
1922.15534	12905.85
1925.26322	12895.25
1928.36908	12876.55
1931.47292	12847.55
1934.57473	12841.75
1937.67453	12803.65
1940.77232	12808.25
1943.86808	12744.25
1946.96184	12719.05
1950.05358	12669.35
1953.14331	12661.45
1956.23103	12614.45
1959.31675	12569.15
1962.40046	12521.45
1965.48217	12473.75
1968.56188	12475.05
1971.63959	12447.25
1974.7153	12417.65
1977.78901	12385.85
1980.86073	12334.85
1983.93046	12294.55
1986.99819	12279.25
1990.06394	12245.05
1993.1277	12239.55
1996.18947	12181.05
1999.24925	12163.45
2002.30706	12137.15
2005.36288	12106.85
2008.41672	12062.55
2011.46859	12047.65
2014.51848	11979.35
2017.56639	11977.35
2020.61233	11927.35
2023.6563	11949.95
2026.6983	11878.95
2029.73833	11904.85
2032.7764	11842.45
2035.8125	11825.35
2038.84664	11809.45
2041.87881	11824.55
2044.90903	11794.85
2047.93729	11751.15
2050.96359	11772.45
2053.98794	11766.95
2057.01034	11776.05
2060.03078	11752.15
2063.04927	11741.15
2066.06582	11743.05
2069.08042	11734.65
2072.09307	11725.55
2075.10378	11708.35
2078.11255	11700.25
2081.11938	11686.65
2084.12426	11690.25
2087.12722	11674.25
2090.12824	11703.25
2093.12732	11705.05
2096.12447	11698.35
2099.11969	11676.65
2102.11299	11683.65
2105.10435	11694.95
2108.09379	11694.95
2111.08131	11718.65
2114.0669	11710.45
2117.05057	11717.25
2120.03233	11708.25
2123.01216	11746.95
2125.99008	11745.85
2128.96609	11758.85
2131.94018	11777.85
2134.91236	11793.05
2137.88263	11809.85
2140.851	11826.55
2143.81746	11800.05
2146.78201	11818.25
2149.74466	11812.55
2152.7054	11810.35
2155.66425	11834.65
2158.6212	11846.05
2161.57625	11818.65
2164.52941	11831.05
2167.48067	11816.35
2170.43004	11817.05
2173.37752	11823.05
2176.32311	11840.95
2179.26681	11853.05
2182.20863	11843.85
2185.14856	11851.05
2188.08661	11830.25
2191.02278	11839.25
2193.95707	11828.65
2196.88948	11813.35
2199.82001	11817.25
2202.74867	11786.65
2205.67545	11772.15
2208.60037	11779.75
2211.52341	11763.85
2214.44458	11770.35
2217.36388	11739.25
2220.28132	11732.05
2223.1969	11698.45
2226.11061	11697.85
2229.02246	11656.25
2231.93245	11623.85
2234.84058	11610.75
2237.74686	11627.75
2240.65128	11622.95
2243.55385	11614.65
2246.45456	11595.25
2249.35343	11568.85
2252.25044	11562.25
2255.14561	11528.35
2258.03893	11621.85
2260.93041	11758.85
2263.82004	11623.35
2266.70783	11524.35
2269.59378	11472.35
2272.4779	11416.25
2275.36017	11410.75
2278.24061	11374.15
2281.11922	11348.15
2283.996	11342.75
2286.87094	11330.75
2289.74405	11307.25
2292.61534	11295.35
2295.4848	11313.95
2298.35243	11297.05
2301.21824	11299.45
2304.08223	11301.05
2306.94439	11297.05
2309.80474	11305.95
2312.66327	11305.95
2315.51999	11284.85
2318.37489	11289.55
2321.22797	11276.25
2324.07925	11267.45
2326.92871	11232.35
2329.77637	11246.15
2332.62222	11230.15
2335.46626	11266.85
2338.3085	11222.95
2341.14893	11250.65
2343.98756	11239.55
2346.8244	11249.95
2349.65943	11237.25
2352.49267	11200.25
2355.32411	11205.25
2358.15376	11193.95
2360.98161	11191.15
2363.80768	11191.85
2366.63195	11178.75
2369.45444	11172.05
2372.27514	11154.45
2375.09405	11127.45
2377.91118	11098.25
2380.72652	11083.65
2383.54009	11038.95
2386.35187	11024.25
2389.16188	11014.35
2391.97011	10996.15
2394.77657	10972.15
2397.58125	10973.65
2400.38416	10952.55
2403.18529	10907.85
2405.98466	10926.75
2408.78226	10917.35
2411.57809	10913.15
2414.37216	10875.35
2417.16446	10885.05
2419.955	10881.35
2422.74378	10861.15
2425.5308	10847.65
2428.31606	10853.05
2431.09956	10837.75
2433.88131	10830.05
2436.6613	10837.75
2439.43954	10837.65
2442.21603	10836.35
2444.99077	10793.45
2447.76377	10818.75
2450.53501	10791.35
2453.30451	10801.55
2456.07226	10771.55
2458.83827	10799.55
2461.60254	10786.75
2464.36507	10775.95
2467.12586	10781.85
2469.88492	10775.85
2472.64224	10819.35
2475.39782	10906.15
2478.15167	10947.15
2480.90379	10843.25
2483.65417	10834.75
2486.40283	10827.15
2489.14976	10834.05
2491.89497	10822.15
2494.63845	10960.45
2497.3802	10968.05
2500.12024	10861.15
2502.85855	10821.75
2505.59514	10793.25
2508.33002	10772.75
2511.06318	10712.65
2513.79462	10701.85
2516.52435	10704.55
2519.25237	10698.65
2521.97867	10675.25
2524.70327	10697.55
2527.42616	10646.45
2530.14734	10660.95
2532.86681	10644.45
2535.58458	10651.05
2538.30065	10645.85
2541.01501	10655.45
2543.72768	10620.45
2546.43864	10621.95
2549.14791	10591.25
2551.85548	10594.45
2554.56136	10576.05
2557.26554	10550.95
2559.96803	10524.85
2562.66883	10517.25
2565.36794	10507.05
2568.06536	10499.55
2570.7611	10498.85
2573.45514	10475.25
2576.14751	10467.75
2578.83819	10478.05
2581.52719	10465.75
2584.21451	10447.65
2586.90015	10438.15
2589.58411	10410.65
2592.2664	10428.65
2594.94701	10415.95
2597.62594	10398.15
2600.30321	10388.25
2602.9788	10401.95
2605.65273	10377.85
2608.32498	10405.55
2610.99557	10384.25
2613.66449	10395.95
2616.33175	10372.75
2618.99734	10360.15
2621.66128	10345.35
2624.32355	10308.15
2626.98416	10314.45
2629.64311	10305.75
2632.30041	10277.55
2634.95605	10281.75
2637.61004	10256.55
2640.26238	10241.15
2642.91306	10253.85
2645.56209	10243.25
2648.20948	10258.75
2650.85521	10239.25
2653.4993	10240.05
2656.14175	10227.05
2658.78255	10227.35
2661.42171	10229.05
2664.05923	10262.85
2666.6951	10260.45
2669.32934	10275.15
2671.96194	10246.85
2674.59291	10290.55
2677.22224	10282.25
2679.84993	10292.35
2682.476	10269.45
2685.10043	10251.85
2687.72324	10241.35
2690.34441	10248.05
2692.96396	10241.25
2695.58188	10277.45
2698.19818	10258.45
2700.81285	10300.35
2703.4259	10564.65
2706.03733	11182.15
2708.64714	10758.25
2711.25533	10507.75
2713.86191	10429.65
2716.46687	10431.35
2719.07021	10377.65
2721.67194	10303.45
2724.27206	10294.75
2726.87057	10312.45
2729.46747	10305.95
2732.06276	10300.75
2734.65644	10306.15
2737.24852	10314.35
2739.83899	10297.55
2742.42786	10280.95
2745.01513	10275.35
2747.60079	10261.55
2750.18486	10264.15
2752.76733	10277.05
2755.3482	10242.05
2757.92747	10243.05
2760.50515	10226.45
2763.08123	10227.45
2765.65573	10221.25
2768.22863	10216.25
2770.79994	10184.75
2773.36967	10228.95
2775.9378	10211.35
2778.50435	10221.55
2781.06932	10188.35
2783.6327	10181.55
2786.1945	10184.35
2788.75471	10183.45
2791.31335	10156.65
2793.87041	10132.65
2796.42589	10147.35
2798.97979	10134.45
2801.53212	10069.95
2804.08288	10076.15
2806.63206	10074.05
2809.17967	10042.55
2811.72571	10033.75
2814.27018	9970.25
2816.81308	9940.25
2819.35442	9954.95
2821.89419	9932.35
2824.43239	9951.25
2826.96904	9931.15
2829.50412	9927.85
2832.03763	9898.65
2834.56959	9912.05
2837.1	9894.35
2839.62884	9880.55
2842.15613	9875.95
2844.68186	9878.15
2847.20604	9881.65
2849.72867	9861.75
2852.24974	9865.55
2854.76927	9976.25
2857.28724	10127.85
2859.80367	9991.55
2862.31855	9939.35
2864.83189	9883.15
2867.34368	9837.95
2869.85393	9833.85
2872.36264	9771.75
2874.8698	9773.85
2877.37543	9753.95
2879.87952	9742.75
2882.38207	9746.55
2884.88308	9742.85
2887.38256	9751.55
2889.88051	9733.15
2892.37692	9749.05
2894.8718	9756.25
2897.36515	9745.45
2899.85698	9757.95
2902.34727	9767.15
2904.83604	9727.55
2907.32328	9796.35
2909.809	9779.65
2912.29319	9792.75
2914.77587	9773.95
2917.25702	9791.05
2919.73665	9758.85
2922.21476	9785.95
2924.69136	9760.45
2927.16644	9762.75
2929.64	9740.05
2932.11205	9728.75
2934.58258	9708.05
2937.05161	9724.05
2939.51912	9736.55
2941.98513	9707.05
2944.44962	9680.75
2946.91261	9665.45
2949.37409	9702.85
2951.83407	9670.05
2954.29254	9672.25
2956.74951	9678.75
2959.20498	9660.75
2961.65895	9664.95
2964.11142	9672.95
2966.56239	9681.45
2969.01186	9657.25
2971.45984	9628.25
2973.90632	9611.45
2976.35131	9589.05
2978.7948	9602.95
2981.23681	9539.25
2983.67732	9577.25
2986.11635	9524.35
2988.55388	9513.85
2990.98993	9493.45
2993.4245	9478.25
2995.85758	9450.25
2998.28917	9426.15
3000.71928	9391.85
3003.14791	9377.85
3005.57506	9383.15
3008.00073	9363.55
3010.42493	9341.55
3012.84764	9334.15
3015.26888	9327.35
3017.68865	9290.35
3020.10694	9282.15
3022.52376	9251.95
3024.9391	9272.65
3027.35298	9228.15
3029.76539	9249.55
3032.17632	9248.85
3034.5858	9206.35
3036.9938	9215.15
3039.40034	9185.15
3041.80542	9214.85
3044.20903	9168.65
3046.61118	9153.85
3049.01187	9154.45
3051.4111	9108.85
3053.80888	9091.45
3056.20519	9084.25
3058.60005	9052.55
3060.99345	9041.95
3063.3854	9027.35
3065.7759	9016.55
3068.16494	8966.95
3070.55254	8942.85
3072.93868	8931.65
3075.32338	8925.25
3077.70662	8904.35
3080.08842	8865.75
3082.46878	8848.35
3084.84769	8825.95
3087.22515	8815.25
3089.60118	8818.25
3091.97576	8793.25
3094.3489	8787.65
3096.72061	8794.05
3099.09087	8788.45
3101.4597	8793.55
3103.82709	8792.65
3106.19305	8780.55
3108.55757	8780.85
3110.92066	8784.15
3113.28232	8740.65
3115.64255	8698.75
3118.00134	8706.95
3120.35871	8663.55
3122.71466	8643.05
3125.06917	8632.75
3127.42226	8623.25
3129.77393	8634.85
3132.12417	8601.95
3134.47299	8584.35
3136.82039	8600.85
3139.16636	8586.15
3141.51092	8583.45
3143.85406	8563.05
3146.19579	8559.65
3148.53609	8556.75
3150.87499	8583.25
3153.21246	8569.25
3155.54853	8582.55
3157.88318	8550.85
3160.21642	8568.85
3162.54826	8536.75
3164.87868	8560.55
3167.2077	8553.45
3169.5353	8511.55
3171.86151	8524.45
3174.18631	8516.65
3176.5097	8534.55
3178.83169	8501.95
3181.15228	8485.75
3183.47147	8458.55
3185.78926	8459.65
3188.10565	8439.85
3190.42065	8448.55
3192.73424	8434.75
3195.04645	8418.15
3197.35725	8408.55
3199.66667	8378.05
3201.97469	8413.65
3204.28132	8385.95
3206.58656	8409.15
3208.8904	8379.95
3211.19287	8385.15
3213.49394	8381.25
3215.79363	8404.25
3218.09193	8416.95
3220.38884	8551.55
3222.68438	8671.15
3224.97853	8537.55
3227.2713	8440.75
3229.56269	8422.35
3231.8527	8420.35
3234.14133	8389.85
3236.42858	8359.05
3238.71446	8329.75
3240.99896	8314.15
3243.28209	8304.95
3245.56384	8285.05
3247.84423	8271.65
3250.12324	8250.45
3252.40088	8250.45
3254.67715	8262.75
3256.95205	8243.55
3259.22558	8229.95
3261.49775	8221.85
3263.76855	8214.75
3266.03799	8197.75
3268.30606	8187.95
3270.57277	8156.15
3272.83812	8150.95
3275.10211	8128.85
3277.36474	8128.35
3279.62601	8132.65
3281.88593	8111.45
3284.14448	8122.85
3286.40168	8105.15
3288.65753	8105.35
3290.91202	8095.15
3293.16516	8094.75
3295.41695	8075.85
3297.66738	8027.85
3299.91647	7981.15
3302.16421	7925.45
3304.4106	7891.65
3306.65564	7846.05
3308.89933	7812.15
3311.14169	7783.55
3313.38269	7813.35
3315.62236	7703.45
3317.86068	7606.85
3320.09766	7533.05
3322.3333	7477.85
3324.5676	7534.45
3326.80056	7595.95
3329.03219	7448.85
3331.26248	2.65
3333.49143	0.75
3335.71905	-0.55
