Data from AgNPs_FTO_APTES_UA_20uM_CRN_1uM_R6G_10uM_NaF_0.1M_Addition_RamanShift__13__12-17-12-030.txt Node

Date: Thu Feb 17 12:17:12 GMT 2022
User: TCL
Spectrometer: QEP01345
Trigger mode: 4
Integration Time (sec): 7.000000E0
Scans to average: 10
Electric dark correction enabled: true
Nonlinearity correction enabled: false
Boxcar width: 0
XAxis mode: Raman Shifts
Number of Pixels in Spectrum: 1044
>>>>>Begin Spectral Data<<<<<
46.04893	0.15
50.45542	-2.25
54.85868	-2.15
59.25871	-1.15
63.6555	119.25
68.04907	121.75
72.43941	124.75
76.82654	131.25
81.21044	132.25
85.59113	137.05
89.96862	142.55
94.34289	143.35
98.71396	151.15
103.08183	154.75
107.4465	161.35
111.80798	160.15
116.16626	172.65
120.52136	180.85
124.87327	184.85
129.222	201.05
133.56755	217.45
137.90993	226.35
142.24913	255.05
146.58517	296.75
150.91804	338.65
155.24774	412.15
159.57429	521.25
163.89768	674.75
168.21792	890.25
172.53501	1232.65
176.84895	1737.35
181.15975	2452.05
185.46741	3468.95
189.77193	4793.65
194.07331	6451.05
198.37157	8322.15
202.6667	10328.15
206.9587	12308.25
211.24758	14213.05
215.53334	16133.45
219.81599	18122.25
224.09553	20310.95
228.37195	22711.25
232.64527	25329.55
236.91549	28167.05
241.18261	31148.05
245.44663	33963.35
249.70755	36577.45
253.96539	38867.85
258.22014	40786.35
262.4718	42226.65
266.72039	43338.45
270.96589	43912.85
275.20832	43955.55
279.44768	43699.35
283.68397	43366.25
287.91719	42952.65
292.14735	42727.55
296.37445	42582.55
300.59849	42489.85
304.81948	42522.35
309.03742	42563.35
313.25231	42442.55
317.46415	42070.25
321.67296	41577.45
325.87872	41088.75
330.08145	40946.85
334.28114	40992.55
338.47781	41364.55
342.67145	41786.15
346.86207	42315.65
351.04966	42942.55
355.23424	43470.55
359.4158	44052.15
363.59435	44482.65
367.76989	44822.15
371.94243	45094.45
376.11196	45319.45
380.27849	45468.95
384.44203	45722.55
388.60257	46037.35
392.76012	46586.55
396.91468	47283.95
401.06626	47938.55
405.21485	48403.65
409.36047	48380.55
413.50311	48104.25
417.64277	48006.85
421.77947	48179.05
425.9132	48534.95
430.04396	48815.55
434.17176	49106.85
438.2966	49377.15
442.41849	49790.95
446.53742	50639.25
450.6534	51528.55
454.76644	52205.65
458.87653	52593.35
462.98368	52683.75
467.08789	52475.05
471.18916	52190.95
475.2875	51767.25
479.38291	51462.75
483.4754	51292.75
487.56496	51071.45
491.6516	50792.45
495.73531	50465.05
499.81612	50169.65
503.89401	50365.45
507.96899	50479.65
512.04106	50637.25
516.11023	50555.95
520.1765	50346.05
524.23987	50099.85
528.30034	49896.95
532.35792	49701.65
536.41261	49352.15
540.46441	49107.55
544.51333	49115.65
548.55936	49490.25
552.60252	50031.95
556.64279	50799.35
560.6802	51357.55
564.71473	51818.35
568.7464	52665.95
572.7752	54013.05
576.80114	55836.45
580.82422	57540.65
584.84444	58870.05
588.86181	60298.75
592.87633	61740.35
596.888	61673.35
600.89682	59988.05
604.9028	59164.75
608.90594	60607.55
612.90624	62201.15
616.90371	59390.85
620.89834	54168.65
624.89015	52146.75
628.87913	52087.75
632.86528	52568.65
636.84862	52611.95
640.82913	52038.05
644.80683	51215.65
648.78172	50581.55
652.75379	50431.55
656.72306	50818.85
660.68952	51342.45
664.65319	51350.55
668.61405	51032.05
672.57211	50999.95
676.52738	51182.55
680.47986	51127.15
684.42955	51010.95
688.37646	50896.05
692.32058	51120.15
696.26192	51577.25
700.20048	52012.55
704.13626	52464.95
708.06928	52681.55
711.99952	52686.35
715.927	52560.45
719.85171	52488.65
723.77365	52346.55
727.69284	51907.95
731.60928	51438.75
735.52295	51216.25
739.43388	51207.15
743.34206	51440.75
747.24749	51665.25
751.15017	52023.15
755.05012	52694.95
758.94733	53584.35
762.8418	55143.35
766.73354	57469.75
770.62254	59548.55
774.50882	59643.35
778.39237	57915.05
782.27321	55803.85
786.15132	54022.85
790.02671	52882.85
793.89938	52130.85
797.76935	51809.65
801.6366	51611.65
805.50115	51524.25
809.36299	51433.65
813.22213	51285.35
817.07857	51213.65
820.93231	51186.15
824.78336	51142.75
828.63172	51059.75
832.47738	50944.35
836.32036	50946.05
840.16066	51002.95
843.99827	51036.25
847.8332	51174.25
851.66546	51251.75
855.49504	51399.45
859.32195	51470.85
863.1462	51500.95
866.96777	51516.65
870.78668	51526.55
874.60293	51570.25
878.41652	51629.25
882.22745	51757.75
886.03573	51889.15
889.84136	51928.65
893.64433	51775.85
897.44466	51712.15
901.24235	51665.25
905.0374	51572.65
908.8298	51505.25
912.61957	51571.05
916.40671	51948.35
920.19121	52434.75
923.97308	52839.65
927.75233	52838.95
931.52895	52395.55
935.30295	51828.35
939.07433	51307.35
942.84309	50998.65
946.60924	50776.35
950.37278	50702.45
954.13371	50696.05
957.89203	50694.55
961.64774	50679.85
965.40086	50709.85
969.15137	50694.65
972.89929	50557.35
976.64461	50403.85
980.38733	50400.05
984.12747	50390.15
987.86502	50588.65
991.59999	50768.95
995.33237	51061.75
999.06217	51612.85
1002.78939	52263.05
1006.51404	53074.35
1010.23611	53847.45
1013.95561	54364.95
1017.67255	54414.45
1021.38692	53980.05
1025.09872	53385.25
1028.80796	52870.15
1032.51465	52591.05
1036.21877	52585.45
1039.92035	52665.05
1043.61937	52848.05
1047.31584	53033.55
1051.00976	53154.95
1054.70114	53373.15
1058.38998	53696.85
1062.07627	54118.85
1065.76003	54648.65
1069.44126	55360.55
1073.11995	56087.55
1076.79611	56732.05
1080.46974	57009.15
1084.14085	57202.45
1087.80943	57592.25
1091.47549	58019.15
1095.13903	58173.95
1098.80005	57746.65
1102.45857	56968.15
1106.11456	56150.85
1109.76805	55573.35
1113.41903	55458.55
1117.06751	55540.05
1120.71348	55816.45
1124.35696	56059.55
1127.99793	56406.25
1131.63641	56633.25
1135.2724	56605.35
1138.90589	56680.65
1142.5369	56797.55
1146.16542	57001.85
1149.79145	57301.95
1153.415	57694.15
1157.03607	58104.65
1160.65467	58938.55
1164.27079	60200.75
1167.88443	61912.25
1171.49561	63904.95
1175.10432	66277.65
1178.71056	69113.95
1182.31434	71733.55
1185.91565	73379.15
1189.51451	73807.35
1193.11091	73510.95
1196.70485	72328.95
1200.29634	70791.15
1203.88538	69557.45
1207.47197	68999.25
1211.05612	68605.05
1214.63782	67868.85
1218.21708	66646.25
1221.79391	65329.95
1225.36829	64314.75
1228.94024	63800.35
1232.50976	63409.05
1236.07685	62973.55
1239.6415	62699.35
1243.20374	62673.75
1246.76355	63002.25
1250.32093	63497.65
1253.8759	64369.95
1257.42845	65537.45
1260.97859	66904.25
1264.52631	68287.55
1268.07163	69689.45
1271.61453	70876.25
1275.15503	71938.65
1278.69312	73230.35
1282.22882	74547.05
1285.76211	76119.95
1289.29301	77884.05
1292.82151	79938.95
1296.34761	82448.15
1299.87133	85267.35
1303.39266	88178.05
1306.9116	90799.25
1310.42815	92768.65
1313.94233	93726.35
1317.45412	93284.25
1320.96354	92460.25
1324.47058	91764.95
1327.97525	91554.15
1331.47754	91517.85
1334.97747	91606.35
1338.47502	91809.35
1341.97022	92317.75
1345.46305	92795.65
1348.95352	92860.35
1352.44163	92149.05
1355.92738	91772.85
1359.41078	92018.25
1362.89183	92271.95
1366.37053	90762.85
1369.84688	86634.55
1373.32088	81161.05
1376.79254	77088.05
1380.26186	75278.85
1383.72883	74946.55
1387.19347	74830.05
1390.65578	74348.65
1394.11575	73953.35
1397.57339	73989.85
1401.0287	74262.15
1404.48168	74663.55
1407.93234	74468.75
1411.38068	73551.45
1414.82669	72061.85
1418.27039	70370.85
1421.71177	68695.45
1425.15083	67506.25
1428.58758	66907.15
1432.02203	67356.85
1435.45416	68405.65
1438.88399	69616.15
1442.31151	70666.35
1445.73673	71344.65
1449.15965	71792.35
1452.58027	72145.95
1455.9986	72425.25
1459.41463	73066.85
1462.82837	73964.35
1466.23982	74935.45
1469.64898	75803.15
1473.05586	76290.55
1476.46045	76556.15
1479.86276	76492.45
1483.26279	76325.85
1486.66054	76112.05
1490.05602	76350.45
1493.44922	77040.55
1496.84016	78021.25
1500.22882	79375.75
1503.61521	81029.45
1506.99934	82337.65
1510.38121	83210.15
1513.76081	82800.85
1517.13816	81525.05
1520.51324	80297.35
1523.88607	79658.95
1527.25665	79657.75
1530.62498	79788.45
1533.99105	79456.95
1537.35488	78523.65
1540.71647	77235.25
1544.07581	75816.25
1547.4329	74492.35
1550.78776	73237.75
1554.14038	72500.65
1557.49077	72004.75
1560.83892	71715.05
1564.18484	71563.55
1567.52853	71554.45
1570.86999	71832.45
1574.20922	72452.35
1577.54624	72988.95
1580.88103	72989.65
1584.2136	73195.55
1587.54395	74427.25
1590.87208	76662.55
1594.19801	79541.85
1597.52172	82115.45
1600.84321	82837.25
1604.16251	80558.95
1607.47959	76975.45
1610.79447	73142.85
1614.10715	69251.35
1617.41763	65746.55
1620.7259	63122.05
1624.03199	61704.55
1627.33587	61479.75
1630.63757	62495.05
1633.93707	64868.45
1637.23439	69022.95
1640.52951	75348.45
1643.82246	82672.75
1647.11321	88407.35
1650.40179	89449.35
1653.68819	84898.55
1656.97241	77029.85
1660.25446	69153.45
1663.53433	63143.35
1666.81203	59214.15
1670.08756	56680.35
1673.36092	55148.95
1676.63211	54099.55
1679.90115	53329.05
1683.16801	52696.35
1686.43272	52299.05
1689.69527	51901.25
1692.95567	51629.45
1696.2139	51484.85
1699.46999	51445.05
1702.72392	51322.75
1705.97571	51236.65
1709.22535	51122.75
1712.47284	51146.15
1715.71819	51142.55
1718.96139	51069.75
1722.20246	50924.55
1725.44139	50764.75
1728.67818	50622.35
1731.91284	50399.85
1735.14537	50158.15
1738.37576	50004.65
1741.60403	49875.65
1744.83017	49674.95
1748.05418	49627.15
1751.27607	49540.75
1754.49584	49480.55
1757.71349	49493.85
1760.92903	49471.45
1764.14244	49441.55
1767.35375	49395.95
1770.56294	49351.75
1773.77002	49341.55
1776.97499	49320.45
1780.17785	49242.65
1783.37861	49165.15
1786.57727	49090.45
1789.77382	48967.45
1792.96828	48934.65
1796.16064	48866.45
1799.3509	48825.45
1802.53907	48723.15
1805.72514	48683.35
1808.90913	48507.05
1812.09102	48424.45
1815.27083	48415.55
1818.44856	48299.35
1821.6242	48245.55
1824.79776	48246.25
1827.96924	48223.25
1831.13864	48262.15
1834.30597	48223.55
1837.47122	48165.55
1840.6344	48058.55
1843.7955	48108.15
1846.95454	48106.45
1850.11151	48133.75
1853.26642	48078.65
1856.41926	48077.45
1859.57004	48111.75
1862.71876	47974.25
1865.86542	47923.25
1869.01003	47921.05
1872.15258	47798.15
1875.29308	47759.65
1878.43152	47676.55
1881.56792	47710.55
1884.70227	47648.25
1887.83457	47617.85
1890.96482	47579.65
1894.09304	47410.65
1897.21921	47368.45
1900.34335	47282.05
1903.46544	47249.45
1906.58551	47262.35
1909.70353	47196.25
1912.81953	47203.05
1915.93349	47129.25
1919.04543	47004.05
1922.15534	46968.45
1925.26322	46902.85
1928.36908	46813.35
1931.47292	46746.65
1934.57473	46633.85
1937.67453	46526.75
1940.77232	46427.55
1943.86808	46264.85
1946.96184	46145.75
1950.05358	45991.55
1953.14331	45882.55
1956.23103	45800.25
1959.31675	45660.85
1962.40046	45508.05
1965.48217	45324.45
1968.56188	45224.35
1971.63959	45120.55
1974.7153	45026.75
1977.78901	44835.25
1980.86073	44742.95
1983.93046	44638.85
1986.99819	44488.65
1990.06394	44416.45
1993.1277	44348.25
1996.18947	44235.15
1999.24925	44109.25
2002.30706	43935.85
2005.36288	43793.95
2008.41672	43670.45
2011.46859	43575.45
2014.51848	43444.95
2017.56639	43348.65
2020.61233	43201.45
2023.6563	43059.25
2026.6983	42948.45
2029.73833	42953.55
2032.7764	42778.75
2035.8125	42708.45
2038.84664	42671.75
2041.87881	42574.55
2044.90903	42504.55
2047.93729	42431.85
2050.96359	42344.65
2053.98794	42274.65
2057.01034	42315.05
2060.03078	42353.05
2063.04927	42334.25
2066.06582	42301.65
2069.08042	42305.35
2072.09307	42232.65
2075.10378	42123.15
2078.11255	42063.55
2081.11938	42163.15
2084.12426	42118.25
2087.12722	42032.65
2090.12824	42101.95
2093.12732	42135.45
2096.12447	42042.65
2099.11969	42051.75
2102.11299	42108.15
2105.10435	42095.15
2108.09379	42149.05
2111.08131	42160.25
2114.0669	42147.85
2117.05057	42130.95
2120.03233	42167.45
2123.01216	42221.85
2125.99008	42280.35
2128.96609	42344.85
2131.94018	42401.05
2134.91236	42468.05
2137.88263	42488.05
2140.851	42492.75
2143.81746	42578.65
2146.78201	42514.05
2149.74466	42584.05
2152.7054	42543.05
2155.66425	42573.15
2158.6212	42562.45
2161.57625	42512.85
2164.52941	42574.95
2167.48067	42499.35
2170.43004	42474.35
2173.37752	42476.35
2176.32311	42511.75
2179.26681	42516.65
2182.20863	42531.15
2185.14856	42526.45
2188.08661	42516.55
2191.02278	42484.95
2193.95707	42379.25
2196.88948	42388.25
2199.82001	42349.95
2202.74867	42294.05
2205.67545	42247.05
2208.60037	42156.85
2211.52341	42074.65
2214.44458	42098.25
2217.36388	42052.75
2220.28132	41962.35
2223.1969	41870.35
2226.11061	41762.05
2229.02246	41673.45
2231.93245	41602.95
2234.84058	41560.15
2237.74686	41547.25
2240.65128	41567.55
2243.55385	41432.55
2246.45456	41430.25
2249.35343	41361.05
2252.25044	41302.45
2255.14561	41184.65
2258.03893	41136.15
2260.93041	41095.65
2263.82004	40956.35
2266.70783	40876.55
2269.59378	40684.45
2272.4779	40655.45
2275.36017	40688.25
2278.24061	40635.15
2281.11922	40515.95
2283.996	40452.25
2286.87094	40408.55
2289.74405	40337.85
2292.61534	40282.65
2295.4848	40268.25
2298.35243	40295.65
2301.21824	40178.05
2304.08223	40119.65
2306.94439	40088.05
2309.80474	40078.45
2312.66327	40050.75
2315.51999	40059.25
2318.37489	39941.15
2321.22797	39906.95
2324.07925	39903.15
2326.92871	39752.45
2329.77637	39679.45
2332.62222	39601.35
2335.46626	39557.05
2338.3085	39602.35
2341.14893	39579.65
2343.98756	39512.15
2346.8244	39464.55
2349.65943	39485.75
2352.49267	39461.05
2355.32411	39443.65
2358.15376	39396.15
2360.98161	39437.25
2363.80768	39378.55
2366.63195	39327.95
2369.45444	39320.85
2372.27514	39304.25
2375.09405	39262.05
2377.91118	39201.15
2380.72652	39105.25
2383.54009	39026.35
2386.35187	38932.05
2389.16188	38819.15
2391.97011	38790.45
2394.77657	38713.55
2397.58125	38689.95
2400.38416	38530.05
2403.18529	38488.95
2405.98466	38543.35
2408.78226	38446.05
2411.57809	38376.45
2414.37216	38322.35
2417.16446	38352.85
2419.955	38251.45
2422.74378	38295.15
2425.5308	38253.45
2428.31606	38229.65
2431.09956	38219.95
2433.88131	38219.75
2436.6613	38215.65
2439.43954	38196.75
2442.21603	38179.85
2444.99077	38097.15
2447.76377	38116.95
2450.53501	38013.15
2453.30451	37970.55
2456.07226	37966.35
2458.83827	37913.65
2461.60254	37862.65
2464.36507	37880.25
2467.12586	37861.65
2469.88492	37812.55
2472.64224	37789.35
2475.39782	37796.95
2478.15167	37834.75
2480.90379	37721.65
2483.65417	37725.25
2486.40283	37744.75
2489.14976	37738.35
2491.89497	37668.95
2494.63845	37704.85
2497.3802	37669.25
2500.12024	37669.25
2502.85855	37655.05
2505.59514	37621.85
2508.33002	37481.15
2511.06318	37473.45
2513.79462	37466.55
2516.52435	37481.85
2519.25237	37375.05
2521.97867	37348.65
2524.70327	37375.55
2527.42616	37288.05
2530.14734	37263.55
2532.86681	37173.65
2535.58458	37211.95
2538.30065	37168.05
2541.01501	37237.45
2543.72768	37156.35
2546.43864	37128.85
2549.14791	37000.55
2551.85548	36952.25
2554.56136	36822.65
2557.26554	36795.45
2559.96803	36715.95
2562.66883	36699.95
2565.36794	36719.55
2568.06536	36633.65
2570.7611	36468.85
2573.45514	36474.85
2576.14751	36408.65
2578.83819	36347.75
2581.52719	36362.05
2584.21451	36277.35
2586.90015	36247.05
2589.58411	36120.75
2592.2664	36124.55
2594.94701	36117.15
2597.62594	36082.75
2600.30321	36027.75
2602.9788	36027.05
2605.65273	35931.55
2608.32498	35985.55
2610.99557	35895.75
2613.66449	35912.55
2616.33175	35885.15
2618.99734	35772.55
2621.66128	35716.15
2624.32355	35641.15
2626.98416	35614.75
2629.64311	35533.05
2632.30041	35572.05
2634.95605	35476.65
2637.61004	35480.65
2640.26238	35465.45
2642.91306	35404.55
2645.56209	35381.05
2648.20948	35376.55
2650.85521	35395.35
2653.4993	35407.15
2656.14175	35408.05
2658.78255	35454.65
2661.42171	35454.45
2664.05923	35438.25
2666.6951	35450.55
2669.32934	35467.85
2671.96194	35445.55
2674.59291	35483.65
2677.22224	35443.75
2679.84993	35432.45
2682.476	35390.75
2685.10043	35403.75
2687.72324	35351.35
2690.34441	35401.35
2692.96396	35399.75
2695.58188	35422.55
2698.19818	35385.75
2700.81285	35364.25
2703.4259	35318.95
2706.03733	35411.25
2708.64714	35370.95
2711.25533	35377.75
2713.86191	35322.35
2716.46687	35452.25
2719.07021	35409.55
2721.67194	35451.55
2724.27206	35404.35
2726.87057	35427.25
2729.46747	35385.95
2732.06276	35422.95
2734.65644	35413.55
2737.24852	35423.25
2739.83899	35360.65
2742.42786	35352.25
2745.01513	35357.15
2747.60079	35286.15
2750.18486	35268.45
2752.76733	35248.95
2755.3482	35188.05
2757.92747	35170.45
2760.50515	35102.25
2763.08123	35048.55
2765.65573	34998.35
2768.22863	35002.15
2770.79994	34925.35
2773.36967	34935.65
2775.9378	34940.85
2778.50435	34948.45
2781.06932	34843.95
2783.6327	34842.75
2786.1945	34791.75
2788.75471	34766.35
2791.31335	34618.75
2793.87041	34601.65
2796.42589	34508.45
2798.97979	34474.85
2801.53212	34382.65
2804.08288	34278.85
2806.63206	34280.95
2809.17967	34186.85
2811.72571	34098.65
2814.27018	33968.35
2816.81308	33873.25
2819.35442	33834.45
2821.89419	33739.05
2824.43239	33758.95
2826.96904	33732.95
2829.50412	33685.95
2832.03763	33584.25
2834.56959	33565.85
2837.1	33493.95
2839.62884	33512.15
2842.15613	33452.15
2844.68186	33448.05
2847.20604	33434.15
2849.72867	33394.65
2852.24974	33318.45
2854.76927	33258.45
2857.28724	33253.45
2859.80367	33228.95
2862.31855	33174.95
2864.83189	33131.35
2867.34368	33016.35
2869.85393	32998.65
2872.36264	32909.55
2874.8698	32914.35
2877.37543	32863.85
2879.87952	32863.55
2882.38207	32826.15
2884.88308	32866.85
2887.38256	32847.65
2889.88051	32802.65
2892.37692	32830.75
2894.8718	32807.45
2897.36515	32841.85
2899.85698	32849.65
2902.34727	32824.65
2904.83604	32828.45
2907.32328	32887.55
2909.809	32867.05
2912.29319	32877.95
2914.77587	32882.05
2917.25702	32868.65
2919.73665	32825.95
2922.21476	32850.85
2924.69136	32787.35
2927.16644	32780.45
2929.64	32775.95
2932.11205	32726.85
2934.58258	32613.85
2937.05161	32672.95
2939.51912	32660.95
2941.98513	32612.65
2944.44962	32571.25
2946.91261	32535.45
2949.37409	32573.55
2951.83407	32476.65
2954.29254	32506.45
2956.74951	32531.45
2959.20498	32511.65
2961.65895	32480.05
2964.11142	32456.35
2966.56239	32410.25
2969.01186	32399.05
2971.45984	32294.05
2973.90632	32254.85
2976.35131	32199.55
2978.7948	32238.35
2981.23681	32164.25
2983.67732	32110.95
2986.11635	32057.45
2988.55388	31937.05
2990.98993	31898.65
2993.4245	31811.25
2995.85758	31727.15
2998.28917	31647.75
3000.71928	31544.05
3003.14791	31434.35
3005.57506	31468.75
3008.00073	31397.35
3010.42493	31333.15
3012.84764	31238.75
3015.26888	31266.55
3017.68865	31213.85
3020.10694	31148.85
3022.52376	31098.05
3024.9391	31030.65
3027.35298	31004.85
3029.76539	30982.65
3032.17632	30986.95
3034.5858	30876.05
3036.9938	30846.65
3039.40034	30819.85
3041.80542	30813.05
3044.20903	30771.05
3046.61118	30746.15
3049.01187	30642.45
3051.4111	30607.85
3053.80888	30508.25
3056.20519	30485.45
3058.60005	30366.75
3060.99345	30339.15
3063.3854	30221.65
3065.7759	30170.45
3068.16494	30037.95
3070.55254	29972.35
3072.93868	29887.55
3075.32338	29814.55
3077.70662	29744.65
3080.08842	29677.45
3082.46878	29620.05
3084.84769	29524.95
3087.22515	29515.15
3089.60118	29494.45
3091.97576	29500.95
3094.3489	29516.85
3096.72061	29465.15
3099.09087	29465.75
3101.4597	29432.85
3103.82709	29426.75
3106.19305	29392.35
3108.55757	29373.85
3110.92066	29283.55
3113.28232	29227.65
3115.64255	29170.45
3118.00134	29074.15
3120.35871	28976.75
3122.71466	28923.15
3125.06917	28863.55
3127.42226	28810.05
3129.77393	28733.65
3132.12417	28690.55
3134.47299	28665.95
3136.82039	28623.95
3139.16636	28642.65
3141.51092	28566.75
3143.85406	28566.15
3146.19579	28597.25
3148.53609	28579.55
3150.87499	28595.65
3153.21246	28607.15
3155.54853	28610.65
3157.88318	28581.95
3160.21642	28609.85
3162.54826	28527.45
3164.87868	28526.25
3167.2077	28445.25
3169.5353	28390.25
3171.86151	28413.65
3174.18631	28374.15
3176.5097	28404.55
3178.83169	28339.65
3181.15228	28260.05
3183.47147	28146.45
3185.78926	28175.45
3188.10565	28058.75
3190.42065	28090.95
3192.73424	28003.35
3195.04645	27939.95
3197.35725	27952.65
3199.66667	27883.55
3201.97469	27906.75
3204.28132	27833.05
3206.58656	27827.45
3208.8904	27828.25
3211.19287	27857.15
3213.49394	27821.05
3215.79363	27807.45
3218.09193	27877.35
3220.38884	27846.75
3222.68438	27842.85
3224.97853	27786.75
3227.2713	27695.95
3229.56269	27673.25
3231.8527	27673.55
3234.14133	27625.65
3236.42858	27527.55
3238.71446	27475.05
3240.99896	27424.55
3243.28209	27407.65
3245.56384	27347.05
3247.84423	27312.65
3250.12324	27301.05
3252.40088	27266.75
3254.67715	27239.15
3256.95205	27169.35
3259.22558	27200.25
3261.49775	27126.75
3263.76855	27079.75
3266.03799	27023.35
3268.30606	26953.75
3270.57277	26943.55
3272.83812	26835.75
3275.10211	26845.15
3277.36474	26775.35
3279.62601	26694.55
3281.88593	26709.75
3284.14448	26705.45
3286.40168	26709.95
3288.65753	26635.15
3290.91202	26630.45
3293.16516	26536.05
3295.41695	26507.55
3297.66738	26346.35
3299.91647	26225.15
3302.16421	26018.15
3304.4106	25931.15
3306.65564	25735.55
3308.89933	25551.05
3311.14169	25400.85
3313.38269	25181.85
3315.62236	25012.65
3317.86068	24764.55
3320.09766	24563.25
3322.3333	24404.45
3324.5676	24282.25
3326.80056	23926.95
3329.03219	23733.35
3331.26248	6.15
3333.49143	0.55
3335.71905	-1.25
