Data from AgNPs_UA_5uM_CRN_0uM_R6G_10uM_Q_RamanShift__16__11-07-55-308.txt Node

Date: Mon Jul 18 11:07:55 BST 2022
User: TCL
Spectrometer: QEP01345
Trigger mode: 4
Integration Time (sec): 7.000000E0
Scans to average: 10
Electric dark correction enabled: true
Nonlinearity correction enabled: false
Boxcar width: 0
XAxis mode: Raman Shifts
Number of Pixels in Spectrum: 1044
>>>>>Begin Spectral Data<<<<<
46.04893	-1.75
50.45542	-0.75
54.85868	-3.05
59.25871	-2.55
63.6555	177.85
68.04907	185.35
72.43941	193.15
76.82654	193.85
81.21044	201.75
85.59113	209.15
89.96862	215.35
94.34289	218.55
98.71396	227.55
103.08183	236.35
107.4465	243.25
111.80798	248.65
116.16626	265.55
120.52136	272.55
124.87327	287.45
129.222	307.65
133.56755	330.45
137.90993	357.15
142.24913	393.15
146.58517	454.85
150.91804	533.45
155.24774	639.45
159.57429	811.35
163.89768	1048.05
168.21792	1406.45
172.53501	1935.85
176.84895	2725.05
181.15975	3850.65
185.46741	5423.25
189.77193	7514.65
194.07331	10059.85
198.37157	12950.35
202.6667	15984.35
206.9587	18973.45
211.24758	21934.55
215.53334	24923.05
219.81599	28100.05
224.09553	31541.95
228.37195	35438.65
232.64527	39646.65
236.91549	43941.15
241.18261	48146.75
245.44663	52009.95
249.70755	55414.75
253.96539	58344.85
258.22014	60892.35
262.4718	63077.15
266.72039	64441.35
270.96589	65091.65
275.20832	65139.55
279.44768	64616.05
283.68397	63833.95
287.91719	63194.85
292.14735	62774.45
296.37445	62996.65
300.59849	63640.65
304.81948	64463.55
309.03742	65132.75
313.25231	65206.65
317.46415	64195.45
321.67296	62593.45
325.87872	61292.55
330.08145	60833.95
334.28114	61091.45
338.47781	61774.05
342.67145	62883.75
346.86207	64277.65
351.04966	65918.85
355.23424	67739.75
359.4158	69341.95
363.59435	70463.85
367.76989	71106.75
371.94243	71516.65
376.11196	71737.05
380.27849	72052.85
384.44203	72461.25
388.60257	72986.95
392.76012	73494.35
396.91468	74447.75
401.06626	75415.15
405.21485	76024.55
409.36047	75475.55
413.50311	74260.15
417.64277	73084.25
421.77947	72570.45
425.9132	72388.25
430.04396	72550.75
434.17176	72869.65
438.2966	73603.75
442.41849	74764.55
446.53742	76425.45
450.6534	78281.85
454.76644	79710.85
458.87653	80245.35
462.98368	80009.25
467.08789	79483.55
471.18916	78534.55
475.2875	77190.45
479.38291	76057.25
483.4754	75232.55
487.56496	74486.25
491.6516	73943.75
495.73531	73719.95
499.81612	73830.45
503.89401	74367.25
507.96899	74757.45
512.04106	74868.05
516.11023	75136.75
520.1765	75274.15
524.23987	75268.25
528.30034	75106.95
532.35792	74903.25
536.41261	74401.35
540.46441	73572.65
544.51333	73323.55
548.55936	73819.95
552.60252	74955.85
556.64279	76143.45
560.6802	77262.45
564.71473	78053.45
568.7464	78893.35
572.7752	79347.35
576.80114	79266.55
580.82422	79545.65
584.84444	80392.75
588.86181	81366.55
592.87633	82261.05
596.888	82874.55
600.89682	83933.75
604.9028	88689.05
608.90594	100041.75
612.90624	110361.65
616.90371	102811.35
620.89834	86115.95
624.89015	79320.75
628.87913	78803.35
632.86528	79471.95
636.84862	79875.75
640.82913	78715.75
644.80683	76676.45
648.78172	75282.65
652.75379	75266.15
656.72306	76721.05
660.68952	78445.25
664.65319	78159.95
668.61405	77324.05
672.57211	77674.05
676.52738	77852.45
680.47986	77027.95
684.42955	76000.75
688.37646	75815.75
692.32058	76416.45
696.26192	77551.25
700.20048	78655.35
704.13626	78985.75
708.06928	78326.65
711.99952	77686.15
715.927	77494.55
719.85171	77784.05
723.77365	77745.95
727.69284	77125.65
731.60928	76660.45
735.52295	76556.85
739.43388	76677.45
743.34206	77021.85
747.24749	77162.55
751.15017	77476.35
755.05012	78289.25
758.94733	80120.65
762.8418	84118.95
766.73354	90278.35
770.62254	95871.85
774.50882	97535.45
778.39237	95249.15
782.27321	90508.15
786.15132	85097.75
790.02671	81198.95
793.89938	79123.25
797.76935	78169.75
801.6366	77701.35
805.50115	77378.65
809.36299	77075.05
813.22213	76688.65
817.07857	76495.95
820.93231	76485.65
824.78336	76488.85
828.63172	76568.95
832.47738	76596.15
836.32036	76385.65
840.16066	76383.15
843.99827	76416.15
847.8332	76449.55
851.66546	76470.35
855.49504	76647.35
859.32195	76801.55
863.1462	76745.25
866.96777	76747.85
870.78668	76808.65
874.60293	76969.25
878.41652	77158.05
882.22745	77553.55
886.03573	77829.65
889.84136	77816.95
893.64433	77539.35
897.44466	77301.25
901.24235	77072.65
905.0374	76887.35
908.8298	76610.25
912.61957	76530.55
916.40671	76617.75
920.19121	77014.05
923.97308	77773.85
927.75233	78274.85
931.52895	78555.75
935.30295	78214.45
939.07433	77238.25
942.84309	76418.85
946.60924	76000.65
950.37278	75893.85
954.13371	75952.85
957.89203	75821.95
961.64774	75744.65
965.40086	75715.35
969.15137	75626.65
972.89929	75547.95
976.64461	75619.85
980.38733	75881.45
984.12747	76232.25
987.86502	76722.05
991.59999	77350.75
995.33237	78218.95
999.06217	79559.75
1002.78939	81020.45
1006.51404	82292.95
1010.23611	83447.55
1013.95561	84334.45
1017.67255	84599.85
1021.38692	84114.55
1025.09872	83284.95
1028.80796	82717.25
1032.51465	83039.85
1036.21877	83793.85
1039.92035	84104.15
1043.61937	83772.95
1047.31584	82940.15
1051.00976	82274.85
1054.70114	82107.25
1058.38998	82407.05
1062.07627	83069.95
1065.76003	83913.75
1069.44126	84891.85
1073.11995	86423.15
1076.79611	88184.45
1080.46974	89113.05
1084.14085	89673.85
1087.80943	90496.05
1091.47549	91107.85
1095.13903	90900.85
1098.80005	90505.95
1102.45857	90080.15
1106.11456	89565.25
1109.76805	88610.15
1113.41903	88154.05
1117.06751	88542.75
1120.71348	89321.35
1124.35696	90179.75
1127.99793	91065.55
1131.63641	90808.65
1135.2724	89585.65
1138.90589	88435.05
1142.5369	87750.85
1146.16542	87427.75
1149.79145	87140.45
1153.415	86974.75
1157.03607	87101.15
1160.65467	88004.25
1164.27079	89995.55
1167.88443	92975.15
1171.49561	97041.65
1175.10432	102492.35
1178.71056	109480.05
1182.31434	115738.65
1185.91565	118847.45
1189.51451	119104.15
1193.11091	117100.35
1196.70485	113969.45
1200.29634	110641.05
1203.88538	107778.35
1207.47197	104875.45
1211.05612	102425.85
1214.63782	100359.45
1218.21708	98929.25
1221.79391	98043.15
1225.36829	97581.05
1228.94024	97105.65
1232.50976	96132.05
1236.07685	95406.35
1239.6415	95209.45
1243.20374	95438.25
1246.76355	96174.35
1250.32093	97275.65
1253.8759	99019.45
1257.42845	101475.75
1260.97859	104073.25
1264.52631	106627.35
1268.07163	109050.45
1271.61453	111127.55
1275.15503	112789.75
1278.69312	113927.45
1282.22882	114443.35
1285.76211	115189.35
1289.29301	116535.45
1292.82151	118158.15
1296.34761	120567.35
1299.87133	124374.65
1303.39266	130323.55
1306.9116	138267.05
1310.42815	147104.05
1313.94233	152474.25
1317.45412	151853.85
1320.96354	147648.65
1324.47058	142695.25
1327.97525	137957.95
1331.47754	134570.45
1334.97747	133158.85
1338.47502	133630.15
1341.97022	135893.55
1345.46305	139218.75
1348.95352	142548.85
1352.44163	145338.35
1355.92738	149184.95
1359.41078	154961.05
1362.89183	159684.75
1366.37053	155248.75
1369.84688	141418.15
1373.32088	127453.25
1376.79254	118595.35
1380.26186	114028.55
1383.72883	111903.75
1387.19347	110343.55
1390.65578	108364.35
1394.11575	106595.55
1397.57339	105620.85
1401.0287	105652.55
1404.48168	106198.95
1407.93234	106912.25
1411.38068	107559.05
1414.82669	107377.45
1418.27039	106072.85
1421.71177	104654.05
1425.15083	103731.65
1428.58758	103556.65
1432.02203	104334.75
1435.45416	105798.75
1438.88399	106942.65
1442.31151	107446.05
1445.73673	107659.95
1449.15965	107909.85
1452.58027	107795.15
1455.9986	107464.85
1459.41463	108063.15
1462.82837	109558.05
1466.23982	111642.75
1469.64898	113186.85
1473.05586	114109.05
1476.46045	114537.45
1479.86276	114518.65
1483.26279	114481.45
1486.66054	114940.75
1490.05602	115930.15
1493.44922	117974.75
1496.84016	121287.05
1500.22882	126579.95
1503.61521	133470.15
1506.99934	140644.35
1510.38121	145304.35
1513.76081	144957.05
1517.13816	138938.55
1520.51324	130271.85
1523.88607	122590.75
1527.25665	117494.35
1530.62498	114879.15
1533.99105	113449.85
1537.35488	112342.75
1540.71647	111546.75
1544.07581	110836.35
1547.4329	110102.05
1550.78776	109226.65
1554.14038	108497.75
1557.49077	108178.75
1560.83892	108603.45
1564.18484	109560.45
1567.52853	110953.95
1570.86999	111914.05
1574.20922	112554.35
1577.54624	112182.95
1580.88103	110067.85
1584.2136	108065.05
1587.54395	107670.45
1590.87208	110259.85
1594.19801	115304.65
1597.52172	121412.05
1600.84321	124047.95
1604.16251	121644.85
1607.47959	116566.75
1610.79447	110203.75
1614.10715	103428.85
1617.41763	97640.95
1620.7259	93496.35
1624.03199	91121.85
1627.33587	90867.45
1630.63757	92540.95
1633.93707	96326.55
1637.23439	102625.95
1640.52951	111490.55
1643.82246	121980.45
1647.11321	130272.95
1650.40179	132335.15
1653.68819	125546.55
1656.97241	112905.65
1660.25446	100348.65
1663.53433	91327.75
1666.81203	85759.85
1670.08756	82163.95
1673.36092	79966.35
1676.63211	78354.45
1679.90115	77257.95
1683.16801	76258.95
1686.43272	75611.95
1689.69527	75098.45
1692.95567	74679.45
1696.2139	74386.85
1699.46999	74186.45
1702.72392	74142.15
1705.97571	74055.45
1709.22535	73935.15
1712.47284	74038.75
1715.71819	74086.75
1718.96139	73999.75
1722.20246	73655.35
1725.44139	73259.65
1728.67818	72947.15
1731.91284	72668.25
1735.14537	72351.05
1738.37576	72145.25
1741.60403	71985.15
1744.83017	71762.15
1748.05418	71582.55
1751.27607	71533.05
1754.49584	71345.55
1757.71349	71275.05
1760.92903	71168.75
1764.14244	71060.65
1767.35375	70939.75
1770.56294	70803.05
1773.77002	70789.05
1776.97499	70686.05
1780.17785	70589.05
1783.37861	70384.15
1786.57727	70300.15
1789.77382	70264.75
1792.96828	70095.65
1796.16064	70027.75
1799.3509	70032.85
1802.53907	69792.15
1805.72514	69594.05
1808.90913	69533.85
1812.09102	69433.35
1815.27083	69262.75
1818.44856	69130.35
1821.6242	69161.95
1824.79776	69013.65
1827.96924	68835.45
1831.13864	68612.75
1834.30597	68638.35
1837.47122	68590.95
1840.6344	68512.95
1843.7955	68677.35
1846.95454	68573.85
1850.11151	68410.35
1853.26642	68293.15
1856.41926	68199.65
1859.57004	68197.35
1862.71876	68238.05
1865.86542	68246.05
1869.01003	68249.25
1872.15258	68255.15
1875.29308	68109.65
1878.43152	67927.85
1881.56792	67913.35
1884.70227	67818.75
1887.83457	67756.25
1890.96482	67637.25
1894.09304	67672.15
1897.21921	67601.75
1900.34335	67563.95
1903.46544	67481.55
1906.58551	67383.15
1909.70353	67159.25
1912.81953	67104.05
1915.93349	67003.25
1919.04543	66885.85
1922.15534	66819.65
1925.26322	66728.85
1928.36908	66637.55
1931.47292	66569.45
1934.57473	66313.25
1937.67453	66231.95
1940.77232	66030.95
1943.86808	65794.55
1946.96184	65623.05
1950.05358	65343.65
1953.14331	65183.85
1956.23103	65084.45
1959.31675	64882.75
1962.40046	64715.45
1965.48217	64570.55
1968.56188	64398.55
1971.63959	64243.75
1974.7153	64074.15
1977.78901	63904.65
1980.86073	63711.45
1983.93046	63467.05
1986.99819	63217.25
1990.06394	63176.15
1993.1277	62973.45
1996.18947	62716.75
1999.24925	62680.35
2002.30706	62519.15
2005.36288	62435.35
2008.41672	62272.15
2011.46859	62103.15
2014.51848	61907.95
2017.56639	61810.85
2020.61233	61738.05
2023.6563	61536.35
2026.6983	61381.55
2029.73833	61082.05
2032.7764	60873.35
2035.8125	60867.85
2038.84664	60724.65
2041.87881	60630.35
2044.90903	60518.35
2047.93729	60354.25
2050.96359	60415.05
2053.98794	60260.85
2057.01034	60234.65
2060.03078	60219.55
2063.04927	60064.05
2066.06582	60027.15
2069.08042	60010.75
2072.09307	59981.95
2075.10378	59919.35
2078.11255	59890.05
2081.11938	59872.85
2084.12426	59816.35
2087.12722	59746.95
2090.12824	59672.35
2093.12732	59682.55
2096.12447	59804.55
2099.11969	59841.25
2102.11299	59861.85
2105.10435	59944.05
2108.09379	59943.25
2111.08131	59959.55
2114.0669	59915.55
2117.05057	59967.85
2120.03233	60086.45
2123.01216	60079.25
2125.99008	60086.15
2128.96609	60224.45
2131.94018	60244.05
2134.91236	60294.45
2137.88263	60311.65
2140.851	60323.85
2143.81746	60414.65
2146.78201	60426.05
2149.74466	60536.25
2152.7054	60455.65
2155.66425	60480.55
2158.6212	60463.55
2161.57625	60414.25
2164.52941	60320.05
2167.48067	60351.75
2170.43004	60423.05
2173.37752	60354.75
2176.32311	60274.45
2179.26681	60340.75
2182.20863	60351.35
2185.14856	60406.15
2188.08661	60362.35
2191.02278	60423.05
2193.95707	60386.45
2196.88948	60394.45
2199.82001	60360.25
2202.74867	60278.25
2205.67545	60223.05
2208.60037	60132.25
2211.52341	60020.45
2214.44458	59836.95
2217.36388	59720.35
2220.28132	59686.95
2223.1969	59514.15
2226.11061	59417.95
2229.02246	59338.35
2231.93245	59318.05
2234.84058	59185.05
2237.74686	59011.75
2240.65128	58944.45
2243.55385	58818.65
2246.45456	58811.75
2249.35343	58813.65
2252.25044	58747.65
2255.14561	58703.25
2258.03893	58627.25
2260.93041	58494.05
2263.82004	58381.65
2266.70783	58239.35
2269.59378	58180.05
2272.4779	58157.65
2275.36017	57964.45
2278.24061	57790.35
2281.11922	57725.05
2283.996	57700.45
2286.87094	57585.15
2289.74405	57444.75
2292.61534	57408.65
2295.4848	57294.45
2298.35243	57361.95
2301.21824	57258.45
2304.08223	57233.85
2306.94439	57215.85
2309.80474	57227.85
2312.66327	57294.25
2315.51999	57183.45
2318.37489	57229.95
2321.22797	57161.55
2324.07925	57031.85
2326.92871	56905.85
2329.77637	56925.35
2332.62222	56816.65
2335.46626	56766.55
2338.3085	56703.25
2341.14893	56770.65
2343.98756	56708.85
2346.8244	56638.55
2349.65943	56756.95
2352.49267	56735.25
2355.32411	56623.75
2358.15376	56657.35
2360.98161	56526.35
2363.80768	56563.55
2366.63195	56554.05
2369.45444	56442.15
2372.27514	56356.85
2375.09405	56320.45
2377.91118	56256.35
2380.72652	56043.65
2383.54009	55952.55
2386.35187	55883.35
2389.16188	55801.65
2391.97011	55767.15
2394.77657	55641.75
2397.58125	55601.95
2400.38416	55370.45
2403.18529	55249.75
2405.98466	55333.75
2408.78226	55241.15
2411.57809	55179.05
2414.37216	55069.75
2417.16446	55089.75
2419.955	54965.85
2422.74378	54996.65
2425.5308	54966.45
2428.31606	54887.95
2431.09956	54913.75
2433.88131	54771.15
2436.6613	54831.55
2439.43954	54849.65
2442.21603	54925.35
2444.99077	54754.55
2447.76377	54736.85
2450.53501	54660.85
2453.30451	54675.05
2456.07226	54589.15
2458.83827	54396.15
2461.60254	54444.35
2464.36507	54445.75
2467.12586	54437.35
2469.88492	54437.95
2472.64224	54354.15
2475.39782	54249.45
2478.15167	54270.05
2480.90379	54406.45
2483.65417	54525.65
2486.40283	54555.85
2489.14976	54549.95
2491.89497	54481.95
2494.63845	54489.85
2497.3802	54367.15
2500.12024	54320.95
2502.85855	54272.45
2505.59514	54204.55
2508.33002	54119.85
2511.06318	54085.65
2513.79462	54089.45
2516.52435	53985.05
2519.25237	53995.45
2521.97867	53928.05
2524.70327	53927.35
2527.42616	53781.95
2530.14734	53868.45
2532.86681	53642.65
2535.58458	53663.05
2538.30065	53674.95
2541.01501	53670.85
2543.72768	53656.55
2546.43864	53606.35
2549.14791	53518.45
2551.85548	53547.45
2554.56136	53419.95
2557.26554	53331.95
2559.96803	53229.45
2562.66883	53135.85
2565.36794	53100.55
2568.06536	53025.65
2570.7611	52902.45
2573.45514	52750.45
2576.14751	52757.65
2578.83819	52621.05
2581.52719	52611.25
2584.21451	52531.15
2586.90015	52508.55
2589.58411	52462.75
2592.2664	52463.85
2594.94701	52316.55
2597.62594	52329.65
2600.30321	52310.65
2602.9788	52296.25
2605.65273	52120.15
2608.32498	52060.65
2610.99557	52055.45
2613.66449	52110.05
2616.33175	52059.05
2618.99734	52017.95
2621.66128	51866.85
2624.32355	51842.35
2626.98416	51884.35
2629.64311	51903.45
2632.30041	51844.55
2634.95605	51720.05
2637.61004	51641.15
2640.26238	51571.25
2642.91306	51521.25
2645.56209	51527.85
2648.20948	51464.95
2650.85521	51394.05
2653.4993	51448.55
2656.14175	51411.25
2658.78255	51458.55
2661.42171	51454.65
2664.05923	51659.25
2666.6951	51672.25
2669.32934	51636.35
2671.96194	51597.85
2674.59291	51636.75
2677.22224	51580.55
2679.84993	51530.05
2682.476	51437.65
2685.10043	51490.75
2687.72324	51380.75
2690.34441	51379.35
2692.96396	51327.45
2695.58188	51307.95
2698.19818	51333.25
2700.81285	51370.05
2703.4259	51315.95
2706.03733	51423.45
2708.64714	51411.55
2711.25533	51396.75
2713.86191	51371.75
2716.46687	51557.35
2719.07021	51466.55
2721.67194	51480.35
2724.27206	51466.45
2726.87057	51501.15
2729.46747	51367.65
2732.06276	51486.15
2734.65644	51433.85
2737.24852	51454.35
2739.83899	51341.35
2742.42786	51334.25
2745.01513	51215.65
2747.60079	51141.65
2750.18486	51123.55
2752.76733	51236.45
2755.3482	51176.75
2757.92747	51186.65
2760.50515	51125.35
2763.08123	51095.45
2765.65573	50866.55
2768.22863	50890.75
2770.79994	50884.45
2773.36967	50902.95
2775.9378	50816.15
2778.50435	50785.45
2781.06932	50755.55
2783.6327	50764.25
2786.1945	50761.45
2788.75471	50579.65
2791.31335	50420.95
2793.87041	50304.35
2796.42589	50174.75
2798.97979	50206.45
2801.53212	50072.95
2804.08288	50044.45
2806.63206	49960.25
2809.17967	49910.55
2811.72571	49750.65
2814.27018	49652.85
2816.81308	49493.75
2819.35442	49359.95
2821.89419	49204.15
2824.43239	49210.45
2826.96904	49137.75
2829.50412	49093.25
2832.03763	49132.75
2834.56959	49140.15
2837.1	49075.35
2839.62884	49108.35
2842.15613	48914.15
2844.68186	48797.85
2847.20604	48683.95
2849.72867	48723.75
2852.24974	48648.15
2854.76927	48573.75
2857.28724	48504.55
2859.80367	48516.55
2862.31855	48581.85
2864.83189	48652.65
2867.34368	48540.65
2869.85393	48450.25
2872.36264	48384.35
2874.8698	48267.65
2877.37543	48332.65
2879.87952	48246.45
2882.38207	48191.35
2884.88308	48194.65
2887.38256	48165.55
2889.88051	48086.55
2892.37692	48133.55
2894.8718	48132.95
2897.36515	48233.35
2899.85698	48225.85
2902.34727	48269.55
2904.83604	48305.35
2907.32328	48499.75
2909.809	48542.55
2912.29319	48587.75
2914.77587	48589.15
2917.25702	48604.25
2919.73665	48444.95
2922.21476	48522.15
2924.69136	48393.85
2927.16644	48372.85
2929.64	48231.35
2932.11205	48181.55
2934.58258	48016.05
2937.05161	47976.75
2939.51912	47996.15
2941.98513	47973.05
2944.44962	47921.55
2946.91261	47866.55
2949.37409	47893.35
2951.83407	47825.45
2954.29254	47875.55
2956.74951	47889.85
2959.20498	47815.45
2961.65895	47782.45
2964.11142	47848.25
2966.56239	47818.15
2969.01186	47785.55
2971.45984	47690.25
2973.90632	47629.15
2976.35131	47567.95
2978.7948	47502.45
2981.23681	47374.15
2983.67732	47261.35
2986.11635	47193.45
2988.55388	47141.45
2990.98993	47081.35
2993.4245	46910.85
2995.85758	46848.25
2998.28917	46722.45
3000.71928	46730.75
3003.14791	46566.75
3005.57506	46590.85
3008.00073	46269.15
3010.42493	46216.95
3012.84764	46143.65
3015.26888	46169.85
3017.68865	46002.85
3020.10694	46015.95
3022.52376	45925.75
3024.9391	45886.05
3027.35298	45778.95
3029.76539	45832.55
3032.17632	45805.05
3034.5858	45696.25
3036.9938	45693.35
3039.40034	45615.75
3041.80542	45568.05
3044.20903	45431.05
3046.61118	45441.65
3049.01187	45283.15
3051.4111	45284.25
3053.80888	45170.05
3056.20519	45129.35
3058.60005	44913.65
3060.99345	44796.95
3063.3854	44750.95
3065.7759	44635.95
3068.16494	44543.85
3070.55254	44289.35
3072.93868	44264.25
3075.32338	44098.15
3077.70662	44095.65
3080.08842	43995.15
3082.46878	43976.95
3084.84769	43943.55
3087.22515	43970.05
3089.60118	43913.85
3091.97576	43867.85
3094.3489	43817.95
3096.72061	43851.55
3099.09087	43811.75
3101.4597	43788.05
3103.82709	43715.95
3106.19305	43641.95
3108.55757	43652.75
3110.92066	43571.55
3113.28232	43527.85
3115.64255	43459.75
3118.00134	43418.25
3120.35871	43291.95
3122.71466	43166.95
3125.06917	43041.35
3127.42226	42937.55
3129.77393	42924.35
3132.12417	42811.05
3134.47299	42822.05
3136.82039	42776.45
3139.16636	42738.75
3141.51092	42651.75
3143.85406	42626.25
3146.19579	42661.25
3148.53609	42629.15
3150.87499	42722.55
3153.21246	42695.75
3155.54853	42700.45
3157.88318	42641.25
3160.21642	42720.35
3162.54826	42681.05
3164.87868	42651.85
3167.2077	42645.45
3169.5353	42627.25
3171.86151	42601.15
3174.18631	42462.25
3176.5097	42403.25
3178.83169	42376.55
3181.15228	42438.95
3183.47147	42279.45
3185.78926	42194.25
3188.10565	42133.25
3190.42065	42134.55
3192.73424	42087.05
3195.04645	42059.45
3197.35725	42081.65
3199.66667	41970.75
3201.97469	41972.25
3204.28132	41821.15
3206.58656	41877.45
3208.8904	41865.85
3211.19287	41878.15
3213.49394	41878.05
3215.79363	41942.95
3218.09193	41955.45
3220.38884	41981.55
3222.68438	41992.85
3224.97853	41853.45
3227.2713	41831.55
3229.56269	41791.95
3231.8527	41799.45
3234.14133	41771.05
3236.42858	41689.85
3238.71446	41575.25
3240.99896	41473.05
3243.28209	41462.85
3245.56384	41329.45
3247.84423	41281.05
3250.12324	41227.45
3252.40088	41124.15
3254.67715	41159.15
3256.95205	41196.05
3259.22558	41206.05
3261.49775	41117.55
3263.76855	41110.95
3266.03799	41021.55
3268.30606	40908.75
3270.57277	40885.25
3272.83812	40856.15
3275.10211	40781.95
3277.36474	40711.25
3279.62601	40688.25
3281.88593	40665.75
3284.14448	40799.75
3286.40168	40754.15
3288.65753	40632.95
3290.91202	40643.45
3293.16516	40474.25
3295.41695	40454.75
3297.66738	40259.05
3299.91647	40087.15
3302.16421	39863.05
3304.4106	39702.35
3306.65564	39539.85
3308.89933	39277.35
3311.14169	39057.45
3313.38269	38743.15
3315.62236	38580.15
3317.86068	38397.05
3320.09766	38126.75
3322.3333	37855.35
3324.5676	37778.35
3326.80056	37262.15
3329.03219	37122.15
3331.26248	8.35
3333.49143	1.35
3335.71905	-0.35
