Data from AgNPs_UA_20uM_CRN_0uM_R6G_10uM_Q_RamanShift__7__12-44-32-010.txt Node

Date: Mon Jul 18 12:44:32 BST 2022
User: TCL
Spectrometer: QEP01345
Trigger mode: 4
Integration Time (sec): 7.000000E0
Scans to average: 10
Electric dark correction enabled: true
Nonlinearity correction enabled: false
Boxcar width: 0
XAxis mode: Raman Shifts
Number of Pixels in Spectrum: 1044
>>>>>Begin Spectral Data<<<<<
46.04893	-2.55
50.45542	0.15
54.85868	0.15
59.25871	-1.25
63.6555	142.85
68.04907	153.85
72.43941	161.15
76.82654	166.15
81.21044	168.85
85.59113	175.15
89.96862	180.45
94.34289	182.85
98.71396	195.75
103.08183	194.45
107.4465	204.75
111.80798	214.35
116.16626	218.35
120.52136	230.65
124.87327	239.55
129.222	250.75
133.56755	271.65
137.90993	294.85
142.24913	326.25
146.58517	373.15
150.91804	440.65
155.24774	519.55
159.57429	649.75
163.89768	842.15
168.21792	1115.75
172.53501	1539.95
176.84895	2160.85
181.15975	3042.45
185.46741	4259.15
189.77193	5893.45
194.07331	7873.15
198.37157	10106.15
202.6667	12473.05
206.9587	14788.95
211.24758	17070.95
215.53334	19364.85
219.81599	21847.05
224.09553	24542.25
228.37195	27543.75
232.64527	30884.65
236.91549	34289.35
241.18261	37641.65
245.44663	40688.05
249.70755	43387.85
253.96539	45773.65
258.22014	47688.45
262.4718	49279.75
266.72039	50358.75
270.96589	50921.55
275.20832	50924.55
279.44768	50609.25
283.68397	50124.35
287.91719	49812.35
292.14735	49707.65
296.37445	49874.95
300.59849	50286.55
304.81948	50885.95
309.03742	51306.65
313.25231	51262.55
317.46415	50668.05
321.67296	49516.05
325.87872	48552.15
330.08145	48222.95
334.28114	48287.85
338.47781	48726.05
342.67145	49357.05
346.86207	50162.85
351.04966	51116.65
355.23424	52153.75
359.4158	52953.25
363.59435	53522.25
367.76989	53793.35
371.94243	53840.95
376.11196	53976.25
380.27849	54160.15
384.44203	54378.65
388.60257	54764.35
392.76012	55230.75
396.91468	55848.85
401.06626	56574.25
405.21485	56992.65
409.36047	56589.45
413.50311	55787.65
417.64277	55341.85
421.77947	55324.75
425.9132	55429.25
430.04396	55785.35
434.17176	56033.55
438.2966	56481.45
442.41849	57317.05
446.53742	58623.05
450.6534	60055.05
454.76644	60946.85
458.87653	61103.55
462.98368	60953.45
467.08789	60509.75
471.18916	59808.55
475.2875	59036.85
479.38291	58406.35
483.4754	57761.85
487.56496	57275.05
491.6516	56896.65
495.73531	56606.65
499.81612	56628.55
503.89401	57023.85
507.96899	57225.65
512.04106	57306.75
516.11023	57287.85
520.1765	57140.75
524.23987	57004.15
528.30034	56861.05
532.35792	56612.85
536.41261	56194.95
540.46441	55807.55
544.51333	55884.75
548.55936	56436.35
552.60252	57385.75
556.64279	58501.15
560.6802	59184.35
564.71473	59653.45
568.7464	60434.15
572.7752	61724.05
576.80114	62991.65
580.82422	64242.05
584.84444	65638.85
588.86181	67359.95
592.87633	68884.05
596.888	68885.95
600.89682	67798.85
604.9028	68800.15
608.90594	74126.95
612.90624	78656.35
616.90371	72914.15
620.89834	62679.75
624.89015	58730.55
628.87913	58549.25
632.86528	59115.65
636.84862	59288.65
640.82913	58466.15
644.80683	57197.85
648.78172	56458.75
652.75379	56587.25
656.72306	57472.45
660.68952	58336.25
664.65319	57971.55
668.61405	57192.55
672.57211	57161.45
676.52738	57478.85
680.47986	57277.55
684.42955	56789.85
688.37646	56779.25
692.32058	57131.75
696.26192	57756.55
700.20048	58471.75
704.13626	58902.85
708.06928	58839.25
711.99952	58573.05
715.927	58448.65
719.85171	58572.95
723.77365	58322.25
727.69284	57796.95
731.60928	57233.25
735.52295	57154.75
739.43388	57293.55
743.34206	57482.45
747.24749	57701.25
751.15017	58114.15
755.05012	58969.05
758.94733	60671.85
762.8418	63929.35
766.73354	68653.95
770.62254	72393.45
774.50882	72419.25
778.39237	69382.25
782.27321	65208.45
786.15132	61809.65
790.02671	59571.55
793.89938	58294.55
797.76935	57777.95
801.6366	57558.25
805.50115	57368.45
809.36299	57127.55
813.22213	56836.85
817.07857	56690.55
820.93231	56704.35
824.78336	56648.85
828.63172	56629.75
832.47738	56543.75
836.32036	56609.95
840.16066	56516.75
843.99827	56599.75
847.8332	56642.45
851.66546	56820.65
855.49504	56988.15
859.32195	56919.35
863.1462	56903.35
866.96777	56908.75
870.78668	56897.85
874.60293	56953.95
878.41652	57102.05
882.22745	57321.45
886.03573	57517.85
889.84136	57481.95
893.64433	57309.65
897.44466	57125.95
901.24235	56992.75
905.0374	56873.85
908.8298	56819.25
912.61957	56807.55
916.40671	57120.25
920.19121	57647.45
923.97308	58080.05
927.75233	58215.45
931.52895	57981.25
935.30295	57319.65
939.07433	56553.05
942.84309	55888.55
946.60924	55674.55
950.37278	55540.55
954.13371	55582.15
957.89203	55610.05
961.64774	55590.25
965.40086	55519.05
969.15137	55459.75
972.89929	55373.65
976.64461	55407.25
980.38733	55424.35
984.12747	55480.85
987.86502	55718.75
991.59999	55928.75
995.33237	56237.05
999.06217	56856.05
1002.78939	57786.95
1006.51404	58598.05
1010.23611	59361.95
1013.95561	59932.45
1017.67255	59967.25
1021.38692	59502.95
1025.09872	58814.25
1028.80796	58170.75
1032.51465	57947.75
1036.21877	58182.35
1039.92035	58329.85
1043.61937	58486.65
1047.31584	58488.15
1051.00976	58566.85
1054.70114	58734.45
1058.38998	58958.15
1062.07627	59592.05
1065.76003	60182.85
1069.44126	60978.55
1073.11995	61907.75
1076.79611	62729.65
1080.46974	63179.55
1084.14085	63563.55
1087.80943	64183.45
1091.47549	64570.95
1095.13903	64312.05
1098.80005	63376.15
1102.45857	62344.35
1106.11456	61516.55
1109.76805	61114.75
1113.41903	61238.45
1117.06751	61688.85
1120.71348	62483.15
1124.35696	63308.45
1127.99793	63847.95
1131.63641	63792.65
1135.2724	63223.15
1138.90589	62781.45
1142.5369	62622.15
1146.16542	62788.35
1149.79145	62942.75
1153.415	63238.65
1157.03607	63686.25
1160.65467	64677.55
1164.27079	66584.15
1167.88443	68985.15
1171.49561	72130.85
1175.10432	76431.85
1178.71056	81511.45
1182.31434	85842.75
1185.91565	87611.85
1189.51451	87196.95
1193.11091	85530.45
1196.70485	83096.85
1200.29634	80593.45
1203.88538	78253.15
1207.47197	76273.95
1211.05612	74741.05
1214.63782	73360.85
1218.21708	72174.25
1221.79391	70973.75
1225.36829	70306.25
1228.94024	70006.05
1232.50976	69485.45
1236.07685	68976.25
1239.6415	68504.25
1243.20374	68418.85
1246.76355	68752.35
1250.32093	69477.85
1253.8759	70451.15
1257.42845	71909.75
1260.97859	73709.05
1264.52631	75449.25
1268.07163	77141.25
1271.61453	78569.05
1275.15503	79964.85
1278.69312	81429.35
1282.22882	82703.05
1285.76211	84646.75
1289.29301	86984.55
1292.82151	89655.55
1296.34761	92799.35
1299.87133	96775.75
1303.39266	101478.25
1306.9116	106302.85
1310.42815	110762.85
1313.94233	112799.75
1317.45412	111636.95
1320.96354	108854.35
1324.47058	106201.25
1327.97525	104045.65
1331.47754	102492.35
1334.97747	101954.55
1338.47502	101830.25
1341.97022	102619.65
1345.46305	103794.75
1348.95352	105161.65
1352.44163	106493.15
1355.92738	108485.35
1359.41078	112120.45
1362.89183	115371.95
1366.37053	112927.95
1369.84688	104026.65
1373.32088	94095.25
1376.79254	87416.45
1380.26186	84547.45
1383.72883	83710.95
1387.19347	83089.15
1390.65578	82138.75
1394.11575	81285.65
1397.57339	80857.95
1401.0287	80743.85
1404.48168	80570.15
1407.93234	80093.75
1411.38068	79262.15
1414.82669	77946.05
1418.27039	76272.15
1421.71177	74636.45
1425.15083	73399.15
1428.58758	72951.45
1432.02203	73549.45
1435.45416	74873.65
1438.88399	76078.65
1442.31151	76805.85
1445.73673	77344.45
1449.15965	77544.35
1452.58027	77677.35
1455.9986	77605.35
1459.41463	77992.45
1462.82837	78865.55
1466.23982	79970.95
1469.64898	80981.35
1473.05586	81802.45
1476.46045	82200.75
1479.86276	82224.25
1483.26279	82321.15
1486.66054	82959.35
1490.05602	84099.05
1493.44922	85923.55
1496.84016	88438.75
1500.22882	92060.45
1503.61521	96963.95
1506.99934	101628.65
1510.38121	104500.35
1513.76081	103796.75
1517.13816	99875.65
1520.51324	94886.15
1523.88607	90930.85
1527.25665	89059.35
1530.62498	88146.95
1533.99105	87337.85
1537.35488	86061.35
1540.71647	84483.75
1544.07581	82960.45
1547.4329	81118.75
1550.78776	79768.25
1554.14038	78959.75
1557.49077	78673.25
1560.83892	78751.85
1564.18484	79265.65
1567.52853	80002.95
1570.86999	80860.35
1574.20922	81761.85
1577.54624	81969.65
1580.88103	80968.25
1584.2136	80028.25
1587.54395	80318.55
1590.87208	82296.35
1594.19801	85434.55
1597.52172	88614.95
1600.84321	89327.65
1604.16251	86946.65
1607.47959	82949.05
1610.79447	78467.25
1614.10715	73958.85
1617.41763	70092.65
1620.7259	67265.65
1624.03199	65735.65
1627.33587	65667.95
1630.63757	66937.85
1633.93707	69945.75
1637.23439	75238.55
1640.52951	83020.95
1643.82246	92110.15
1647.11321	99343.85
1650.40179	100740.95
1653.68819	94708.95
1656.97241	84276.35
1660.25446	74248.85
1663.53433	67023.85
1666.81203	62383.15
1670.08756	59460.65
1673.36092	57672.15
1676.63211	56447.95
1679.90115	55655.55
1683.16801	54921.45
1686.43272	54418.55
1689.69527	53998.45
1692.95567	53668.25
1696.2139	53438.25
1699.46999	53227.15
1702.72392	53195.65
1705.97571	53129.45
1709.22535	53045.45
1712.47284	53075.15
1715.71819	52999.05
1718.96139	52878.55
1722.20246	52788.45
1725.44139	52536.45
1728.67818	52292.45
1731.91284	52116.05
1735.14537	51878.15
1738.37576	51760.55
1741.60403	51576.25
1744.83017	51406.95
1748.05418	51309.75
1751.27607	51207.95
1754.49584	51115.45
1757.71349	51101.95
1760.92903	51034.15
1764.14244	50972.55
1767.35375	50956.15
1770.56294	50827.05
1773.77002	50818.75
1776.97499	50798.15
1780.17785	50660.25
1783.37861	50608.55
1786.57727	50438.25
1789.77382	50400.75
1792.96828	50291.85
1796.16064	50221.85
1799.3509	50125.95
1802.53907	49992.95
1805.72514	49867.95
1808.90913	49793.75
1812.09102	49729.75
1815.27083	49617.35
1818.44856	49593.55
1821.6242	49562.95
1824.79776	49481.35
1827.96924	49388.25
1831.13864	49295.95
1834.30597	49343.55
1837.47122	49264.25
1840.6344	49210.35
1843.7955	49173.75
1846.95454	49145.45
1850.11151	49190.05
1853.26642	49139.35
1856.41926	49115.45
1859.57004	49128.25
1862.71876	49032.15
1865.86542	49051.85
1869.01003	49081.55
1872.15258	48887.25
1875.29308	48862.35
1878.43152	48730.45
1881.56792	48688.95
1884.70227	48631.85
1887.83457	48644.75
1890.96482	48536.25
1894.09304	48512.95
1897.21921	48541.45
1900.34335	48457.55
1903.46544	48273.95
1906.58551	48196.45
1909.70353	48177.55
1912.81953	48147.55
1915.93349	48111.25
1919.04543	47917.95
1922.15534	47833.55
1925.26322	47856.75
1928.36908	47791.35
1931.47292	47621.35
1934.57473	47571.45
1937.67453	47389.15
1940.77232	47294.05
1943.86808	47125.95
1946.96184	47002.75
1950.05358	46849.85
1953.14331	46730.75
1956.23103	46542.15
1959.31675	46412.95
1962.40046	46300.75
1965.48217	46222.85
1968.56188	46024.45
1971.63959	45944.05
1974.7153	45818.55
1977.78901	45664.45
1980.86073	45534.15
1983.93046	45410.15
1986.99819	45232.55
1990.06394	45188.45
1993.1277	45050.45
1996.18947	44939.65
1999.24925	44870.85
2002.30706	44692.35
2005.36288	44564.05
2008.41672	44519.35
2011.46859	44385.55
2014.51848	44258.75
2017.56639	44149.45
2020.61233	44061.25
2023.6563	43977.85
2026.6983	43835.55
2029.73833	43659.45
2032.7764	43599.05
2035.8125	43530.15
2038.84664	43422.35
2041.87881	43373.35
2044.90903	43214.55
2047.93729	43138.25
2050.96359	43140.35
2053.98794	43028.25
2057.01034	43050.65
2060.03078	42968.15
2063.04927	43002.75
2066.06582	42970.05
2069.08042	42953.95
2072.09307	42983.15
2075.10378	42924.25
2078.11255	42871.85
2081.11938	42865.25
2084.12426	42818.85
2087.12722	42810.35
2090.12824	42780.15
2093.12732	42773.05
2096.12447	42802.05
2099.11969	42792.45
2102.11299	42792.25
2105.10435	42820.35
2108.09379	42784.75
2111.08131	42886.65
2114.0669	42842.75
2117.05057	42830.75
2120.03233	42896.55
2123.01216	42911.05
2125.99008	42949.55
2128.96609	43074.45
2131.94018	43210.15
2134.91236	43223.15
2137.88263	43207.15
2140.851	43261.75
2143.81746	43251.25
2146.78201	43249.55
2149.74466	43299.45
2152.7054	43251.35
2155.66425	43200.85
2158.6212	43127.95
2161.57625	43091.15
2164.52941	43120.75
2167.48067	43179.35
2170.43004	43165.85
2173.37752	43109.45
2176.32311	43073.45
2179.26681	43089.25
2182.20863	43059.95
2185.14856	43045.05
2188.08661	43089.45
2191.02278	43064.65
2193.95707	43048.95
2196.88948	42990.75
2199.82001	42942.85
2202.74867	42875.95
2205.67545	42818.75
2208.60037	42853.65
2211.52341	42695.35
2214.44458	42661.15
2217.36388	42583.05
2220.28132	42482.05
2223.1969	42368.25
2226.11061	42303.65
2229.02246	42176.65
2231.93245	42157.45
2234.84058	42163.25
2237.74686	42084.45
2240.65128	42043.55
2243.55385	41975.85
2246.45456	41909.05
2249.35343	41827.95
2252.25044	41743.95
2255.14561	41683.35
2258.03893	41663.45
2260.93041	41512.95
2263.82004	41507.25
2266.70783	41425.55
2269.59378	41383.55
2272.4779	41330.45
2275.36017	41259.05
2278.24061	41172.55
2281.11922	41107.65
2283.996	41068.25
2286.87094	40970.95
2289.74405	40887.85
2292.61534	40881.95
2295.4848	40830.35
2298.35243	40857.95
2301.21824	40870.65
2304.08223	40805.05
2306.94439	40706.95
2309.80474	40653.55
2312.66327	40677.75
2315.51999	40605.15
2318.37489	40666.45
2321.22797	40533.25
2324.07925	40472.15
2326.92871	40433.35
2329.77637	40397.65
2332.62222	40338.65
2335.46626	40201.25
2338.3085	40131.15
2341.14893	40123.35
2343.98756	40106.65
2346.8244	40184.95
2349.65943	40256.95
2352.49267	40193.65
2355.32411	40186.35
2358.15376	40108.15
2360.98161	40078.05
2363.80768	40088.65
2366.63195	40108.65
2369.45444	40069.25
2372.27514	40057.55
2375.09405	39916.05
2377.91118	39814.05
2380.72652	39716.15
2383.54009	39607.05
2386.35187	39553.05
2389.16188	39528.55
2391.97011	39491.95
2394.77657	39426.05
2397.58125	39343.15
2400.38416	39264.65
2403.18529	39259.45
2405.98466	39243.55
2408.78226	39148.45
2411.57809	39079.95
2414.37216	39002.15
2417.16446	38965.65
2419.955	38852.55
2422.74378	38948.95
2425.5308	38834.55
2428.31606	38873.25
2431.09956	38788.75
2433.88131	38774.15
2436.6613	38714.95
2439.43954	38684.85
2442.21603	38747.05
2444.99077	38658.85
2447.76377	38651.65
2450.53501	38645.75
2453.30451	38628.45
2456.07226	38609.55
2458.83827	38532.85
2461.60254	38564.45
2464.36507	38514.05
2467.12586	38469.05
2469.88492	38413.15
2472.64224	38448.45
2475.39782	38415.85
2478.15167	38457.35
2480.90379	38402.75
2483.65417	38454.55
2486.40283	38439.85
2489.14976	38484.95
2491.89497	38438.15
2494.63845	38427.55
2497.3802	38414.05
2500.12024	38404.15
2502.85855	38394.55
2505.59514	38273.05
2508.33002	38176.55
2511.06318	38198.85
2513.79462	38062.65
2516.52435	37997.65
2519.25237	38056.65
2521.97867	38065.95
2524.70327	37984.55
2527.42616	37915.55
2530.14734	37897.95
2532.86681	37837.25
2535.58458	37858.85
2538.30065	37804.25
2541.01501	37860.25
2543.72768	37835.65
2546.43864	37716.55
2549.14791	37631.35
2551.85548	37628.65
2554.56136	37530.35
2557.26554	37425.85
2559.96803	37412.05
2562.66883	37291.05
2565.36794	37252.65
2568.06536	37251.25
2570.7611	37172.75
2573.45514	37057.45
2576.14751	37069.65
2578.83819	36995.25
2581.52719	36952.65
2584.21451	36947.55
2586.90015	36834.85
2589.58411	36797.25
2592.2664	36758.55
2594.94701	36760.65
2597.62594	36782.25
2600.30321	36684.75
2602.9788	36650.55
2605.65273	36581.35
2608.32498	36554.85
2610.99557	36489.15
2613.66449	36521.65
2616.33175	36443.65
2618.99734	36448.15
2621.66128	36391.25
2624.32355	36328.15
2626.98416	36297.35
2629.64311	36188.55
2632.30041	36153.45
2634.95605	36140.05
2637.61004	36089.05
2640.26238	36070.65
2642.91306	36040.25
2645.56209	35983.15
2648.20948	35977.35
2650.85521	35976.45
2653.4993	35985.35
2656.14175	35972.35
2658.78255	36060.65
2661.42171	36030.75
2664.05923	36125.05
2666.6951	36064.75
2669.32934	36154.15
2671.96194	36108.05
2674.59291	36016.95
2677.22224	35980.35
2679.84993	35998.65
2682.476	36021.75
2685.10043	36037.25
2687.72324	35958.75
2690.34441	35915.75
2692.96396	35963.05
2695.58188	35977.55
2698.19818	35926.95
2700.81285	35917.55
2703.4259	35900.45
2706.03733	35895.25
2708.64714	35914.75
2711.25533	35955.95
2713.86191	35898.85
2716.46687	36011.35
2719.07021	35998.25
2721.67194	36040.05
2724.27206	36042.55
2726.87057	36013.15
2729.46747	36032.25
2732.06276	36066.75
2734.65644	36072.65
2737.24852	36079.65
2739.83899	35942.85
2742.42786	35950.35
2745.01513	35811.35
2747.60079	35793.25
2750.18486	35823.55
2752.76733	35872.25
2755.3482	35796.65
2757.92747	35752.05
2760.50515	35686.65
2763.08123	35639.85
2765.65573	35580.15
2768.22863	35631.65
2770.79994	35591.75
2773.36967	35553.05
2775.9378	35470.15
2778.50435	35382.65
2781.06932	35336.05
2783.6327	35349.35
2786.1945	35279.45
2788.75471	35243.65
2791.31335	35197.45
2793.87041	35135.85
2796.42589	35067.65
2798.97979	35106.35
2801.53212	35025.65
2804.08288	35018.05
2806.63206	34916.65
2809.17967	34871.75
2811.72571	34742.45
2814.27018	34676.75
2816.81308	34552.45
2819.35442	34499.35
2821.89419	34449.65
2824.43239	34423.55
2826.96904	34414.15
2829.50412	34454.15
2832.03763	34299.35
2834.56959	34337.15
2837.1	34217.55
2839.62884	34192.35
2842.15613	34073.95
2844.68186	34029.45
2847.20604	34017.25
2849.72867	34035.05
2852.24974	34052.05
2854.76927	34026.45
2857.28724	33974.75
2859.80367	33955.75
2862.31855	33885.55
2864.83189	33803.75
2867.34368	33748.35
2869.85393	33683.35
2872.36264	33623.85
2874.8698	33587.75
2877.37543	33602.95
2879.87952	33543.45
2882.38207	33517.35
2884.88308	33512.25
2887.38256	33560.35
2889.88051	33558.75
2892.37692	33545.85
2894.8718	33498.55
2897.36515	33563.15
2899.85698	33541.85
2902.34727	33588.95
2904.83604	33589.25
2907.32328	33669.75
2909.809	33698.35
2912.29319	33738.85
2914.77587	33683.35
2917.25702	33722.05
2919.73665	33671.85
2922.21476	33712.55
2924.69136	33630.25
2927.16644	33589.25
2929.64	33519.45
2932.11205	33479.65
2934.58258	33312.65
2937.05161	33314.65
2939.51912	33370.85
2941.98513	33337.65
2944.44962	33291.55
2946.91261	33212.25
2949.37409	33318.05
2951.83407	33316.75
2954.29254	33305.05
2956.74951	33255.85
2959.20498	33300.85
2961.65895	33217.55
2964.11142	33282.35
2966.56239	33250.05
2969.01186	33172.05
2971.45984	33140.35
2973.90632	33128.35
2976.35131	33105.15
2978.7948	33099.85
2981.23681	32993.65
2983.67732	32962.15
2986.11635	32937.15
2988.55388	32832.25
2990.98993	32752.45
2993.4245	32655.85
2995.85758	32626.55
2998.28917	32456.25
3000.71928	32378.95
3003.14791	32290.95
3005.57506	32242.45
3008.00073	32109.65
3010.42493	32119.45
3012.84764	32038.45
3015.26888	32047.85
3017.68865	31950.95
3020.10694	31889.55
3022.52376	31856.55
3024.9391	31840.95
3027.35298	31844.55
3029.76539	31770.15
3032.17632	31765.15
3034.5858	31770.85
3036.9938	31672.15
3039.40034	31613.95
3041.80542	31579.85
3044.20903	31507.55
3046.61118	31477.25
3049.01187	31377.35
3051.4111	31405.05
3053.80888	31361.55
3056.20519	31335.85
3058.60005	31263.05
3060.99345	31171.15
3063.3854	31044.65
3065.7759	31020.25
3068.16494	30898.55
3070.55254	30797.25
3072.93868	30715.45
3075.32338	30610.65
3077.70662	30567.15
3080.08842	30454.25
3082.46878	30430.55
3084.84769	30478.05
3087.22515	30487.65
3089.60118	30434.05
3091.97576	30377.25
3094.3489	30356.55
3096.72061	30308.55
3099.09087	30354.65
3101.4597	30277.75
3103.82709	30304.35
3106.19305	30290.55
3108.55757	30310.45
3110.92066	30238.65
3113.28232	30222.85
3115.64255	30148.95
3118.00134	30022.05
3120.35871	29950.95
3122.71466	29875.35
3125.06917	29845.75
3127.42226	29724.15
3129.77393	29746.85
3132.12417	29670.05
3134.47299	29624.05
3136.82039	29588.15
3139.16636	29526.55
3141.51092	29536.85
3143.85406	29578.35
3146.19579	29553.55
3148.53609	29568.25
3150.87499	29586.15
3153.21246	29563.45
3155.54853	29601.35
3157.88318	29481.45
3160.21642	29521.75
3162.54826	29526.15
3164.87868	29578.15
3167.2077	29589.95
3169.5353	29560.55
3171.86151	29553.55
3174.18631	29457.05
3176.5097	29409.05
3178.83169	29379.45
3181.15228	29378.45
3183.47147	29247.05
3185.78926	29228.95
3188.10565	29147.45
3190.42065	29111.95
3192.73424	29065.55
3195.04645	29060.15
3197.35725	29056.15
3199.66667	28997.45
3201.97469	28990.85
3204.28132	28949.45
3206.58656	29019.95
3208.8904	29000.05
3211.19287	28956.45
3213.49394	28951.05
3215.79363	28924.55
3218.09193	28987.45
3220.38884	28992.75
3222.68438	29014.55
3224.97853	28939.75
3227.2713	28947.65
3229.56269	28916.15
3231.8527	28879.65
3234.14133	28833.35
3236.42858	28845.05
3238.71446	28785.15
3240.99896	28721.35
3243.28209	28637.35
3245.56384	28498.55
3247.84423	28465.75
3250.12324	28469.55
3252.40088	28456.05
3254.67715	28447.75
3256.95205	28406.25
3259.22558	28383.85
3261.49775	28340.95
3263.76855	28325.85
3266.03799	28303.05
3268.30606	28248.95
3270.57277	28201.65
3272.83812	28154.15
3275.10211	28095.15
3277.36474	27981.35
3279.62601	28008.95
3281.88593	28010.95
3284.14448	27999.85
3286.40168	28007.65
3288.65753	27983.05
3290.91202	27963.65
3293.16516	27925.75
3295.41695	27890.65
3297.66738	27724.85
3299.91647	27612.05
3302.16421	27377.25
3304.4106	27281.45
3306.65564	27133.45
3308.89933	26902.05
3311.14169	26728.25
3313.38269	26545.45
3315.62236	26415.25
3317.86068	26297.45
3320.09766	26059.95
3322.3333	25892.75
3324.5676	25773.75
3326.80056	25430.35
3329.03219	25257.25
3331.26248	4.25
3333.49143	-0.65
3335.71905	1.05
