Data from AgNPs_UA_50uM_CRN_0uM_R6G_10uM_Q_RamanShift__18__12-32-11-774.txt Node

Date: Tue Jul 26 12:32:11 BST 2022
User: TCL
Spectrometer: QEP01345
Trigger mode: 4
Integration Time (sec): 7.000000E0
Scans to average: 10
Electric dark correction enabled: true
Nonlinearity correction enabled: false
Boxcar width: 0
XAxis mode: Raman Shifts
Number of Pixels in Spectrum: 1044
>>>>>Begin Spectral Data<<<<<
46.04893	0.45
50.45542	0.15
54.85868	0.15
59.25871	-1.15
63.6555	71.15
68.04907	75.25
72.43941	77.45
76.82654	83.25
81.21044	83.15
85.59113	87.65
89.96862	93.25
94.34289	98.15
98.71396	100.05
103.08183	104.75
107.4465	105.95
111.80798	111.25
116.16626	108.95
120.52136	114.55
124.87327	114.15
129.222	123.65
133.56755	127.05
137.90993	133.65
142.24913	139.05
146.58517	157.05
150.91804	174.75
155.24774	206.15
159.57429	249.75
163.89768	313.45
168.21792	405.85
172.53501	558.95
176.84895	756.75
181.15975	1056.65
185.46741	1478.65
189.77193	2050.15
194.07331	2720.35
198.37157	3483.05
202.6667	4296.35
206.9587	5109.75
211.24758	5881.45
215.53334	6703.85
219.81599	7559.65
224.09553	8500.85
228.37195	9565.95
232.64527	10711.45
236.91549	11920.35
241.18261	13113.35
245.44663	14226.05
249.70755	15132.25
253.96539	15915.25
258.22014	16574.95
262.4718	17111.05
266.72039	17503.05
270.96589	17698.15
275.20832	17663.45
279.44768	17428.05
283.68397	17199.55
287.91719	16962.95
292.14735	16841.85
296.37445	16898.65
300.59849	17093.25
304.81948	17312.25
309.03742	17492.75
313.25231	17403.65
317.46415	17094.25
321.67296	16629.75
325.87872	16270.85
330.08145	16120.25
334.28114	16174.75
338.47781	16412.25
342.67145	16661.55
346.86207	17030.35
351.04966	17557.25
355.23424	18078.05
359.4158	18514.05
363.59435	18879.45
367.76989	19127.65
371.94243	19247.75
376.11196	19354.05
380.27849	19463.65
384.44203	19503.55
388.60257	19655.85
392.76012	19709.15
396.91468	19898.95
401.06626	20194.95
405.21485	20414.05
409.36047	20381.35
413.50311	20136.55
417.64277	19983.25
421.77947	19865.45
425.9132	19395.25
430.04396	19249.15
434.17176	19327.95
438.2966	19526.35
442.41849	19869.95
446.53742	20257.65
450.6534	20698.85
454.76644	21073.45
458.87653	21165.55
462.98368	21193.25
467.08789	21058.25
471.18916	20802.75
475.2875	20470.15
479.38291	20197.75
483.4754	19985.35
487.56496	19839.05
491.6516	19745.55
495.73531	19710.35
499.81612	19765.45
503.89401	19916.55
507.96899	20035.45
512.04106	20085.95
516.11023	20192.15
520.1765	20267.25
524.23987	20293.95
528.30034	20213.85
532.35792	20207.75
536.41261	20063.75
540.46441	19903.25
544.51333	19801.25
548.55936	19885.15
552.60252	20102.25
556.64279	20351.55
560.6802	20589.45
564.71473	20724.25
568.7464	20924.95
572.7752	21037.65
576.80114	20945.35
580.82422	20941.25
584.84444	21071.35
588.86181	21272.35
592.87633	21390.15
596.888	21629.35
600.89682	22058.25
604.9028	23508.85
608.90594	26715.85
612.90624	29923.45
616.90371	28275.45
620.89834	23560.45
624.89015	21599.55
628.87913	21388.15
632.86528	21514.55
636.84862	21503.45
640.82913	21203.95
644.80683	20613.45
648.78172	20236.35
652.75379	20256.55
656.72306	20647.55
660.68952	21140.85
664.65319	21107.05
668.61405	20866.85
672.57211	20891.75
676.52738	21019.15
680.47986	20884.95
684.42955	20720.65
688.37646	20682.75
692.32058	20822.75
696.26192	20967.25
700.20048	21175.05
704.13626	21284.45
708.06928	21146.65
711.99952	20967.15
715.927	20920.05
719.85171	20943.45
723.77365	20880.55
727.69284	20730.25
731.60928	20642.05
735.52295	20635.85
739.43388	20742.25
743.34206	20803.75
747.24749	20842.25
751.15017	20853.25
755.05012	21025.65
758.94733	21457.05
762.8418	22513.35
766.73354	24216.85
770.62254	25916.15
774.50882	26762.35
778.39237	26218.75
782.27321	24650.55
786.15132	22997.55
790.02671	21885.75
793.89938	21322.75
797.76935	21049.95
801.6366	20942.55
805.50115	20846.35
809.36299	20745.05
813.22213	20618.55
817.07857	20583.65
820.93231	20583.05
824.78336	20590.85
828.63172	20625.75
832.47738	20652.85
836.32036	20673.05
840.16066	20689.35
843.99827	20764.45
847.8332	20754.05
851.66546	20715.45
855.49504	20740.95
859.32195	20784.95
863.1462	20764.25
866.96777	20717.35
870.78668	20753.35
874.60293	20750.55
878.41652	20814.85
882.22745	20867.75
886.03573	20960.65
889.84136	20950.35
893.64433	20835.85
897.44466	20735.65
901.24235	20711.15
905.0374	20683.55
908.8298	20603.25
912.61957	20579.45
916.40671	20594.75
920.19121	20751.35
923.97308	20908.05
927.75233	21069.15
931.52895	21120.55
935.30295	21080.05
939.07433	20813.35
942.84309	20624.85
946.60924	20499.35
950.37278	20471.65
954.13371	20409.15
957.89203	20388.05
961.64774	20316.65
965.40086	20246.55
969.15137	20221.55
972.89929	20203.15
976.64461	20208.05
980.38733	20240.15
984.12747	20332.45
987.86502	20509.85
991.59999	20758.55
995.33237	21049.95
999.06217	21473.95
1002.78939	21939.55
1006.51404	22220.95
1010.23611	22404.05
1013.95561	22608.85
1017.67255	22705.15
1021.38692	22571.65
1025.09872	22468.55
1028.80796	22552.55
1032.51465	22952.75
1036.21877	23314.95
1039.92035	23314.75
1043.61937	23084.45
1047.31584	22695.75
1051.00976	22319.65
1054.70114	22139.25
1058.38998	22158.05
1062.07627	22231.95
1065.76003	22302.85
1069.44126	22473.35
1073.11995	22746.85
1076.79611	23117.65
1080.46974	23429.75
1084.14085	23633.45
1087.80943	23803.35
1091.47549	23858.85
1095.13903	23782.95
1098.80005	23553.55
1102.45857	23404.35
1106.11456	23331.45
1109.76805	23248.15
1113.41903	23279.55
1117.06751	23456.75
1120.71348	23685.55
1124.35696	23982.25
1127.99793	24231.45
1131.63641	24211.05
1135.2724	23882.35
1138.90589	23540.75
1142.5369	23299.95
1146.16542	23063.45
1149.79145	22861.35
1153.415	22752.75
1157.03607	22805.85
1160.65467	22964.65
1164.27079	23449.05
1167.88443	24187.75
1171.49561	25223.25
1175.10432	26739.85
1178.71056	28722.75
1182.31434	30548.55
1185.91565	31478.05
1189.51451	31436.85
1193.11091	30544.05
1196.70485	29386.15
1200.29634	28377.15
1203.88538	27520.75
1207.47197	26671.75
1211.05612	25904.55
1214.63782	25424.45
1218.21708	25182.15
1221.79391	25104.05
1225.36829	25171.45
1228.94024	25083.85
1232.50976	24784.45
1236.07685	24540.05
1239.6415	24477.95
1243.20374	24584.55
1246.76355	24757.55
1250.32093	25116.75
1253.8759	25436.55
1257.42845	25993.85
1260.97859	26620.65
1264.52631	27279.55
1268.07163	27873.85
1271.61453	28537.15
1275.15503	29059.25
1278.69312	29463.25
1282.22882	29736.95
1285.76211	29957.25
1289.29301	30224.95
1292.82151	30573.15
1296.34761	31200.75
1299.87133	32284.75
1303.39266	33940.15
1306.9116	36359.55
1310.42815	38988.55
1313.94233	40569.55
1317.45412	40201.75
1320.96354	38741.35
1324.47058	36977.65
1327.97525	35360.15
1331.47754	34112.45
1334.97747	33586.85
1338.47502	33605.65
1341.97022	34057.05
1345.46305	34870.55
1348.95352	35762.35
1352.44163	36873.65
1355.92738	38401.25
1359.41078	40686.75
1362.89183	42655.55
1366.37053	41573.85
1369.84688	37530.25
1373.32088	33494.55
1376.79254	30913.55
1380.26186	29577.95
1383.72883	28839.55
1387.19347	28237.55
1390.65578	27706.75
1394.11575	27055.75
1397.57339	26742.85
1401.0287	26709.35
1404.48168	26806.65
1407.93234	26964.65
1411.38068	27061.35
1414.82669	27099.45
1418.27039	26899.75
1421.71177	26610.05
1425.15083	26362.75
1428.58758	26230.95
1432.02203	26419.65
1435.45416	26697.75
1438.88399	26916.75
1442.31151	27044.75
1445.73673	27071.15
1449.15965	27163.45
1452.58027	27152.75
1455.9986	27109.05
1459.41463	27224.05
1462.82837	27569.75
1466.23982	28124.55
1469.64898	28562.15
1473.05586	28875.05
1476.46045	29015.85
1479.86276	29093.05
1483.26279	29158.15
1486.66054	29256.75
1490.05602	29562.95
1493.44922	30074.85
1496.84016	30955.25
1500.22882	32410.05
1503.61521	34438.85
1506.99934	36634.85
1510.38121	38200.95
1513.76081	38302.15
1517.13816	36693.25
1520.51324	34096.05
1523.88607	31789.75
1527.25665	30210.45
1530.62498	29338.35
1533.99105	28760.65
1537.35488	28437.15
1540.71647	28232.05
1544.07581	28097.15
1547.4329	28005.85
1550.78776	27896.55
1554.14038	27775.75
1557.49077	27773.75
1560.83892	27919.35
1564.18484	28262.95
1567.52853	28672.15
1570.86999	28954.75
1574.20922	29122.95
1577.54624	28972.55
1580.88103	28330.35
1584.2136	27688.45
1587.54395	27463.55
1590.87208	28099.75
1594.19801	29445.95
1597.52172	31122.65
1600.84321	31961.85
1604.16251	31296.65
1607.47959	29838.85
1610.79447	28189.25
1614.10715	26500.95
1617.41763	25094.55
1620.7259	24099.35
1624.03199	23633.45
1627.33587	23610.25
1630.63757	23987.55
1633.93707	24885.35
1637.23439	26308.55
1640.52951	28248.25
1643.82246	30586.15
1647.11321	32766.05
1650.40179	33483.05
1653.68819	32045.55
1656.97241	29039.25
1660.25446	25969.05
1663.53433	23793.25
1666.81203	22478.75
1670.08756	21637.45
1673.36092	21102.25
1676.63211	20696.55
1679.90115	20450.05
1683.16801	20246.35
1686.43272	20046.65
1689.69527	19945.95
1692.95567	19851.05
1696.2139	19823.35
1699.46999	19768.75
1702.72392	19745.65
1705.97571	19734.45
1709.22535	19676.45
1712.47284	19698.65
1715.71819	19656.35
1718.96139	19593.05
1722.20246	19526.85
1725.44139	19480.85
1728.67818	19372.65
1731.91284	19310.85
1735.14537	19271.95
1738.37576	19212.65
1741.60403	19120.65
1744.83017	19040.15
1748.05418	19004.45
1751.27607	18978.45
1754.49584	18951.15
1757.71349	18897.75
1760.92903	18862.25
1764.14244	18880.25
1767.35375	18840.45
1770.56294	18815.65
1773.77002	18785.45
1776.97499	18791.15
1780.17785	18760.95
1783.37861	18781.95
1786.57727	18710.45
1789.77382	18734.85
1792.96828	18709.75
1796.16064	18658.65
1799.3509	18626.85
1802.53907	18635.95
1805.72514	18620.35
1808.90913	18542.45
1812.09102	18497.25
1815.27083	18436.45
1818.44856	18402.25
1821.6242	18407.85
1824.79776	18324.55
1827.96924	18325.25
1831.13864	18309.65
1834.30597	18305.85
1837.47122	18300.65
1840.6344	18293.75
1843.7955	18288.95
1846.95454	18265.65
1850.11151	18246.75
1853.26642	18227.55
1856.41926	18227.95
1859.57004	18235.95
1862.71876	18161.85
1865.86542	18175.25
1869.01003	18177.65
1872.15258	18153.95
1875.29308	18145.45
1878.43152	18119.75
1881.56792	18108.05
1884.70227	18097.15
1887.83457	18072.45
1890.96482	18061.85
1894.09304	18021.15
1897.21921	17989.35
1900.34335	17987.15
1903.46544	18003.55
1906.58551	17962.35
1909.70353	17994.75
1912.81953	17991.05
1915.93349	17949.85
1919.04543	17935.45
1922.15534	17888.15
1925.26322	17847.05
1928.36908	17822.95
1931.47292	17814.35
1934.57473	17755.25
1937.67453	17710.95
1940.77232	17738.65
1943.86808	17644.65
1946.96184	17633.55
1950.05358	17557.25
1953.14331	17508.95
1956.23103	17471.45
1959.31675	17444.55
1962.40046	17368.15
1965.48217	17323.35
1968.56188	17292.15
1971.63959	17260.15
1974.7153	17226.55
1977.78901	17166.55
1980.86073	17116.45
1983.93046	17071.75
1986.99819	17019.65
1990.06394	17018.55
1993.1277	16949.85
1996.18947	16886.85
1999.24925	16855.25
2002.30706	16852.05
2005.36288	16768.75
2008.41672	16744.45
2011.46859	16711.65
2014.51848	16641.25
2017.56639	16591.25
2020.61233	16518.15
2023.6563	16525.15
2026.6983	16501.75
2029.73833	16453.45
2032.7764	16418.65
2035.8125	16380.45
2038.84664	16349.85
2041.87881	16379.85
2044.90903	16362.45
2047.93729	16306.65
2050.96359	16285.75
2053.98794	16296.85
2057.01034	16274.15
2060.03078	16277.25
2063.04927	16263.95
2066.06582	16288.55
2069.08042	16232.85
2072.09307	16215.75
2075.10378	16200.75
2078.11255	16159.75
2081.11938	16129.25
2084.12426	16193.85
2087.12722	16163.15
2090.12824	16193.15
2093.12732	16193.05
2096.12447	16163.05
2099.11969	16143.75
2102.11299	16180.05
2105.10435	16176.35
2108.09379	16190.05
2111.08131	16182.75
2114.0669	16187.75
2117.05057	16211.55
2120.03233	16240.55
2123.01216	16254.65
2125.99008	16292.55
2128.96609	16295.15
2131.94018	16327.55
2134.91236	16287.05
2137.88263	16292.65
2140.851	16354.05
2143.81746	16348.75
2146.78201	16340.15
2149.74466	16378.75
2152.7054	16390.45
2155.66425	16390.45
2158.6212	16375.85
2161.57625	16360.95
2164.52941	16357.45
2167.48067	16360.15
2170.43004	16352.35
2173.37752	16336.65
2176.32311	16361.75
2179.26681	16397.25
2182.20863	16331.85
2185.14856	16393.05
2188.08661	16382.65
2191.02278	16379.35
2193.95707	16382.25
2196.88948	16378.35
2199.82001	16363.15
2202.74867	16346.25
2205.67545	16382.25
2208.60037	16348.15
2211.52341	16358.65
2214.44458	16375.95
2217.36388	16303.85
2220.28132	16295.25
2223.1969	16248.95
2226.11061	16248.95
2229.02246	16233.25
2231.93245	16194.45
2234.84058	16165.05
2237.74686	16117.55
2240.65128	16094.85
2243.55385	16065.05
2246.45456	16079.35
2249.35343	16061.15
2252.25044	16009.25
2255.14561	16054.65
2258.03893	16052.95
2260.93041	16001.45
2263.82004	15987.85
2266.70783	15968.35
2269.59378	15895.95
2272.4779	15907.55
2275.36017	15841.75
2278.24061	15803.85
2281.11922	15774.75
2283.996	15795.55
2286.87094	15745.35
2289.74405	15705.65
2292.61534	15697.05
2295.4848	15697.55
2298.35243	15699.65
2301.21824	15701.15
2304.08223	15700.65
2306.94439	15732.55
2309.80474	15759.95
2312.66327	15717.45
2315.51999	15710.65
2318.37489	15749.05
2321.22797	15746.65
2324.07925	15676.15
2326.92871	15640.45
2329.77637	15619.45
2332.62222	15605.45
2335.46626	15628.35
2338.3085	15628.75
2341.14893	15617.05
2343.98756	15632.75
2346.8244	15655.75
2349.65943	15682.05
2352.49267	15658.15
2355.32411	15625.95
2358.15376	15619.85
2360.98161	15633.45
2363.80768	15611.05
2366.63195	15611.95
2369.45444	15564.85
2372.27514	15542.45
2375.09405	15542.55
2377.91118	15519.05
2380.72652	15501.25
2383.54009	15440.05
2386.35187	15425.45
2389.16188	15383.85
2391.97011	15363.45
2394.77657	15375.45
2397.58125	15326.95
2400.38416	15306.55
2403.18529	15307.05
2405.98466	15235.55
2408.78226	15174.05
2411.57809	15186.45
2414.37216	15153.75
2417.16446	15185.35
2419.955	15163.35
2422.74378	15173.65
2425.5308	15143.65
2428.31606	15125.75
2431.09956	15115.25
2433.88131	15096.55
2436.6613	15144.95
2439.43954	15124.15
2442.21603	15145.55
2444.99077	15120.05
2447.76377	15088.95
2450.53501	15051.15
2453.30451	15060.55
2456.07226	15049.75
2458.83827	15042.05
2461.60254	15032.45
2464.36507	15002.55
2467.12586	15015.45
2469.88492	15003.65
2472.64224	14999.15
2475.39782	15021.45
2478.15167	15030.75
2480.90379	15016.95
2483.65417	15037.45
2486.40283	15055.05
2489.14976	15066.65
2491.89497	15058.85
2494.63845	15078.05
2497.3802	15053.85
2500.12024	15034.55
2502.85855	15022.15
2505.59514	14997.25
2508.33002	14969.05
2511.06318	14953.05
2513.79462	14950.65
2516.52435	14936.95
2519.25237	14923.15
2521.97867	14853.35
2524.70327	14863.85
2527.42616	14882.05
2530.14734	14898.95
2532.86681	14870.95
2535.58458	14896.45
2538.30065	14860.95
2541.01501	14846.45
2543.72768	14846.45
2546.43864	14819.65
2549.14791	14808.15
2551.85548	14788.95
2554.56136	14790.45
2557.26554	14770.45
2559.96803	14756.05
2562.66883	14721.25
2565.36794	14688.05
2568.06536	14722.35
2570.7611	14697.25
2573.45514	14653.45
2576.14751	14656.15
2578.83819	14628.55
2581.52719	14647.15
2584.21451	14632.85
2586.90015	14618.05
2589.58411	14614.25
2592.2664	14619.75
2594.94701	14595.15
2597.62594	14553.45
2600.30321	14528.25
2602.9788	14536.45
2605.65273	14500.85
2608.32498	14535.25
2610.99557	14516.55
2613.66449	14504.05
2616.33175	14512.25
2618.99734	14528.65
2621.66128	14538.15
2624.32355	14503.75
2626.98416	14505.85
2629.64311	14501.65
2632.30041	14484.85
2634.95605	14492.15
2637.61004	14471.45
2640.26238	14448.55
2642.91306	14472.25
2645.56209	14452.95
2648.20948	14409.15
2650.85521	14404.15
2653.4993	14350.75
2656.14175	14377.85
2658.78255	14375.65
2661.42171	14370.85
2664.05923	14391.35
2666.6951	14412.55
2669.32934	14455.25
2671.96194	14471.85
2674.59291	14452.55
2677.22224	14421.35
2679.84993	14451.25
2682.476	14424.25
2685.10043	14417.25
2687.72324	14382.75
2690.34441	14374.95
2692.96396	14362.85
2695.58188	14386.85
2698.19818	14352.05
2700.81285	14368.65
2703.4259	14344.55
2706.03733	14384.55
2708.64714	14380.75
2711.25533	14369.15
2713.86191	14389.25
2716.46687	14390.75
2719.07021	14384.65
2721.67194	14432.55
2724.27206	14418.45
2726.87057	14414.95
2729.46747	14395.65
2732.06276	14380.75
2734.65644	14373.95
2737.24852	14414.55
2739.83899	14384.75
2742.42786	14421.55
2745.01513	14385.75
2747.60079	14349.75
2750.18486	14295.55
2752.76733	14305.65
2755.3482	14304.45
2757.92747	14323.45
2760.50515	14332.55
2763.08123	14292.25
2765.65573	14302.85
2768.22863	14303.45
2770.79994	14308.15
2773.36967	14288.95
2775.9378	14262.95
2778.50435	14250.05
2781.06932	14238.35
2783.6327	14304.95
2786.1945	14244.75
2788.75471	14248.15
2791.31335	14194.75
2793.87041	14170.15
2796.42589	14137.65
2798.97979	14110.95
2801.53212	14096.45
2804.08288	14077.85
2806.63206	14056.95
2809.17967	14017.45
2811.72571	13992.65
2814.27018	13976.75
2816.81308	13976.45
2819.35442	13957.75
2821.89419	13955.25
2824.43239	13945.15
2826.96904	13907.55
2829.50412	13944.65
2832.03763	13848.65
2834.56959	13854.35
2837.1	13830.75
2839.62884	13826.45
2842.15613	13826.75
2844.68186	13838.15
2847.20604	13813.45
2849.72867	13810.55
2852.24974	13806.25
2854.76927	13767.15
2857.28724	13762.55
2859.80367	13773.05
2862.31855	13772.65
2864.83189	13722.25
2867.34368	13722.35
2869.85393	13739.85
2872.36264	13717.15
2874.8698	13713.35
2877.37543	13704.85
2879.87952	13684.15
2882.38207	13700.55
2884.88308	13713.75
2887.38256	13728.85
2889.88051	13735.55
2892.37692	13707.35
2894.8718	13710.75
2897.36515	13713.55
2899.85698	13718.65
2902.34727	13754.75
2904.83604	13772.45
2907.32328	13850.85
2909.809	13818.25
2912.29319	13825.85
2914.77587	13792.15
2917.25702	13813.15
2919.73665	13805.15
2922.21476	13816.45
2924.69136	13799.75
2927.16644	13775.35
2929.64	13736.25
2932.11205	13742.35
2934.58258	13685.05
2937.05161	13744.15
2939.51912	13738.15
2941.98513	13729.75
2944.44962	13690.55
2946.91261	13653.65
2949.37409	13686.95
2951.83407	13671.55
2954.29254	13684.45
2956.74951	13719.95
2959.20498	13690.65
2961.65895	13661.65
2964.11142	13643.65
2966.56239	13659.85
2969.01186	13671.25
2971.45984	13651.75
2973.90632	13675.05
2976.35131	13618.55
2978.7948	13598.45
2981.23681	13544.85
2983.67732	13558.85
2986.11635	13570.05
2988.55388	13518.45
2990.98993	13526.65
2993.4245	13464.15
2995.85758	13444.45
2998.28917	13452.55
3000.71928	13435.75
3003.14791	13414.45
3005.57506	13400.45
3008.00073	13373.05
3010.42493	13358.65
3012.84764	13341.05
3015.26888	13337.65
3017.68865	13300.35
3020.10694	13286.55
3022.52376	13276.75
3024.9391	13247.75
3027.35298	13234.25
3029.76539	13239.95
3032.17632	13231.85
3034.5858	13172.45
3036.9938	13196.25
3039.40034	13180.95
3041.80542	13186.15
3044.20903	13165.35
3046.61118	13160.55
3049.01187	13129.75
3051.4111	13152.05
3053.80888	13108.65
3056.20519	13090.45
3058.60005	13028.85
3060.99345	13030.85
3063.3854	13011.55
3065.7759	12973.55
3068.16494	12980.15
3070.55254	12967.95
3072.93868	12910.95
3075.32338	12869.15
3077.70662	12862.05
3080.08842	12867.05
3082.46878	12865.05
3084.84769	12848.35
3087.22515	12825.95
3089.60118	12842.25
3091.97576	12860.25
3094.3489	12838.55
3096.72061	12827.05
3099.09087	12827.15
3101.4597	12839.25
3103.82709	12812.55
3106.19305	12834.95
3108.55757	12835.25
3110.92066	12787.55
3113.28232	12797.15
3115.64255	12760.35
3118.00134	12780.15
3120.35871	12763.35
3122.71466	12740.15
3125.06917	12713.55
3127.42226	12669.65
3129.77393	12720.75
3132.12417	12705.75
3134.47299	12694.55
3136.82039	12676.05
3139.16636	12707.15
3141.51092	12677.85
3143.85406	12699.95
3146.19579	12657.05
3148.53609	12698.65
3150.87499	12724.95
3153.21246	12747.15
3155.54853	12738.05
3157.88318	12709.75
3160.21642	12748.55
3162.54826	12740.35
3164.87868	12758.15
3167.2077	12734.65
3169.5353	12771.85
3171.86151	12753.35
3174.18631	12751.35
3176.5097	12751.25
3178.83169	12735.05
3181.15228	12737.85
3183.47147	12668.05
3185.78926	12674.65
3188.10565	12622.95
3190.42065	12655.35
3192.73424	12674.75
3195.04645	12680.65
3197.35725	12663.65
3199.66667	12664.15
3201.97469	12671.35
3204.28132	12632.85
3206.58656	12665.65
3208.8904	12678.05
3211.19287	12664.65
3213.49394	12673.45
3215.79363	12676.75
3218.09193	12720.35
3220.38884	12693.75
3222.68438	12703.75
3224.97853	12703.75
3227.2713	12739.15
3229.56269	12732.05
3231.8527	12746.25
3234.14133	12695.05
3236.42858	12699.65
3238.71446	12666.45
3240.99896	12620.05
3243.28209	12589.65
3245.56384	12572.45
3247.84423	12596.65
3250.12324	12546.45
3252.40088	12545.85
3254.67715	12551.45
3256.95205	12531.65
3259.22558	12548.85
3261.49775	12540.75
3263.76855	12569.05
3266.03799	12556.55
3268.30606	12540.85
3270.57277	12551.95
3272.83812	12509.45
3275.10211	12473.65
3277.36474	12450.65
3279.62601	12495.05
3281.88593	12443.45
3284.14448	12457.55
3286.40168	12453.25
3288.65753	12429.95
3290.91202	12444.15
3293.16516	12421.15
3295.41695	12386.05
3297.66738	12317.05
3299.91647	12251.05
3302.16421	12212.15
3304.4106	12149.95
3306.65564	12083.95
3308.89933	12001.15
3311.14169	11944.05
3313.38269	11856.15
3315.62236	11792.05
3317.86068	11695.45
3320.09766	11636.15
3322.3333	11519.75
3324.5676	11494.05
3326.80056	11349.45
3329.03219	11273.45
3331.26248	3.05
3333.49143	-1.15
3335.71905	-0.35
