Data from AgNPs_UA_100uM_CRN_0uM_R6G_10uM_Q_RamanShift__4__13-17-05-311.txt Node

Date: Tue Jul 26 13:17:05 BST 2022
User: TCL
Spectrometer: QEP01345
Trigger mode: 4
Integration Time (sec): 7.000000E0
Scans to average: 10
Electric dark correction enabled: true
Nonlinearity correction enabled: false
Boxcar width: 0
XAxis mode: Raman Shifts
Number of Pixels in Spectrum: 1044
>>>>>Begin Spectral Data<<<<<
46.04893	-1.25
50.45542	0.65
54.85868	-0.95
59.25871	-0.05
63.6555	74.55
68.04907	81.05
72.43941	87.05
76.82654	92.05
81.21044	94.95
85.59113	94.75
89.96862	105.15
94.34289	105.45
98.71396	106.45
103.08183	111.55
107.4465	111.45
111.80798	115.85
116.16626	114.95
120.52136	118.95
124.87327	124.35
129.222	130.95
133.56755	135.95
137.90993	139.75
142.24913	151.35
146.58517	159.35
150.91804	176.45
155.24774	206.75
159.57429	247.35
163.89768	309.85
168.21792	403.05
172.53501	529.35
176.84895	729.25
181.15975	1020.15
185.46741	1418.25
189.77193	1953.15
194.07331	2605.65
198.37157	3334.35
202.6667	4124.65
206.9587	4883.05
211.24758	5639.55
215.53334	6423.15
219.81599	7228.95
224.09553	8164.35
228.37195	9182.45
232.64527	10273.95
236.91549	11454.85
241.18261	12568.55
245.44663	13547.05
249.70755	14399.65
253.96539	15142.45
258.22014	15738.75
262.4718	16237.35
266.72039	16597.05
270.96589	16775.45
275.20832	16727.25
279.44768	16547.45
283.68397	16336.65
287.91719	16186.95
292.14735	16163.65
296.37445	16208.75
300.59849	16439.85
304.81948	16746.55
309.03742	16987.25
313.25231	17043.55
317.46415	16811.45
321.67296	16380.75
325.87872	15967.15
330.08145	15750.55
334.28114	15754.85
338.47781	15929.35
342.67145	16177.85
346.86207	16502.25
351.04966	16905.05
355.23424	17329.45
359.4158	17673.65
363.59435	17923.25
367.76989	18031.25
371.94243	18102.75
376.11196	18140.85
380.27849	18184.65
384.44203	18230.05
388.60257	18274.25
392.76012	18424.45
396.91468	18630.35
401.06626	18882.55
405.21485	19079.75
409.36047	18928.45
413.50311	18550.15
417.64277	18206.75
421.77947	18117.45
425.9132	18123.25
430.04396	18225.15
434.17176	18359.15
438.2966	18544.05
442.41849	18806.45
446.53742	19172.05
450.6534	19521.05
454.76644	19766.15
458.87653	19810.95
462.98368	19724.45
467.08789	19588.95
471.18916	19391.15
475.2875	19139.05
479.38291	18866.55
483.4754	18672.55
487.56496	18510.15
491.6516	18487.25
495.73531	18533.05
499.81612	18600.45
503.89401	18722.75
507.96899	18784.95
512.04106	18819.25
516.11023	18877.15
520.1765	18969.35
524.23987	19025.45
528.30034	19020.85
532.35792	18924.55
536.41261	18814.25
540.46441	18649.15
544.51333	18622.05
548.55936	18740.55
552.60252	18996.85
556.64279	19276.45
560.6802	19434.65
564.71473	19522.55
568.7464	19704.75
572.7752	19883.25
576.80114	19956.25
580.82422	20137.55
584.84444	20451.05
588.86181	20660.25
592.87633	20888.25
596.888	21078.75
600.89682	21317.25
604.9028	22437.05
608.90594	25104.35
612.90624	27802.35
616.90371	26199.75
620.89834	21776.25
624.89015	19879.05
628.87913	19660.55
632.86528	19909.15
636.84862	20141.75
640.82913	19904.25
644.80683	19452.25
648.78172	19116.95
652.75379	19150.35
656.72306	19433.75
660.68952	19797.15
664.65319	19643.45
668.61405	19295.55
672.57211	19226.85
676.52738	19268.55
680.47986	19204.05
684.42955	19063.75
688.37646	18995.55
692.32058	19130.85
696.26192	19295.75
700.20048	19469.15
704.13626	19637.05
708.06928	19616.75
711.99952	19483.35
715.927	19448.35
719.85171	19533.55
723.77365	19546.75
727.69284	19450.05
731.60928	19333.25
735.52295	19327.15
739.43388	19407.55
743.34206	19430.35
747.24749	19506.25
751.15017	19555.15
755.05012	19805.65
758.94733	20341.75
762.8418	21570.25
766.73354	23443.55
770.62254	25126.45
774.50882	25491.65
778.39237	24415.25
782.27321	22721.25
786.15132	21192.95
790.02671	20262.55
793.89938	19769.35
797.76935	19552.55
801.6366	19444.85
805.50115	19422.35
809.36299	19368.15
813.22213	19289.35
817.07857	19235.45
820.93231	19246.85
824.78336	19248.15
828.63172	19251.25
832.47738	19262.65
836.32036	19224.95
840.16066	19195.65
843.99827	19217.75
847.8332	19198.55
851.66546	19229.75
855.49504	19273.35
859.32195	19299.95
863.1462	19296.95
866.96777	19256.85
870.78668	19275.65
874.60293	19322.45
878.41652	19391.85
882.22745	19534.55
886.03573	19624.35
889.84136	19607.15
893.64433	19573.25
897.44466	19479.35
901.24235	19432.85
905.0374	19385.65
908.8298	19326.85
912.61957	19310.25
916.40671	19350.55
920.19121	19476.95
923.97308	19591.65
927.75233	19677.45
931.52895	19652.75
935.30295	19505.05
939.07433	19229.25
942.84309	19057.25
946.60924	19025.05
950.37278	18934.75
954.13371	18895.45
957.89203	18881.35
961.64774	18882.75
965.40086	18852.55
969.15137	18831.75
972.89929	18815.35
976.64461	18799.75
980.38733	18835.25
984.12747	18888.75
987.86502	18965.75
991.59999	19086.45
995.33237	19269.25
999.06217	19478.75
1002.78939	19788.25
1006.51404	20051.25
1010.23611	20345.45
1013.95561	20502.55
1017.67255	20574.65
1021.38692	20421.65
1025.09872	20195.75
1028.80796	20016.85
1032.51465	20030.25
1036.21877	20102.25
1039.92035	20141.15
1043.61937	20203.45
1047.31584	20188.05
1051.00976	20128.35
1054.70114	20115.75
1058.38998	20152.35
1062.07627	20289.85
1065.76003	20415.35
1069.44126	20665.65
1073.11995	20930.05
1076.79611	21242.25
1080.46974	21443.35
1084.14085	21625.15
1087.80943	21813.15
1091.47549	21936.35
1095.13903	21776.45
1098.80005	21518.45
1102.45857	21178.95
1106.11456	21005.85
1109.76805	20967.75
1113.41903	21027.75
1117.06751	21290.45
1120.71348	21632.35
1124.35696	22044.45
1127.99793	22382.95
1131.63641	22313.85
1135.2724	22003.65
1138.90589	21665.95
1142.5369	21480.45
1146.16542	21300.45
1149.79145	21197.15
1153.415	21152.55
1157.03607	21217.85
1160.65467	21421.45
1164.27079	21921.15
1167.88443	22672.25
1171.49561	23659.35
1175.10432	25145.95
1178.71056	27051.05
1182.31434	28715.45
1185.91565	29485.75
1189.51451	29449.75
1193.11091	28834.65
1196.70485	27898.55
1200.29634	26883.65
1203.88538	25972.35
1207.47197	25065.65
1211.05612	24212.05
1214.63782	23631.35
1218.21708	23279.85
1221.79391	23144.95
1225.36829	23143.55
1228.94024	23112.25
1232.50976	23044.35
1236.07685	22903.25
1239.6415	22872.05
1243.20374	22886.35
1246.76355	22968.95
1250.32093	23140.25
1253.8759	23429.25
1257.42845	23871.15
1260.97859	24459.55
1264.52631	25004.55
1268.07163	25490.55
1271.61453	25953.95
1275.15503	26289.65
1278.69312	26553.85
1282.22882	26807.95
1285.76211	27125.65
1289.29301	27584.85
1292.82151	28159.55
1296.34761	28863.95
1299.87133	29910.15
1303.39266	31297.35
1306.9116	33166.05
1310.42815	35102.35
1313.94233	35980.85
1317.45412	35468.95
1320.96354	34265.45
1324.47058	33020.55
1327.97525	31835.75
1331.47754	31137.05
1334.97747	30876.75
1338.47502	30999.15
1341.97022	31433.35
1345.46305	32140.05
1348.95352	33215.05
1352.44163	34512.35
1355.92738	36116.45
1359.41078	38309.45
1362.89183	40150.65
1366.37053	39202.95
1369.84688	35407.15
1373.32088	31428.85
1376.79254	28861.75
1380.26186	27568.85
1383.72883	26865.45
1387.19347	26330.85
1390.65578	25680.35
1394.11575	25186.55
1397.57339	24802.65
1401.0287	24692.85
1404.48168	24581.25
1407.93234	24626.85
1411.38068	24672.45
1414.82669	24678.85
1418.27039	24490.55
1421.71177	24161.05
1425.15083	23916.75
1428.58758	23754.95
1432.02203	23852.75
1435.45416	24112.25
1438.88399	24292.45
1442.31151	24380.25
1445.73673	24471.85
1449.15965	24551.65
1452.58027	24563.85
1455.9986	24456.75
1459.41463	24544.15
1462.82837	24882.55
1466.23982	25292.65
1469.64898	25724.75
1473.05586	26200.55
1476.46045	26507.05
1479.86276	26688.05
1483.26279	26945.35
1486.66054	27314.05
1490.05602	27811.55
1493.44922	28566.15
1496.84016	29745.75
1500.22882	31520.05
1503.61521	33793.85
1506.99934	36117.65
1510.38121	37483.65
1513.76081	37101.75
1517.13816	35032.75
1520.51324	32374.05
1523.88607	30073.45
1527.25665	28816.95
1530.62498	28181.95
1533.99105	27792.15
1537.35488	27474.45
1540.71647	27162.85
1544.07581	26815.95
1547.4329	26472.05
1550.78776	26181.45
1554.14038	26021.85
1557.49077	25990.15
1560.83892	26150.85
1564.18484	26439.95
1567.52853	26871.45
1570.86999	27203.65
1574.20922	27435.45
1577.54624	27299.45
1580.88103	26659.65
1584.2136	25771.65
1587.54395	25452.05
1590.87208	25776.15
1594.19801	26688.65
1597.52172	27846.75
1600.84321	28376.85
1604.16251	27929.75
1607.47959	26960.75
1610.79447	25854.25
1614.10715	24599.35
1617.41763	23500.75
1620.7259	22669.25
1624.03199	22147.45
1627.33587	22055.55
1630.63757	22303.75
1633.93707	22968.45
1637.23439	24248.15
1640.52951	26179.75
1643.82246	28558.65
1647.11321	30837.35
1650.40179	31821.95
1653.68819	30667.25
1656.97241	27862.85
1660.25446	24843.55
1663.53433	22667.55
1666.81203	21304.55
1670.08756	20423.05
1673.36092	19935.65
1676.63211	19544.95
1679.90115	19278.05
1683.16801	19077.05
1686.43272	18899.95
1689.69527	18776.85
1692.95567	18693.35
1696.2139	18585.95
1699.46999	18567.65
1702.72392	18477.35
1705.97571	18449.15
1709.22535	18419.55
1712.47284	18361.65
1715.71819	18381.95
1718.96139	18351.45
1722.20246	18300.35
1725.44139	18238.65
1728.67818	18166.25
1731.91284	18100.55
1735.14537	18049.95
1738.37576	17993.05
1741.60403	17924.55
1744.83017	17875.15
1748.05418	17821.95
1751.27607	17779.85
1754.49584	17743.15
1757.71349	17732.05
1760.92903	17730.75
1764.14244	17745.15
1767.35375	17742.45
1770.56294	17707.15
1773.77002	17681.35
1776.97499	17639.35
1780.17785	17616.75
1783.37861	17566.05
1786.57727	17559.55
1789.77382	17562.05
1792.96828	17543.85
1796.16064	17527.75
1799.3509	17484.85
1802.53907	17462.95
1805.72514	17423.35
1808.90913	17377.35
1812.09102	17330.85
1815.27083	17312.05
1818.44856	17308.85
1821.6242	17277.45
1824.79776	17241.75
1827.96924	17199.05
1831.13864	17184.55
1834.30597	17189.55
1837.47122	17157.75
1840.6344	17151.45
1843.7955	17183.85
1846.95454	17161.05
1850.11151	17176.75
1853.26642	17118.55
1856.41926	17115.55
1859.57004	17123.55
1862.71876	17094.55
1865.86542	17102.55
1869.01003	17075.35
1872.15258	17075.95
1875.29308	17052.35
1878.43152	17028.55
1881.56792	17011.25
1884.70227	16975.25
1887.83457	16909.65
1890.96482	16942.75
1894.09304	16888.15
1897.21921	16916.45
1900.34335	16847.65
1903.46544	16895.05
1906.58551	16869.15
1909.70353	16862.35
1912.81953	16849.95
1915.93349	16847.55
1919.04543	16813.85
1922.15534	16795.25
1925.26322	16777.45
1928.36908	16718.85
1931.47292	16693.25
1934.57473	16640.25
1937.67453	16636.25
1940.77232	16601.35
1943.86808	16560.15
1946.96184	16497.75
1950.05358	16470.05
1953.14331	16424.75
1956.23103	16399.85
1959.31675	16333.45
1962.40046	16308.65
1965.48217	16267.45
1968.56188	16221.25
1971.63959	16162.45
1974.7153	16132.55
1977.78901	16072.15
1980.86073	16038.85
1983.93046	15990.65
1986.99819	15977.55
1990.06394	15888.85
1993.1277	15838.55
1996.18947	15811.15
1999.24925	15726.45
2002.30706	15705.55
2005.36288	15666.25
2008.41672	15610.05
2011.46859	15578.45
2014.51848	15542.35
2017.56639	15538.25
2020.61233	15468.35
2023.6563	15444.75
2026.6983	15429.75
2029.73833	15371.05
2032.7764	15320.75
2035.8125	15280.95
2038.84664	15273.45
2041.87881	15256.95
2044.90903	15228.35
2047.93729	15224.65
2050.96359	15244.65
2053.98794	15207.65
2057.01034	15180.55
2060.03078	15187.15
2063.04927	15163.35
2066.06582	15116.25
2069.08042	15118.55
2072.09307	15136.75
2075.10378	15118.15
2078.11255	15137.85
2081.11938	15106.45
2084.12426	15119.35
2087.12722	15111.35
2090.12824	15122.95
2093.12732	15110.95
2096.12447	15139.95
2099.11969	15107.85
2102.11299	15115.45
2105.10435	15138.65
2108.09379	15152.55
2111.08131	15155.35
2114.0669	15120.35
2117.05057	15161.05
2120.03233	15185.25
2123.01216	15191.95
2125.99008	15239.95
2128.96609	15251.15
2131.94018	15248.35
2134.91236	15258.35
2137.88263	15294.35
2140.851	15279.65
2143.81746	15280.45
2146.78201	15271.75
2149.74466	15285.15
2152.7054	15324.65
2155.66425	15301.45
2158.6212	15303.55
2161.57625	15279.65
2164.52941	15276.95
2167.48067	15281.35
2170.43004	15240.85
2173.37752	15250.55
2176.32311	15273.95
2179.26681	15284.15
2182.20863	15275.15
2185.14856	15288.35
2188.08661	15277.95
2191.02278	15257.25
2193.95707	15242.05
2196.88948	15225.15
2199.82001	15236.25
2202.74867	15257.75
2205.67545	15224.75
2208.60037	15224.15
2211.52341	15206.75
2214.44458	15203.95
2217.36388	15141.05
2220.28132	15104.35
2223.1969	15030.05
2226.11061	15044.05
2229.02246	15023.95
2231.93245	15023.25
2234.84058	14984.85
2237.74686	14973.35
2240.65128	14929.55
2243.55385	14928.45
2246.45456	14927.65
2249.35343	14906.45
2252.25044	14886.85
2255.14561	14854.85
2258.03893	14844.05
2260.93041	14819.05
2263.82004	14778.05
2266.70783	14791.05
2269.59378	14756.85
2272.4779	14748.35
2275.36017	14710.65
2278.24061	14676.15
2281.11922	14640.05
2283.996	14646.75
2286.87094	14582.45
2289.74405	14553.95
2292.61534	14566.35
2295.4848	14553.75
2298.35243	14550.85
2301.21824	14540.15
2304.08223	14542.65
2306.94439	14558.05
2309.80474	14524.85
2312.66327	14513.25
2315.51999	14511.85
2318.37489	14476.85
2321.22797	14465.45
2324.07925	14457.85
2326.92871	14467.05
2329.77637	14422.05
2332.62222	14417.75
2335.46626	14418.75
2338.3085	14346.15
2341.14893	14350.45
2343.98756	14328.85
2346.8244	14321.05
2349.65943	14340.15
2352.49267	14305.55
2355.32411	14298.65
2358.15376	14296.45
2360.98161	14309.85
2363.80768	14296.25
2366.63195	14278.25
2369.45444	14310.15
2372.27514	14280.55
2375.09405	14276.05
2377.91118	14239.05
2380.72652	14201.35
2383.54009	14175.65
2386.35187	14163.15
2389.16188	14137.05
2391.97011	14111.95
2394.77657	14066.25
2397.58125	14038.65
2400.38416	14022.35
2403.18529	14001.35
2405.98466	14008.55
2408.78226	13974.55
2411.57809	13964.05
2414.37216	13944.75
2417.16446	13927.55
2419.955	13910.25
2422.74378	13932.75
2425.5308	13923.55
2428.31606	13936.85
2431.09956	13915.05
2433.88131	13889.45
2436.6613	13887.25
2439.43954	13879.95
2442.21603	13868.65
2444.99077	13890.55
2447.76377	13864.95
2450.53501	13871.35
2453.30451	13827.65
2456.07226	13800.95
2458.83827	13805.65
2461.60254	13786.55
2464.36507	13793.85
2467.12586	13798.55
2469.88492	13752.85
2472.64224	13784.85
2475.39782	13776.75
2478.15167	13777.65
2480.90379	13773.85
2483.65417	13764.95
2486.40283	13745.55
2489.14976	13761.75
2491.89497	13759.65
2494.63845	13717.15
2497.3802	13757.95
2500.12024	13745.25
2502.85855	13723.55
2505.59514	13702.15
2508.33002	13693.95
2511.06318	13680.55
2513.79462	13667.25
2516.52435	13632.85
2519.25237	13630.35
2521.97867	13582.95
2524.70327	13553.95
2527.42616	13567.85
2530.14734	13569.55
2532.86681	13553.75
2535.58458	13515.65
2538.30065	13502.35
2541.01501	13518.35
2543.72768	13485.45
2546.43864	13463.85
2549.14791	13444.85
2551.85548	13446.55
2554.56136	13437.75
2557.26554	13414.75
2559.96803	13393.25
2562.66883	13375.15
2565.36794	13337.15
2568.06536	13317.55
2570.7611	13295.55
2573.45514	13279.45
2576.14751	13270.35
2578.83819	13254.35
2581.52719	13268.85
2584.21451	13231.35
2586.90015	13246.95
2589.58411	13217.95
2592.2664	13192.55
2594.94701	13170.75
2597.62594	13172.75
2600.30321	13130.85
2602.9788	13111.35
2605.65273	13120.85
2608.32498	13100.95
2610.99557	13085.75
2613.66449	13116.45
2616.33175	13075.85
2618.99734	13077.45
2621.66128	13035.35
2624.32355	12999.75
2626.98416	12981.75
2629.64311	12987.25
2632.30041	12993.55
2634.95605	12965.75
2637.61004	12941.45
2640.26238	12911.75
2642.91306	12942.75
2645.56209	12919.95
2648.20948	12911.85
2650.85521	12922.55
2653.4993	12912.75
2656.14175	12888.45
2658.78255	12887.15
2661.42171	12905.55
2664.05923	12915.55
2666.6951	12921.95
2669.32934	12911.65
2671.96194	12934.55
2674.59291	12941.15
2677.22224	12924.55
2679.84993	12914.55
2682.476	12915.95
2685.10043	12922.65
2687.72324	12900.45
2690.34441	12907.45
2692.96396	12905.25
2695.58188	12916.75
2698.19818	12889.85
2700.81285	12883.45
2703.4259	12877.45
2706.03733	12883.65
2708.64714	12872.05
2711.25533	12875.25
2713.86191	12928.05
2716.46687	12911.05
2719.07021	12902.25
2721.67194	12919.35
2724.27206	12917.65
2726.87057	12922.15
2729.46747	12925.45
2732.06276	12946.55
2734.65644	12908.75
2737.24852	12912.75
2739.83899	12891.85
2742.42786	12901.95
2745.01513	12856.65
2747.60079	12855.55
2750.18486	12840.65
2752.76733	12833.55
2755.3482	12807.05
2757.92747	12817.15
2760.50515	12780.65
2763.08123	12780.95
2765.65573	12756.05
2768.22863	12772.55
2770.79994	12747.95
2773.36967	12733.95
2775.9378	12678.15
2778.50435	12708.05
2781.06932	12694.45
2783.6327	12679.15
2786.1945	12660.75
2788.75471	12679.45
2791.31335	12640.75
2793.87041	12617.65
2796.42589	12587.95
2798.97979	12595.25
2801.53212	12558.15
2804.08288	12569.95
2806.63206	12516.35
2809.17967	12493.45
2811.72571	12470.65
2814.27018	12438.35
2816.81308	12439.95
2819.35442	12407.85
2821.89419	12369.35
2824.43239	12353.35
2826.96904	12349.05
2829.50412	12337.55
2832.03763	12292.55
2834.56959	12274.15
2837.1	12296.55
2839.62884	12292.55
2842.15613	12270.35
2844.68186	12270.85
2847.20604	12240.75
2849.72867	12235.65
2852.24974	12222.65
2854.76927	12228.05
2857.28724	12195.35
2859.80367	12211.95
2862.31855	12213.65
2864.83189	12196.45
2867.34368	12201.85
2869.85393	12152.65
2872.36264	12112.15
2874.8698	12140.75
2877.37543	12126.55
2879.87952	12131.65
2882.38207	12134.95
2884.88308	12140.05
2887.38256	12128.55
2889.88051	12102.25
2892.37692	12127.15
2894.8718	12127.95
2897.36515	12120.35
2899.85698	12106.65
2902.34727	12159.75
2904.83604	12153.85
2907.32328	12192.75
2909.809	12192.85
2912.29319	12183.75
2914.77587	12139.85
2917.25702	12180.85
2919.73665	12181.05
2922.21476	12130.75
2924.69136	12142.45
2927.16644	12156.25
2929.64	12110.25
2932.11205	12094.95
2934.58258	12035.05
2937.05161	12083.75
2939.51912	12105.35
2941.98513	12081.95
2944.44962	12044.65
2946.91261	12029.75
2949.37409	12059.55
2951.83407	12026.25
2954.29254	12026.65
2956.74951	12014.75
2959.20498	12013.15
2961.65895	11996.95
2964.11142	12018.65
2966.56239	12016.85
2969.01186	12009.45
2971.45984	11984.95
2973.90632	12001.65
2976.35131	11990.95
2978.7948	11973.05
2981.23681	11949.85
2983.67732	11935.15
2986.11635	11904.35
2988.55388	11877.65
2990.98993	11842.05
2993.4245	11840.35
2995.85758	11826.05
2998.28917	11792.95
3000.71928	11799.75
3003.14791	11770.05
3005.57506	11747.85
3008.00073	11724.65
3010.42493	11692.35
3012.84764	11676.65
3015.26888	11699.05
3017.68865	11637.95
3020.10694	11651.75
3022.52376	11600.45
3024.9391	11600.25
3027.35298	11596.75
3029.76539	11577.75
3032.17632	11570.25
3034.5858	11563.15
3036.9938	11545.35
3039.40034	11533.35
3041.80542	11527.15
3044.20903	11527.85
3046.61118	11519.75
3049.01187	11494.05
3051.4111	11475.55
3053.80888	11434.85
3056.20519	11402.05
3058.60005	11374.25
3060.99345	11395.35
3063.3854	11360.15
3065.7759	11349.15
3068.16494	11339.65
3070.55254	11290.85
3072.93868	11294.75
3075.32338	11258.65
3077.70662	11244.15
3080.08842	11210.35
3082.46878	11180.65
3084.84769	11175.85
3087.22515	11179.75
3089.60118	11192.85
3091.97576	11175.55
3094.3489	11154.65
3096.72061	11178.15
3099.09087	11196.15
3101.4597	11181.25
3103.82709	11192.75
3106.19305	11177.85
3108.55757	11226.05
3110.92066	11180.65
3113.28232	11164.15
3115.64255	11132.75
3118.00134	11126.35
3120.35871	11089.55
3122.71466	11089.65
3125.06917	11065.55
3127.42226	11042.55
3129.77393	11051.85
3132.12417	11021.35
3134.47299	11027.45
3136.82039	10999.25
3139.16636	11006.65
3141.51092	11011.05
3143.85406	11012.35
3146.19579	11016.05
3148.53609	11034.75
3150.87499	11037.15
3153.21246	11025.75
3155.54853	11053.65
3157.88318	11080.05
3160.21642	11062.55
3162.54826	11071.35
3164.87868	11087.65
3167.2077	11067.25
3169.5353	11093.65
3171.86151	11064.65
3174.18631	11038.35
3176.5097	11050.85
3178.83169	11040.15
3181.15228	11044.75
3183.47147	11005.65
3185.78926	10991.55
3188.10565	10953.65
3190.42065	10954.35
3192.73424	10969.75
3195.04645	10946.75
3197.35725	10955.35
3199.66667	10958.35
3201.97469	10948.45
3204.28132	10935.35
3206.58656	10979.55
3208.8904	10934.45
3211.19287	10980.05
3213.49394	10963.05
3215.79363	10969.95
3218.09193	10982.35
3220.38884	10970.05
3222.68438	11007.45
3224.97853	10972.55
3227.2713	10951.15
3229.56269	10946.35
3231.8527	10944.05
3234.14133	10910.25
3236.42858	10911.95
3238.71446	10892.25
3240.99896	10852.75
3243.28209	10831.55
3245.56384	10803.25
3247.84423	10825.85
3250.12324	10822.95
3252.40088	10805.55
3254.67715	10797.15
3256.95205	10788.55
3259.22558	10816.85
3261.49775	10791.15
3263.76855	10807.45
3266.03799	10775.55
3268.30606	10767.45
3270.57277	10762.95
3272.83812	10735.45
3275.10211	10729.85
3277.36474	10682.25
3279.62601	10660.85
3281.88593	10643.35
3284.14448	10666.55
3286.40168	10696.45
3288.65753	10664.25
3290.91202	10675.65
3293.16516	10656.85
3295.41695	10600.35
3297.66738	10539.75
3299.91647	10490.75
3302.16421	10437.05
3304.4106	10378.25
3306.65564	10334.55
3308.89933	10267.05
3311.14169	10169.45
3313.38269	10124.05
3315.62236	10063.75
3317.86068	9996.15
3320.09766	9899.95
3322.3333	9847.25
3324.5676	9798.85
3326.80056	9671.55
3329.03219	9603.75
3331.26248	2.15
3333.49143	0.55
3335.71905	-0.65
