Data from AgNPs_UA_10uM_CRN_0uM_R6G_10uM_Q_RamanShift__30__12-23-42-661.txt Node

Date: Mon Jul 18 12:23:42 BST 2022
User: TCL
Spectrometer: QEP01345
Trigger mode: 4
Integration Time (sec): 7.000000E0
Scans to average: 10
Electric dark correction enabled: true
Nonlinearity correction enabled: false
Boxcar width: 0
XAxis mode: Raman Shifts
Number of Pixels in Spectrum: 1044
>>>>>Begin Spectral Data<<<<<
46.04893	-1.15
50.45542	-1.15
54.85868	-1.75
59.25871	0.15
63.6555	72.75
68.04907	77.25
72.43941	84.15
76.82654	88.55
81.21044	88.75
85.59113	92.45
89.96862	96.55
94.34289	102.25
98.71396	102.85
103.08183	109.45
107.4465	109.55
111.80798	110.65
116.16626	111.35
120.52136	117.15
124.87327	123.35
129.222	123.75
133.56755	131.75
137.90993	146.85
142.24913	149.55
146.58517	166.45
150.91804	191.05
155.24774	222.15
159.57429	274.45
163.89768	350.35
168.21792	452.25
172.53501	609.85
176.84895	838.75
181.15975	1169.15
185.46741	1633.35
189.77193	2233.85
194.07331	2975.95
198.37157	3803.05
202.6667	4685.45
206.9587	5538.65
211.24758	6412.55
215.53334	7316.55
219.81599	8303.75
224.09553	9458.65
228.37195	10756.85
232.64527	12147.15
236.91549	13515.65
241.18261	14817.85
245.44663	15940.65
249.70755	16877.25
253.96539	17645.15
258.22014	18284.05
262.4718	18784.05
266.72039	19176.45
270.96589	19343.85
275.20832	19357.05
279.44768	19202.65
283.68397	18993.95
287.91719	18887.95
292.14735	18993.55
296.37445	19311.95
300.59849	19824.65
304.81948	20445.85
309.03742	20758.55
313.25231	20588.25
317.46415	19630.95
321.67296	18359.15
325.87872	17401.15
330.08145	16986.55
334.28114	16995.55
338.47781	17343.05
342.67145	17750.25
346.86207	18400.55
351.04966	19324.35
355.23424	20373.95
359.4158	21138.35
363.59435	21564.85
367.76989	21695.85
371.94243	21648.05
376.11196	21535.25
380.27849	21454.05
384.44203	21320.85
388.60257	21128.55
392.76012	21109.15
396.91468	21362.85
401.06626	21917.15
405.21485	22261.55
409.36047	21830.65
413.50311	20932.35
417.64277	20098.55
421.77947	19754.75
425.9132	19630.55
430.04396	19698.05
434.17176	19871.45
438.2966	20223.95
442.41849	20753.55
446.53742	21495.75
450.6534	22187.65
454.76644	22574.65
458.87653	22577.15
462.98368	22275.65
467.08789	21850.05
471.18916	21279.95
475.2875	20725.45
479.38291	20279.45
483.4754	19899.05
487.56496	19666.95
491.6516	19433.65
495.73531	19365.05
499.81612	19354.15
503.89401	19516.25
507.96899	19725.35
512.04106	19903.55
516.11023	20109.85
520.1765	20236.75
524.23987	20154.95
528.30034	19840.95
532.35792	19539.35
536.41261	19180.75
540.46441	18824.45
544.51333	18721.65
548.55936	18941.45
552.60252	19407.95
556.64279	19912.45
560.6802	20138.25
564.71473	20468.45
568.7464	21240.35
572.7752	21621.35
576.80114	21261.55
580.82422	20908.85
584.84444	20924.85
588.86181	21053.85
592.87633	21345.65
596.888	21753.25
600.89682	22631.35
604.9028	25442.15
608.90594	31756.85
612.90624	37802.25
616.90371	33709.05
620.89834	24422.35
624.89015	20682.65
628.87913	20125.85
632.86528	20268.25
636.84862	20366.15
640.82913	19916.75
644.80683	19026.95
648.78172	18531.45
652.75379	18753.25
656.72306	19556.25
660.68952	20330.35
664.65319	19936.65
668.61405	19123.25
672.57211	18829.25
676.52738	18798.65
680.47986	18722.55
684.42955	18567.85
688.37646	18488.55
692.32058	18626.15
696.26192	18817.25
700.20048	19102.05
704.13626	19276.85
708.06928	19188.15
711.99952	19014.35
715.927	18954.25
719.85171	18969.15
723.77365	18861.75
727.69284	18658.85
731.60928	18538.85
735.52295	18600.15
739.43388	18683.25
743.34206	18854.35
747.24749	19046.55
751.15017	19273.05
755.05012	19731.35
758.94733	20858.95
762.8418	23224.85
766.73354	26835.85
770.62254	30127.25
774.50882	31224.45
778.39237	29289.25
782.27321	25421.85
786.15132	22022.95
790.02671	20168.85
793.89938	19323.45
797.76935	18978.85
801.6366	18808.35
805.50115	18700.45
809.36299	18579.75
813.22213	18479.85
817.07857	18450.95
820.93231	18467.75
824.78336	18529.95
828.63172	18621.05
832.47738	18633.55
836.32036	18584.75
840.16066	18594.85
843.99827	18532.85
847.8332	18437.35
851.66546	18347.95
855.49504	18346.75
859.32195	18291.85
863.1462	18213.65
866.96777	18146.05
870.78668	18148.05
874.60293	18166.55
878.41652	18276.35
882.22745	18393.65
886.03573	18447.55
889.84136	18365.15
893.64433	18297.05
897.44466	18249.25
901.24235	18254.15
905.0374	18194.75
908.8298	18143.45
912.61957	18121.45
916.40671	18259.15
920.19121	18514.75
923.97308	18767.35
927.75233	18977.35
931.52895	19043.95
935.30295	18709.55
939.07433	18134.25
942.84309	17766.15
946.60924	17518.55
950.37278	17429.45
954.13371	17335.25
957.89203	17283.65
961.64774	17269.55
965.40086	17230.45
969.15137	17157.45
972.89929	17129.15
976.64461	17142.75
980.38733	17202.85
984.12747	17305.15
987.86502	17419.25
991.59999	17569.75
995.33237	17862.95
999.06217	18438.45
1002.78939	19117.55
1006.51404	19617.05
1010.23611	20025.15
1013.95561	20237.55
1017.67255	20236.95
1021.38692	19910.75
1025.09872	19635.95
1028.80796	19680.85
1032.51465	20049.65
1036.21877	20377.75
1039.92035	20413.85
1043.61937	20215.45
1047.31584	19872.05
1051.00976	19508.05
1054.70114	19419.45
1058.38998	19384.05
1062.07627	19468.75
1065.76003	19601.15
1069.44126	19809.85
1073.11995	20101.75
1076.79611	20313.95
1080.46974	20601.05
1084.14085	21000.65
1087.80943	21417.55
1091.47549	21536.85
1095.13903	21162.95
1098.80005	20463.65
1102.45857	19882.15
1106.11456	19638.25
1109.76805	19767.75
1113.41903	20147.45
1117.06751	20725.95
1120.71348	21561.05
1124.35696	22402.65
1127.99793	22975.75
1131.63641	22697.55
1135.2724	21806.15
1138.90589	21017.65
1142.5369	20577.55
1146.16542	20284.55
1149.79145	20187.55
1153.415	20308.05
1157.03607	20610.55
1160.65467	21087.85
1164.27079	21909.45
1167.88443	23113.75
1171.49561	25079.85
1175.10432	28111.35
1178.71056	31891.85
1182.31434	34811.55
1185.91565	35771.75
1189.51451	34958.45
1193.11091	32909.05
1196.70485	30425.75
1200.29634	28536.25
1203.88538	26834.25
1207.47197	25232.05
1211.05612	24099.05
1214.63782	23544.25
1218.21708	23502.25
1221.79391	23628.65
1225.36829	23728.15
1228.94024	23677.75
1232.50976	23575.05
1236.07685	23594.35
1239.6415	23692.85
1243.20374	23767.15
1246.76355	23932.35
1250.32093	24251.05
1253.8759	24835.75
1257.42845	25706.45
1260.97859	26498.25
1264.52631	27233.15
1268.07163	27927.05
1271.61453	28587.85
1275.15503	29219.25
1278.69312	29743.35
1282.22882	30214.05
1285.76211	31027.95
1289.29301	32031.05
1292.82151	33016.95
1296.34761	34248.35
1299.87133	35971.35
1303.39266	38715.45
1306.9116	42664.15
1310.42815	46679.45
1313.94233	48551.85
1317.45412	47383.25
1320.96354	44805.65
1324.47058	42255.35
1327.97525	40276.75
1331.47754	39257.95
1334.97747	39114.15
1338.47502	39361.05
1341.97022	39897.95
1345.46305	40677.05
1348.95352	41796.05
1352.44163	43777.65
1355.92738	47137.25
1359.41078	52258.65
1362.89183	56303.05
1366.37053	54063.85
1369.84688	46877.55
1373.32088	39904.15
1376.79254	35357.65
1380.26186	33045.95
1383.72883	31850.85
1387.19347	30928.35
1390.65578	29927.05
1394.11575	29224.85
1397.57339	29006.25
1401.0287	29381.75
1404.48168	29982.25
1407.93234	30634.65
1411.38068	31112.85
1414.82669	30992.85
1418.27039	30120.35
1421.71177	29019.35
1425.15083	28155.85
1428.58758	27810.15
1432.02203	28019.15
1435.45416	28293.55
1438.88399	28480.55
1442.31151	28631.45
1445.73673	28729.15
1449.15965	28872.95
1452.58027	28790.45
1455.9986	28564.65
1459.41463	28569.15
1462.82837	28903.55
1466.23982	29577.85
1469.64898	30250.15
1473.05586	30763.05
1476.46045	31168.35
1479.86276	31654.45
1483.26279	32221.95
1486.66054	32831.05
1490.05602	33812.75
1493.44922	35175.05
1496.84016	37048.55
1500.22882	39844.25
1503.61521	43621.65
1506.99934	47723.05
1510.38121	50802.55
1513.76081	51159.75
1517.13816	48133.55
1520.51324	43159.05
1523.88607	38843.45
1527.25665	36064.25
1530.62498	34533.85
1533.99105	33632.05
1537.35488	33045.45
1540.71647	32638.35
1544.07581	32258.55
1547.4329	31877.35
1550.78776	31320.85
1554.14038	30880.35
1557.49077	30660.65
1560.83892	30876.95
1564.18484	31411.35
1567.52853	32041.55
1570.86999	32540.85
1574.20922	32881.35
1577.54624	32573.75
1580.88103	31270.55
1584.2136	29888.45
1587.54395	29539.95
1590.87208	30650.75
1594.19801	33056.55
1597.52172	35710.65
1600.84321	36822.75
1604.16251	35719.45
1607.47959	33149.05
1610.79447	30055.45
1614.10715	27219.95
1617.41763	25177.15
1620.7259	23979.25
1624.03199	23466.35
1627.33587	23545.45
1630.63757	24267.55
1633.93707	25597.45
1637.23439	27601.15
1640.52951	30464.75
1643.82246	33985.45
1647.11321	37354.65
1650.40179	38863.55
1653.68819	36840.05
1656.97241	32056.45
1660.25446	27141.95
1663.53433	23591.55
1666.81203	21394.35
1670.08756	20045.85
1673.36092	19246.25
1676.63211	18680.25
1679.90115	18269.75
1683.16801	17965.85
1686.43272	17751.45
1689.69527	17610.95
1692.95567	17515.85
1696.2139	17444.05
1699.46999	17369.35
1702.72392	17320.05
1705.97571	17263.25
1709.22535	17276.55
1712.47284	17298.35
1715.71819	17291.75
1718.96139	17250.45
1722.20246	17171.95
1725.44139	17108.55
1728.67818	16979.95
1731.91284	16865.15
1735.14537	16738.95
1738.37576	16702.55
1741.60403	16606.25
1744.83017	16588.95
1748.05418	16557.85
1751.27607	16498.65
1754.49584	16472.85
1757.71349	16490.75
1760.92903	16428.85
1764.14244	16393.95
1767.35375	16408.35
1770.56294	16347.75
1773.77002	16356.15
1776.97499	16292.15
1780.17785	16318.05
1783.37861	16262.95
1786.57727	16200.75
1789.77382	16210.15
1792.96828	16192.85
1796.16064	16166.15
1799.3509	16172.25
1802.53907	16101.85
1805.72514	16058.65
1808.90913	16019.85
1812.09102	15978.65
1815.27083	15977.65
1818.44856	15923.35
1821.6242	15917.25
1824.79776	15876.45
1827.96924	15854.75
1831.13864	15818.45
1834.30597	15818.85
1837.47122	15793.65
1840.6344	15827.85
1843.7955	15816.05
1846.95454	15780.55
1850.11151	15776.05
1853.26642	15784.05
1856.41926	15814.75
1859.57004	15791.75
1862.71876	15800.75
1865.86542	15794.15
1869.01003	15786.15
1872.15258	15828.15
1875.29308	15810.45
1878.43152	15804.45
1881.56792	15788.55
1884.70227	15776.25
1887.83457	15777.85
1890.96482	15787.75
1894.09304	15778.75
1897.21921	15780.85
1900.34335	15787.15
1903.46544	15789.35
1906.58551	15749.25
1909.70353	15791.25
1912.81953	15745.15
1915.93349	15758.05
1919.04543	15720.45
1922.15534	15720.85
1925.26322	15683.95
1928.36908	15655.45
1931.47292	15618.65
1934.57473	15558.75
1937.67453	15496.95
1940.77232	15457.75
1943.86808	15392.45
1946.96184	15346.65
1950.05358	15274.35
1953.14331	15211.95
1956.23103	15177.55
1959.31675	15110.95
1962.40046	15084.35
1965.48217	15051.75
1968.56188	15030.65
1971.63959	14991.95
1974.7153	14961.85
1977.78901	14910.75
1980.86073	14837.25
1983.93046	14794.65
1986.99819	14712.65
1990.06394	14711.75
1993.1277	14643.75
1996.18947	14602.85
1999.24925	14579.45
2002.30706	14546.65
2005.36288	14532.55
2008.41672	14498.95
2011.46859	14431.75
2014.51848	14394.75
2017.56639	14373.55
2020.61233	14317.35
2023.6563	14286.15
2026.6983	14213.55
2029.73833	14182.95
2032.7764	14144.35
2035.8125	14166.25
2038.84664	14122.35
2041.87881	14082.65
2044.90903	14058.85
2047.93729	14022.15
2050.96359	14033.05
2053.98794	13990.85
2057.01034	13997.75
2060.03078	13958.45
2063.04927	13953.25
2066.06582	13955.55
2069.08042	13900.05
2072.09307	13931.65
2075.10378	13900.95
2078.11255	13892.05
2081.11938	13887.55
2084.12426	13851.05
2087.12722	13852.15
2090.12824	13859.75
2093.12732	13857.15
2096.12447	13857.55
2099.11969	13886.75
2102.11299	13881.95
2105.10435	13860.45
2108.09379	13830.35
2111.08131	13868.25
2114.0669	13845.45
2117.05057	13840.05
2120.03233	13871.75
2123.01216	13865.25
2125.99008	13901.55
2128.96609	13889.05
2131.94018	13928.15
2134.91236	13944.75
2137.88263	13927.85
2140.851	13934.15
2143.81746	13935.55
2146.78201	13969.05
2149.74466	13922.85
2152.7054	13914.35
2155.66425	13909.05
2158.6212	13921.75
2161.57625	13881.35
2164.52941	13875.45
2167.48067	13860.85
2170.43004	13882.45
2173.37752	13865.35
2176.32311	13852.75
2179.26681	13854.95
2182.20863	13881.55
2185.14856	13908.45
2188.08661	13880.95
2191.02278	13864.25
2193.95707	13866.25
2196.88948	13886.75
2199.82001	13837.85
2202.74867	13820.35
2205.67545	13807.15
2208.60037	13786.55
2211.52341	13748.55
2214.44458	13758.25
2217.36388	13741.05
2220.28132	13704.05
2223.1969	13685.95
2226.11061	13635.15
2229.02246	13616.25
2231.93245	13603.15
2234.84058	13554.95
2237.74686	13555.95
2240.65128	13525.25
2243.55385	13488.65
2246.45456	13499.85
2249.35343	13492.35
2252.25044	13478.45
2255.14561	13456.65
2258.03893	13464.65
2260.93041	13444.05
2263.82004	13416.55
2266.70783	13366.55
2269.59378	13350.65
2272.4779	13343.85
2275.36017	13288.45
2278.24061	13252.75
2281.11922	13233.95
2283.996	13198.15
2286.87094	13177.45
2289.74405	13144.95
2292.61534	13151.25
2295.4848	13112.65
2298.35243	13119.85
2301.21824	13136.35
2304.08223	13126.35
2306.94439	13100.45
2309.80474	13130.15
2312.66327	13132.65
2315.51999	13088.85
2318.37489	13121.65
2321.22797	13103.55
2324.07925	13069.65
2326.92871	13075.05
2329.77637	13069.05
2332.62222	13075.85
2335.46626	13019.25
2338.3085	13076.85
2341.14893	13054.95
2343.98756	13028.55
2346.8244	13060.85
2349.65943	13102.35
2352.49267	13090.55
2355.32411	13087.75
2358.15376	13080.85
2360.98161	13109.05
2363.80768	13120.25
2366.63195	13100.35
2369.45444	13083.15
2372.27514	13052.05
2375.09405	13035.75
2377.91118	12980.75
2380.72652	12925.65
2383.54009	12900.15
2386.35187	12881.25
2389.16188	12836.85
2391.97011	12820.85
2394.77657	12752.55
2397.58125	12761.85
2400.38416	12749.65
2403.18529	12729.85
2405.98466	12717.45
2408.78226	12677.85
2411.57809	12627.35
2414.37216	12623.75
2417.16446	12596.75
2419.955	12584.35
2422.74378	12584.75
2425.5308	12558.15
2428.31606	12512.65
2431.09956	12555.15
2433.88131	12518.15
2436.6613	12533.85
2439.43954	12514.85
2442.21603	12526.65
2444.99077	12517.25
2447.76377	12500.75
2450.53501	12426.75
2453.30451	12484.75
2456.07226	12492.45
2458.83827	12440.05
2461.60254	12467.65
2464.36507	12461.75
2467.12586	12428.75
2469.88492	12407.15
2472.64224	12421.05
2475.39782	12433.55
2478.15167	12474.55
2480.90379	12472.05
2483.65417	12509.05
2486.40283	12557.65
2489.14976	12547.75
2491.89497	12578.85
2494.63845	12587.25
2497.3802	12565.15
2500.12024	12557.25
2502.85855	12523.35
2505.59514	12517.95
2508.33002	12472.15
2511.06318	12430.65
2513.79462	12409.55
2516.52435	12363.55
2519.25237	12357.65
2521.97867	12338.85
2524.70327	12330.15
2527.42616	12320.05
2530.14734	12316.05
2532.86681	12285.85
2535.58458	12312.35
2538.30065	12275.15
2541.01501	12299.65
2543.72768	12286.65
2546.43864	12279.75
2549.14791	12251.95
2551.85548	12214.65
2554.56136	12194.95
2557.26554	12191.35
2559.96803	12190.25
2562.66883	12162.55
2565.36794	12135.25
2568.06536	12152.35
2570.7611	12150.35
2573.45514	12134.95
2576.14751	12125.55
2578.83819	12114.05
2581.52719	12088.35
2584.21451	12086.35
2586.90015	12074.85
2589.58411	12077.45
2592.2664	12083.95
2594.94701	12079.25
2597.62594	12082.55
2600.30321	12063.35
2602.9788	12037.35
2605.65273	12036.85
2608.32498	12037.55
2610.99557	12036.25
2613.66449	12059.55
2616.33175	12042.65
2618.99734	12032.85
2621.66128	12033.85
2624.32355	12051.05
2626.98416	12032.55
2629.64311	11999.35
2632.30041	11988.55
2634.95605	11978.85
2637.61004	11965.05
2640.26238	11942.65
2642.91306	11964.85
2645.56209	11940.75
2648.20948	11970.65
2650.85521	11929.35
2653.4993	11910.55
2656.14175	11889.45
2658.78255	11955.65
2661.42171	11945.75
2664.05923	11975.85
2666.6951	11955.15
2669.32934	11991.15
2671.96194	11995.45
2674.59291	11996.15
2677.22224	11994.75
2679.84993	11994.65
2682.476	12020.65
2685.10043	11998.15
2687.72324	11986.05
2690.34441	11969.45
2692.96396	11961.35
2695.58188	11968.45
2698.19818	11937.45
2700.81285	11943.55
2703.4259	11926.95
2706.03733	11959.55
2708.64714	11978.35
2711.25533	11975.95
2713.86191	11972.05
2716.46687	12007.35
2719.07021	11966.95
2721.67194	12014.45
2724.27206	11999.95
2726.87057	12006.65
2729.46747	12027.55
2732.06276	12013.25
2734.65644	12022.45
2737.24852	12020.75
2739.83899	11973.05
2742.42786	11990.85
2745.01513	11937.55
2747.60079	11954.75
2750.18486	11926.95
2752.76733	11928.95
2755.3482	11946.85
2757.92747	11903.95
2760.50515	11894.75
2763.08123	11867.35
2765.65573	11844.05
2768.22863	11892.45
2770.79994	11874.25
2773.36967	11854.85
2775.9378	11863.05
2778.50435	11855.25
2781.06932	11841.05
2783.6327	11842.75
2786.1945	11833.85
2788.75471	11843.35
2791.31335	11811.55
2793.87041	11799.45
2796.42589	11764.55
2798.97979	11771.45
2801.53212	11760.15
2804.08288	11796.75
2806.63206	11738.05
2809.17967	11760.15
2811.72571	11704.75
2814.27018	11703.95
2816.81308	11693.45
2819.35442	11669.85
2821.89419	11674.05
2824.43239	11688.15
2826.96904	11680.95
2829.50412	11691.95
2832.03763	11681.95
2834.56959	11680.05
2837.1	11647.75
2839.62884	11694.95
2842.15613	11669.35
2844.68186	11686.05
2847.20604	11664.35
2849.72867	11700.75
2852.24974	11695.95
2854.76927	11686.55
2857.28724	11675.35
2859.80367	11674.95
2862.31855	11642.35
2864.83189	11657.65
2867.34368	11647.75
2869.85393	11665.45
2872.36264	11615.65
2874.8698	11618.15
2877.37543	11619.55
2879.87952	11601.15
2882.38207	11592.05
2884.88308	11572.65
2887.38256	11607.15
2889.88051	11573.75
2892.37692	11572.65
2894.8718	11590.65
2897.36515	11582.25
2899.85698	11571.05
2902.34727	11611.25
2904.83604	11597.05
2907.32328	11624.95
2909.809	11607.35
2912.29319	11629.05
2914.77587	11596.35
2917.25702	11615.75
2919.73665	11585.85
2922.21476	11613.45
2924.69136	11582.85
2927.16644	11559.45
2929.64	11532.05
2932.11205	11516.55
2934.58258	11475.25
2937.05161	11452.15
2939.51912	11455.35
2941.98513	11432.65
2944.44962	11396.05
2946.91261	11340.35
2949.37409	11371.45
2951.83407	11337.85
2954.29254	11324.75
2956.74951	11298.95
2959.20498	11307.45
2961.65895	11278.35
2964.11142	11319.55
2966.56239	11281.65
2969.01186	11226.35
2971.45984	11223.05
2973.90632	11211.25
2976.35131	11138.35
2978.7948	11120.45
2981.23681	11090.05
2983.67732	11113.25
2986.11635	11071.45
2988.55388	11061.85
2990.98993	11035.55
2993.4245	10984.85
2995.85758	10951.65
2998.28917	10922.55
3000.71928	10906.55
3003.14791	10865.55
3005.57506	10855.35
3008.00073	10801.15
3010.42493	10803.95
3012.84764	10790.05
3015.26888	10795.85
3017.68865	10761.15
3020.10694	10726.35
3022.52376	10710.35
3024.9391	10698.55
3027.35298	10663.65
3029.76539	10665.25
3032.17632	10641.65
3034.5858	10666.55
3036.9938	10653.55
3039.40034	10602.15
3041.80542	10589.25
3044.20903	10593.15
3046.61118	10590.55
3049.01187	10563.65
3051.4111	10541.85
3053.80888	10517.05
3056.20519	10519.45
3058.60005	10458.65
3060.99345	10438.35
3063.3854	10422.65
3065.7759	10375.15
3068.16494	10361.05
3070.55254	10284.05
3072.93868	10263.25
3075.32338	10219.25
3077.70662	10227.15
3080.08842	10151.05
3082.46878	10173.55
3084.84769	10159.45
3087.22515	10111.85
3089.60118	10134.45
3091.97576	10127.75
3094.3489	10091.75
3096.72061	10105.65
3099.09087	10124.85
3101.4597	10090.85
3103.82709	10100.15
3106.19305	10068.75
3108.55757	10063.95
3110.92066	10015.15
3113.28232	10046.35
3115.64255	10008.85
3118.00134	9999.25
3120.35871	9987.15
3122.71466	9959.15
3125.06917	9932.05
3127.42226	9906.25
3129.77393	9932.45
3132.12417	9892.05
3134.47299	9888.95
3136.82039	9909.95
3139.16636	9878.85
3141.51092	9882.25
3143.85406	9869.05
3146.19579	9860.85
3148.53609	9869.15
3150.87499	9874.45
3153.21246	9900.55
3155.54853	9867.85
3157.88318	9842.75
3160.21642	9890.35
3162.54826	9883.05
3164.87868	9890.85
3167.2077	9886.75
3169.5353	9884.55
3171.86151	9867.65
3174.18631	9848.85
3176.5097	9844.55
3178.83169	9839.95
3181.15228	9850.75
3183.47147	9814.25
3185.78926	9796.85
3188.10565	9814.75
3190.42065	9803.15
3192.73424	9790.85
3195.04645	9790.05
3197.35725	9781.35
3199.66667	9780.75
3201.97469	9799.15
3204.28132	9783.25
3206.58656	9801.75
3208.8904	9795.85
3211.19287	9783.45
3213.49394	9791.65
3215.79363	9781.15
3218.09193	9809.55
3220.38884	9791.75
3222.68438	9806.45
3224.97853	9802.95
3227.2713	9795.15
3229.56269	9782.95
3231.8527	9775.25
3234.14133	9793.05
3236.42858	9764.55
3238.71446	9747.05
3240.99896	9726.45
3243.28209	9716.45
3245.56384	9671.95
3247.84423	9668.15
3250.12324	9666.75
3252.40088	9666.15
3254.67715	9626.65
3256.95205	9608.45
3259.22558	9636.25
3261.49775	9621.85
3263.76855	9624.65
3266.03799	9590.55
3268.30606	9598.05
3270.57277	9559.15
3272.83812	9559.25
3275.10211	9527.15
3277.36474	9513.55
3279.62601	9530.35
3281.88593	9502.25
3284.14448	9489.35
3286.40168	9499.65
3288.65753	9494.25
3290.91202	9481.65
3293.16516	9460.45
3295.41695	9450.45
3297.66738	9428.15
3299.91647	9361.95
3302.16421	9299.05
3304.4106	9261.95
3306.65564	9225.65
3308.89933	9158.55
3311.14169	9088.25
3313.38269	9009.55
3315.62236	8958.15
3317.86068	8885.65
3320.09766	8832.65
3322.3333	8776.55
3324.5676	8725.55
3326.80056	8620.15
3329.03219	8575.05
3331.26248	2.45
3333.49143	1.25
3335.71905	0.45
