Data from AgNPs_UA_200uM_CRN_0uM_R6G_10uM_Q_RamanShift__13__14-15-04-151.txt Node

Date: Tue Jul 26 14:15:04 BST 2022
User: TCL
Spectrometer: QEP01345
Trigger mode: 4
Integration Time (sec): 7.000000E0
Scans to average: 10
Electric dark correction enabled: true
Nonlinearity correction enabled: false
Boxcar width: 0
XAxis mode: Raman Shifts
Number of Pixels in Spectrum: 1044
>>>>>Begin Spectral Data<<<<<
46.04893	-0.65
50.45542	-0.05
54.85868	-0.75
59.25871	0.15
63.6555	54.55
68.04907	58.15
72.43941	62.45
76.82654	61.55
81.21044	66.95
85.59113	70.05
89.96862	71.75
94.34289	78.55
98.71396	74.15
103.08183	81.25
107.4465	81.45
111.80798	83.45
116.16626	84.25
120.52136	83.95
124.87327	86.25
129.222	85.35
133.56755	91.65
137.90993	93.85
142.24913	97.45
146.58517	102.95
150.91804	114.15
155.24774	129.45
159.57429	151.55
163.89768	180.15
168.21792	227.65
172.53501	301.85
176.84895	413.85
181.15975	572.75
185.46741	792.65
189.77193	1107.75
194.07331	1466.55
198.37157	1875.25
202.6667	2296.55
206.9587	2734.35
211.24758	3148.45
215.53334	3565.45
219.81599	3983.95
224.09553	4437.65
228.37195	4967.35
232.64527	5535.25
236.91549	6152.65
241.18261	6809.15
245.44663	7432.75
249.70755	8015.75
253.96539	8550.05
258.22014	8989.55
262.4718	9305.65
266.72039	9495.65
270.96589	9568.45
275.20832	9520.95
279.44768	9409.05
283.68397	9285.55
287.91719	9128.85
292.14735	8976.85
296.37445	8885.05
300.59849	8807.35
304.81948	8730.85
309.03742	8693.15
313.25231	8670.85
317.46415	8627.05
321.67296	8617.65
325.87872	8657.95
330.08145	8675.65
334.28114	8791.45
338.47781	8894.35
342.67145	8974.75
346.86207	9096.65
351.04966	9226.05
355.23424	9347.85
359.4158	9469.25
363.59435	9584.95
367.76989	9719.65
371.94243	9846.55
376.11196	9954.55
380.27849	10078.45
384.44203	10177.25
388.60257	10272.95
392.76012	10387.65
396.91468	10488.65
401.06626	10596.85
405.21485	10697.55
409.36047	10750.05
413.50311	10781.95
417.64277	10793.65
421.77947	10834.25
425.9132	10881.15
430.04396	10903.05
434.17176	10998.95
438.2966	11124.25
442.41849	11178.85
446.53742	11268.65
450.6534	11380.95
454.76644	11468.75
458.87653	11569.75
462.98368	11653.15
467.08789	11743.75
471.18916	11723.35
475.2875	11729.75
479.38291	11742.85
483.4754	11769.95
487.56496	11803.15
491.6516	11794.55
495.73531	11843.05
499.81612	11877.25
503.89401	11954.65
507.96899	11992.95
512.04106	12043.85
516.11023	12050.65
520.1765	12087.65
524.23987	12091.25
528.30034	12143.65
532.35792	12165.95
536.41261	12193.05
540.46441	12169.65
544.51333	12202.15
548.55936	12238.15
552.60252	12316.05
556.64279	12399.15
560.6802	12445.15
564.71473	12505.45
568.7464	12514.35
572.7752	12485.75
576.80114	12510.35
580.82422	12527.55
584.84444	12554.55
588.86181	12625.65
592.87633	12682.75
596.888	12761.55
600.89682	12878.85
604.9028	13109.55
608.90594	13514.55
612.90624	13853.65
616.90371	13724.75
620.89834	13245.75
624.89015	13058.35
628.87913	13114.15
632.86528	13152.25
636.84862	13251.95
640.82913	13266.65
644.80683	13221.85
648.78172	13212.45
652.75379	13276.85
656.72306	13350.65
660.68952	13436.35
664.65319	13520.35
668.61405	13562.55
672.57211	13617.55
676.52738	13689.65
680.47986	13666.05
684.42955	13662.05
688.37646	13693.35
692.32058	13743.35
696.26192	13842.65
700.20048	13946.55
704.13626	13965.45
708.06928	13966.85
711.99952	13920.35
715.927	13898.95
719.85171	13910.95
723.77365	13919.95
727.69284	13916.85
731.60928	13958.25
735.52295	13946.45
739.43388	13998.75
743.34206	14012.95
747.24749	14059.45
751.15017	14085.15
755.05012	14119.85
758.94733	14194.85
762.8418	14325.65
766.73354	14483.35
770.62254	14660.05
774.50882	14835.25
778.39237	14841.95
782.27321	14742.65
786.15132	14601.25
790.02671	14475.75
793.89938	14428.15
797.76935	14357.55
801.6366	14337.65
805.50115	14353.45
809.36299	14369.35
813.22213	14375.45
817.07857	14400.25
820.93231	14421.85
824.78336	14428.25
828.63172	14433.55
832.47738	14462.65
836.32036	14465.25
840.16066	14476.35
843.99827	14514.15
847.8332	14553.75
851.66546	14568.55
855.49504	14594.95
859.32195	14630.95
863.1462	14657.15
866.96777	14664.45
870.78668	14705.45
874.60293	14744.15
878.41652	14814.05
882.22745	14834.45
886.03573	14869.35
889.84136	14877.25
893.64433	14898.75
897.44466	14909.25
901.24235	14925.75
905.0374	14926.85
908.8298	14918.65
912.61957	14924.35
916.40671	14898.55
920.19121	14910.15
923.97308	14919.15
927.75233	14883.65
931.52895	14878.95
935.30295	14884.15
939.07433	14839.15
942.84309	14854.15
946.60924	14886.25
950.37278	14872.65
954.13371	14851.75
957.89203	14836.95
961.64774	14853.55
965.40086	14865.75
969.15137	14845.45
972.89929	14816.95
976.64461	14826.65
980.38733	14806.15
984.12747	14846.85
987.86502	14871.55
991.59999	14858.75
995.33237	14924.25
999.06217	14965.15
1002.78939	15013.85
1006.51404	15065.75
1010.23611	15155.45
1013.95561	15217.65
1017.67255	15221.65
1021.38692	15208.15
1025.09872	15233.55
1028.80796	15197.35
1032.51465	15190.15
1036.21877	15180.75
1039.92035	15210.95
1043.61937	15249.65
1047.31584	15269.75
1051.00976	15291.25
1054.70114	15307.15
1058.38998	15329.45
1062.07627	15346.95
1065.76003	15424.35
1069.44126	15455.35
1073.11995	15548.45
1076.79611	15668.85
1080.46974	15680.95
1084.14085	15663.55
1087.80943	15649.25
1091.47549	15650.95
1095.13903	15667.95
1098.80005	15687.85
1102.45857	15721.15
1106.11456	15737.45
1109.76805	15705.15
1113.41903	15685.65
1117.06751	15628.15
1120.71348	15672.05
1124.35696	15678.85
1127.99793	15696.75
1131.63641	15689.85
1135.2724	15685.45
1138.90589	15647.85
1142.5369	15636.05
1146.16542	15592.35
1149.79145	15560.55
1153.415	15480.95
1157.03607	15436.15
1160.65467	15470.65
1164.27079	15506.05
1167.88443	15578.35
1171.49561	15684.95
1175.10432	15819.65
1178.71056	15983.15
1182.31434	16149.55
1185.91565	16310.75
1189.51451	16410.45
1193.11091	16452.25
1196.70485	16445.95
1200.29634	16411.65
1203.88538	16301.95
1207.47197	16224.35
1211.05612	16081.95
1214.63782	16051.05
1218.21708	15950.75
1221.79391	15916.45
1225.36829	15892.35
1228.94024	15853.75
1232.50976	15843.25
1236.07685	15874.55
1239.6415	15921.65
1243.20374	15961.05
1246.76355	15978.65
1250.32093	16020.85
1253.8759	16032.65
1257.42845	16155.75
1260.97859	16262.15
1264.52631	16308.85
1268.07163	16337.25
1271.61453	16367.85
1275.15503	16397.35
1278.69312	16372.55
1282.22882	16342.95
1285.76211	16291.85
1289.29301	16278.65
1292.82151	16314.05
1296.34761	16362.35
1299.87133	16487.95
1303.39266	16607.75
1306.9116	16753.05
1310.42815	16940.15
1313.94233	17019.25
1317.45412	17064.65
1320.96354	17066.55
1324.47058	16939.65
1327.97525	16771.35
1331.47754	16657.55
1334.97747	16631.75
1338.47502	16644.15
1341.97022	16815.05
1345.46305	17014.95
1348.95352	17224.15
1352.44163	17420.55
1355.92738	17460.15
1359.41078	17557.55
1362.89183	17517.65
1366.37053	17332.45
1369.84688	16948.55
1373.32088	16556.85
1376.79254	16274.75
1380.26186	16073.65
1383.72883	15916.55
1387.19347	15785.75
1390.65578	15651.45
1394.11575	15521.75
1397.57339	15404.05
1401.0287	15341.15
1404.48168	15316.35
1407.93234	15310.15
1411.38068	15297.05
1414.82669	15305.05
1418.27039	15295.35
1421.71177	15239.95
1425.15083	15235.55
1428.58758	15173.45
1432.02203	15169.15
1435.45416	15120.45
1438.88399	15098.55
1442.31151	15062.15
1445.73673	15046.55
1449.15965	15065.35
1452.58027	15020.85
1455.9986	14996.05
1459.41463	15026.45
1462.82837	15081.05
1466.23982	15143.05
1469.64898	15212.25
1473.05586	15305.15
1476.46045	15339.85
1479.86276	15385.75
1483.26279	15464.85
1486.66054	15499.15
1490.05602	15526.65
1493.44922	15682.35
1496.84016	15864.55
1500.22882	16085.65
1503.61521	16343.25
1506.99934	16494.75
1510.38121	16538.95
1513.76081	16487.95
1517.13816	16346.45
1520.51324	16171.45
1523.88607	16013.85
1527.25665	15912.45
1530.62498	15828.75
1533.99105	15840.95
1537.35488	15855.25
1540.71647	15828.15
1544.07581	15859.65
1547.4329	15855.15
1550.78776	15869.85
1554.14038	15808.15
1557.49077	15848.25
1560.83892	15858.25
1564.18484	15878.85
1567.52853	15962.55
1570.86999	16004.05
1574.20922	16022.45
1577.54624	16024.05
1580.88103	15930.75
1584.2136	15847.85
1587.54395	15828.55
1590.87208	15836.55
1594.19801	15864.95
1597.52172	15963.25
1600.84321	16044.15
1604.16251	16045.55
1607.47959	15976.75
1610.79447	15874.95
1614.10715	15677.95
1617.41763	15509.55
1620.7259	15404.45
1624.03199	15267.55
1627.33587	15179.85
1630.63757	15170.45
1633.93707	15196.35
1637.23439	15312.85
1640.52951	15393.15
1643.82246	15595.35
1647.11321	15779.05
1650.40179	15833.05
1653.68819	15707.65
1656.97241	15448.95
1660.25446	15242.65
1663.53433	15055.05
1666.81203	14914.15
1670.08756	14803.95
1673.36092	14717.65
1676.63211	14682.05
1679.90115	14656.95
1683.16801	14598.95
1686.43272	14535.55
1689.69527	14505.25
1692.95567	14462.75
1696.2139	14497.75
1699.46999	14448.65
1702.72392	14411.55
1705.97571	14433.15
1709.22535	14452.45
1712.47284	14452.05
1715.71819	14450.65
1718.96139	14440.25
1722.20246	14430.05
1725.44139	14381.45
1728.67818	14366.85
1731.91284	14313.25
1735.14537	14273.15
1738.37576	14224.05
1741.60403	14217.65
1744.83017	14171.15
1748.05418	14136.55
1751.27607	14124.45
1754.49584	14101.85
1757.71349	14087.25
1760.92903	14117.35
1764.14244	14088.25
1767.35375	14095.75
1770.56294	14028.25
1773.77002	14033.85
1776.97499	14015.25
1780.17785	14003.75
1783.37861	14014.55
1786.57727	14000.65
1789.77382	13985.45
1792.96828	13972.55
1796.16064	13946.35
1799.3509	13892.85
1802.53907	13907.45
1805.72514	13894.35
1808.90913	13878.15
1812.09102	13797.85
1815.27083	13800.35
1818.44856	13770.35
1821.6242	13786.05
1824.79776	13749.15
1827.96924	13756.75
1831.13864	13719.35
1834.30597	13732.35
1837.47122	13712.85
1840.6344	13664.45
1843.7955	13638.25
1846.95454	13647.95
1850.11151	13690.85
1853.26642	13646.05
1856.41926	13613.35
1859.57004	13595.85
1862.71876	13610.05
1865.86542	13597.05
1869.01003	13551.65
1872.15258	13538.75
1875.29308	13555.35
1878.43152	13524.85
1881.56792	13496.45
1884.70227	13447.55
1887.83457	13474.45
1890.96482	13437.35
1894.09304	13452.15
1897.21921	13413.05
1900.34335	13418.95
1903.46544	13391.65
1906.58551	13397.55
1909.70353	13356.15
1912.81953	13364.35
1915.93349	13322.65
1919.04543	13317.15
1922.15534	13314.25
1925.26322	13290.05
1928.36908	13257.05
1931.47292	13224.05
1934.57473	13186.05
1937.67453	13163.85
1940.77232	13130.25
1943.86808	13100.95
1946.96184	13045.25
1950.05358	13007.65
1953.14331	13020.95
1956.23103	12982.35
1959.31675	12927.35
1962.40046	12904.25
1965.48217	12854.25
1968.56188	12828.45
1971.63959	12778.65
1974.7153	12739.05
1977.78901	12728.35
1980.86073	12670.85
1983.93046	12619.85
1986.99819	12610.35
1990.06394	12542.65
1993.1277	12533.35
1996.18947	12482.45
1999.24925	12471.65
2002.30706	12419.35
2005.36288	12374.75
2008.41672	12359.15
2011.46859	12333.75
2014.51848	12259.95
2017.56639	12252.45
2020.61233	12218.35
2023.6563	12182.75
2026.6983	12136.65
2029.73833	12111.55
2032.7764	12049.75
2035.8125	12055.45
2038.84664	12008.05
2041.87881	12005.65
2044.90903	11977.75
2047.93729	11946.25
2050.96359	11960.35
2053.98794	11965.05
2057.01034	11922.25
2060.03078	11895.55
2063.04927	11887.25
2066.06582	11890.35
2069.08042	11900.95
2072.09307	11850.45
2075.10378	11853.85
2078.11255	11842.75
2081.11938	11848.65
2084.12426	11863.05
2087.12722	11845.15
2090.12824	11856.75
2093.12732	11826.15
2096.12447	11817.25
2099.11969	11820.25
2102.11299	11828.35
2105.10435	11853.35
2108.09379	11829.35
2111.08131	11811.15
2114.0669	11805.75
2117.05057	11831.45
2120.03233	11847.95
2123.01216	11856.95
2125.99008	11858.85
2128.96609	11878.35
2131.94018	11865.15
2134.91236	11877.45
2137.88263	11891.55
2140.851	11896.55
2143.81746	11916.45
2146.78201	11905.85
2149.74466	11896.25
2152.7054	11921.35
2155.66425	11891.95
2158.6212	11922.95
2161.57625	11899.45
2164.52941	11865.25
2167.48067	11876.55
2170.43004	11855.25
2173.37752	11845.85
2176.32311	11856.65
2179.26681	11852.25
2182.20863	11882.15
2185.14856	11864.75
2188.08661	11884.75
2191.02278	11866.55
2193.95707	11840.05
2196.88948	11826.75
2199.82001	11795.55
2202.74867	11802.65
2205.67545	11807.35
2208.60037	11751.35
2211.52341	11749.85
2214.44458	11729.35
2217.36388	11677.55
2220.28132	11675.55
2223.1969	11636.55
2226.11061	11605.25
2229.02246	11593.55
2231.93245	11574.05
2234.84058	11556.85
2237.74686	11521.95
2240.65128	11543.35
2243.55385	11515.55
2246.45456	11517.75
2249.35343	11469.95
2252.25044	11468.55
2255.14561	11444.75
2258.03893	11434.65
2260.93041	11386.95
2263.82004	11392.85
2266.70783	11366.35
2269.59378	11333.05
2272.4779	11301.15
2275.36017	11293.35
2278.24061	11234.65
2281.11922	11193.15
2283.996	11173.85
2286.87094	11184.45
2289.74405	11131.25
2292.61534	11110.95
2295.4848	11099.95
2298.35243	11090.85
2301.21824	11081.35
2304.08223	11077.85
2306.94439	11076.85
2309.80474	11056.85
2312.66327	11023.25
2315.51999	11016.55
2318.37489	11000.85
2321.22797	10999.15
2324.07925	10950.35
2326.92871	10925.05
2329.77637	10938.65
2332.62222	10900.25
2335.46626	10863.75
2338.3085	10814.95
2341.14893	10803.65
2343.98756	10814.65
2346.8244	10809.35
2349.65943	10777.75
2352.49267	10760.95
2355.32411	10749.85
2358.15376	10771.45
2360.98161	10748.15
2363.80768	10744.15
2366.63195	10699.85
2369.45444	10710.35
2372.27514	10667.55
2375.09405	10662.45
2377.91118	10674.15
2380.72652	10627.15
2383.54009	10625.15
2386.35187	10599.45
2389.16188	10565.75
2391.97011	10551.05
2394.77657	10537.85
2397.58125	10510.25
2400.38416	10481.65
2403.18529	10465.35
2405.98466	10457.95
2408.78226	10428.15
2411.57809	10424.25
2414.37216	10428.85
2417.16446	10406.25
2419.955	10376.15
2422.74378	10371.65
2425.5308	10346.35
2428.31606	10352.95
2431.09956	10325.65
2433.88131	10305.25
2436.6613	10292.75
2439.43954	10302.35
2442.21603	10292.45
2444.99077	10277.85
2447.76377	10250.05
2450.53501	10213.95
2453.30451	10187.85
2456.07226	10167.05
2458.83827	10154.85
2461.60254	10140.65
2464.36507	10144.25
2467.12586	10137.35
2469.88492	10131.85
2472.64224	10102.95
2475.39782	10094.05
2478.15167	10095.25
2480.90379	10072.95
2483.65417	10058.65
2486.40283	10062.95
2489.14976	10059.15
2491.89497	10044.15
2494.63845	10043.15
2497.3802	10005.25
2500.12024	10000.95
2502.85855	9974.35
2505.59514	9970.45
2508.33002	9949.25
2511.06318	9932.25
2513.79462	9944.55
2516.52435	9907.25
2519.25237	9874.55
2521.97867	9841.75
2524.70327	9837.25
2527.42616	9830.05
2530.14734	9816.75
2532.86681	9804.05
2535.58458	9814.65
2538.30065	9773.45
2541.01501	9777.75
2543.72768	9724.85
2546.43864	9731.45
2549.14791	9682.15
2551.85548	9677.65
2554.56136	9670.45
2557.26554	9642.15
2559.96803	9600.75
2562.66883	9582.05
2565.36794	9553.15
2568.06536	9526.95
2570.7611	9531.15
2573.45514	9515.65
2576.14751	9501.45
2578.83819	9458.05
2581.52719	9439.85
2584.21451	9406.55
2586.90015	9418.15
2589.58411	9399.05
2592.2664	9385.15
2594.94701	9347.75
2597.62594	9325.05
2600.30321	9311.45
2602.9788	9300.25
2605.65273	9289.65
2608.32498	9273.45
2610.99557	9236.95
2613.66449	9236.55
2616.33175	9215.05
2618.99734	9180.35
2621.66128	9161.25
2624.32355	9160.75
2626.98416	9120.35
2629.64311	9095.85
2632.30041	9108.95
2634.95605	9062.85
2637.61004	9057.45
2640.26238	9038.15
2642.91306	9034.35
2645.56209	9007.95
2648.20948	9009.65
2650.85521	8995.15
2653.4993	9004.75
2656.14175	8991.45
2658.78255	8982.55
2661.42171	8990.25
2664.05923	8998.25
2666.6951	8984.25
2669.32934	8972.85
2671.96194	8969.85
2674.59291	8966.25
2677.22224	8974.65
2679.84993	8967.25
2682.476	8929.05
2685.10043	8937.45
2687.72324	8931.55
2690.34441	8903.15
2692.96396	8908.75
2695.58188	8903.75
2698.19818	8894.95
2700.81285	8879.25
2703.4259	8883.05
2706.03733	8868.45
2708.64714	8871.25
2711.25533	8876.05
2713.86191	8873.45
2716.46687	8865.05
2719.07021	8849.65
2721.67194	8837.75
2724.27206	8830.45
2726.87057	8830.55
2729.46747	8852.75
2732.06276	8850.75
2734.65644	8843.55
2737.24852	8823.75
2739.83899	8833.75
2742.42786	8798.95
2745.01513	8772.25
2747.60079	8750.05
2750.18486	8739.35
2752.76733	8718.15
2755.3482	8699.05
2757.92747	8698.75
2760.50515	8673.55
2763.08123	8660.75
2765.65573	8628.25
2768.22863	8630.95
2770.79994	8599.75
2773.36967	8604.25
2775.9378	8602.55
2778.50435	8563.35
2781.06932	8551.35
2783.6327	8539.85
2786.1945	8526.65
2788.75471	8511.75
2791.31335	8500.35
2793.87041	8489.35
2796.42589	8458.55
2798.97979	8439.75
2801.53212	8413.65
2804.08288	8407.85
2806.63206	8355.05
2809.17967	8337.75
2811.72571	8326.05
2814.27018	8290.65
2816.81308	8286.35
2819.35442	8268.65
2821.89419	8240.75
2824.43239	8236.55
2826.96904	8200.45
2829.50412	8185.25
2832.03763	8155.35
2834.56959	8149.55
2837.1	8137.35
2839.62884	8132.45
2842.15613	8135.15
2844.68186	8109.15
2847.20604	8104.55
2849.72867	8100.15
2852.24974	8082.35
2854.76927	8056.15
2857.28724	8047.15
2859.80367	8049.95
2862.31855	8019.05
2864.83189	8034.15
2867.34368	7980.85
2869.85393	7969.85
2872.36264	7936.45
2874.8698	7955.45
2877.37543	7929.75
2879.87952	7932.05
2882.38207	7923.55
2884.88308	7916.05
2887.38256	7880.75
2889.88051	7891.95
2892.37692	7916.55
2894.8718	7877.55
2897.36515	7893.35
2899.85698	7886.95
2902.34727	7902.25
2904.83604	7911.75
2907.32328	7917.85
2909.809	7897.65
2912.29319	7897.45
2914.77587	7887.65
2917.25702	7864.75
2919.73665	7854.95
2922.21476	7864.65
2924.69136	7864.45
2927.16644	7861.05
2929.64	7844.65
2932.11205	7833.15
2934.58258	7809.05
2937.05161	7826.05
2939.51912	7828.65
2941.98513	7798.95
2944.44962	7781.65
2946.91261	7777.05
2949.37409	7781.25
2951.83407	7760.15
2954.29254	7778.75
2956.74951	7797.05
2959.20498	7765.75
2961.65895	7745.55
2964.11142	7774.85
2966.56239	7762.75
2969.01186	7753.05
2971.45984	7751.95
2973.90632	7761.45
2976.35131	7742.05
2978.7948	7720.05
2981.23681	7727.25
2983.67732	7711.55
2986.11635	7668.25
2988.55388	7652.15
2990.98993	7647.05
2993.4245	7617.35
2995.85758	7621.35
2998.28917	7602.55
3000.71928	7598.75
3003.14791	7568.35
3005.57506	7559.25
3008.00073	7531.25
3010.42493	7502.15
3012.84764	7505.55
3015.26888	7497.45
3017.68865	7475.05
3020.10694	7475.05
3022.52376	7461.45
3024.9391	7448.75
3027.35298	7457.05
3029.76539	7420.65
3032.17632	7422.45
3034.5858	7420.15
3036.9938	7402.95
3039.40034	7396.45
3041.80542	7384.35
3044.20903	7365.85
3046.61118	7363.25
3049.01187	7329.55
3051.4111	7347.45
3053.80888	7335.35
3056.20519	7313.45
3058.60005	7301.15
3060.99345	7269.55
3063.3854	7271.95
3065.7759	7248.85
3068.16494	7236.15
3070.55254	7204.25
3072.93868	7204.25
3075.32338	7175.75
3077.70662	7157.05
3080.08842	7171.45
3082.46878	7158.55
3084.84769	7174.85
3087.22515	7173.15
3089.60118	7144.55
3091.97576	7146.05
3094.3489	7159.05
3096.72061	7156.95
3099.09087	7166.15
3101.4597	7156.15
3103.82709	7158.95
3106.19305	7137.25
3108.55757	7138.85
3110.92066	7138.85
3113.28232	7128.95
3115.64255	7119.25
3118.00134	7102.85
3120.35871	7086.45
3122.71466	7064.25
3125.06917	7060.45
3127.42226	7061.85
3129.77393	7026.45
3132.12417	7008.55
3134.47299	6999.15
3136.82039	7007.95
3139.16636	7030.25
3141.51092	7009.35
3143.85406	6976.05
3146.19579	7016.55
3148.53609	7036.45
3150.87499	7049.55
3153.21246	7052.05
3155.54853	7044.05
3157.88318	7036.75
3160.21642	7045.35
3162.54826	7040.05
3164.87868	7054.25
3167.2077	7046.35
3169.5353	7045.85
3171.86151	7064.35
3174.18631	7044.55
3176.5097	7037.75
3178.83169	7020.65
3181.15228	7026.15
3183.47147	7005.35
3185.78926	6991.75
3188.10565	6958.25
3190.42065	6993.65
3192.73424	6990.55
3195.04645	6976.65
3197.35725	6974.25
3199.66667	6962.45
3201.97469	6962.75
3204.28132	6969.65
3206.58656	6985.05
3208.8904	6971.85
3211.19287	6977.15
3213.49394	6986.65
3215.79363	6977.45
3218.09193	6971.45
3220.38884	6976.95
3222.68438	6970.25
3224.97853	6982.35
3227.2713	6953.25
3229.56269	6945.85
3231.8527	6955.55
3234.14133	6944.25
3236.42858	6928.55
3238.71446	6911.75
3240.99896	6876.55
3243.28209	6867.35
3245.56384	6843.25
3247.84423	6853.85
3250.12324	6841.65
3252.40088	6837.45
3254.67715	6826.25
3256.95205	6809.55
3259.22558	6839.45
3261.49775	6800.05
3263.76855	6823.15
3266.03799	6819.45
3268.30606	6815.05
3270.57277	6803.15
3272.83812	6785.35
3275.10211	6778.65
3277.36474	6729.85
3279.62601	6739.05
3281.88593	6687.95
3284.14448	6677.55
3286.40168	6700.55
3288.65753	6695.85
3290.91202	6709.45
3293.16516	6657.15
3295.41695	6658.55
3297.66738	6619.25
3299.91647	6606.95
3302.16421	6541.85
3304.4106	6517.45
3306.65564	6470.65
3308.89933	6421.75
3311.14169	6374.55
3313.38269	6336.85
3315.62236	6301.55
3317.86068	6258.85
3320.09766	6203.55
3322.3333	6162.95
3324.5676	6134.65
3326.80056	6021.05
3329.03219	5997.65
3331.26248	1.25
3333.49143	0.05
3335.71905	-0.15
