Data from AgNPs_UA_0uM_CRN_0uM_R6G_10uM_Q_RamanShift__26__11-48-48-776.txt Node

Date: Wed Jul 13 11:48:48 BST 2022
User: TCL
Spectrometer: QEP01345
Trigger mode: 4
Integration Time (sec): 7.000000E0
Scans to average: 10
Electric dark correction enabled: true
Nonlinearity correction enabled: false
Boxcar width: 0
XAxis mode: Raman Shifts
Number of Pixels in Spectrum: 1044
>>>>>Begin Spectral Data<<<<<
46.04893	-0.65
50.45542	-0.25
54.85868	-0.65
59.25871	-0.75
63.6555	48.65
68.04907	56.15
72.43941	63.25
76.82654	65.35
81.21044	69.45
85.59113	72.85
89.96862	75.55
94.34289	76.85
98.71396	79.25
103.08183	85.85
107.4465	87.55
111.80798	85.75
116.16626	89.05
120.52136	88.75
124.87327	89.35
129.222	91.35
133.56755	92.25
137.90993	106.15
142.24913	105.15
146.58517	115.65
150.91804	129.15
155.24774	145.75
159.57429	172.75
163.89768	210.35
168.21792	275.15
172.53501	370.65
176.84895	500.35
181.15975	693.05
185.46741	960.55
189.77193	1305.85
194.07331	1734.85
198.37157	2215.85
202.6667	2719.45
206.9587	3236.95
211.24758	3738.25
215.53334	4271.75
219.81599	4878.15
224.09553	5530.05
228.37195	6272.85
232.64527	7071.85
236.91549	7806.35
241.18261	8528.75
245.44663	9117.35
249.70755	9628.15
253.96539	10050.75
258.22014	10423.55
262.4718	10751.35
266.72039	10955.35
270.96589	10960.05
275.20832	10845.75
279.44768	10676.05
283.68397	10465.25
287.91719	10340.35
292.14735	10322.55
296.37445	10473.85
300.59849	10830.55
304.81948	11258.75
309.03742	11573.95
313.25231	11604.45
317.46415	11190.25
321.67296	10559.85
325.87872	9995.15
330.08145	9756.95
334.28114	9789.75
338.47781	9946.95
342.67145	10219.45
346.86207	10579.65
351.04966	11169.15
355.23424	11728.25
359.4158	12111.05
363.59435	12224.75
367.76989	12206.85
371.94243	12126.55
376.11196	12042.35
380.27849	11994.35
384.44203	11907.25
388.60257	11801.55
392.76012	11773.05
396.91468	11933.95
401.06626	12224.75
405.21485	12378.65
409.36047	12101.55
413.50311	11535.55
417.64277	11079.25
421.77947	10829.55
425.9132	10769.55
430.04396	10804.55
434.17176	10877.75
438.2966	11072.15
442.41849	11439.95
446.53742	11831.85
450.6534	12196.25
454.76644	12364.15
458.87653	12262.95
462.98368	12023.25
467.08789	11776.75
471.18916	11434.75
475.2875	11126.45
479.38291	10896.75
483.4754	10707.35
487.56496	10574.85
491.6516	10455.75
495.73531	10411.25
499.81612	10404.45
503.89401	10506.95
507.96899	10654.25
512.04106	10812.35
516.11023	10990.05
520.1765	11089.05
524.23987	11083.05
528.30034	11019.25
532.35792	10851.05
536.41261	10630.35
540.46441	10409.85
544.51333	10305.45
548.55936	10345.05
552.60252	10579.55
556.64279	10818.85
560.6802	11016.35
564.71473	11222.85
568.7464	11638.75
572.7752	11803.75
576.80114	11548.95
580.82422	11304.05
584.84444	11354.95
588.86181	11641.35
592.87633	12151.75
596.888	12640.55
600.89682	12989.55
604.9028	14029.85
608.90594	17060.45
612.90624	20472.25
616.90371	18526.85
620.89834	13365.55
624.89015	11222.85
628.87913	10903.15
632.86528	11014.95
636.84862	11095.75
640.82913	10813.05
644.80683	10367.05
648.78172	10097.55
652.75379	10136.55
656.72306	10484.55
660.68952	10832.25
664.65319	10648.45
668.61405	10220.05
672.57211	10072.45
676.52738	10049.15
680.47986	9974.75
684.42955	9875.35
688.37646	9808.95
692.32058	9830.15
696.26192	9973.65
700.20048	10068.55
704.13626	10125.35
708.06928	10051.65
711.99952	9974.25
715.927	9950.15
719.85171	9980.95
723.77365	9975.25
727.69284	9875.75
731.60928	9831.45
735.52295	9837.65
739.43388	9914.15
743.34206	9951.35
747.24749	9965.75
751.15017	9986.95
755.05012	10197.45
758.94733	10711.35
762.8418	11951.55
766.73354	13898.75
770.62254	15653.05
774.50882	16237.95
778.39237	15281.55
782.27321	13374.45
786.15132	11620.95
790.02671	10575.45
793.89938	10065.95
797.76935	9851.65
801.6366	9773.05
805.50115	9691.25
809.36299	9629.65
813.22213	9564.95
817.07857	9553.15
820.93231	9536.05
824.78336	9576.95
828.63172	9624.75
832.47738	9651.45
836.32036	9621.35
840.16066	9574.35
843.99827	9574.75
847.8332	9507.75
851.66546	9484.35
855.49504	9489.75
859.32195	9456.25
863.1462	9406.05
866.96777	9366.35
870.78668	9346.25
874.60293	9344.95
878.41652	9409.95
882.22745	9474.45
886.03573	9512.85
889.84136	9450.65
893.64433	9406.15
897.44466	9390.45
901.24235	9380.25
905.0374	9335.95
908.8298	9280.55
912.61957	9260.85
916.40671	9275.85
920.19121	9345.25
923.97308	9497.35
927.75233	9658.15
931.52895	9735.65
935.30295	9611.65
939.07433	9268.75
942.84309	9062.45
946.60924	8918.55
950.37278	8860.95
954.13371	8829.55
957.89203	8763.55
961.64774	8730.05
965.40086	8705.55
969.15137	8692.05
972.89929	8635.95
976.64461	8635.95
980.38733	8620.65
984.12747	8651.35
987.86502	8717.25
991.59999	8805.15
995.33237	8985.15
999.06217	9259.75
1002.78939	9620.75
1006.51404	9827.65
1010.23611	9951.65
1013.95561	10047.85
1017.67255	10000.75
1021.38692	9830.55
1025.09872	9612.85
1028.80796	9561.35
1032.51465	9699.25
1036.21877	9844.35
1039.92035	9844.85
1043.61937	9722.95
1047.31584	9602.65
1051.00976	9439.25
1054.70114	9363.75
1058.38998	9345.75
1062.07627	9362.35
1065.76003	9364.65
1069.44126	9377.25
1073.11995	9483.55
1076.79611	9653.55
1080.46974	9884.55
1084.14085	10141.55
1087.80943	10435.85
1091.47549	10465.75
1095.13903	10222.95
1098.80005	9841.95
1102.45857	9639.05
1106.11456	9555.55
1109.76805	9621.35
1113.41903	9844.35
1117.06751	10170.05
1120.71348	10586.65
1124.35696	11089.45
1127.99793	11412.15
1131.63641	11228.55
1135.2724	10683.65
1138.90589	10208.35
1142.5369	9920.45
1146.16542	9783.65
1149.79145	9699.05
1153.415	9733.55
1157.03607	9839.35
1160.65467	10037.95
1164.27079	10461.45
1167.88443	11138.65
1171.49561	12213.55
1175.10432	13931.85
1178.71056	15990.65
1182.31434	17497.35
1185.91565	17818.55
1189.51451	17150.25
1193.11091	15947.95
1196.70485	14758.95
1200.29634	13782.55
1203.88538	12944.85
1207.47197	12066.45
1211.05612	11473.35
1214.63782	11202.75
1218.21708	11249.25
1221.79391	11438.75
1225.36829	11570.15
1228.94024	11511.25
1232.50976	11280.25
1236.07685	11137.65
1239.6415	11028.25
1243.20374	11049.35
1246.76355	11013.55
1250.32093	11143.95
1253.8759	11346.55
1257.42845	11723.45
1260.97859	12175.45
1264.52631	12678.55
1268.07163	13099.55
1271.61453	13537.55
1275.15503	13898.15
1278.69312	14117.65
1282.22882	14326.15
1285.76211	14707.45
1289.29301	15269.65
1292.82151	15875.15
1296.34761	16581.55
1299.87133	17614.65
1303.39266	19182.05
1306.9116	21468.55
1310.42815	24006.25
1313.94233	25406.85
1317.45412	24728.85
1320.96354	22761.75
1324.47058	20653.15
1327.97525	18978.65
1331.47754	17949.15
1334.97747	17599.95
1338.47502	17610.05
1341.97022	17920.25
1345.46305	18552.85
1348.95352	19505.15
1352.44163	20873.75
1355.92738	22950.85
1359.41078	26095.15
1362.89183	28761.75
1366.37053	27538.95
1369.84688	23171.35
1373.32088	19011.25
1376.79254	16499.95
1380.26186	15310.65
1383.72883	14728.85
1387.19347	14237.45
1390.65578	13778.45
1394.11575	13546.65
1397.57339	13630.25
1401.0287	13873.95
1404.48168	14085.95
1407.93234	14174.95
1411.38068	14086.65
1414.82669	13880.15
1418.27039	13545.45
1421.71177	13174.85
1425.15083	12847.85
1428.58758	12759.45
1432.02203	12966.85
1435.45416	13221.65
1438.88399	13383.65
1442.31151	13448.15
1445.73673	13507.75
1449.15965	13610.55
1452.58027	13503.85
1455.9986	13376.75
1459.41463	13392.15
1462.82837	13646.25
1466.23982	13939.75
1469.64898	14261.75
1473.05586	14397.05
1476.46045	14485.55
1479.86276	14552.45
1483.26279	14670.55
1486.66054	14893.15
1490.05602	15217.35
1493.44922	15822.45
1496.84016	16638.95
1500.22882	17945.75
1503.61521	19828.65
1506.99934	22080.85
1510.38121	24214.15
1513.76081	24923.65
1517.13816	23382.35
1520.51324	20429.45
1523.88607	17741.85
1527.25665	16022.85
1530.62498	15072.45
1533.99105	14541.75
1537.35488	14124.25
1540.71647	13843.85
1544.07581	13637.25
1547.4329	13472.05
1550.78776	13403.05
1554.14038	13336.15
1557.49077	13405.65
1560.83892	13609.75
1564.18484	13922.85
1567.52853	14256.75
1570.86999	14551.05
1574.20922	14785.65
1577.54624	14612.65
1580.88103	13980.25
1584.2136	13214.05
1587.54395	12943.35
1590.87208	13375.85
1594.19801	14477.85
1597.52172	15828.65
1600.84321	16460.15
1604.16251	15867.95
1607.47959	14591.55
1610.79447	13153.35
1614.10715	11852.35
1617.41763	10861.45
1620.7259	10243.05
1624.03199	9967.35
1627.33587	10033.55
1630.63757	10418.65
1633.93707	11203.95
1637.23439	12534.55
1640.52951	14480.55
1643.82246	16916.05
1647.11321	19112.85
1650.40179	19951.75
1653.68819	18540.85
1656.97241	15562.85
1660.25446	12644.85
1663.53433	10619.65
1666.81203	9411.55
1670.08756	8734.05
1673.36092	8281.45
1676.63211	7997.95
1679.90115	7812.65
1683.16801	7666.85
1686.43272	7539.05
1689.69527	7497.15
1692.95567	7423.75
1696.2139	7400.95
1699.46999	7388.25
1702.72392	7377.95
1705.97571	7333.75
1709.22535	7319.25
1712.47284	7339.35
1715.71819	7324.05
1718.96139	7301.75
1722.20246	7287.15
1725.44139	7248.25
1728.67818	7206.15
1731.91284	7128.45
1735.14537	7081.75
1738.37576	7061.55
1741.60403	7024.75
1744.83017	6999.25
1748.05418	6976.55
1751.27607	6965.65
1754.49584	6944.45
1757.71349	6947.25
1760.92903	6911.35
1764.14244	6908.55
1767.35375	6876.35
1770.56294	6872.75
1773.77002	6836.25
1776.97499	6832.35
1780.17785	6827.55
1783.37861	6782.25
1786.57727	6771.85
1789.77382	6756.05
1792.96828	6767.85
1796.16064	6745.85
1799.3509	6736.25
1802.53907	6716.65
1805.72514	6705.35
1808.90913	6690.55
1812.09102	6669.65
1815.27083	6660.75
1818.44856	6622.65
1821.6242	6585.55
1824.79776	6587.45
1827.96924	6561.75
1831.13864	6556.55
1834.30597	6557.25
1837.47122	6551.15
1840.6344	6519.75
1843.7955	6573.25
1846.95454	6539.15
1850.11151	6527.85
1853.26642	6519.55
1856.41926	6520.65
1859.57004	6524.35
1862.71876	6510.95
1865.86542	6516.25
1869.01003	6547.25
1872.15258	6538.95
1875.29308	6538.65
1878.43152	6502.85
1881.56792	6511.95
1884.70227	6504.75
1887.83457	6518.75
1890.96482	6499.95
1894.09304	6505.05
1897.21921	6518.05
1900.34335	6521.95
1903.46544	6495.55
1906.58551	6495.35
1909.70353	6484.85
1912.81953	6480.55
1915.93349	6489.35
1919.04543	6497.55
1922.15534	6454.35
1925.26322	6436.35
1928.36908	6410.05
1931.47292	6407.65
1934.57473	6359.85
1937.67453	6335.65
1940.77232	6323.25
1943.86808	6303.55
1946.96184	6306.65
1950.05358	6264.15
1953.14331	6237.55
1956.23103	6222.55
1959.31675	6196.05
1962.40046	6194.25
1965.48217	6186.65
1968.56188	6159.85
1971.63959	6145.75
1974.7153	6128.15
1977.78901	6116.95
1980.86073	6102.05
1983.93046	6069.15
1986.99819	6019.95
1990.06394	6008.45
1993.1277	5985.75
1996.18947	5970.65
1999.24925	5968.75
2002.30706	5952.95
2005.36288	5911.05
2008.41672	5906.95
2011.46859	5883.05
2014.51848	5883.75
2017.56639	5873.05
2020.61233	5860.25
2023.6563	5830.05
2026.6983	5816.75
2029.73833	5825.95
2032.7764	5810.35
2035.8125	5790.75
2038.84664	5783.75
2041.87881	5771.05
2044.90903	5772.15
2047.93729	5760.05
2050.96359	5758.65
2053.98794	5743.15
2057.01034	5745.45
2060.03078	5747.55
2063.04927	5733.65
2066.06582	5734.85
2069.08042	5705.65
2072.09307	5702.55
2075.10378	5701.55
2078.11255	5686.15
2081.11938	5672.05
2084.12426	5691.55
2087.12722	5669.05
2090.12824	5682.45
2093.12732	5698.25
2096.12447	5701.55
2099.11969	5691.75
2102.11299	5681.45
2105.10435	5692.25
2108.09379	5689.45
2111.08131	5690.85
2114.0669	5705.55
2117.05057	5696.55
2120.03233	5710.65
2123.01216	5697.15
2125.99008	5749.35
2128.96609	5761.45
2131.94018	5709.75
2134.91236	5743.45
2137.88263	5721.05
2140.851	5736.65
2143.81746	5744.95
2146.78201	5728.85
2149.74466	5725.25
2152.7054	5720.45
2155.66425	5706.55
2158.6212	5717.05
2161.57625	5718.15
2164.52941	5697.55
2167.48067	5721.65
2170.43004	5695.15
2173.37752	5687.85
2176.32311	5711.75
2179.26681	5734.95
2182.20863	5721.25
2185.14856	5725.05
2188.08661	5719.25
2191.02278	5736.45
2193.95707	5732.75
2196.88948	5722.35
2199.82001	5727.75
2202.74867	5718.55
2205.67545	5698.25
2208.60037	5704.35
2211.52341	5696.95
2214.44458	5693.35
2217.36388	5681.45
2220.28132	5685.85
2223.1969	5656.05
2226.11061	5657.45
2229.02246	5635.05
2231.93245	5634.45
2234.84058	5617.75
2237.74686	5609.35
2240.65128	5628.35
2243.55385	5623.35
2246.45456	5630.45
2249.35343	5618.95
2252.25044	5598.95
2255.14561	5595.65
2258.03893	5605.75
2260.93041	5602.05
2263.82004	5594.25
2266.70783	5590.45
2269.59378	5548.75
2272.4779	5551.55
2275.36017	5538.35
2278.24061	5523.95
2281.11922	5511.95
2283.996	5501.15
2286.87094	5501.35
2289.74405	5475.35
2292.61534	5488.55
2295.4848	5459.45
2298.35243	5476.25
2301.21824	5462.55
2304.08223	5469.25
2306.94439	5470.25
2309.80474	5491.45
2312.66327	5496.75
2315.51999	5481.55
2318.37489	5477.15
2321.22797	5463.45
2324.07925	5491.35
2326.92871	5453.05
2329.77637	5450.75
2332.62222	5450.85
2335.46626	5455.15
2338.3085	5455.45
2341.14893	5446.75
2343.98756	5451.05
2346.8244	5470.95
2349.65943	5458.25
2352.49267	5470.25
2355.32411	5492.15
2358.15376	5487.35
2360.98161	5498.35
2363.80768	5492.05
2366.63195	5491.15
2369.45444	5489.85
2372.27514	5503.05
2375.09405	5496.85
2377.91118	5459.85
2380.72652	5468.85
2383.54009	5438.75
2386.35187	5431.05
2389.16188	5395.85
2391.97011	5388.45
2394.77657	5373.75
2397.58125	5376.35
2400.38416	5381.15
2403.18529	5342.95
2405.98466	5338.65
2408.78226	5329.25
2411.57809	5340.95
2414.37216	5315.15
2417.16446	5323.25
2419.955	5286.75
2422.74378	5321.85
2425.5308	5316.65
2428.31606	5304.25
2431.09956	5307.15
2433.88131	5287.55
2436.6613	5303.95
2439.43954	5313.75
2442.21603	5324.45
2444.99077	5303.15
2447.76377	5329.15
2450.53501	5338.65
2453.30451	5320.15
2456.07226	5308.15
2458.83827	5314.65
2461.60254	5318.85
2464.36507	5324.15
2467.12586	5319.45
2469.88492	5338.75
2472.64224	5346.65
2475.39782	5341.05
2478.15167	5330.65
2480.90379	5336.75
2483.65417	5367.25
2486.40283	5359.45
2489.14976	5395.95
2491.89497	5396.05
2494.63845	5370.95
2497.3802	5385.25
2500.12024	5401.05
2502.85855	5373.75
2505.59514	5384.75
2508.33002	5352.75
2511.06318	5328.55
2513.79462	5328.75
2516.52435	5313.45
2519.25237	5304.25
2521.97867	5280.25
2524.70327	5285.75
2527.42616	5275.05
2530.14734	5253.45
2532.86681	5254.05
2535.58458	5266.95
2538.30065	5262.25
2541.01501	5289.75
2543.72768	5261.45
2546.43864	5277.75
2549.14791	5275.35
2551.85548	5281.15
2554.56136	5265.45
2557.26554	5266.45
2559.96803	5279.45
2562.66883	5260.85
2565.36794	5266.45
2568.06536	5249.05
2570.7611	5245.05
2573.45514	5235.45
2576.14751	5241.85
2578.83819	5242.65
2581.52719	5247.45
2584.21451	5246.55
2586.90015	5236.35
2589.58411	5226.25
2592.2664	5246.95
2594.94701	5231.45
2597.62594	5229.65
2600.30321	5220.85
2602.9788	5216.85
2605.65273	5227.75
2608.32498	5213.65
2610.99557	5222.75
2613.66449	5230.05
2616.33175	5202.85
2618.99734	5215.95
2621.66128	5229.75
2624.32355	5241.05
2626.98416	5227.05
2629.64311	5237.05
2632.30041	5242.45
2634.95605	5222.15
2637.61004	5214.35
2640.26238	5193.65
2642.91306	5192.35
2645.56209	5185.75
2648.20948	5185.65
2650.85521	5163.05
2653.4993	5171.75
2656.14175	5184.85
2658.78255	5198.35
2661.42171	5216.35
2664.05923	5195.05
2666.6951	5202.05
2669.32934	5224.75
2671.96194	5214.05
2674.59291	5208.35
2677.22224	5224.85
2679.84993	5234.35
2682.476	5230.15
2685.10043	5232.75
2687.72324	5218.45
2690.34441	5224.55
2692.96396	5213.45
2695.58188	5213.45
2698.19818	5205.55
2700.81285	5199.45
2703.4259	5239.55
2706.03733	5231.75
2708.64714	5219.45
2711.25533	5210.45
2713.86191	5235.15
2716.46687	5252.35
2719.07021	5261.85
2721.67194	5273.75
2724.27206	5241.55
2726.87057	5253.35
2729.46747	5256.75
2732.06276	5259.25
2734.65644	5256.05
2737.24852	5283.25
2739.83899	5272.75
2742.42786	5253.95
2745.01513	5257.95
2747.60079	5238.85
2750.18486	5246.35
2752.76733	5241.95
2755.3482	5217.95
2757.92747	5221.45
2760.50515	5220.35
2763.08123	5235.35
2765.65573	5240.25
2768.22863	5215.85
2770.79994	5219.95
2773.36967	5219.45
2775.9378	5223.35
2778.50435	5216.65
2781.06932	5238.35
2783.6327	5228.25
2786.1945	5208.15
2788.75471	5211.45
2791.31335	5200.35
2793.87041	5210.85
2796.42589	5207.55
2798.97979	5193.55
2801.53212	5187.75
2804.08288	5190.05
2806.63206	5162.35
2809.17967	5173.15
2811.72571	5153.75
2814.27018	5166.05
2816.81308	5161.15
2819.35442	5174.75
2821.89419	5143.35
2824.43239	5160.15
2826.96904	5192.25
2829.50412	5182.55
2832.03763	5159.25
2834.56959	5157.25
2837.1	5164.45
2839.62884	5161.65
2842.15613	5178.95
2844.68186	5199.45
2847.20604	5202.75
2849.72867	5220.55
2852.24974	5218.15
2854.76927	5235.85
2857.28724	5234.45
2859.80367	5229.75
2862.31855	5222.15
2864.83189	5223.85
2867.34368	5214.65
2869.85393	5213.55
2872.36264	5203.35
2874.8698	5203.25
2877.37543	5194.85
2879.87952	5213.05
2882.38207	5202.25
2884.88308	5179.15
2887.38256	5186.95
2889.88051	5182.45
2892.37692	5190.25
2894.8718	5199.55
2897.36515	5193.25
2899.85698	5215.45
2902.34727	5213.25
2904.83604	5225.25
2907.32328	5231.95
2909.809	5223.65
2912.29319	5240.05
2914.77587	5238.75
2917.25702	5232.05
2919.73665	5219.15
2922.21476	5237.75
2924.69136	5214.35
2927.16644	5219.35
2929.64	5209.45
2932.11205	5192.15
2934.58258	5178.95
2937.05161	5182.45
2939.51912	5175.45
2941.98513	5174.35
2944.44962	5169.55
2946.91261	5115.55
2949.37409	5129.85
2951.83407	5121.75
2954.29254	5119.25
2956.74951	5110.95
2959.20498	5119.45
2961.65895	5115.75
2964.11142	5103.95
2966.56239	5084.95
2969.01186	5092.75
2971.45984	5056.45
2973.90632	5070.65
2976.35131	5070.35
2978.7948	5064.55
2981.23681	5040.65
2983.67732	5032.95
2986.11635	4999.25
2988.55388	5003.65
2990.98993	4994.45
2993.4245	4990.45
2995.85758	4956.15
2998.28917	4966.35
3000.71928	4969.55
3003.14791	4942.65
3005.57506	4948.85
3008.00073	4940.25
3010.42493	4921.85
3012.84764	4936.65
3015.26888	4925.75
3017.68865	4908.35
3020.10694	4899.65
3022.52376	4892.25
3024.9391	4881.75
3027.35298	4890.05
3029.76539	4878.25
3032.17632	4858.65
3034.5858	4883.05
3036.9938	4856.85
3039.40034	4857.65
3041.80542	4842.85
3044.20903	4827.25
3046.61118	4835.65
3049.01187	4834.95
3051.4111	4856.85
3053.80888	4844.55
3056.20519	4820.35
3058.60005	4817.65
3060.99345	4796.45
3063.3854	4785.55
3065.7759	4771.45
3068.16494	4776.45
3070.55254	4748.15
3072.93868	4752.95
3075.32338	4742.85
3077.70662	4717.05
3080.08842	4725.95
3082.46878	4721.75
3084.84769	4725.25
3087.22515	4698.05
3089.60118	4714.75
3091.97576	4717.35
3094.3489	4707.65
3096.72061	4700.75
3099.09087	4728.15
3101.4597	4697.25
3103.82709	4720.45
3106.19305	4725.95
3108.55757	4711.15
3110.92066	4701.85
3113.28232	4698.85
3115.64255	4686.85
3118.00134	4690.95
3120.35871	4684.85
3122.71466	4689.95
3125.06917	4681.65
3127.42226	4664.05
3129.77393	4690.95
3132.12417	4662.55
3134.47299	4650.75
3136.82039	4656.85
3139.16636	4652.45
3141.51092	4679.45
3143.85406	4680.65
3146.19579	4670.45
3148.53609	4687.05
3150.87499	4682.75
3153.21246	4690.35
3155.54853	4699.55
3157.88318	4687.75
3160.21642	4715.15
3162.54826	4723.85
3164.87868	4719.55
3167.2077	4705.85
3169.5353	4710.35
3171.86151	4738.65
3174.18631	4719.35
3176.5097	4737.05
3178.83169	4734.35
3181.15228	4742.95
3183.47147	4729.35
3185.78926	4735.05
3188.10565	4717.25
3190.42065	4699.75
3192.73424	4725.65
3195.04645	4725.95
3197.35725	4727.85
3199.66667	4733.65
3201.97469	4721.55
3204.28132	4714.65
3206.58656	4724.35
3208.8904	4741.45
3211.19287	4748.05
3213.49394	4758.55
3215.79363	4761.15
3218.09193	4750.15
3220.38884	4768.75
3222.68438	4776.35
3224.97853	4772.35
3227.2713	4779.25
3229.56269	4775.75
3231.8527	4760.55
3234.14133	4766.85
3236.42858	4758.35
3238.71446	4753.45
3240.99896	4756.35
3243.28209	4740.65
3245.56384	4728.65
3247.84423	4732.85
3250.12324	4731.45
3252.40088	4698.55
3254.67715	4720.45
3256.95205	4727.45
3259.22558	4720.45
3261.49775	4708.05
3263.76855	4725.85
3266.03799	4722.85
3268.30606	4729.65
3270.57277	4712.45
3272.83812	4681.85
3275.10211	4670.55
3277.36474	4683.55
3279.62601	4676.15
3281.88593	4673.05
3284.14448	4681.45
3286.40168	4670.05
3288.65753	4672.25
3290.91202	4673.85
3293.16516	4674.85
3295.41695	4682.85
3297.66738	4659.65
3299.91647	4624.05
3302.16421	4612.15
3304.4106	4583.85
3306.65564	4552.45
3308.89933	4527.55
3311.14169	4494.85
3313.38269	4460.95
3315.62236	4435.65
3317.86068	4400.75
3320.09766	4371.75
3322.3333	4346.45
3324.5676	4306.95
3326.80056	4270.45
3329.03219	4232.05
3331.26248	2.25
3333.49143	0.15
3335.71905	1.75
