Data from AgNPs_UA_100uM_CRN_0uM_R6G_10uM_Q_RamanShift__32__13-49-45-350.txt Node

Date: Tue Jul 26 13:49:45 BST 2022
User: TCL
Spectrometer: QEP01345
Trigger mode: 4
Integration Time (sec): 7.000000E0
Scans to average: 10
Electric dark correction enabled: true
Nonlinearity correction enabled: false
Boxcar width: 0
XAxis mode: Raman Shifts
Number of Pixels in Spectrum: 1044
>>>>>Begin Spectral Data<<<<<
46.04893	-0.85
50.45542	1.45
54.85868	-1.35
59.25871	0.05
63.6555	49.65
68.04907	53.55
72.43941	59.65
76.82654	65.55
81.21044	66.75
85.59113	68.35
89.96862	71.55
94.34289	75.55
98.71396	77.65
103.08183	78.45
107.4465	77.75
111.80798	80.45
116.16626	82.05
120.52136	84.25
124.87327	81.75
129.222	86.55
133.56755	88.75
137.90993	92.25
142.24913	95.95
146.58517	99.05
150.91804	101.65
155.24774	121.85
159.57429	138.55
163.89768	165.25
168.21792	209.85
172.53501	272.45
176.84895	364.45
181.15975	499.95
185.46741	690.65
189.77193	949.45
194.07331	1273.85
198.37157	1636.35
202.6667	2015.65
206.9587	2401.45
211.24758	2805.85
215.53334	3245.05
219.81599	3731.85
224.09553	4263.25
228.37195	4887.75
232.64527	5519.95
236.91549	6147.05
241.18261	6670.85
245.44663	7043.85
249.70755	7367.35
253.96539	7578.55
258.22014	7766.85
262.4718	7935.05
266.72039	7990.95
270.96589	7930.95
275.20832	7796.35
279.44768	7589.85
283.68397	7382.15
287.91719	7277.75
292.14735	7377.55
296.37445	7671.45
300.59849	8222.75
304.81948	8872.25
309.03742	9314.05
313.25231	9326.55
317.46415	8783.75
321.67296	7894.75
325.87872	7197.65
330.08145	6880.95
334.28114	6926.45
338.47781	7135.35
342.67145	7444.75
346.86207	7932.85
351.04966	8633.85
355.23424	9404.55
359.4158	9941.75
363.59435	10121.25
367.76989	10132.95
371.94243	9962.45
376.11196	9820.95
380.27849	9696.95
384.44203	9497.35
388.60257	9279.25
392.76012	9134.25
396.91468	9166.75
401.06626	9401.05
405.21485	9509.35
409.36047	9172.55
413.50311	8497.55
417.64277	7864.35
421.77947	7507.45
425.9132	7315.15
430.04396	7284.25
434.17176	7356.55
438.2966	7522.45
442.41849	7724.15
446.53742	7978.55
450.6534	8149.45
454.76644	8230.85
458.87653	8197.65
462.98368	8078.25
467.08789	7933.05
471.18916	7746.05
475.2875	7507.95
479.38291	7321.25
483.4754	7206.55
487.56496	7156.55
491.6516	7122.25
495.73531	7126.55
499.81612	7161.25
503.89401	7298.05
507.96899	7477.25
512.04106	7702.95
516.11023	7963.15
520.1765	8142.95
524.23987	8165.45
528.30034	8069.35
532.35792	7909.55
536.41261	7740.65
540.46441	7527.15
544.51333	7374.85
548.55936	7407.65
552.60252	7549.85
556.64279	7760.05
560.6802	7895.05
564.71473	8174.65
568.7464	8676.95
572.7752	8734.25
576.80114	8143.85
580.82422	7563.75
584.84444	7370.55
588.86181	7356.55
592.87633	7455.95
596.888	7632.35
600.89682	8170.55
604.9028	9855.15
608.90594	14052.65
612.90624	18692.95
616.90371	17071.45
620.89834	11148.85
624.89015	8648.55
628.87913	8294.85
632.86528	8527.35
636.84862	8746.15
640.82913	8462.65
644.80683	7914.85
648.78172	7532.55
652.75379	7580.35
656.72306	7992.35
660.68952	8417.75
664.65319	8133.25
668.61405	7560.25
672.57211	7308.85
676.52738	7317.15
680.47986	7300.55
684.42955	7204.45
688.37646	7169.65
692.32058	7216.35
696.26192	7290.45
700.20048	7419.35
704.13626	7468.65
708.06928	7427.45
711.99952	7353.35
715.927	7386.15
719.85171	7472.95
723.77365	7548.25
727.69284	7537.05
731.60928	7470.75
735.52295	7439.85
739.43388	7465.65
743.34206	7505.35
747.24749	7509.45
751.15017	7555.55
755.05012	7746.45
758.94733	8393.85
762.8418	9822.05
766.73354	11936.35
770.62254	13827.35
774.50882	14733.75
778.39237	14079.15
782.27321	11832.15
786.15132	9635.25
790.02671	8371.55
793.89938	7876.45
797.76935	7682.75
801.6366	7619.55
805.50115	7608.15
809.36299	7622.15
813.22213	7636.45
817.07857	7590.45
820.93231	7576.15
824.78336	7580.55
828.63172	7610.35
832.47738	7616.35
836.32036	7567.75
840.16066	7469.45
843.99827	7435.05
847.8332	7394.85
851.66546	7403.95
855.49504	7426.15
859.32195	7404.95
863.1462	7399.25
866.96777	7371.15
870.78668	7396.65
874.60293	7477.75
878.41652	7562.65
882.22745	7689.55
886.03573	7764.75
889.84136	7767.45
893.64433	7726.95
897.44466	7691.85
901.24235	7663.25
905.0374	7560.15
908.8298	7467.95
912.61957	7389.55
916.40671	7370.35
920.19121	7391.65
923.97308	7476.45
927.75233	7664.65
931.52895	7821.25
935.30295	7727.65
939.07433	7451.35
942.84309	7227.75
946.60924	7136.45
950.37278	7064.85
954.13371	7056.45
957.89203	7033.15
961.64774	7018.55
965.40086	7003.85
969.15137	6985.05
972.89929	6960.25
976.64461	6966.85
980.38733	6981.35
984.12747	6970.75
987.86502	7032.15
991.59999	7079.65
995.33237	7201.75
999.06217	7366.05
1002.78939	7541.45
1006.51404	7706.95
1010.23611	7872.65
1013.95561	7938.65
1017.67255	7931.55
1021.38692	7856.25
1025.09872	7764.35
1028.80796	7759.45
1032.51465	7826.25
1036.21877	7920.95
1039.92035	7953.85
1043.61937	7932.35
1047.31584	7857.35
1051.00976	7791.55
1054.70114	7678.85
1058.38998	7655.35
1062.07627	7681.55
1065.76003	7704.25
1069.44126	7731.35
1073.11995	7813.65
1076.79611	7959.65
1080.46974	8220.85
1084.14085	8561.05
1087.80943	8828.95
1091.47549	8837.25
1095.13903	8602.45
1098.80005	8231.15
1102.45857	8005.75
1106.11456	8047.55
1109.76805	8206.45
1113.41903	8591.65
1117.06751	9088.25
1120.71348	9797.35
1124.35696	10585.95
1127.99793	10978.45
1131.63641	10548.85
1135.2724	9734.55
1138.90589	9116.65
1142.5369	8746.55
1146.16542	8434.45
1149.79145	8230.85
1153.415	8160.85
1157.03607	8191.95
1160.65467	8333.75
1164.27079	8622.55
1167.88443	9107.25
1171.49561	9886.55
1175.10432	11233.35
1178.71056	13070.65
1182.31434	14455.85
1185.91565	14706.15
1189.51451	13996.95
1193.11091	12849.05
1196.70485	11749.75
1200.29634	11056.95
1203.88538	10505.45
1207.47197	9800.75
1211.05612	9174.25
1214.63782	8805.05
1218.21708	8591.65
1221.79391	8519.55
1225.36829	8551.45
1228.94024	8542.25
1232.50976	8523.55
1236.07685	8524.65
1239.6415	8604.15
1243.20374	8674.55
1246.76355	8783.55
1250.32093	8878.65
1253.8759	9079.95
1257.42845	9336.55
1260.97859	9671.45
1264.52631	9995.45
1268.07163	10307.25
1271.61453	10480.25
1275.15503	10599.75
1278.69312	10641.55
1282.22882	10773.65
1285.76211	11108.15
1289.29301	11522.85
1292.82151	11925.35
1296.34761	12405.05
1299.87133	13301.55
1303.39266	14934.45
1306.9116	17385.15
1310.42815	19672.05
1313.94233	20013.75
1317.45412	18309.35
1320.96354	15950.05
1324.47058	13857.85
1327.97525	12419.75
1331.47754	11646.05
1334.97747	11505.95
1338.47502	11801.45
1341.97022	12593.55
1345.46305	13815.15
1348.95352	15339.85
1352.44163	17185.95
1355.92738	19932.45
1359.41078	23892.75
1362.89183	26546.55
1366.37053	24158.85
1369.84688	19171.15
1373.32088	15343.85
1376.79254	13092.75
1380.26186	11844.25
1383.72883	11059.85
1387.19347	10416.75
1390.65578	9883.95
1394.11575	9432.35
1397.57339	9190.45
1401.0287	9131.45
1404.48168	9116.25
1407.93234	9220.45
1411.38068	9402.65
1414.82669	9557.45
1418.27039	9608.05
1421.71177	9560.15
1425.15083	9463.35
1428.58758	9493.75
1432.02203	9658.35
1435.45416	9711.55
1438.88399	9607.55
1442.31151	9507.35
1445.73673	9533.45
1449.15965	9571.55
1452.58027	9498.25
1455.9986	9354.45
1459.41463	9292.65
1462.82837	9441.25
1466.23982	9637.95
1469.64898	9879.65
1473.05586	9984.05
1476.46045	10088.55
1479.86276	10287.95
1483.26279	10627.15
1486.66054	11075.35
1490.05602	11728.35
1493.44922	12740.05
1496.84016	14287.45
1500.22882	16661.25
1503.61521	19965.25
1506.99934	23435.95
1510.38121	25727.95
1513.76081	25327.85
1517.13816	22257.25
1520.51324	18184.75
1523.88607	14966.55
1527.25665	13032.85
1530.62498	12009.85
1533.99105	11396.45
1537.35488	11087.95
1540.71647	10925.35
1544.07581	10998.85
1547.4329	11124.45
1550.78776	11239.55
1554.14038	11328.05
1557.49077	11451.35
1560.83892	11676.35
1564.18484	12123.75
1567.52853	12666.65
1570.86999	13127.55
1574.20922	13319.25
1577.54624	13020.45
1580.88103	12085.95
1584.2136	10977.15
1587.54395	10348.75
1590.87208	10380.65
1594.19801	10968.55
1597.52172	11716.45
1600.84321	12046.95
1604.16251	11732.05
1607.47959	11108.65
1610.79447	10417.25
1614.10715	9714.95
1617.41763	9184.35
1620.7259	8859.75
1624.03199	8712.25
1627.33587	8795.95
1630.63757	9029.55
1633.93707	9499.85
1637.23439	10228.45
1640.52951	11427.75
1643.82246	13237.85
1647.11321	15368.15
1650.40179	16546.75
1653.68819	15664.35
1656.97241	13267.25
1660.25446	10969.45
1663.53433	9441.05
1666.81203	8595.15
1670.08756	8132.95
1673.36092	7828.95
1676.63211	7632.75
1679.90115	7482.65
1683.16801	7370.65
1686.43272	7312.65
1689.69527	7237.85
1692.95567	7205.85
1696.2139	7172.95
1699.46999	7156.25
1702.72392	7147.15
1705.97571	7142.05
1709.22535	7155.65
1712.47284	7122.15
1715.71819	7109.65
1718.96139	7090.35
1722.20246	7087.25
1725.44139	7027.25
1728.67818	6981.15
1731.91284	6949.85
1735.14537	6902.85
1738.37576	6872.55
1741.60403	6828.45
1744.83017	6821.65
1748.05418	6814.95
1751.27607	6804.05
1754.49584	6747.95
1757.71349	6773.55
1760.92903	6734.35
1764.14244	6740.35
1767.35375	6717.65
1770.56294	6711.15
1773.77002	6666.45
1776.97499	6669.95
1780.17785	6654.85
1783.37861	6626.25
1786.57727	6622.85
1789.77382	6614.15
1792.96828	6607.35
1796.16064	6616.15
1799.3509	6615.45
1802.53907	6596.95
1805.72514	6571.25
1808.90913	6548.25
1812.09102	6518.15
1815.27083	6518.25
1818.44856	6510.05
1821.6242	6484.75
1824.79776	6482.75
1827.96924	6452.05
1831.13864	6447.65
1834.30597	6445.85
1837.47122	6438.25
1840.6344	6427.05
1843.7955	6433.05
1846.95454	6420.85
1850.11151	6406.05
1853.26642	6390.25
1856.41926	6418.95
1859.57004	6430.05
1862.71876	6414.65
1865.86542	6425.15
1869.01003	6433.75
1872.15258	6429.85
1875.29308	6438.55
1878.43152	6427.25
1881.56792	6428.65
1884.70227	6402.15
1887.83457	6411.85
1890.96482	6389.55
1894.09304	6401.65
1897.21921	6376.15
1900.34335	6371.25
1903.46544	6379.85
1906.58551	6376.15
1909.70353	6365.65
1912.81953	6366.65
1915.93349	6361.45
1919.04543	6361.95
1922.15534	6340.15
1925.26322	6346.95
1928.36908	6334.95
1931.47292	6312.65
1934.57473	6301.25
1937.67453	6270.15
1940.77232	6263.95
1943.86808	6257.45
1946.96184	6218.55
1950.05358	6198.05
1953.14331	6214.15
1956.23103	6188.65
1959.31675	6164.35
1962.40046	6166.15
1965.48217	6145.95
1968.56188	6123.25
1971.63959	6132.15
1974.7153	6103.05
1977.78901	6090.85
1980.86073	6055.05
1983.93046	6057.95
1986.99819	6007.75
1990.06394	6002.85
1993.1277	5989.75
1996.18947	5954.35
1999.24925	5940.25
2002.30706	5927.75
2005.36288	5901.45
2008.41672	5894.35
2011.46859	5873.15
2014.51848	5852.65
2017.56639	5841.45
2020.61233	5839.05
2023.6563	5818.25
2026.6983	5809.75
2029.73833	5792.75
2032.7764	5776.65
2035.8125	5761.15
2038.84664	5777.25
2041.87881	5758.95
2044.90903	5744.55
2047.93729	5744.75
2050.96359	5737.45
2053.98794	5727.55
2057.01034	5699.85
2060.03078	5723.55
2063.04927	5704.95
2066.06582	5698.85
2069.08042	5687.05
2072.09307	5699.25
2075.10378	5683.55
2078.11255	5695.55
2081.11938	5680.85
2084.12426	5666.35
2087.12722	5699.95
2090.12824	5663.25
2093.12732	5682.15
2096.12447	5675.25
2099.11969	5680.55
2102.11299	5687.85
2105.10435	5697.65
2108.09379	5690.55
2111.08131	5689.65
2114.0669	5690.95
2117.05057	5696.35
2120.03233	5706.75
2123.01216	5721.35
2125.99008	5725.05
2128.96609	5731.25
2131.94018	5730.45
2134.91236	5738.05
2137.88263	5741.85
2140.851	5744.75
2143.81746	5743.15
2146.78201	5745.35
2149.74466	5732.85
2152.7054	5733.55
2155.66425	5726.85
2158.6212	5731.15
2161.57625	5732.95
2164.52941	5726.65
2167.48067	5726.05
2170.43004	5718.85
2173.37752	5724.35
2176.32311	5717.55
2179.26681	5724.55
2182.20863	5706.65
2185.14856	5726.85
2188.08661	5722.95
2191.02278	5736.55
2193.95707	5721.45
2196.88948	5720.95
2199.82001	5715.95
2202.74867	5718.65
2205.67545	5701.85
2208.60037	5716.85
2211.52341	5698.55
2214.44458	5687.25
2217.36388	5682.75
2220.28132	5648.15
2223.1969	5649.85
2226.11061	5629.15
2229.02246	5623.25
2231.93245	5616.25
2234.84058	5620.95
2237.74686	5596.55
2240.65128	5584.25
2243.55385	5582.25
2246.45456	5579.15
2249.35343	5593.35
2252.25044	5583.55
2255.14561	5595.15
2258.03893	5583.85
2260.93041	5576.05
2263.82004	5584.95
2266.70783	5565.55
2269.59378	5563.65
2272.4779	5553.85
2275.36017	5532.15
2278.24061	5525.75
2281.11922	5510.05
2283.996	5497.25
2286.87094	5484.55
2289.74405	5474.25
2292.61534	5465.55
2295.4848	5461.45
2298.35243	5457.65
2301.21824	5448.05
2304.08223	5468.35
2306.94439	5430.45
2309.80474	5447.15
2312.66327	5439.15
2315.51999	5434.55
2318.37489	5423.35
2321.22797	5434.15
2324.07925	5417.75
2326.92871	5434.25
2329.77637	5431.55
2332.62222	5392.75
2335.46626	5400.55
2338.3085	5394.25
2341.14893	5406.55
2343.98756	5408.45
2346.8244	5386.55
2349.65943	5391.85
2352.49267	5412.35
2355.32411	5404.05
2358.15376	5417.65
2360.98161	5429.05
2363.80768	5412.65
2366.63195	5397.15
2369.45444	5419.25
2372.27514	5424.25
2375.09405	5418.75
2377.91118	5385.65
2380.72652	5380.25
2383.54009	5353.25
2386.35187	5338.65
2389.16188	5315.65
2391.97011	5315.75
2394.77657	5287.85
2397.58125	5288.75
2400.38416	5281.55
2403.18529	5260.85
2405.98466	5246.65
2408.78226	5242.15
2411.57809	5229.05
2414.37216	5208.75
2417.16446	5198.25
2419.955	5192.55
2422.74378	5212.65
2425.5308	5215.35
2428.31606	5192.35
2431.09956	5196.85
2433.88131	5194.15
2436.6613	5216.45
2439.43954	5193.45
2442.21603	5202.25
2444.99077	5194.35
2447.76377	5211.45
2450.53501	5200.95
2453.30451	5203.25
2456.07226	5168.15
2458.83827	5184.25
2461.60254	5176.15
2464.36507	5172.75
2467.12586	5182.35
2469.88492	5157.25
2472.64224	5163.15
2475.39782	5147.45
2478.15167	5175.85
2480.90379	5179.85
2483.65417	5196.25
2486.40283	5219.05
2489.14976	5206.65
2491.89497	5194.25
2494.63845	5200.75
2497.3802	5196.45
2500.12024	5194.95
2502.85855	5188.55
2505.59514	5176.65
2508.33002	5154.95
2511.06318	5142.05
2513.79462	5116.95
2516.52435	5091.05
2519.25237	5088.05
2521.97867	5061.75
2524.70327	5053.25
2527.42616	5042.95
2530.14734	5073.15
2532.86681	5030.65
2535.58458	5038.55
2538.30065	5036.65
2541.01501	5040.65
2543.72768	5024.25
2546.43864	5030.55
2549.14791	5037.35
2551.85548	5035.95
2554.56136	5013.45
2557.26554	5007.95
2559.96803	4979.95
2562.66883	4989.75
2565.36794	4980.25
2568.06536	4979.65
2570.7611	4974.15
2573.45514	4949.65
2576.14751	4964.65
2578.83819	4953.05
2581.52719	4946.45
2584.21451	4935.25
2586.90015	4920.45
2589.58411	4940.45
2592.2664	4918.35
2594.94701	4920.35
2597.62594	4921.65
2600.30321	4887.15
2602.9788	4890.55
2605.65273	4881.95
2608.32498	4887.55
2610.99557	4900.15
2613.66449	4900.05
2616.33175	4895.65
2618.99734	4882.45
2621.66128	4874.25
2624.32355	4855.95
2626.98416	4869.95
2629.64311	4867.45
2632.30041	4862.45
2634.95605	4866.65
2637.61004	4839.85
2640.26238	4832.65
2642.91306	4811.55
2645.56209	4815.95
2648.20948	4817.85
2650.85521	4809.65
2653.4993	4809.75
2656.14175	4817.45
2658.78255	4823.85
2661.42171	4819.35
2664.05923	4825.35
2666.6951	4827.35
2669.32934	4832.15
2671.96194	4833.95
2674.59291	4834.05
2677.22224	4837.85
2679.84993	4844.55
2682.476	4830.35
2685.10043	4839.35
2687.72324	4825.35
2690.34441	4834.15
2692.96396	4826.05
2695.58188	4823.35
2698.19818	4806.55
2700.81285	4810.75
2703.4259	4819.65
2706.03733	4820.95
2708.64714	4822.85
2711.25533	4825.45
2713.86191	4832.65
2716.46687	4838.95
2719.07021	4822.65
2721.67194	4823.05
2724.27206	4840.65
2726.87057	4804.85
2729.46747	4820.65
2732.06276	4815.75
2734.65644	4817.45
2737.24852	4808.05
2739.83899	4818.25
2742.42786	4810.25
2745.01513	4797.05
2747.60079	4775.55
2750.18486	4762.25
2752.76733	4770.85
2755.3482	4772.55
2757.92747	4761.05
2760.50515	4753.45
2763.08123	4749.55
2765.65573	4751.55
2768.22863	4742.95
2770.79994	4737.25
2773.36967	4740.85
2775.9378	4724.35
2778.50435	4729.25
2781.06932	4733.85
2783.6327	4715.45
2786.1945	4719.85
2788.75471	4730.55
2791.31335	4710.15
2793.87041	4707.25
2796.42589	4702.25
2798.97979	4713.15
2801.53212	4687.85
2804.08288	4690.45
2806.63206	4683.25
2809.17967	4681.45
2811.72571	4677.15
2814.27018	4664.55
2816.81308	4673.35
2819.35442	4683.15
2821.89419	4668.95
2824.43239	4665.75
2826.96904	4654.65
2829.50412	4649.35
2832.03763	4676.15
2834.56959	4647.75
2837.1	4629.95
2839.62884	4659.95
2842.15613	4637.75
2844.68186	4652.05
2847.20604	4643.65
2849.72867	4634.45
2852.24974	4658.05
2854.76927	4641.15
2857.28724	4643.15
2859.80367	4659.65
2862.31855	4648.25
2864.83189	4652.75
2867.34368	4655.25
2869.85393	4644.45
2872.36264	4656.15
2874.8698	4639.15
2877.37543	4641.35
2879.87952	4648.85
2882.38207	4632.75
2884.88308	4648.45
2887.38256	4639.95
2889.88051	4657.55
2892.37692	4628.85
2894.8718	4627.15
2897.36515	4631.55
2899.85698	4635.75
2902.34727	4637.45
2904.83604	4632.25
2907.32328	4654.75
2909.809	4635.45
2912.29319	4640.75
2914.77587	4652.25
2917.25702	4630.75
2919.73665	4625.45
2922.21476	4605.05
2924.69136	4613.05
2927.16644	4605.15
2929.64	4597.85
2932.11205	4599.15
2934.58258	4571.25
2937.05161	4593.25
2939.51912	4592.15
2941.98513	4589.15
2944.44962	4567.95
2946.91261	4562.65
2949.37409	4580.35
2951.83407	4568.25
2954.29254	4575.45
2956.74951	4568.85
2959.20498	4564.75
2961.65895	4551.55
2964.11142	4566.65
2966.56239	4558.05
2969.01186	4557.45
2971.45984	4533.85
2973.90632	4554.45
2976.35131	4546.45
2978.7948	4510.05
2981.23681	4523.15
2983.67732	4511.15
2986.11635	4505.85
2988.55388	4485.15
2990.98993	4495.05
2993.4245	4476.35
2995.85758	4479.35
2998.28917	4466.15
3000.71928	4476.55
3003.14791	4466.75
3005.57506	4452.65
3008.00073	4446.15
3010.42493	4453.15
3012.84764	4433.45
3015.26888	4430.95
3017.68865	4434.65
3020.10694	4418.85
3022.52376	4417.05
3024.9391	4399.75
3027.35298	4407.05
3029.76539	4410.35
3032.17632	4398.45
3034.5858	4389.45
3036.9938	4383.15
3039.40034	4383.55
3041.80542	4391.45
3044.20903	4381.35
3046.61118	4381.65
3049.01187	4359.85
3051.4111	4343.35
3053.80888	4338.45
3056.20519	4341.05
3058.60005	4342.75
3060.99345	4325.05
3063.3854	4326.15
3065.7759	4303.45
3068.16494	4293.25
3070.55254	4286.25
3072.93868	4283.65
3075.32338	4284.75
3077.70662	4280.55
3080.08842	4248.55
3082.46878	4263.75
3084.84769	4268.05
3087.22515	4250.55
3089.60118	4259.15
3091.97576	4254.45
3094.3489	4267.45
3096.72061	4268.85
3099.09087	4273.55
3101.4597	4287.85
3103.82709	4282.85
3106.19305	4280.85
3108.55757	4287.65
3110.92066	4276.35
3113.28232	4281.15
3115.64255	4283.35
3118.00134	4255.05
3120.35871	4275.25
3122.71466	4280.15
3125.06917	4274.05
3127.42226	4264.35
3129.77393	4257.95
3132.12417	4265.45
3134.47299	4251.35
3136.82039	4258.95
3139.16636	4277.45
3141.51092	4282.95
3143.85406	4270.25
3146.19579	4303.35
3148.53609	4291.25
3150.87499	4314.15
3153.21246	4322.15
3155.54853	4324.05
3157.88318	4321.95
3160.21642	4338.65
3162.54826	4343.05
3164.87868	4331.95
3167.2077	4348.65
3169.5353	4354.85
3171.86151	4348.75
3174.18631	4361.95
3176.5097	4367.15
3178.83169	4359.85
3181.15228	4345.15
3183.47147	4345.65
3185.78926	4345.95
3188.10565	4348.35
3190.42065	4341.75
3192.73424	4351.55
3195.04645	4348.05
3197.35725	4375.25
3199.66667	4366.55
3201.97469	4386.95
3204.28132	4377.75
3206.58656	4385.25
3208.8904	4388.25
3211.19287	4393.45
3213.49394	4404.35
3215.79363	4424.35
3218.09193	4413.75
3220.38884	4413.15
3222.68438	4434.35
3224.97853	4424.95
3227.2713	4425.15
3229.56269	4429.15
3231.8527	4438.35
3234.14133	4417.95
3236.42858	4401.55
3238.71446	4400.75
3240.99896	4394.25
3243.28209	4390.85
3245.56384	4388.35
3247.84423	4379.45
3250.12324	4393.95
3252.40088	4398.85
3254.67715	4382.75
3256.95205	4392.55
3259.22558	4389.75
3261.49775	4385.25
3263.76855	4382.15
3266.03799	4375.45
3268.30606	4378.65
3270.57277	4390.15
3272.83812	4384.65
3275.10211	4358.25
3277.36474	4355.45
3279.62601	4342.95
3281.88593	4353.25
3284.14448	4335.25
3286.40168	4366.05
3288.65753	4349.45
3290.91202	4358.35
3293.16516	4333.55
3295.41695	4352.75
3297.66738	4315.75
3299.91647	4283.35
3302.16421	4266.15
3304.4106	4240.35
3306.65564	4220.85
3308.89933	4188.55
3311.14169	4164.15
3313.38269	4136.65
3315.62236	4123.45
3317.86068	4090.35
3320.09766	4056.25
3322.3333	4019.45
3324.5676	4015.55
3326.80056	3948.85
3329.03219	3923.05
3331.26248	1.45
3333.49143	0.55
3335.71905	-0.45
