Data from AgNPs_UA_50uM_CRN_0uM_R6G_10uM_Q_RamanShift__29__12-45-01-790.txt Node

Date: Tue Jul 26 12:45:01 BST 2022
User: TCL
Spectrometer: QEP01345
Trigger mode: 4
Integration Time (sec): 7.000000E0
Scans to average: 10
Electric dark correction enabled: true
Nonlinearity correction enabled: false
Boxcar width: 0
XAxis mode: Raman Shifts
Number of Pixels in Spectrum: 1044
>>>>>Begin Spectral Data<<<<<
46.04893	0.35
50.45542	-1.15
54.85868	0.55
59.25871	-1.55
63.6555	74.05
68.04907	75.75
72.43941	82.35
76.82654	89.15
81.21044	92.35
85.59113	93.15
89.96862	100.75
94.34289	104.45
98.71396	106.55
103.08183	108.25
107.4465	111.45
111.80798	115.65
116.16626	114.95
120.52136	118.85
124.87327	121.55
129.222	128.85
133.56755	137.55
137.90993	139.25
142.24913	149.75
146.58517	163.45
150.91804	183.25
155.24774	213.25
159.57429	254.05
163.89768	319.15
168.21792	415.05
172.53501	553.05
176.84895	759.75
181.15975	1048.55
185.46741	1473.35
189.77193	2028.05
194.07331	2697.25
198.37157	3461.55
202.6667	4289.75
206.9587	5117.25
211.24758	5975.95
215.53334	6860.85
219.81599	7855.35
224.09553	8998.15
228.37195	10216.75
232.64527	11560.55
236.91549	12904.05
241.18261	14033.25
245.44663	14958.55
249.70755	15667.85
253.96539	16307.85
258.22014	16829.65
262.4718	17249.35
266.72039	17472.35
270.96589	17495.35
275.20832	17292.45
279.44768	16959.45
283.68397	16573.35
287.91719	16378.85
292.14735	16424.25
296.37445	16885.85
300.59849	17643.85
304.81948	18575.85
309.03742	19265.75
313.25231	19331.55
317.46415	18513.95
321.67296	17199.25
325.87872	16072.95
330.08145	15593.35
334.28114	15616.75
338.47781	15941.65
342.67145	16454.25
346.86207	17226.55
351.04966	18344.95
355.23424	19578.05
359.4158	20481.95
363.59435	20955.15
367.76989	21051.35
371.94243	20948.65
376.11196	20787.35
380.27849	20635.25
384.44203	20472.95
388.60257	20227.35
392.76012	20155.55
396.91468	20313.15
401.06626	20826.35
405.21485	21171.15
409.36047	20750.65
413.50311	19733.85
417.64277	18706.95
421.77947	18105.05
425.9132	17774.05
430.04396	17789.25
434.17176	17941.15
438.2966	18331.25
442.41849	18821.15
446.53742	19497.35
450.6534	20150.95
454.76644	20571.55
458.87653	20651.05
462.98368	20408.45
467.08789	20003.55
471.18916	19427.65
475.2875	18761.35
479.38291	18322.55
483.4754	17929.45
487.56496	17752.45
491.6516	17554.25
495.73531	17452.95
499.81612	17500.15
503.89401	17668.65
507.96899	17911.85
512.04106	18198.05
516.11023	18537.45
520.1765	18811.25
524.23987	18848.45
528.30034	18673.35
532.35792	18417.55
536.41261	18165.15
540.46441	17795.75
544.51333	17583.15
548.55936	17717.65
552.60252	18061.85
556.64279	18446.95
560.6802	18651.65
564.71473	19007.05
568.7464	19776.85
572.7752	19955.05
576.80114	19247.15
580.82422	18596.75
584.84444	18485.45
588.86181	18710.55
592.87633	19145.15
596.888	19597.05
600.89682	20642.45
604.9028	23756.65
608.90594	30990.25
612.90624	38644.05
616.90371	35615.45
620.89834	25236.85
624.89015	20849.55
628.87913	20329.05
632.86528	20295.65
636.84862	20190.25
640.82913	19541.95
644.80683	18428.55
648.78172	17741.25
652.75379	17784.95
656.72306	18609.55
660.68952	19523.55
664.65319	19245.85
668.61405	18340.85
672.57211	18001.15
676.52738	17941.05
680.47986	17819.75
684.42955	17614.65
688.37646	17599.75
692.32058	17725.35
696.26192	17825.95
700.20048	18092.05
704.13626	18198.15
708.06928	18004.95
711.99952	17791.45
715.927	17817.55
719.85171	17932.15
723.77365	17962.65
727.69284	17758.45
731.60928	17669.15
735.52295	17696.55
739.43388	17843.35
743.34206	17997.15
747.24749	18087.85
751.15017	18195.65
755.05012	18603.95
758.94733	19709.45
762.8418	22240.05
766.73354	26048.25
770.62254	29477.95
774.50882	31052.05
778.39237	29637.85
782.27321	25627.95
786.15132	21808.85
790.02671	19632.75
793.89938	18683.25
797.76935	18315.85
801.6366	18157.45
805.50115	18074.65
809.36299	17984.25
813.22213	17851.65
817.07857	17801.05
820.93231	17770.35
824.78336	17890.05
828.63172	17995.75
832.47738	18072.45
836.32036	18097.65
840.16066	18100.35
843.99827	18132.75
847.8332	18049.25
851.66546	17953.65
855.49504	17885.45
859.32195	17844.85
863.1462	17750.35
866.96777	17594.95
870.78668	17597.65
874.60293	17668.85
878.41652	17756.85
882.22745	17963.75
886.03573	18045.15
889.84136	18033.65
893.64433	17917.75
897.44466	17874.95
901.24235	17811.05
905.0374	17745.45
908.8298	17625.05
912.61957	17594.45
916.40671	17690.15
920.19121	17963.25
923.97308	18307.55
927.75233	18753.85
931.52895	19079.85
935.30295	18807.35
939.07433	18179.15
942.84309	17719.35
946.60924	17548.65
950.37278	17400.55
954.13371	17262.45
957.89203	17054.95
961.64774	16961.75
965.40086	16901.55
969.15137	16832.25
972.89929	16788.65
976.64461	16792.95
980.38733	16822.95
984.12747	16977.85
987.86502	17167.25
991.59999	17465.75
995.33237	18099.65
999.06217	19045.95
1002.78939	20079.55
1006.51404	20612.15
1010.23611	20828.15
1013.95561	21063.65
1017.67255	21261.45
1021.38692	21177.05
1025.09872	21289.65
1028.80796	21902.85
1032.51465	23072.15
1036.21877	23905.75
1039.92035	23784.95
1043.61937	23080.05
1047.31584	21974.55
1051.00976	20820.25
1054.70114	20162.75
1058.38998	19953.55
1062.07627	19882.65
1065.76003	19790.05
1069.44126	19710.35
1073.11995	19901.45
1076.79611	20170.65
1080.46974	20640.45
1084.14085	21213.05
1087.80943	21699.95
1091.47549	21702.25
1095.13903	21136.95
1098.80005	20440.75
1102.45857	19967.65
1106.11456	19944.15
1109.76805	20279.25
1113.41903	20823.35
1117.06751	21696.15
1120.71348	22762.45
1124.35696	23921.95
1127.99793	24519.75
1131.63641	23968.85
1135.2724	22773.25
1138.90589	21807.25
1142.5369	21085.55
1146.16542	20593.95
1149.79145	20282.95
1153.415	20283.15
1157.03607	20447.35
1160.65467	20901.65
1164.27079	21629.55
1167.88443	22875.95
1171.49561	24841.75
1175.10432	27937.45
1178.71056	31975.25
1182.31434	35382.55
1185.91565	36712.75
1189.51451	35832.95
1193.11091	33351.95
1196.70485	30599.15
1200.29634	28576.55
1203.88538	26992.25
1207.47197	25381.05
1211.05612	24045.35
1214.63782	23420.95
1218.21708	23368.75
1221.79391	23639.65
1225.36829	23943.45
1228.94024	23835.05
1232.50976	23493.75
1236.07685	23231.55
1239.6415	23149.85
1243.20374	23354.55
1246.76355	23607.15
1250.32093	24063.05
1253.8759	24781.85
1257.42845	25675.55
1260.97859	26602.75
1264.52631	27428.25
1268.07163	28224.75
1271.61453	29074.85
1275.15503	29941.95
1278.69312	30877.65
1282.22882	31776.45
1285.76211	32596.65
1289.29301	33369.55
1292.82151	34144.05
1296.34761	35288.15
1299.87133	37470.05
1303.39266	41097.85
1306.9116	46525.65
1310.42815	51965.15
1313.94233	54168.85
1317.45412	51701.15
1320.96354	47132.05
1324.47058	42630.35
1327.97525	39185.35
1331.47754	37292.05
1334.97747	36895.95
1338.47502	37490.65
1341.97022	38769.05
1345.46305	40563.65
1348.95352	42737.45
1352.44163	45530.45
1355.92738	50056.05
1359.41078	57216.15
1362.89183	62669.55
1366.37053	58816.75
1369.84688	48927.95
1373.32088	40430.05
1376.79254	35440.55
1380.26186	32764.35
1383.72883	31171.45
1387.19347	29964.15
1390.65578	28818.15
1394.11575	27977.65
1397.57339	27726.45
1401.0287	27990.25
1404.48168	28435.85
1407.93234	29017.45
1411.38068	29584.25
1414.82669	29953.05
1418.27039	29684.95
1421.71177	29042.15
1425.15083	28506.95
1428.58758	28354.25
1432.02203	28728.75
1435.45416	29135.05
1438.88399	29164.15
1442.31151	29076.85
1445.73673	29069.35
1449.15965	29115.25
1452.58027	28953.75
1455.9986	28515.45
1459.41463	28358.65
1462.82837	28571.65
1466.23982	29209.15
1469.64898	29935.15
1473.05586	30435.65
1476.46045	30914.25
1479.86276	31481.15
1483.26279	32118.95
1486.66054	32941.25
1490.05602	33994.65
1493.44922	35628.55
1496.84016	37926.45
1500.22882	41452.95
1503.61521	46352.55
1506.99934	51747.35
1510.38121	55693.35
1513.76081	55843.25
1517.13816	51318.65
1520.51324	44753.55
1523.88607	39163.45
1527.25665	35651.95
1530.62498	33701.95
1533.99105	32515.45
1537.35488	31776.85
1540.71647	31409.45
1544.07581	31239.25
1547.4329	31160.05
1550.78776	30978.85
1554.14038	30912.85
1557.49077	30894.15
1560.83892	31196.25
1564.18484	31769.95
1567.52853	32492.75
1570.86999	32925.25
1574.20922	33163.85
1577.54624	32723.45
1580.88103	31267.35
1584.2136	29726.85
1587.54395	29354.05
1590.87208	30561.15
1594.19801	33303.25
1597.52172	36542.65
1600.84321	38215.75
1604.16251	37124.05
1607.47959	34265.85
1610.79447	30999.55
1614.10715	28106.05
1617.41763	25928.65
1620.7259	24633.15
1624.03199	24109.85
1627.33587	24372.55
1630.63757	25320.05
1633.93707	27023.05
1637.23439	29409.65
1640.52951	32491.65
1643.82246	36214.95
1647.11321	39871.35
1650.40179	41391.65
1653.68819	38776.85
1656.97241	33266.45
1660.25446	27840.65
1663.53433	24152.25
1666.81203	22009.85
1670.08756	20692.85
1673.36092	19889.95
1676.63211	19316.25
1679.90115	18901.95
1683.16801	18612.85
1686.43272	18355.25
1689.69527	18232.55
1692.95567	18090.25
1696.2139	18084.65
1699.46999	18001.85
1702.72392	17961.85
1705.97571	17936.55
1709.22535	17941.15
1712.47284	17917.85
1715.71819	17930.85
1718.96139	17847.45
1722.20246	17783.95
1725.44139	17710.45
1728.67818	17607.75
1731.91284	17486.55
1735.14537	17373.15
1738.37576	17309.15
1741.60403	17268.15
1744.83017	17213.95
1748.05418	17112.05
1751.27607	17115.65
1754.49584	17052.55
1757.71349	17058.15
1760.92903	17022.65
1764.14244	17025.95
1767.35375	16990.55
1770.56294	16977.35
1773.77002	16948.95
1776.97499	16905.75
1780.17785	16888.05
1783.37861	16878.45
1786.57727	16892.95
1789.77382	16848.45
1792.96828	16835.75
1796.16064	16827.05
1799.3509	16798.35
1802.53907	16826.35
1805.72514	16780.45
1808.90913	16728.15
1812.09102	16674.05
1815.27083	16633.05
1818.44856	16589.05
1821.6242	16564.35
1824.79776	16537.65
1827.96924	16507.05
1831.13864	16501.75
1834.30597	16488.15
1837.47122	16479.95
1840.6344	16481.85
1843.7955	16509.15
1846.95454	16453.55
1850.11151	16468.15
1853.26642	16442.35
1856.41926	16460.35
1859.57004	16475.05
1862.71876	16444.75
1865.86542	16462.55
1869.01003	16463.45
1872.15258	16465.95
1875.29308	16493.35
1878.43152	16489.35
1881.56792	16486.95
1884.70227	16473.65
1887.83457	16496.35
1890.96482	16460.45
1894.09304	16400.45
1897.21921	16409.95
1900.34335	16415.75
1903.46544	16386.75
1906.58551	16420.45
1909.70353	16454.55
1912.81953	16446.85
1915.93349	16450.85
1919.04543	16397.75
1922.15534	16353.45
1925.26322	16350.75
1928.36908	16325.35
1931.47292	16328.85
1934.57473	16246.75
1937.67453	16270.35
1940.77232	16214.95
1943.86808	16193.15
1946.96184	16137.95
1950.05358	16100.65
1953.14331	16065.75
1956.23103	15985.85
1959.31675	15971.65
1962.40046	15899.45
1965.48217	15882.55
1968.56188	15857.15
1971.63959	15860.35
1974.7153	15806.45
1977.78901	15787.55
1980.86073	15706.55
1983.93046	15642.85
1986.99819	15616.05
1990.06394	15564.85
1993.1277	15524.25
1996.18947	15467.55
1999.24925	15448.95
2002.30706	15386.35
2005.36288	15366.85
2008.41672	15300.75
2011.46859	15284.15
2014.51848	15241.75
2017.56639	15195.65
2020.61233	15149.75
2023.6563	15129.75
2026.6983	15121.95
2029.73833	15088.25
2032.7764	15080.85
2035.8125	15060.25
2038.84664	15065.35
2041.87881	15077.55
2044.90903	15044.15
2047.93729	15003.85
2050.96359	14985.85
2053.98794	14988.35
2057.01034	14956.15
2060.03078	14984.75
2063.04927	14994.25
2066.06582	14961.75
2069.08042	14936.35
2072.09307	14905.55
2075.10378	14891.65
2078.11255	14835.35
2081.11938	14836.45
2084.12426	14804.65
2087.12722	14828.75
2090.12824	14844.35
2093.12732	14827.15
2096.12447	14802.35
2099.11969	14794.85
2102.11299	14794.55
2105.10435	14816.15
2108.09379	14828.85
2111.08131	14862.75
2114.0669	14842.65
2117.05057	14851.75
2120.03233	14881.75
2123.01216	14916.65
2125.99008	14906.85
2128.96609	14917.45
2131.94018	14923.45
2134.91236	14949.95
2137.88263	14958.35
2140.851	14932.75
2143.81746	14934.55
2146.78201	14941.15
2149.74466	14974.05
2152.7054	14967.75
2155.66425	14988.65
2158.6212	14959.35
2161.57625	14967.25
2164.52941	14953.25
2167.48067	14918.55
2170.43004	14931.15
2173.37752	14942.95
2176.32311	14965.95
2179.26681	14963.75
2182.20863	14967.25
2185.14856	14992.15
2188.08661	14990.65
2191.02278	14967.45
2193.95707	15024.35
2196.88948	14989.55
2199.82001	15027.85
2202.74867	15011.45
2205.67545	15055.45
2208.60037	15043.15
2211.52341	15042.05
2214.44458	15073.65
2217.36388	15051.25
2220.28132	15053.75
2223.1969	15000.45
2226.11061	14986.55
2229.02246	14998.35
2231.93245	14933.75
2234.84058	14891.55
2237.74686	14851.85
2240.65128	14839.45
2243.55385	14808.85
2246.45456	14795.75
2249.35343	14804.35
2252.25044	14803.05
2255.14561	14818.05
2258.03893	14810.95
2260.93041	14820.85
2263.82004	14763.15
2266.70783	14739.15
2269.59378	14697.65
2272.4779	14657.25
2275.36017	14609.65
2278.24061	14592.75
2281.11922	14554.25
2283.996	14565.75
2286.87094	14528.95
2289.74405	14506.55
2292.61534	14489.45
2295.4848	14487.25
2298.35243	14505.35
2301.21824	14495.35
2304.08223	14518.45
2306.94439	14596.35
2309.80474	14626.25
2312.66327	14606.55
2315.51999	14621.55
2318.37489	14660.15
2321.22797	14660.85
2324.07925	14638.95
2326.92871	14608.05
2329.77637	14634.75
2332.62222	14623.25
2335.46626	14660.05
2338.3085	14677.95
2341.14893	14661.15
2343.98756	14730.75
2346.8244	14787.65
2349.65943	14832.75
2352.49267	14819.15
2355.32411	14814.15
2358.15376	14798.65
2360.98161	14772.15
2363.80768	14782.45
2366.63195	14719.35
2369.45444	14712.55
2372.27514	14692.45
2375.09405	14645.05
2377.91118	14622.65
2380.72652	14569.35
2383.54009	14485.65
2386.35187	14449.55
2389.16188	14428.85
2391.97011	14412.55
2394.77657	14381.75
2397.58125	14390.25
2400.38416	14354.85
2403.18529	14326.45
2405.98466	14286.15
2408.78226	14224.85
2411.57809	14185.95
2414.37216	14135.55
2417.16446	14137.75
2419.955	14101.85
2422.74378	14141.25
2425.5308	14104.85
2428.31606	14078.75
2431.09956	14086.05
2433.88131	14083.55
2436.6613	14111.15
2439.43954	14097.05
2442.21603	14103.85
2444.99077	14062.15
2447.76377	14077.35
2450.53501	14053.55
2453.30451	14061.55
2456.07226	14062.65
2458.83827	14073.35
2461.60254	14026.55
2464.36507	14031.15
2467.12586	14025.05
2469.88492	14066.75
2472.64224	14075.35
2475.39782	14078.45
2478.15167	14097.15
2480.90379	14135.45
2483.65417	14153.95
2486.40283	14217.65
2489.14976	14225.65
2491.89497	14254.55
2494.63845	14305.75
2497.3802	14249.85
2500.12024	14275.65
2502.85855	14253.25
2505.59514	14207.35
2508.33002	14167.95
2511.06318	14163.15
2513.79462	14106.45
2516.52435	14114.65
2519.25237	14059.55
2521.97867	14034.85
2524.70327	14019.55
2527.42616	13994.35
2530.14734	14025.25
2532.86681	14024.35
2535.58458	14026.95
2538.30065	14000.45
2541.01501	14038.45
2543.72768	14034.05
2546.43864	14022.15
2549.14791	14023.05
2551.85548	14009.35
2554.56136	14021.05
2557.26554	13972.55
2559.96803	13987.55
2562.66883	13995.45
2565.36794	13972.05
2568.06536	13966.15
2570.7611	13975.95
2573.45514	13969.85
2576.14751	13942.25
2578.83819	13959.05
2581.52719	13975.55
2584.21451	13948.15
2586.90015	13972.25
2589.58411	13966.45
2592.2664	13978.95
2594.94701	13977.75
2597.62594	13976.35
2600.30321	13949.05
2602.9788	13916.65
2605.65273	13963.25
2608.32498	13982.25
2610.99557	13973.25
2613.66449	13987.05
2616.33175	13991.65
2618.99734	14032.45
2621.66128	14080.85
2624.32355	14091.75
2626.98416	14086.95
2629.64311	14120.05
2632.30041	14103.65
2634.95605	14107.95
2637.61004	14095.75
2640.26238	14065.95
2642.91306	14048.35
2645.56209	14002.05
2648.20948	14005.65
2650.85521	13920.65
2653.4993	13930.25
2656.14175	13895.65
2658.78255	13906.35
2661.42171	13916.55
2664.05923	13952.65
2666.6951	13990.45
2669.32934	14027.75
2671.96194	14040.55
2674.59291	14059.35
2677.22224	14033.85
2679.84993	14024.95
2682.476	14021.35
2685.10043	14008.85
2687.72324	13964.55
2690.34441	13961.95
2692.96396	13955.65
2695.58188	13899.95
2698.19818	13913.25
2700.81285	13907.75
2703.4259	13885.85
2706.03733	13869.65
2708.64714	13877.65
2711.25533	13879.15
2713.86191	13864.85
2716.46687	13899.25
2719.07021	13906.95
2721.67194	13934.35
2724.27206	13913.55
2726.87057	13925.95
2729.46747	13911.35
2732.06276	13935.95
2734.65644	13894.75
2737.24852	13907.95
2739.83899	13888.45
2742.42786	13934.55
2745.01513	13912.85
2747.60079	13849.15
2750.18486	13827.25
2752.76733	13814.45
2755.3482	13815.25
2757.92747	13852.05
2760.50515	13839.35
2763.08123	13809.75
2765.65573	13838.45
2768.22863	13846.25
2770.79994	13831.25
2773.36967	13827.75
2775.9378	13833.45
2778.50435	13832.55
2781.06932	13849.75
2783.6327	13862.15
2786.1945	13853.45
2788.75471	13828.05
2791.31335	13801.05
2793.87041	13787.75
2796.42589	13738.55
2798.97979	13771.35
2801.53212	13733.15
2804.08288	13724.25
2806.63206	13676.65
2809.17967	13685.45
2811.72571	13648.65
2814.27018	13677.95
2816.81308	13667.85
2819.35442	13685.05
2821.89419	13672.65
2824.43239	13711.25
2826.96904	13678.95
2829.50412	13709.75
2832.03763	13661.35
2834.56959	13632.65
2837.1	13619.35
2839.62884	13605.65
2842.15613	13603.75
2844.68186	13581.55
2847.20604	13583.45
2849.72867	13599.75
2852.24974	13596.75
2854.76927	13576.15
2857.28724	13564.55
2859.80367	13597.65
2862.31855	13574.05
2864.83189	13566.65
2867.34368	13546.85
2869.85393	13567.85
2872.36264	13544.35
2874.8698	13573.75
2877.37543	13521.15
2879.87952	13543.65
2882.38207	13558.35
2884.88308	13529.35
2887.38256	13548.75
2889.88051	13539.05
2892.37692	13544.85
2894.8718	13546.75
2897.36515	13516.95
2899.85698	13545.45
2902.34727	13614.75
2904.83604	13644.25
2907.32328	13681.95
2909.809	13647.55
2912.29319	13632.95
2914.77587	13609.85
2917.25702	13644.35
2919.73665	13608.15
2922.21476	13594.25
2924.69136	13546.05
2927.16644	13575.75
2929.64	13518.65
2932.11205	13470.35
2934.58258	13436.35
2937.05161	13456.15
2939.51912	13463.05
2941.98513	13459.05
2944.44962	13457.95
2946.91261	13412.55
2949.37409	13400.05
2951.83407	13420.85
2954.29254	13430.55
2956.74951	13437.65
2959.20498	13409.65
2961.65895	13381.15
2964.11142	13366.45
2966.56239	13328.85
2969.01186	13354.35
2971.45984	13309.75
2973.90632	13314.65
2976.35131	13283.45
2978.7948	13244.35
2981.23681	13213.05
2983.67732	13191.45
2986.11635	13155.25
2988.55388	13123.25
2990.98993	13104.75
2993.4245	13066.95
2995.85758	13016.95
2998.28917	13069.05
3000.71928	13038.45
3003.14791	12972.15
3005.57506	12947.75
3008.00073	12952.45
3010.42493	12912.85
3012.84764	12888.65
3015.26888	12869.65
3017.68865	12843.95
3020.10694	12829.65
3022.52376	12751.95
3024.9391	12762.45
3027.35298	12747.25
3029.76539	12730.45
3032.17632	12700.65
3034.5858	12664.05
3036.9938	12692.55
3039.40034	12651.75
3041.80542	12662.25
3044.20903	12645.35
3046.61118	12666.35
3049.01187	12622.75
3051.4111	12608.05
3053.80888	12583.75
3056.20519	12549.35
3058.60005	12512.45
3060.99345	12479.95
3063.3854	12432.05
3065.7759	12395.55
3068.16494	12375.05
3070.55254	12350.85
3072.93868	12305.25
3075.32338	12255.05
3077.70662	12246.75
3080.08842	12235.55
3082.46878	12214.65
3084.84769	12193.15
3087.22515	12179.55
3089.60118	12197.05
3091.97576	12170.55
3094.3489	12187.15
3096.72061	12164.95
3099.09087	12120.15
3101.4597	12145.35
3103.82709	12159.35
3106.19305	12129.15
3108.55757	12132.65
3110.92066	12114.35
3113.28232	12094.95
3115.64255	12087.65
3118.00134	12081.15
3120.35871	12059.55
3122.71466	12049.55
3125.06917	12030.25
3127.42226	11967.05
3129.77393	11996.15
3132.12417	11993.55
3134.47299	11981.15
3136.82039	11984.65
3139.16636	11972.55
3141.51092	11965.95
3143.85406	11969.95
3146.19579	11936.25
3148.53609	11958.45
3150.87499	11987.35
3153.21246	11983.35
3155.54853	11993.75
3157.88318	11972.15
3160.21642	12002.55
3162.54826	12006.25
3164.87868	12004.15
3167.2077	11989.85
3169.5353	11996.25
3171.86151	12005.45
3174.18631	11980.65
3176.5097	11987.45
3178.83169	11975.15
3181.15228	11952.15
3183.47147	11939.85
3185.78926	11911.05
3188.10565	11878.45
3190.42065	11908.35
3192.73424	11908.65
3195.04645	11893.15
3197.35725	11911.45
3199.66667	11916.55
3201.97469	11923.35
3204.28132	11920.15
3206.58656	11925.25
3208.8904	11961.95
3211.19287	11959.85
3213.49394	11949.35
3215.79363	11955.05
3218.09193	11954.55
3220.38884	11946.55
3222.68438	11976.65
3224.97853	11987.05
3227.2713	11990.25
3229.56269	12006.65
3231.8527	12000.55
3234.14133	11970.65
3236.42858	11974.55
3238.71446	11966.25
3240.99896	11917.45
3243.28209	11887.55
3245.56384	11869.05
3247.84423	11869.75
3250.12324	11863.25
3252.40088	11859.95
3254.67715	11821.75
3256.95205	11802.75
3259.22558	11821.45
3261.49775	11803.75
3263.76855	11845.05
3266.03799	11788.75
3268.30606	11798.45
3270.57277	11809.15
3272.83812	11769.15
3275.10211	11727.25
3277.36474	11745.45
3279.62601	11760.15
3281.88593	11727.15
3284.14448	11716.35
3286.40168	11729.85
3288.65753	11718.25
3290.91202	11697.45
3293.16516	11699.55
3295.41695	11681.85
3297.66738	11606.55
3299.91647	11517.15
3302.16421	11490.75
3304.4106	11449.25
3306.65564	11371.65
3308.89933	11289.35
3311.14169	11228.85
3313.38269	11150.65
3315.62236	11072.35
3317.86068	10987.35
3320.09766	10921.85
3322.3333	10813.45
3324.5676	10792.15
3326.80056	10650.45
3329.03219	10591.45
3331.26248	2.55
3333.49143	-1.35
3335.71905	0.85
