Data from AgNPs_UA_100uM_CRN_0uM_R6G_10uM_Q_RamanShift__5__13-18-15-313.txt Node

Date: Tue Jul 26 13:18:15 BST 2022
User: TCL
Spectrometer: QEP01345
Trigger mode: 4
Integration Time (sec): 7.000000E0
Scans to average: 10
Electric dark correction enabled: true
Nonlinearity correction enabled: false
Boxcar width: 0
XAxis mode: Raman Shifts
Number of Pixels in Spectrum: 1044
>>>>>Begin Spectral Data<<<<<
46.04893	-1.35
50.45542	-0.25
54.85868	0.05
59.25871	-0.45
63.6555	74.85
68.04907	79.85
72.43941	83.75
76.82654	90.85
81.21044	92.45
85.59113	98.25
89.96862	98.85
94.34289	101.35
98.71396	108.75
103.08183	110.75
107.4465	108.25
111.80798	110.65
116.16626	114.95
120.52136	120.85
124.87327	122.55
129.222	128.95
133.56755	133.55
137.90993	137.15
142.24913	142.95
146.58517	159.25
150.91804	174.05
155.24774	200.25
159.57429	238.55
163.89768	299.15
168.21792	394.35
172.53501	516.85
176.84895	711.25
181.15975	986.55
185.46741	1374.65
189.77193	1910.95
194.07331	2532.05
198.37157	3252.85
202.6667	3992.05
206.9587	4748.25
211.24758	5494.95
215.53334	6228.15
219.81599	7055.05
224.09553	7928.05
228.37195	8902.45
232.64527	9988.25
236.91549	11134.45
241.18261	12211.65
245.44663	13178.55
249.70755	13998.35
253.96539	14701.45
258.22014	15300.25
262.4718	15771.95
266.72039	16139.25
270.96589	16273.75
275.20832	16220.45
279.44768	16068.95
283.68397	15879.15
287.91719	15731.35
292.14735	15692.75
296.37445	15749.95
300.59849	15960.85
304.81948	16241.75
309.03742	16457.55
313.25231	16514.85
317.46415	16323.05
321.67296	15886.65
325.87872	15509.75
330.08145	15294.65
334.28114	15293.15
338.47781	15498.55
342.67145	15689.95
346.86207	16017.45
351.04966	16443.35
355.23424	16800.15
359.4158	17151.75
363.59435	17327.45
367.76989	17490.15
371.94243	17541.85
376.11196	17571.65
380.27849	17631.25
384.44203	17654.15
388.60257	17761.05
392.76012	17877.85
396.91468	18009.55
401.06626	18322.65
405.21485	18467.45
409.36047	18372.45
413.50311	17984.85
417.64277	17664.55
421.77947	17534.35
425.9132	17581.45
430.04396	17714.55
434.17176	17817.55
438.2966	18020.15
442.41849	18281.65
446.53742	18652.65
450.6534	19006.15
454.76644	19267.75
458.87653	19259.25
462.98368	19202.95
467.08789	19048.55
471.18916	18819.25
475.2875	18600.75
479.38291	18297.85
483.4754	18098.25
487.56496	17961.45
491.6516	17925.05
495.73531	17965.45
499.81612	17978.25
503.89401	18124.65
507.96899	18178.85
512.04106	18232.55
516.11023	18280.95
520.1765	18345.05
524.23987	18367.15
528.30034	18361.05
532.35792	18307.35
536.41261	18221.85
540.46441	18074.25
544.51333	18005.45
548.55936	18174.95
552.60252	18396.15
556.64279	18687.25
560.6802	18839.15
564.71473	18907.85
568.7464	19053.25
572.7752	19293.45
576.80114	19397.85
580.82422	19583.75
584.84444	19899.85
588.86181	20164.15
592.87633	20427.05
596.888	20613.05
600.89682	20818.95
604.9028	21810.25
608.90594	24308.95
612.90624	26899.95
616.90371	25279.35
620.89834	21035.65
624.89015	19227.65
628.87913	19045.25
632.86528	19281.35
636.84862	19481.95
640.82913	19265.45
644.80683	18765.65
648.78172	18458.15
652.75379	18452.75
656.72306	18753.85
660.68952	19114.85
664.65319	18957.25
668.61405	18599.15
672.57211	18544.75
676.52738	18596.85
680.47986	18508.15
684.42955	18391.55
688.37646	18304.45
692.32058	18448.15
696.26192	18591.95
700.20048	18810.35
704.13626	18941.15
708.06928	18912.85
711.99952	18804.35
715.927	18795.85
719.85171	18850.65
723.77365	18868.65
727.69284	18770.75
731.60928	18668.35
735.52295	18647.95
739.43388	18689.25
743.34206	18737.55
747.24749	18809.95
751.15017	18906.85
755.05012	19113.85
758.94733	19658.35
762.8418	20796.85
766.73354	22647.85
770.62254	24271.15
774.50882	24652.65
778.39237	23567.15
782.27321	21924.15
786.15132	20468.15
790.02671	19554.35
793.89938	19045.35
797.76935	18819.35
801.6366	18750.25
805.50115	18731.55
809.36299	18674.45
813.22213	18565.05
817.07857	18534.45
820.93231	18489.65
824.78336	18539.45
828.63172	18533.15
832.47738	18511.95
836.32036	18491.95
840.16066	18501.85
843.99827	18487.85
847.8332	18477.15
851.66546	18484.75
855.49504	18575.25
859.32195	18587.25
863.1462	18536.45
866.96777	18558.35
870.78668	18595.95
874.60293	18631.15
878.41652	18683.65
882.22745	18766.05
886.03573	18857.25
889.84136	18861.75
893.64433	18825.65
897.44466	18757.75
901.24235	18703.85
905.0374	18656.55
908.8298	18596.25
912.61957	18568.55
916.40671	18651.25
920.19121	18741.95
923.97308	18874.35
927.75233	18946.55
931.52895	18909.95
935.30295	18789.25
939.07433	18527.05
942.84309	18296.65
946.60924	18281.85
950.37278	18182.85
954.13371	18163.95
957.89203	18142.85
961.64774	18125.35
965.40086	18121.75
969.15137	18118.55
972.89929	18081.25
976.64461	18083.05
980.38733	18081.35
984.12747	18121.05
987.86502	18260.05
991.59999	18366.05
995.33237	18497.65
999.06217	18723.95
1002.78939	19045.25
1006.51404	19307.35
1010.23611	19622.55
1013.95561	19785.65
1017.67255	19790.75
1021.38692	19677.95
1025.09872	19435.65
1028.80796	19238.35
1032.51465	19270.85
1036.21877	19327.85
1039.92035	19386.35
1043.61937	19423.55
1047.31584	19368.35
1051.00976	19342.35
1054.70114	19343.25
1058.38998	19389.95
1062.07627	19506.55
1065.76003	19666.45
1069.44126	19835.95
1073.11995	20122.95
1076.79611	20399.25
1080.46974	20598.85
1084.14085	20768.05
1087.80943	20983.75
1091.47549	21025.75
1095.13903	20926.75
1098.80005	20615.45
1102.45857	20386.55
1106.11456	20189.75
1109.76805	20121.65
1113.41903	20207.75
1117.06751	20450.55
1120.71348	20837.05
1124.35696	21204.45
1127.99793	21472.95
1131.63641	21448.65
1135.2724	21135.85
1138.90589	20858.05
1142.5369	20638.45
1146.16542	20540.65
1149.79145	20411.55
1153.415	20400.65
1157.03607	20489.35
1160.65467	20714.75
1164.27079	21183.75
1167.88443	21924.95
1171.49561	22942.25
1175.10432	24381.55
1178.71056	26287.75
1182.31434	27948.05
1185.91565	28696.95
1189.51451	28618.05
1193.11091	28028.65
1196.70485	27120.35
1200.29634	26091.25
1203.88538	25165.75
1207.47197	24260.25
1211.05612	23440.65
1214.63782	22859.15
1218.21708	22518.05
1221.79391	22433.35
1225.36829	22385.15
1228.94024	22413.75
1232.50976	22289.95
1236.07685	22184.85
1239.6415	22107.45
1243.20374	22122.75
1246.76355	22226.75
1250.32093	22346.45
1253.8759	22622.75
1257.42845	23077.55
1260.97859	23643.05
1264.52631	24183.85
1268.07163	24699.75
1271.61453	25174.75
1275.15503	25534.05
1278.69312	25795.45
1282.22882	26026.25
1285.76211	26381.55
1289.29301	26847.55
1292.82151	27431.55
1296.34761	28201.45
1299.87133	29227.65
1303.39266	30626.45
1306.9116	32423.05
1310.42815	34348.35
1313.94233	35307.05
1317.45412	34782.85
1320.96354	33642.45
1324.47058	32399.45
1327.97525	31278.25
1331.47754	30505.15
1334.97747	30247.25
1338.47502	30311.15
1341.97022	30734.35
1345.46305	31400.85
1348.95352	32398.55
1352.44163	33619.15
1355.92738	35139.15
1359.41078	37373.15
1362.89183	39142.45
1366.37053	38179.15
1369.84688	34456.35
1373.32088	30589.95
1376.79254	28061.05
1380.26186	26764.95
1383.72883	26161.85
1387.19347	25655.85
1390.65578	25042.15
1394.11575	24564.15
1397.57339	24212.95
1401.0287	24066.05
1404.48168	24011.45
1407.93234	24054.85
1411.38068	24098.65
1414.82669	24041.55
1418.27039	23786.95
1421.71177	23476.55
1425.15083	23200.85
1428.58758	23044.15
1432.02203	23193.35
1435.45416	23455.75
1438.88399	23622.35
1442.31151	23695.05
1445.73673	23792.55
1449.15965	23873.65
1452.58027	23904.05
1455.9986	23842.25
1459.41463	23891.85
1462.82837	24223.45
1466.23982	24654.45
1469.64898	25126.75
1473.05586	25553.05
1476.46045	25822.85
1479.86276	26051.85
1483.26279	26268.25
1486.66054	26577.85
1490.05602	27064.05
1493.44922	27775.05
1496.84016	28890.35
1500.22882	30574.35
1503.61521	32736.05
1506.99934	34949.35
1510.38121	36233.25
1513.76081	35866.05
1517.13816	33903.65
1520.51324	31295.65
1523.88607	29267.65
1527.25665	28044.75
1530.62498	27405.35
1533.99105	27082.35
1537.35488	26777.55
1540.71647	26411.45
1544.07581	26030.95
1547.4329	25683.45
1550.78776	25362.85
1554.14038	25230.45
1557.49077	25186.95
1560.83892	25323.55
1564.18484	25634.85
1567.52853	26025.35
1570.86999	26386.55
1574.20922	26582.35
1577.54624	26466.55
1580.88103	25784.75
1584.2136	25030.35
1587.54395	24753.05
1590.87208	25069.65
1594.19801	26023.65
1597.52172	27209.55
1600.84321	27725.15
1604.16251	27249.65
1607.47959	26289.05
1610.79447	25108.15
1614.10715	23826.45
1617.41763	22716.55
1620.7259	21883.75
1624.03199	21401.55
1627.33587	21267.75
1630.63757	21492.25
1633.93707	22229.75
1637.23439	23534.45
1640.52951	25474.05
1643.82246	27894.25
1647.11321	30205.55
1650.40179	31079.85
1653.68819	29827.05
1656.97241	26960.95
1660.25446	24036.45
1663.53433	21861.35
1666.81203	20513.25
1670.08756	19675.35
1673.36092	19134.15
1676.63211	18776.45
1679.90115	18471.05
1683.16801	18295.75
1686.43272	18119.25
1689.69527	17982.85
1692.95567	17908.05
1696.2139	17867.95
1699.46999	17764.25
1702.72392	17669.05
1705.97571	17657.95
1709.22535	17668.35
1712.47284	17632.05
1715.71819	17601.85
1718.96139	17566.55
1722.20246	17538.15
1725.44139	17454.35
1728.67818	17398.75
1731.91284	17304.95
1735.14537	17251.85
1738.37576	17179.15
1741.60403	17118.85
1744.83017	17102.85
1748.05418	17022.25
1751.27607	17003.65
1754.49584	16968.75
1757.71349	16950.55
1760.92903	16969.15
1764.14244	16925.55
1767.35375	16925.55
1770.56294	16902.35
1773.77002	16885.55
1776.97499	16845.15
1780.17785	16813.65
1783.37861	16787.45
1786.57727	16798.15
1789.77382	16781.35
1792.96828	16770.85
1796.16064	16734.65
1799.3509	16759.85
1802.53907	16681.65
1805.72514	16624.55
1808.90913	16608.95
1812.09102	16538.55
1815.27083	16558.65
1818.44856	16534.35
1821.6242	16495.35
1824.79776	16464.95
1827.96924	16413.55
1831.13864	16430.35
1834.30597	16413.05
1837.47122	16370.25
1840.6344	16398.25
1843.7955	16394.05
1846.95454	16376.75
1850.11151	16382.15
1853.26642	16338.55
1856.41926	16379.45
1859.57004	16360.45
1862.71876	16351.55
1865.86542	16352.25
1869.01003	16331.85
1872.15258	16311.25
1875.29308	16283.05
1878.43152	16281.45
1881.56792	16267.45
1884.70227	16184.45
1887.83457	16204.45
1890.96482	16179.95
1894.09304	16165.45
1897.21921	16141.65
1900.34335	16136.45
1903.46544	16121.35
1906.58551	16133.75
1909.70353	16087.35
1912.81953	16073.65
1915.93349	16036.15
1919.04543	16058.75
1922.15534	16032.55
1925.26322	16050.85
1928.36908	15964.25
1931.47292	15925.95
1934.57473	15897.85
1937.67453	15865.05
1940.77232	15855.95
1943.86808	15786.55
1946.96184	15759.55
1950.05358	15705.55
1953.14331	15688.05
1956.23103	15652.45
1959.31675	15585.25
1962.40046	15573.55
1965.48217	15516.15
1968.56188	15459.25
1971.63959	15439.65
1974.7153	15381.75
1977.78901	15338.95
1980.86073	15297.75
1983.93046	15260.85
1986.99819	15209.15
1990.06394	15201.25
1993.1277	15130.85
1996.18947	15074.85
1999.24925	15042.45
2002.30706	15004.75
2005.36288	14971.85
2008.41672	14919.45
2011.46859	14878.65
2014.51848	14822.45
2017.56639	14789.05
2020.61233	14749.75
2023.6563	14757.55
2026.6983	14706.25
2029.73833	14676.05
2032.7764	14643.65
2035.8125	14608.75
2038.84664	14559.05
2041.87881	14579.85
2044.90903	14554.05
2047.93729	14529.35
2050.96359	14524.85
2053.98794	14506.15
2057.01034	14502.85
2060.03078	14468.65
2063.04927	14463.15
2066.06582	14468.55
2069.08042	14424.75
2072.09307	14441.15
2075.10378	14428.15
2078.11255	14421.25
2081.11938	14425.05
2084.12426	14429.05
2087.12722	14436.05
2090.12824	14391.65
2093.12732	14446.05
2096.12447	14436.45
2099.11969	14392.15
2102.11299	14414.75
2105.10435	14423.65
2108.09379	14443.55
2111.08131	14441.55
2114.0669	14440.55
2117.05057	14475.15
2120.03233	14478.75
2123.01216	14510.85
2125.99008	14508.35
2128.96609	14531.85
2131.94018	14533.95
2134.91236	14565.15
2137.88263	14561.25
2140.851	14583.35
2143.81746	14562.85
2146.78201	14580.95
2149.74466	14565.15
2152.7054	14585.95
2155.66425	14610.05
2158.6212	14573.85
2161.57625	14583.15
2164.52941	14570.95
2167.48067	14565.25
2170.43004	14531.35
2173.37752	14530.45
2176.32311	14558.75
2179.26681	14587.55
2182.20863	14558.35
2185.14856	14570.45
2188.08661	14547.85
2191.02278	14538.25
2193.95707	14542.25
2196.88948	14539.25
2199.82001	14549.35
2202.74867	14527.05
2205.67545	14496.95
2208.60037	14506.35
2211.52341	14497.75
2214.44458	14470.05
2217.36388	14430.75
2220.28132	14380.75
2223.1969	14334.95
2226.11061	14347.15
2229.02246	14325.95
2231.93245	14324.65
2234.84058	14267.45
2237.74686	14264.05
2240.65128	14232.35
2243.55385	14211.75
2246.45456	14207.65
2249.35343	14200.55
2252.25044	14201.65
2255.14561	14175.95
2258.03893	14153.25
2260.93041	14136.15
2263.82004	14078.65
2266.70783	14115.05
2269.59378	14065.55
2272.4779	14039.85
2275.36017	14050.65
2278.24061	13990.25
2281.11922	13956.65
2283.996	13962.55
2286.87094	13938.25
2289.74405	13878.75
2292.61534	13877.35
2295.4848	13863.05
2298.35243	13876.85
2301.21824	13907.55
2304.08223	13861.45
2306.94439	13834.35
2309.80474	13870.05
2312.66327	13840.75
2315.51999	13841.25
2318.37489	13833.85
2321.22797	13787.25
2324.07925	13780.75
2326.92871	13761.55
2329.77637	13764.15
2332.62222	13729.05
2335.46626	13703.75
2338.3085	13668.35
2341.14893	13667.65
2343.98756	13646.65
2346.8244	13665.75
2349.65943	13658.35
2352.49267	13640.25
2355.32411	13632.85
2358.15376	13598.05
2360.98161	13594.45
2363.80768	13609.75
2366.63195	13636.85
2369.45444	13628.85
2372.27514	13618.45
2375.09405	13596.75
2377.91118	13572.45
2380.72652	13547.35
2383.54009	13545.75
2386.35187	13518.35
2389.16188	13462.85
2391.97011	13441.85
2394.77657	13408.85
2397.58125	13393.15
2400.38416	13360.05
2403.18529	13345.95
2405.98466	13338.15
2408.78226	13335.25
2411.57809	13296.75
2414.37216	13292.65
2417.16446	13290.95
2419.955	13251.75
2422.74378	13266.85
2425.5308	13261.95
2428.31606	13264.35
2431.09956	13246.55
2433.88131	13251.65
2436.6613	13239.45
2439.43954	13228.85
2442.21603	13249.45
2444.99077	13228.25
2447.76377	13212.75
2450.53501	13194.65
2453.30451	13182.85
2456.07226	13161.45
2458.83827	13154.65
2461.60254	13145.55
2464.36507	13148.55
2467.12586	13131.25
2469.88492	13131.65
2472.64224	13118.05
2475.39782	13138.55
2478.15167	13150.65
2480.90379	13129.55
2483.65417	13110.55
2486.40283	13123.35
2489.14976	13112.15
2491.89497	13116.65
2494.63845	13122.45
2497.3802	13094.35
2500.12024	13122.85
2502.85855	13090.75
2505.59514	13075.75
2508.33002	13038.35
2511.06318	13040.15
2513.79462	13021.65
2516.52435	13003.25
2519.25237	13004.15
2521.97867	12941.35
2524.70327	12951.75
2527.42616	12928.95
2530.14734	12938.05
2532.86681	12892.45
2535.58458	12877.45
2538.30065	12881.45
2541.01501	12871.95
2543.72768	12841.15
2546.43864	12839.15
2549.14791	12820.55
2551.85548	12839.25
2554.56136	12823.85
2557.26554	12792.05
2559.96803	12763.35
2562.66883	12753.45
2565.36794	12728.35
2568.06536	12715.15
2570.7611	12663.25
2573.45514	12662.05
2576.14751	12663.05
2578.83819	12667.85
2581.52719	12660.65
2584.21451	12619.75
2586.90015	12627.25
2589.58411	12630.85
2592.2664	12585.05
2594.94701	12579.05
2597.62594	12551.05
2600.30321	12522.15
2602.9788	12517.75
2605.65273	12502.45
2608.32498	12512.95
2610.99557	12495.95
2613.66449	12494.75
2616.33175	12450.45
2618.99734	12477.55
2621.66128	12461.15
2624.32355	12429.35
2626.98416	12417.25
2629.64311	12433.65
2632.30041	12383.95
2634.95605	12390.85
2637.61004	12340.75
2640.26238	12338.25
2642.91306	12369.15
2645.56209	12318.75
2648.20948	12317.25
2650.85521	12311.95
2653.4993	12305.65
2656.14175	12285.35
2658.78255	12303.75
2661.42171	12301.85
2664.05923	12326.85
2666.6951	12323.05
2669.32934	12334.65
2671.96194	12338.85
2674.59291	12339.95
2677.22224	12357.45
2679.84993	12328.55
2682.476	12331.65
2685.10043	12329.05
2687.72324	12333.15
2690.34441	12320.65
2692.96396	12318.25
2695.58188	12326.95
2698.19818	12307.15
2700.81285	12285.65
2703.4259	12287.05
2706.03733	12298.55
2708.64714	12275.95
2711.25533	12322.95
2713.86191	12311.55
2716.46687	12337.05
2719.07021	12302.65
2721.67194	12323.75
2724.27206	12321.55
2726.87057	12310.65
2729.46747	12322.65
2732.06276	12327.45
2734.65644	12312.65
2737.24852	12321.35
2739.83899	12300.55
2742.42786	12310.75
2745.01513	12277.85
2747.60079	12236.65
2750.18486	12253.75
2752.76733	12234.55
2755.3482	12197.35
2757.92747	12217.85
2760.50515	12210.25
2763.08123	12207.05
2765.65573	12156.65
2768.22863	12182.25
2770.79994	12176.75
2773.36967	12191.15
2775.9378	12127.65
2778.50435	12127.55
2781.06932	12123.95
2783.6327	12115.35
2786.1945	12123.05
2788.75471	12095.15
2791.31335	12072.75
2793.87041	12053.35
2796.42589	12026.65
2798.97979	12035.65
2801.53212	11996.25
2804.08288	12001.35
2806.63206	11956.25
2809.17967	11907.95
2811.72571	11915.55
2814.27018	11894.55
2816.81308	11851.35
2819.35442	11838.95
2821.89419	11829.35
2824.43239	11822.45
2826.96904	11818.95
2829.50412	11796.05
2832.03763	11748.65
2834.56959	11723.35
2837.1	11728.85
2839.62884	11731.65
2842.15613	11728.05
2844.68186	11717.45
2847.20604	11714.35
2849.72867	11704.35
2852.24974	11646.45
2854.76927	11670.75
2857.28724	11674.05
2859.80367	11662.65
2862.31855	11647.15
2864.83189	11642.75
2867.34368	11632.85
2869.85393	11605.15
2872.36264	11575.95
2874.8698	11587.05
2877.37543	11554.05
2879.87952	11589.45
2882.38207	11569.15
2884.88308	11575.85
2887.38256	11578.75
2889.88051	11571.35
2892.37692	11580.05
2894.8718	11582.65
2897.36515	11575.75
2899.85698	11575.25
2902.34727	11613.15
2904.83604	11622.15
2907.32328	11649.65
2909.809	11639.05
2912.29319	11635.15
2914.77587	11624.55
2917.25702	11611.65
2919.73665	11620.55
2922.21476	11626.85
2924.69136	11600.15
2927.16644	11592.55
2929.64	11592.35
2932.11205	11576.35
2934.58258	11527.15
2937.05161	11516.75
2939.51912	11535.95
2941.98513	11531.35
2944.44962	11528.85
2946.91261	11475.05
2949.37409	11508.05
2951.83407	11496.55
2954.29254	11489.15
2956.74951	11483.85
2959.20498	11474.15
2961.65895	11482.05
2964.11142	11472.45
2966.56239	11484.75
2969.01186	11473.55
2971.45984	11470.45
2973.90632	11467.75
2976.35131	11445.45
2978.7948	11454.85
2981.23681	11424.55
2983.67732	11383.05
2986.11635	11391.35
2988.55388	11341.75
2990.98993	11317.25
2993.4245	11308.55
2995.85758	11291.15
2998.28917	11286.65
3000.71928	11248.55
3003.14791	11229.85
3005.57506	11226.25
3008.00073	11171.65
3010.42493	11169.75
3012.84764	11180.95
3015.26888	11170.45
3017.68865	11144.75
3020.10694	11127.85
3022.52376	11093.55
3024.9391	11084.05
3027.35298	11073.25
3029.76539	11081.25
3032.17632	11037.65
3034.5858	11034.95
3036.9938	11030.05
3039.40034	11021.35
3041.80542	11016.15
3044.20903	10986.65
3046.61118	11008.65
3049.01187	10975.05
3051.4111	10962.35
3053.80888	10937.25
3056.20519	10895.75
3058.60005	10897.05
3060.99345	10902.45
3063.3854	10870.25
3065.7759	10850.35
3068.16494	10827.75
3070.55254	10782.75
3072.93868	10784.55
3075.32338	10760.45
3077.70662	10744.65
3080.08842	10711.05
3082.46878	10698.35
3084.84769	10694.15
3087.22515	10692.25
3089.60118	10685.85
3091.97576	10687.75
3094.3489	10669.55
3096.72061	10695.55
3099.09087	10699.15
3101.4597	10679.75
3103.82709	10702.55
3106.19305	10685.85
3108.55757	10690.35
3110.92066	10686.15
3113.28232	10665.35
3115.64255	10649.55
3118.00134	10639.65
3120.35871	10622.05
3122.71466	10600.15
3125.06917	10582.15
3127.42226	10572.45
3129.77393	10565.25
3132.12417	10546.85
3134.47299	10520.15
3136.82039	10518.05
3139.16636	10529.35
3141.51092	10515.55
3143.85406	10508.15
3146.19579	10503.95
3148.53609	10543.25
3150.87499	10574.65
3153.21246	10555.45
3155.54853	10575.25
3157.88318	10592.45
3160.21642	10604.15
3162.54826	10592.05
3164.87868	10593.95
3167.2077	10581.75
3169.5353	10588.75
3171.86151	10569.75
3174.18631	10594.85
3176.5097	10576.35
3178.83169	10577.25
3181.15228	10547.25
3183.47147	10514.95
3185.78926	10516.95
3188.10565	10500.75
3190.42065	10497.35
3192.73424	10484.35
3195.04645	10458.15
3197.35725	10498.45
3199.66667	10473.65
3201.97469	10491.25
3204.28132	10460.25
3206.58656	10476.55
3208.8904	10491.65
3211.19287	10480.65
3213.49394	10496.65
3215.79363	10506.35
3218.09193	10499.35
3220.38884	10500.95
3222.68438	10512.05
3224.97853	10481.05
3227.2713	10505.05
3229.56269	10495.15
3231.8527	10474.55
3234.14133	10449.95
3236.42858	10449.75
3238.71446	10416.25
3240.99896	10363.25
3243.28209	10362.65
3245.56384	10361.25
3247.84423	10365.05
3250.12324	10359.25
3252.40088	10321.85
3254.67715	10329.95
3256.95205	10314.05
3259.22558	10338.85
3261.49775	10326.65
3263.76855	10337.65
3266.03799	10298.65
3268.30606	10334.55
3270.57277	10297.85
3272.83812	10283.35
3275.10211	10260.75
3277.36474	10249.35
3279.62601	10209.25
3281.88593	10197.15
3284.14448	10213.85
3286.40168	10226.95
3288.65753	10232.15
3290.91202	10224.75
3293.16516	10190.15
3295.41695	10164.65
3297.66738	10088.85
3299.91647	10049.35
3302.16421	9972.35
3304.4106	9952.15
3306.65564	9889.45
3308.89933	9818.55
3311.14169	9738.65
3313.38269	9673.15
3315.62236	9639.75
3317.86068	9558.65
3320.09766	9508.85
3322.3333	9426.15
3324.5676	9394.25
3326.80056	9258.05
3329.03219	9195.15
3331.26248	3.05
3333.49143	0.05
3335.71905	-1.05
