Data from AgNPs_UA_100uM_CRN_0uM_R6G_10uM_Q_RamanShift__22__13-38-05-336.txt Node

Date: Tue Jul 26 13:38:05 BST 2022
User: TCL
Spectrometer: QEP01345
Trigger mode: 4
Integration Time (sec): 7.000000E0
Scans to average: 10
Electric dark correction enabled: true
Nonlinearity correction enabled: false
Boxcar width: 0
XAxis mode: Raman Shifts
Number of Pixels in Spectrum: 1044
>>>>>Begin Spectral Data<<<<<
46.04893	-1.65
50.45542	1.55
54.85868	-0.45
59.25871	0.25
63.6555	53.95
68.04907	58.75
72.43941	65.55
76.82654	68.95
81.21044	73.25
85.59113	72.45
89.96862	77.25
94.34289	80.15
98.71396	81.05
103.08183	85.65
107.4465	85.25
111.80798	84.55
116.16626	86.75
120.52136	88.25
124.87327	89.75
129.222	95.15
133.56755	96.75
137.90993	98.85
142.24913	98.65
146.58517	104.65
150.91804	115.65
155.24774	130.55
159.57429	152.75
163.89768	188.65
168.21792	237.95
172.53501	308.65
176.84895	418.75
181.15975	582.75
185.46741	804.25
189.77193	1099.35
194.07331	1454.25
198.37157	1859.55
202.6667	2288.55
206.9587	2723.65
211.24758	3156.15
215.53334	3586.45
219.81599	4051.85
224.09553	4569.25
228.37195	5142.45
232.64527	5782.15
236.91549	6442.65
241.18261	7060.45
245.44663	7612.25
249.70755	8084.35
253.96539	8476.45
258.22014	8809.85
262.4718	9124.35
266.72039	9309.65
270.96589	9391.25
275.20832	9359.85
279.44768	9230.45
283.68397	9100.05
287.91719	8961.55
292.14735	8911.65
296.37445	8966.75
300.59849	9110.15
304.81948	9297.05
309.03742	9367.95
313.25231	9352.35
317.46415	9143.05
321.67296	8837.95
325.87872	8557.35
330.08145	8485.35
334.28114	8530.55
338.47781	8637.45
342.67145	8799.25
346.86207	9008.85
351.04966	9317.35
355.23424	9680.65
359.4158	9951.95
363.59435	10156.15
367.76989	10296.75
371.94243	10383.95
376.11196	10426.75
380.27849	10473.65
384.44203	10504.15
388.60257	10475.35
392.76012	10531.45
396.91468	10609.15
401.06626	10752.05
405.21485	10853.25
409.36047	10805.75
413.50311	10547.95
417.64277	10317.65
421.77947	10202.85
425.9132	10133.75
430.04396	10169.65
434.17176	10223.25
438.2966	10378.75
442.41849	10555.95
446.53742	10782.55
450.6534	10968.55
454.76644	11140.55
458.87653	11212.45
462.98368	11172.65
467.08789	11096.95
471.18916	10991.65
475.2875	10852.95
479.38291	10718.75
483.4754	10624.65
487.56496	10569.15
491.6516	10548.65
495.73531	10543.75
499.81612	10554.75
503.89401	10605.05
507.96899	10654.95
512.04106	10731.65
516.11023	10838.15
520.1765	10891.75
524.23987	10918.55
528.30034	10870.65
532.35792	10821.85
536.41261	10794.45
540.46441	10686.85
544.51333	10645.45
548.55936	10681.35
552.60252	10813.55
556.64279	10908.35
560.6802	10984.65
564.71473	11043.75
568.7464	11208.95
572.7752	11280.25
576.80114	11155.05
580.82422	11073.85
584.84444	11107.55
588.86181	11171.05
592.87633	11317.45
596.888	11504.55
600.89682	11801.05
604.9028	12651.15
608.90594	14584.05
612.90624	16508.85
616.90371	15573.85
620.89834	12882.85
624.89015	11746.65
628.87913	11644.55
632.86528	11715.25
636.84862	11749.15
640.82913	11608.95
644.80683	11294.35
648.78172	11056.55
652.75379	11042.55
656.72306	11258.15
660.68952	11532.75
664.65319	11432.75
668.61405	11226.85
672.57211	11190.05
676.52738	11219.15
680.47986	11191.35
684.42955	11128.15
688.37646	11131.35
692.32058	11173.05
696.26192	11257.25
700.20048	11325.75
704.13626	11354.25
708.06928	11296.05
711.99952	11199.35
715.927	11202.95
719.85171	11250.05
723.77365	11274.25
727.69284	11250.85
731.60928	11210.45
735.52295	11248.65
739.43388	11226.45
743.34206	11274.75
747.24749	11303.95
751.15017	11296.65
755.05012	11418.05
758.94733	11703.65
762.8418	12303.65
766.73354	13363.25
770.62254	14431.55
774.50882	14966.85
778.39237	14519.95
782.27321	13399.45
786.15132	12382.25
790.02671	11797.55
793.89938	11479.75
797.76935	11363.55
801.6366	11357.25
805.50115	11321.05
809.36299	11318.25
813.22213	11256.05
817.07857	11246.55
820.93231	11231.85
824.78336	11217.75
828.63172	11255.35
832.47738	11257.15
836.32036	11272.45
840.16066	11267.65
843.99827	11311.35
847.8332	11269.35
851.66546	11269.85
855.49504	11295.35
859.32195	11306.55
863.1462	11262.65
866.96777	11264.45
870.78668	11263.85
874.60293	11298.75
878.41652	11339.95
882.22745	11414.45
886.03573	11449.75
889.84136	11453.25
893.64433	11404.15
897.44466	11341.65
901.24235	11320.55
905.0374	11278.95
908.8298	11251.75
912.61957	11204.75
916.40671	11215.45
920.19121	11315.75
923.97308	11391.65
927.75233	11491.05
931.52895	11541.95
935.30295	11460.35
939.07433	11338.25
942.84309	11264.65
946.60924	11168.35
950.37278	11140.15
954.13371	11117.75
957.89203	11060.65
961.64774	11018.25
965.40086	10986.55
969.15137	10953.55
972.89929	10978.05
976.64461	10963.55
980.38733	10989.05
984.12747	11018.15
987.86502	11122.05
991.59999	11243.95
995.33237	11417.05
999.06217	11678.75
1002.78939	11940.15
1006.51404	12061.85
1010.23611	12171.45
1013.95561	12299.45
1017.67255	12314.05
1021.38692	12296.05
1025.09872	12290.15
1028.80796	12380.35
1032.51465	12624.35
1036.21877	12857.75
1039.92035	12802.45
1043.61937	12662.15
1047.31584	12428.75
1051.00976	12164.45
1054.70114	12040.55
1058.38998	12021.55
1062.07627	12023.45
1065.76003	12040.15
1069.44126	12083.45
1073.11995	12167.65
1076.79611	12249.45
1080.46974	12376.55
1084.14085	12539.95
1087.80943	12638.35
1091.47549	12663.65
1095.13903	12568.15
1098.80005	12389.45
1102.45857	12288.55
1106.11456	12282.85
1109.76805	12349.75
1113.41903	12514.75
1117.06751	12720.25
1120.71348	13006.85
1124.35696	13232.35
1127.99793	13414.25
1131.63641	13349.05
1135.2724	13146.65
1138.90589	12886.75
1142.5369	12661.65
1146.16542	12504.85
1149.79145	12365.35
1153.415	12312.35
1157.03607	12312.25
1160.65467	12442.25
1164.27079	12661.15
1167.88443	13089.15
1171.49561	13649.15
1175.10432	14500.15
1178.71056	15721.65
1182.31434	16803.25
1185.91565	17249.85
1189.51451	17076.85
1193.11091	16451.05
1196.70485	15690.15
1200.29634	15127.85
1203.88538	14681.45
1207.47197	14153.35
1211.05612	13734.65
1214.63782	13488.05
1218.21708	13387.85
1221.79391	13430.45
1225.36829	13497.85
1228.94024	13459.95
1232.50976	13330.45
1236.07685	13236.15
1239.6415	13226.25
1243.20374	13276.15
1246.76355	13367.35
1250.32093	13500.05
1253.8759	13708.65
1257.42845	13970.55
1260.97859	14252.85
1264.52631	14512.65
1268.07163	14809.75
1271.61453	15143.65
1275.15503	15414.65
1278.69312	15670.95
1282.22882	15846.45
1285.76211	16004.25
1289.29301	16245.65
1292.82151	16513.45
1296.34761	16918.45
1299.87133	17592.25
1303.39266	18603.55
1306.9116	20026.75
1310.42815	21421.15
1313.94233	21991.65
1317.45412	21443.65
1320.96354	20379.85
1324.47058	19260.45
1327.97525	18333.45
1331.47754	17737.55
1334.97747	17558.35
1338.47502	17697.55
1341.97022	18019.75
1345.46305	18535.05
1348.95352	19129.65
1352.44163	19883.15
1355.92738	21075.55
1359.41078	22887.45
1362.89183	24353.25
1366.37053	23474.15
1369.84688	20791.35
1373.32088	18324.15
1376.79254	16799.35
1380.26186	15997.55
1383.72883	15531.45
1387.19347	15161.35
1390.65578	14825.15
1394.11575	14584.65
1397.57339	14418.95
1401.0287	14411.85
1404.48168	14498.25
1407.93234	14588.25
1411.38068	14743.55
1414.82669	14778.35
1418.27039	14699.55
1421.71177	14598.75
1425.15083	14435.25
1428.58758	14318.35
1432.02203	14412.35
1435.45416	14523.65
1438.88399	14569.75
1442.31151	14538.55
1445.73673	14567.15
1449.15965	14573.95
1452.58027	14575.65
1455.9986	14490.95
1459.41463	14512.25
1462.82837	14629.15
1466.23982	14862.75
1469.64898	15070.15
1473.05586	15237.65
1476.46045	15403.85
1479.86276	15524.55
1483.26279	15705.35
1486.66054	15894.05
1490.05602	16160.85
1493.44922	16587.15
1496.84016	17197.45
1500.22882	18155.85
1503.61521	19504.95
1506.99934	20954.15
1510.38121	21876.25
1513.76081	21745.05
1517.13816	20494.15
1520.51324	18810.35
1523.88607	17368.15
1527.25665	16482.75
1530.62498	15998.65
1533.99105	15691.05
1537.35488	15553.65
1540.71647	15454.75
1544.07581	15418.55
1547.4329	15377.35
1550.78776	15313.35
1554.14038	15317.55
1557.49077	15347.55
1560.83892	15420.55
1564.18484	15563.75
1567.52853	15776.75
1570.86999	15947.75
1574.20922	16097.75
1577.54624	16002.15
1580.88103	15611.55
1584.2136	15176.65
1587.54395	15084.25
1590.87208	15407.95
1594.19801	16109.55
1597.52172	16924.35
1600.84321	17326.85
1604.16251	16995.35
1607.47959	16254.35
1610.79447	15410.75
1614.10715	14604.65
1617.41763	13948.65
1620.7259	13506.65
1624.03199	13273.55
1627.33587	13276.45
1630.63757	13504.95
1633.93707	13935.65
1637.23439	14636.35
1640.52951	15530.75
1643.82246	16640.95
1647.11321	17770.95
1650.40179	18201.95
1653.68819	17469.15
1656.97241	15886.95
1660.25446	14300.15
1663.53433	13218.85
1666.81203	12537.85
1670.08756	12121.75
1673.36092	11848.55
1676.63211	11653.05
1679.90115	11503.35
1683.16801	11408.25
1686.43272	11320.85
1689.69527	11246.85
1692.95567	11180.05
1696.2139	11161.05
1699.46999	11115.55
1702.72392	11067.15
1705.97571	11071.15
1709.22535	11058.25
1712.47284	11026.35
1715.71819	11016.25
1718.96139	10986.05
1722.20246	10969.55
1725.44139	10948.15
1728.67818	10881.35
1731.91284	10834.45
1735.14537	10801.15
1738.37576	10771.75
1741.60403	10735.35
1744.83017	10702.25
1748.05418	10691.55
1751.27607	10661.95
1754.49584	10626.95
1757.71349	10627.05
1760.92903	10622.35
1764.14244	10640.15
1767.35375	10646.35
1770.56294	10641.05
1773.77002	10584.05
1776.97499	10565.45
1780.17785	10575.45
1783.37861	10577.35
1786.57727	10553.85
1789.77382	10530.55
1792.96828	10555.65
1796.16064	10528.75
1799.3509	10537.75
1802.53907	10521.45
1805.72514	10486.65
1808.90913	10453.75
1812.09102	10439.25
1815.27083	10420.65
1818.44856	10440.55
1821.6242	10423.35
1824.79776	10375.35
1827.96924	10364.55
1831.13864	10380.55
1834.30597	10364.05
1837.47122	10353.05
1840.6344	10318.95
1843.7955	10334.35
1846.95454	10333.95
1850.11151	10313.55
1853.26642	10313.25
1856.41926	10323.75
1859.57004	10300.05
1862.71876	10321.15
1865.86542	10332.75
1869.01003	10307.35
1872.15258	10302.45
1875.29308	10303.05
1878.43152	10325.15
1881.56792	10309.85
1884.70227	10293.25
1887.83457	10262.95
1890.96482	10244.45
1894.09304	10279.35
1897.21921	10304.25
1900.34335	10234.65
1903.46544	10231.75
1906.58551	10236.85
1909.70353	10213.25
1912.81953	10241.05
1915.93349	10204.35
1919.04543	10206.45
1922.15534	10218.75
1925.26322	10221.95
1928.36908	10198.85
1931.47292	10166.35
1934.57473	10150.25
1937.67453	10127.95
1940.77232	10110.35
1943.86808	10091.95
1946.96184	10051.85
1950.05358	10023.05
1953.14331	10014.15
1956.23103	10009.65
1959.31675	9957.55
1962.40046	9939.25
1965.48217	9935.15
1968.56188	9912.35
1971.63959	9880.05
1974.7153	9830.75
1977.78901	9808.45
1980.86073	9782.85
1983.93046	9782.85
1986.99819	9737.85
1990.06394	9722.45
1993.1277	9708.55
1996.18947	9648.75
1999.24925	9637.05
2002.30706	9620.65
2005.36288	9579.15
2008.41672	9577.45
2011.46859	9522.75
2014.51848	9496.15
2017.56639	9495.35
2020.61233	9484.65
2023.6563	9474.65
2026.6983	9443.05
2029.73833	9436.55
2032.7764	9408.15
2035.8125	9417.15
2038.84664	9369.75
2041.87881	9375.25
2044.90903	9352.45
2047.93729	9353.15
2050.96359	9347.45
2053.98794	9355.65
2057.01034	9350.65
2060.03078	9319.25
2063.04927	9331.25
2066.06582	9307.05
2069.08042	9324.35
2072.09307	9303.05
2075.10378	9291.95
2078.11255	9298.45
2081.11938	9302.95
2084.12426	9306.55
2087.12722	9289.25
2090.12824	9285.65
2093.12732	9280.65
2096.12447	9278.15
2099.11969	9271.05
2102.11299	9302.45
2105.10435	9318.35
2108.09379	9313.55
2111.08131	9337.55
2114.0669	9331.65
2117.05057	9338.05
2120.03233	9357.45
2123.01216	9360.05
2125.99008	9360.45
2128.96609	9362.35
2131.94018	9387.35
2134.91236	9398.05
2137.88263	9398.55
2140.851	9416.55
2143.81746	9411.95
2146.78201	9432.25
2149.74466	9433.15
2152.7054	9465.35
2155.66425	9444.05
2158.6212	9463.25
2161.57625	9453.25
2164.52941	9456.95
2167.48067	9427.45
2170.43004	9412.75
2173.37752	9413.45
2176.32311	9436.65
2179.26681	9456.05
2182.20863	9435.55
2185.14856	9452.75
2188.08661	9444.95
2191.02278	9454.05
2193.95707	9426.25
2196.88948	9441.25
2199.82001	9461.95
2202.74867	9440.05
2205.67545	9460.35
2208.60037	9462.45
2211.52341	9445.95
2214.44458	9447.45
2217.36388	9420.15
2220.28132	9395.65
2223.1969	9373.05
2226.11061	9348.95
2229.02246	9350.25
2231.93245	9363.95
2234.84058	9334.95
2237.74686	9321.65
2240.65128	9274.65
2243.55385	9285.15
2246.45456	9280.25
2249.35343	9286.25
2252.25044	9273.05
2255.14561	9270.05
2258.03893	9249.25
2260.93041	9254.75
2263.82004	9224.35
2266.70783	9242.05
2269.59378	9197.35
2272.4779	9201.75
2275.36017	9189.45
2278.24061	9152.55
2281.11922	9136.45
2283.996	9136.35
2286.87094	9108.75
2289.74405	9092.35
2292.61534	9106.65
2295.4848	9085.35
2298.35243	9131.05
2301.21824	9094.55
2304.08223	9116.55
2306.94439	9094.45
2309.80474	9110.65
2312.66327	9131.75
2315.51999	9108.15
2318.37489	9102.45
2321.22797	9089.65
2324.07925	9093.05
2326.92871	9082.95
2329.77637	9082.65
2332.62222	9092.95
2335.46626	9062.95
2338.3085	9067.45
2341.14893	9059.95
2343.98756	9075.05
2346.8244	9084.55
2349.65943	9060.75
2352.49267	9038.55
2355.32411	9066.35
2358.15376	9043.35
2360.98161	9045.25
2363.80768	9040.05
2366.63195	9018.15
2369.45444	9016.95
2372.27514	9019.65
2375.09405	9026.75
2377.91118	8991.75
2380.72652	8979.15
2383.54009	8960.95
2386.35187	8956.85
2389.16188	8917.25
2391.97011	8897.15
2394.77657	8899.35
2397.58125	8871.65
2400.38416	8863.25
2403.18529	8853.35
2405.98466	8864.45
2408.78226	8846.95
2411.57809	8814.05
2414.37216	8796.75
2417.16446	8813.45
2419.955	8787.15
2422.74378	8797.75
2425.5308	8799.55
2428.31606	8793.75
2431.09956	8782.85
2433.88131	8789.95
2436.6613	8787.05
2439.43954	8781.25
2442.21603	8777.15
2444.99077	8768.05
2447.76377	8783.05
2450.53501	8750.75
2453.30451	8744.05
2456.07226	8726.65
2458.83827	8726.25
2461.60254	8748.95
2464.36507	8739.75
2467.12586	8720.35
2469.88492	8729.55
2472.64224	8722.95
2475.39782	8727.95
2478.15167	8734.15
2480.90379	8751.55
2483.65417	8730.95
2486.40283	8726.75
2489.14976	8751.65
2491.89497	8743.65
2494.63845	8750.75
2497.3802	8729.95
2500.12024	8745.95
2502.85855	8725.45
2505.59514	8722.05
2508.33002	8699.15
2511.06318	8703.35
2513.79462	8701.35
2516.52435	8685.85
2519.25237	8661.95
2521.97867	8658.45
2524.70327	8651.55
2527.42616	8651.65
2530.14734	8658.05
2532.86681	8638.35
2535.58458	8632.95
2538.30065	8629.05
2541.01501	8616.25
2543.72768	8626.85
2546.43864	8627.65
2549.14791	8601.85
2551.85548	8603.25
2554.56136	8584.85
2557.26554	8586.55
2559.96803	8579.25
2562.66883	8571.25
2565.36794	8538.65
2568.06536	8528.45
2570.7611	8531.45
2573.45514	8515.55
2576.14751	8543.25
2578.83819	8515.15
2581.52719	8517.35
2584.21451	8499.45
2586.90015	8523.15
2589.58411	8500.15
2592.2664	8501.05
2594.94701	8476.85
2597.62594	8463.85
2600.30321	8477.05
2602.9788	8479.55
2605.65273	8440.25
2608.32498	8470.95
2610.99557	8457.25
2613.66449	8465.75
2616.33175	8460.65
2618.99734	8473.85
2621.66128	8448.55
2624.32355	8439.75
2626.98416	8436.75
2629.64311	8455.55
2632.30041	8448.65
2634.95605	8423.25
2637.61004	8410.85
2640.26238	8416.85
2642.91306	8407.55
2645.56209	8386.15
2648.20948	8382.25
2650.85521	8393.05
2653.4993	8373.75
2656.14175	8370.15
2658.78255	8370.65
2661.42171	8369.15
2664.05923	8391.15
2666.6951	8380.25
2669.32934	8419.55
2671.96194	8397.05
2674.59291	8401.35
2677.22224	8413.45
2679.84993	8399.25
2682.476	8389.65
2685.10043	8402.25
2687.72324	8380.05
2690.34441	8392.95
2692.96396	8390.85
2695.58188	8366.55
2698.19818	8355.75
2700.81285	8351.45
2703.4259	8366.35
2706.03733	8356.55
2708.64714	8406.25
2711.25533	8392.55
2713.86191	8394.35
2716.46687	8404.25
2719.07021	8406.55
2721.67194	8407.25
2724.27206	8392.75
2726.87057	8399.45
2729.46747	8400.65
2732.06276	8421.95
2734.65644	8400.45
2737.24852	8430.15
2739.83899	8380.05
2742.42786	8387.95
2745.01513	8383.45
2747.60079	8395.15
2750.18486	8358.65
2752.76733	8345.25
2755.3482	8345.35
2757.92747	8371.85
2760.50515	8354.35
2763.08123	8348.15
2765.65573	8335.25
2768.22863	8320.15
2770.79994	8331.65
2773.36967	8330.05
2775.9378	8319.55
2778.50435	8322.15
2781.06932	8315.05
2783.6327	8301.35
2786.1945	8314.95
2788.75471	8297.95
2791.31335	8272.95
2793.87041	8270.95
2796.42589	8257.95
2798.97979	8253.65
2801.53212	8259.65
2804.08288	8218.05
2806.63206	8210.25
2809.17967	8179.55
2811.72571	8197.75
2814.27018	8181.35
2816.81308	8160.25
2819.35442	8144.75
2821.89419	8134.15
2824.43239	8152.35
2826.96904	8141.35
2829.50412	8113.95
2832.03763	8097.95
2834.56959	8110.65
2837.1	8098.65
2839.62884	8115.75
2842.15613	8105.15
2844.68186	8086.35
2847.20604	8093.65
2849.72867	8088.95
2852.24974	8064.15
2854.76927	8065.45
2857.28724	8060.15
2859.80367	8066.45
2862.31855	8074.45
2864.83189	8057.25
2867.34368	8043.45
2869.85393	8039.25
2872.36264	8025.45
2874.8698	8013.05
2877.37543	8032.95
2879.87952	8044.35
2882.38207	8030.05
2884.88308	8039.75
2887.38256	8023.35
2889.88051	8009.85
2892.37692	8055.55
2894.8718	8049.45
2897.36515	8055.45
2899.85698	8046.75
2902.34727	8063.35
2904.83604	8077.05
2907.32328	8117.85
2909.809	8104.35
2912.29319	8096.55
2914.77587	8096.25
2917.25702	8104.85
2919.73665	8090.75
2922.21476	8090.25
2924.69136	8065.45
2927.16644	8093.65
2929.64	8068.15
2932.11205	8065.15
2934.58258	8037.95
2937.05161	8057.55
2939.51912	8056.65
2941.98513	8060.95
2944.44962	8049.55
2946.91261	8024.15
2949.37409	8035.35
2951.83407	8050.65
2954.29254	8014.35
2956.74951	8038.45
2959.20498	8022.25
2961.65895	8027.85
2964.11142	8046.95
2966.56239	8019.25
2969.01186	8058.15
2971.45984	8020.35
2973.90632	8038.45
2976.35131	8024.95
2978.7948	7999.25
2981.23681	7988.15
2983.67732	7958.95
2986.11635	7958.45
2988.55388	7950.35
2990.98993	7956.25
2993.4245	7941.05
2995.85758	7941.75
2998.28917	7905.55
3000.71928	7919.35
3003.14791	7906.25
3005.57506	7886.45
3008.00073	7868.45
3010.42493	7858.45
3012.84764	7820.85
3015.26888	7863.65
3017.68865	7827.25
3020.10694	7815.35
3022.52376	7812.95
3024.9391	7794.15
3027.35298	7784.55
3029.76539	7793.95
3032.17632	7813.35
3034.5858	7783.25
3036.9938	7790.15
3039.40034	7768.55
3041.80542	7780.55
3044.20903	7789.05
3046.61118	7787.75
3049.01187	7746.75
3051.4111	7766.85
3053.80888	7722.15
3056.20519	7730.55
3058.60005	7704.75
3060.99345	7716.25
3063.3854	7687.45
3065.7759	7662.05
3068.16494	7647.35
3070.55254	7643.85
3072.93868	7629.35
3075.32338	7607.35
3077.70662	7597.15
3080.08842	7558.35
3082.46878	7580.95
3084.84769	7601.05
3087.22515	7587.45
3089.60118	7601.65
3091.97576	7601.65
3094.3489	7593.05
3096.72061	7622.75
3099.09087	7625.35
3101.4597	7619.15
3103.82709	7648.65
3106.19305	7625.15
3108.55757	7635.85
3110.92066	7630.85
3113.28232	7628.55
3115.64255	7603.85
3118.00134	7606.55
3120.35871	7599.25
3122.71466	7585.85
3125.06917	7587.05
3127.42226	7569.75
3129.77393	7592.95
3132.12417	7562.85
3134.47299	7561.95
3136.82039	7553.65
3139.16636	7565.25
3141.51092	7570.35
3143.85406	7575.55
3146.19579	7577.45
3148.53609	7585.15
3150.87499	7615.35
3153.21246	7594.95
3155.54853	7635.15
3157.88318	7617.55
3160.21642	7644.95
3162.54826	7653.65
3164.87868	7653.35
3167.2077	7627.05
3169.5353	7642.95
3171.86151	7661.35
3174.18631	7671.45
3176.5097	7667.15
3178.83169	7652.95
3181.15228	7652.65
3183.47147	7627.15
3185.78926	7634.35
3188.10565	7614.75
3190.42065	7614.35
3192.73424	7630.65
3195.04645	7631.35
3197.35725	7633.35
3199.66667	7627.75
3201.97469	7639.15
3204.28132	7630.15
3206.58656	7657.35
3208.8904	7670.55
3211.19287	7679.05
3213.49394	7671.15
3215.79363	7673.65
3218.09193	7694.65
3220.38884	7685.25
3222.68438	7694.15
3224.97853	7699.85
3227.2713	7706.15
3229.56269	7722.65
3231.8527	7691.65
3234.14133	7672.75
3236.42858	7660.15
3238.71446	7671.85
3240.99896	7629.65
3243.28209	7651.15
3245.56384	7633.65
3247.84423	7646.05
3250.12324	7620.55
3252.40088	7640.75
3254.67715	7614.15
3256.95205	7631.35
3259.22558	7638.75
3261.49775	7639.85
3263.76855	7649.05
3266.03799	7628.35
3268.30606	7646.15
3270.57277	7644.05
3272.83812	7607.25
3275.10211	7600.95
3277.36474	7577.65
3279.62601	7570.05
3281.88593	7561.15
3284.14448	7569.25
3286.40168	7572.15
3288.65753	7591.05
3290.91202	7585.85
3293.16516	7553.75
3295.41695	7544.05
3297.66738	7516.25
3299.91647	7466.15
3302.16421	7443.05
3304.4106	7403.85
3306.65564	7349.85
3308.89933	7308.95
3311.14169	7239.65
3313.38269	7213.95
3315.62236	7186.45
3317.86068	7134.95
3320.09766	7081.55
3322.3333	7036.15
3324.5676	7002.15
3326.80056	6902.85
3329.03219	6885.45
3331.26248	2.85
3333.49143	-0.75
3335.71905	-0.65
