Data from AgNPs_UA_5uM_CRN_0uM_R6G_10uM_Q_RamanShift__11__11-02-05-302.txt Node

Date: Mon Jul 18 11:02:05 BST 2022
User: TCL
Spectrometer: QEP01345
Trigger mode: 4
Integration Time (sec): 7.000000E0
Scans to average: 10
Electric dark correction enabled: true
Nonlinearity correction enabled: false
Boxcar width: 0
XAxis mode: Raman Shifts
Number of Pixels in Spectrum: 1044
>>>>>Begin Spectral Data<<<<<
46.04893	-1.75
50.45542	-1.95
54.85868	-2.35
59.25871	-2.55
63.6555	183.95
68.04907	191.35
72.43941	198.35
76.82654	209.85
81.21044	211.35
85.59113	216.55
89.96862	226.95
94.34289	232.55
98.71396	246.95
103.08183	248.25
107.4465	257.15
111.80798	266.15
116.16626	276.45
120.52136	287.65
124.87327	307.95
129.222	330.55
133.56755	354.75
137.90993	386.85
142.24913	429.15
146.58517	490.25
150.91804	581.15
155.24774	696.65
159.57429	875.95
163.89768	1141.45
168.21792	1538.25
172.53501	2114.35
176.84895	2981.35
181.15975	4215.15
185.46741	5945.05
189.77193	8229.05
194.07331	11091.25
198.37157	14290.55
202.6667	17699.85
206.9587	21094.35
211.24758	24436.15
215.53334	27819.25
219.81599	31404.75
224.09553	35377.45
228.37195	39735.65
232.64527	44536.55
236.91549	49343.85
241.18261	54037.95
245.44663	58188.55
249.70755	61852.05
253.96539	65024.45
258.22014	67768.05
262.4718	70010.95
266.72039	71433.95
270.96589	72165.35
275.20832	72020.15
279.44768	71445.85
283.68397	70627.85
287.91719	69964.65
292.14735	69645.65
296.37445	69904.05
300.59849	70685.65
304.81948	71723.15
309.03742	72663.05
313.25231	72896.75
317.46415	72043.25
321.67296	70298.25
325.87872	68711.05
330.08145	68066.65
334.28114	68217.95
338.47781	68940.35
342.67145	70055.95
346.86207	71507.65
351.04966	73292.45
355.23424	75283.65
359.4158	76975.25
363.59435	78116.15
367.76989	78686.65
371.94243	79033.75
376.11196	79238.45
380.27849	79506.45
384.44203	80106.45
388.60257	80724.75
392.76012	81458.15
396.91468	82520.35
401.06626	83704.45
405.21485	84329.45
409.36047	83950.15
413.50311	82492.55
417.64277	81300.65
421.77947	80634.25
425.9132	80319.95
430.04396	80341.55
434.17176	80598.15
438.2966	81233.15
442.41849	82125.45
446.53742	83492.05
450.6534	85107.05
454.76644	86419.15
458.87653	87122.95
462.98368	87273.75
467.08789	87130.15
471.18916	86288.35
475.2875	85041.75
479.38291	83904.65
483.4754	83054.15
487.56496	82461.45
491.6516	82082.85
495.73531	81935.25
499.81612	82158.75
503.89401	82807.05
507.96899	83224.75
512.04106	83244.05
516.11023	83544.95
520.1765	83696.35
524.23987	83544.55
528.30034	83196.25
532.35792	83029.25
536.41261	82562.25
540.46441	81777.25
544.51333	81614.95
548.55936	82257.25
552.60252	83287.85
556.64279	84442.85
560.6802	85297.55
564.71473	86027.65
568.7464	86733.85
572.7752	86948.45
576.80114	86738.55
580.82422	86925.45
584.84444	87601.55
588.86181	88054.75
592.87633	88265.35
596.888	89025.15
600.89682	91026.75
604.9028	97020.65
608.90594	109726.65
612.90624	121185.55
616.90371	113197.45
620.89834	94775.85
624.89015	87040.95
628.87913	86409.95
632.86528	87849.45
636.84862	88849.65
640.82913	87819.45
644.80683	85586.55
648.78172	83999.95
652.75379	83880.75
656.72306	85414.45
660.68952	87392.15
664.65319	87272.95
668.61405	86669.45
672.57211	87301.65
676.52738	87455.85
680.47986	86074.05
684.42955	84641.05
688.37646	84327.25
692.32058	84906.65
696.26192	86357.95
700.20048	87679.45
704.13626	87957.75
708.06928	87447.65
711.99952	86677.95
715.927	86309.35
719.85171	86471.85
723.77365	86593.15
727.69284	85889.65
731.60928	85268.55
735.52295	85022.35
739.43388	85034.95
743.34206	85235.45
747.24749	85461.95
751.15017	85745.05
755.05012	86487.15
758.94733	88526.85
762.8418	93090.05
766.73354	100177.65
770.62254	106354.25
774.50882	108208.05
778.39237	106027.35
782.27321	101262.85
786.15132	95291.05
790.02671	90705.15
793.89938	88138.55
797.76935	86769.65
801.6366	86060.05
805.50115	85613.75
809.36299	85292.25
813.22213	85197.75
817.07857	84944.75
820.93231	84918.55
824.78336	85078.85
828.63172	85271.15
832.47738	85146.05
836.32036	84875.75
840.16066	84692.75
843.99827	84610.95
847.8332	84617.65
851.66546	84738.45
855.49504	84997.65
859.32195	85023.55
863.1462	85139.85
866.96777	85228.15
870.78668	85250.65
874.60293	85492.15
878.41652	85682.15
882.22745	86181.25
886.03573	86484.05
889.84136	86421.85
893.64433	86156.35
897.44466	85873.35
901.24235	85753.25
905.0374	85749.05
908.8298	85527.75
912.61957	85359.75
916.40671	85431.65
920.19121	85703.35
923.97308	86163.15
927.75233	86740.05
931.52895	86965.15
935.30295	86613.35
939.07433	85615.45
942.84309	84756.15
946.60924	84296.95
950.37278	84066.25
954.13371	84065.15
957.89203	84151.25
961.64774	84286.65
965.40086	84146.05
969.15137	84002.55
972.89929	83831.45
976.64461	83892.05
980.38733	84060.75
984.12747	84271.75
987.86502	84520.05
991.59999	84695.45
995.33237	85150.35
999.06217	85828.15
1002.78939	86900.35
1006.51404	88251.15
1010.23611	89559.95
1013.95561	90486.65
1017.67255	90784.65
1021.38692	90548.55
1025.09872	89683.15
1028.80796	88447.75
1032.51465	87798.65
1036.21877	87892.75
1039.92035	88289.55
1043.61937	88713.95
1047.31584	88979.25
1051.00976	89248.25
1054.70114	89634.45
1058.38998	90209.05
1062.07627	90993.45
1065.76003	91903.65
1069.44126	93120.65
1073.11995	94927.65
1076.79611	97023.25
1080.46974	97972.25
1084.14085	98413.55
1087.80943	99049.95
1091.47549	99722.75
1095.13903	100039.15
1098.80005	100384.15
1102.45857	100862.35
1106.11456	100293.85
1109.76805	98534.25
1113.41903	97380.75
1117.06751	97579.65
1120.71348	98307.25
1124.35696	99141.75
1127.99793	99910.05
1131.63641	99344.35
1135.2724	97713.05
1138.90589	96477.15
1142.5369	95668.65
1146.16542	95363.95
1149.79145	95081.45
1153.415	94655.05
1157.03607	94368.85
1160.65467	95014.85
1164.27079	96733.45
1167.88443	99382.35
1171.49561	103139.05
1175.10432	108297.05
1178.71056	114987.05
1182.31434	120920.65
1185.91565	123813.95
1189.51451	124346.65
1193.11091	123511.55
1196.70485	121425.05
1200.29634	118732.85
1203.88538	115755.85
1207.47197	112442.65
1211.05612	109294.85
1214.63782	106598.55
1218.21708	104359.85
1221.79391	102638.75
1225.36829	101530.75
1228.94024	101223.95
1232.50976	101312.55
1236.07685	101424.75
1239.6415	101685.85
1243.20374	102092.65
1246.76355	102578.75
1250.32093	103312.55
1253.8759	104624.35
1257.42845	106983.85
1260.97859	109644.05
1264.52631	112262.85
1268.07163	114299.45
1271.61453	115527.95
1275.15503	116207.25
1278.69312	116584.05
1282.22882	116581.45
1285.76211	117436.35
1289.29301	118874.65
1292.82151	120519.25
1296.34761	122558.85
1299.87133	125644.25
1303.39266	130285.25
1306.9116	136864.15
1310.42815	143758.85
1313.94233	147400.65
1317.45412	145602.95
1320.96354	141767.15
1324.47058	138066.65
1327.97525	134600.75
1331.47754	132402.15
1334.97747	131664.95
1338.47502	132655.25
1341.97022	135906.15
1345.46305	141157.55
1348.95352	147146.05
1352.44163	152655.35
1355.92738	157404.95
1359.41078	162377.85
1362.89183	166223.45
1366.37053	161053.75
1369.84688	146671.25
1373.32088	132216.05
1376.79254	122980.85
1380.26186	118323.25
1383.72883	115582.95
1387.19347	113210.15
1390.65578	110621.65
1394.11575	108312.15
1397.57339	106568.75
1401.0287	105610.55
1404.48168	105521.05
1407.93234	106084.85
1411.38068	106910.75
1414.82669	107260.65
1418.27039	106720.15
1421.71177	105804.25
1425.15083	105148.25
1428.58758	104674.05
1432.02203	104803.15
1435.45416	105396.85
1438.88399	105747.85
1442.31151	105805.15
1445.73673	106126.85
1449.15965	106480.95
1452.58027	106516.35
1455.9986	106240.25
1459.41463	106745.35
1462.82837	108145.75
1466.23982	110049.95
1469.64898	111878.95
1473.05586	113348.45
1476.46045	114446.65
1479.86276	115290.45
1483.26279	115968.05
1486.66054	117075.25
1490.05602	118872.25
1493.44922	122019.65
1496.84016	126865.65
1500.22882	134013.45
1503.61521	142888.25
1506.99934	150981.95
1510.38121	155213.15
1513.76081	153293.15
1517.13816	145652.05
1520.51324	135695.05
1523.88607	127487.05
1527.25665	122010.95
1530.62498	119208.15
1533.99105	117588.15
1537.35488	116293.15
1540.71647	115159.85
1544.07581	114154.05
1547.4329	112971.45
1550.78776	111911.75
1554.14038	111095.05
1557.49077	110862.85
1560.83892	111451.15
1564.18484	112771.65
1567.52853	114541.55
1570.86999	115962.25
1574.20922	116866.05
1577.54624	116347.25
1580.88103	113496.75
1584.2136	110081.55
1587.54395	108149.65
1590.87208	108846.45
1594.19801	111874.75
1597.52172	116046.55
1600.84321	118122.25
1604.16251	117001.65
1607.47959	114446.15
1610.79447	110527.75
1614.10715	105438.45
1617.41763	100445.65
1620.7259	96657.95
1624.03199	94401.95
1627.33587	93709.15
1630.63757	94481.85
1633.93707	97040.45
1637.23439	101788.25
1640.52951	109004.15
1643.82246	118635.15
1647.11321	127621.35
1650.40179	131961.35
1653.68819	127485.25
1656.97241	116589.85
1660.25446	104848.55
1663.53433	96055.05
1666.81203	90383.95
1670.08756	86848.95
1673.36092	84708.25
1676.63211	83115.05
1679.90115	82109.65
1683.16801	81072.15
1686.43272	80351.15
1689.69527	79768.95
1692.95567	79429.05
1696.2139	79090.25
1699.46999	78915.65
1702.72392	78671.05
1705.97571	78666.45
1709.22535	78561.65
1712.47284	78622.05
1715.71819	78799.65
1718.96139	78590.65
1722.20246	78360.05
1725.44139	77976.65
1728.67818	77566.95
1731.91284	77241.05
1735.14537	76851.55
1738.37576	76681.25
1741.60403	76484.15
1744.83017	76265.85
1748.05418	76053.95
1751.27607	75885.65
1754.49584	75777.35
1757.71349	75648.85
1760.92903	75508.45
1764.14244	75323.35
1767.35375	75258.95
1770.56294	74946.75
1773.77002	74933.35
1776.97499	74911.05
1780.17785	74738.55
1783.37861	74494.35
1786.57727	74367.95
1789.77382	74259.35
1792.96828	74084.05
1796.16064	73950.45
1799.3509	74027.05
1802.53907	73804.25
1805.72514	73554.85
1808.90913	73393.65
1812.09102	73264.75
1815.27083	73038.15
1818.44856	72953.25
1821.6242	72840.25
1824.79776	72757.55
1827.96924	72555.15
1831.13864	72284.15
1834.30597	72285.55
1837.47122	72115.25
1840.6344	72095.85
1843.7955	72176.25
1846.95454	72092.75
1850.11151	71889.05
1853.26642	71682.65
1856.41926	71680.65
1859.57004	71645.05
1862.71876	71604.65
1865.86542	71584.75
1869.01003	71515.95
1872.15258	71487.45
1875.29308	71353.35
1878.43152	71149.65
1881.56792	71089.75
1884.70227	70993.85
1887.83457	70779.55
1890.96482	70689.75
1894.09304	70670.15
1897.21921	70559.45
1900.34335	70484.95
1903.46544	70380.25
1906.58551	70266.55
1909.70353	70076.55
1912.81953	69938.25
1915.93349	69771.15
1919.04543	69661.75
1922.15534	69544.65
1925.26322	69412.55
1928.36908	69250.75
1931.47292	69161.45
1934.57473	68930.75
1937.67453	68766.85
1940.77232	68565.35
1943.86808	68299.35
1946.96184	68102.45
1950.05358	67893.15
1953.14331	67726.75
1956.23103	67604.85
1959.31675	67243.55
1962.40046	67092.45
1965.48217	66984.25
1968.56188	66733.55
1971.63959	66563.85
1974.7153	66336.85
1977.78901	66176.75
1980.86073	65916.85
1983.93046	65689.55
1986.99819	65389.55
1990.06394	65162.75
1993.1277	65052.25
1996.18947	64797.65
1999.24925	64631.35
2002.30706	64461.05
2005.36288	64409.65
2008.41672	64174.45
2011.46859	64006.05
2014.51848	63739.45
2017.56639	63631.75
2020.61233	63597.85
2023.6563	63320.35
2026.6983	63106.15
2029.73833	62822.85
2032.7764	62593.85
2035.8125	62456.25
2038.84664	62330.15
2041.87881	62213.95
2044.90903	61985.15
2047.93729	61838.55
2050.96359	61861.35
2053.98794	61760.85
2057.01034	61708.65
2060.03078	61642.85
2063.04927	61436.45
2066.06582	61387.45
2069.08042	61286.65
2072.09307	61244.25
2075.10378	61250.95
2078.11255	61084.85
2081.11938	61150.95
2084.12426	61026.25
2087.12722	60885.75
2090.12824	60867.95
2093.12732	60924.35
2096.12447	60994.25
2099.11969	60985.75
2102.11299	61013.05
2105.10435	61074.95
2108.09379	61017.55
2111.08131	61038.25
2114.0669	60987.05
2117.05057	61029.55
2120.03233	61065.85
2123.01216	61092.95
2125.99008	61142.65
2128.96609	61265.05
2131.94018	61242.65
2134.91236	61279.05
2137.88263	61257.45
2140.851	61257.35
2143.81746	61334.35
2146.78201	61343.85
2149.74466	61328.95
2152.7054	61240.85
2155.66425	61238.35
2158.6212	61210.15
2161.57625	61177.15
2164.52941	61042.85
2167.48067	61033.75
2170.43004	61079.75
2173.37752	61003.45
2176.32311	60879.35
2179.26681	60911.65
2182.20863	60930.65
2185.14856	60864.15
2188.08661	60884.05
2191.02278	60880.95
2193.95707	60849.35
2196.88948	60770.15
2199.82001	60657.45
2202.74867	60627.45
2205.67545	60551.15
2208.60037	60418.85
2211.52341	60243.55
2214.44458	60082.35
2217.36388	59912.45
2220.28132	59800.55
2223.1969	59599.95
2226.11061	59432.25
2229.02246	59362.65
2231.93245	59249.75
2234.84058	59219.45
2237.74686	59040.25
2240.65128	58930.55
2243.55385	58851.05
2246.45456	58852.65
2249.35343	58785.55
2252.25044	58747.85
2255.14561	58612.55
2258.03893	58555.05
2260.93041	58384.75
2263.82004	58294.25
2266.70783	58170.05
2269.59378	58075.55
2272.4779	58063.45
2275.36017	57757.75
2278.24061	57579.85
2281.11922	57499.95
2283.996	57426.45
2286.87094	57294.85
2289.74405	57152.05
2292.61534	57084.55
2295.4848	56932.65
2298.35243	56918.45
2301.21824	56853.95
2304.08223	56749.25
2306.94439	56718.15
2309.80474	56672.15
2312.66327	56660.05
2315.51999	56549.05
2318.37489	56608.55
2321.22797	56465.65
2324.07925	56285.45
2326.92871	56129.15
2329.77637	56108.35
2332.62222	55963.95
2335.46626	55863.95
2338.3085	55800.35
2341.14893	55774.45
2343.98756	55697.05
2346.8244	55636.55
2349.65943	55687.45
2352.49267	55575.05
2355.32411	55545.55
2358.15376	55561.15
2360.98161	55520.35
2363.80768	55567.85
2366.63195	55516.65
2369.45444	55324.15
2372.27514	55402.05
2375.09405	55332.65
2377.91118	55299.95
2380.72652	55028.25
2383.54009	54879.05
2386.35187	54813.55
2389.16188	54707.35
2391.97011	54587.35
2394.77657	54532.15
2397.58125	54331.55
2400.38416	54178.75
2403.18529	54017.55
2405.98466	54018.75
2408.78226	53955.15
2411.57809	53960.45
2414.37216	53839.15
2417.16446	53784.45
2419.955	53638.65
2422.74378	53742.65
2425.5308	53607.05
2428.31606	53513.95
2431.09956	53619.05
2433.88131	53472.85
2436.6613	53410.35
2439.43954	53436.55
2442.21603	53420.65
2444.99077	53303.95
2447.76377	53303.35
2450.53501	53205.95
2453.30451	53222.65
2456.07226	53075.95
2458.83827	52951.95
2461.60254	52903.95
2464.36507	52883.65
2467.12586	52881.35
2469.88492	52821.15
2472.64224	52735.75
2475.39782	52583.65
2478.15167	52676.05
2480.90379	52703.05
2483.65417	52806.35
2486.40283	52770.35
2489.14976	52720.05
2491.89497	52716.85
2494.63845	52644.05
2497.3802	52498.45
2500.12024	52425.75
2502.85855	52336.45
2505.59514	52262.25
2508.33002	52199.25
2511.06318	52121.45
2513.79462	52020.65
2516.52435	51988.25
2519.25237	51925.75
2521.97867	51796.25
2524.70327	51817.55
2527.42616	51684.35
2530.14734	51643.25
2532.86681	51523.15
2535.58458	51446.75
2538.30065	51370.45
2541.01501	51434.45
2543.72768	51363.15
2546.43864	51352.95
2549.14791	51186.25
2551.85548	51214.65
2554.56136	51124.85
2557.26554	50905.05
2559.96803	50867.35
2562.66883	50750.05
2565.36794	50643.85
2568.06536	50517.25
2570.7611	50386.35
2573.45514	50267.35
2576.14751	50159.75
2578.83819	50045.05
2581.52719	50045.35
2584.21451	49899.75
2586.90015	49816.25
2589.58411	49736.85
2592.2664	49657.55
2594.94701	49533.35
2597.62594	49559.25
2600.30321	49440.45
2602.9788	49371.55
2605.65273	49204.65
2608.32498	49160.35
2610.99557	49144.45
2613.66449	49154.55
2616.33175	49116.05
2618.99734	48964.85
2621.66128	48855.35
2624.32355	48741.65
2626.98416	48767.75
2629.64311	48691.35
2632.30041	48611.25
2634.95605	48473.95
2637.61004	48380.35
2640.26238	48352.45
2642.91306	48315.85
2645.56209	48204.05
2648.20948	48154.65
2650.85521	48145.35
2653.4993	48183.05
2656.14175	48076.45
2658.78255	48151.85
2661.42171	48168.75
2664.05923	48240.15
2666.6951	48310.25
2669.32934	48252.45
2671.96194	48147.55
2674.59291	48187.45
2677.22224	48089.05
2679.84993	48122.85
2682.476	48029.15
2685.10043	48031.15
2687.72324	47947.95
2690.34441	47968.65
2692.96396	47853.15
2695.58188	47895.95
2698.19818	47827.45
2700.81285	47896.25
2703.4259	47855.95
2706.03733	47950.65
2708.64714	47925.55
2711.25533	47895.35
2713.86191	47853.55
2716.46687	47963.45
2719.07021	47946.15
2721.67194	47900.15
2724.27206	47815.15
2726.87057	47829.45
2729.46747	47735.15
2732.06276	47712.15
2734.65644	47695.35
2737.24852	47670.65
2739.83899	47584.95
2742.42786	47527.65
2745.01513	47402.75
2747.60079	47323.15
2750.18486	47339.55
2752.76733	47377.25
2755.3482	47282.35
2757.92747	47289.05
2760.50515	47215.25
2763.08123	47111.75
2765.65573	46963.95
2768.22863	46881.85
2770.79994	46849.35
2773.36967	46825.85
2775.9378	46719.05
2778.50435	46609.15
2781.06932	46566.15
2783.6327	46617.85
2786.1945	46517.95
2788.75471	46405.35
2791.31335	46200.05
2793.87041	46096.65
2796.42589	45941.55
2798.97979	45912.85
2801.53212	45784.45
2804.08288	45820.15
2806.63206	45680.55
2809.17967	45638.75
2811.72571	45468.75
2814.27018	45397.75
2816.81308	45212.55
2819.35442	45100.95
2821.89419	44955.25
2824.43239	44899.55
2826.96904	44822.05
2829.50412	44816.05
2832.03763	44748.45
2834.56959	44790.75
2837.1	44701.45
2839.62884	44713.45
2842.15613	44583.25
2844.68186	44425.15
2847.20604	44317.45
2849.72867	44312.55
2852.24974	44194.85
2854.76927	44146.85
2857.28724	44086.25
2859.80367	44052.75
2862.31855	44007.15
2864.83189	44098.65
2867.34368	43998.85
2869.85393	43960.85
2872.36264	43802.45
2874.8698	43696.45
2877.37543	43658.65
2879.87952	43580.95
2882.38207	43531.65
2884.88308	43439.55
2887.38256	43429.85
2889.88051	43393.75
2892.37692	43362.35
2894.8718	43376.85
2897.36515	43472.15
2899.85698	43449.45
2902.34727	43438.95
2904.83604	43449.35
2907.32328	43571.25
2909.809	43645.75
2912.29319	43722.95
2914.77587	43645.55
2917.25702	43599.75
2919.73665	43484.95
2922.21476	43553.05
2924.69136	43453.25
2927.16644	43352.85
2929.64	43236.85
2932.11205	43154.35
2934.58258	42941.75
2937.05161	42957.85
2939.51912	42914.15
2941.98513	42901.45
2944.44962	42871.05
2946.91261	42728.25
2949.37409	42749.95
2951.83407	42711.85
2954.29254	42720.45
2956.74951	42677.95
2959.20498	42672.35
2961.65895	42562.05
2964.11142	42646.25
2966.56239	42593.55
2969.01186	42614.55
2971.45984	42510.75
2973.90632	42465.65
2976.35131	42399.95
2978.7948	42316.15
2981.23681	42156.55
2983.67732	42166.55
2986.11635	42015.65
2988.55388	41998.45
2990.98993	41899.25
2993.4245	41724.95
2995.85758	41658.35
2998.28917	41544.65
3000.71928	41547.05
3003.14791	41415.65
3005.57506	41293.45
3008.00073	41084.75
3010.42493	41056.35
3012.84764	40907.85
3015.26888	40872.85
3017.68865	40784.85
3020.10694	40739.95
3022.52376	40649.65
3024.9391	40538.95
3027.35298	40516.75
3029.76539	40483.65
3032.17632	40413.45
3034.5858	40302.75
3036.9938	40303.05
3039.40034	40215.05
3041.80542	40182.95
3044.20903	40032.35
3046.61118	39964.55
3049.01187	39805.55
3051.4111	39851.25
3053.80888	39704.25
3056.20519	39658.35
3058.60005	39488.55
3060.99345	39367.35
3063.3854	39295.75
3065.7759	39178.85
3068.16494	39108.55
3070.55254	38890.75
3072.93868	38819.35
3075.32338	38746.95
3077.70662	38670.35
3080.08842	38614.35
3082.46878	38486.95
3084.84769	38465.45
3087.22515	38498.35
3089.60118	38392.95
3091.97576	38392.35
3094.3489	38347.75
3096.72061	38284.25
3099.09087	38291.85
3101.4597	38206.45
3103.82709	38172.25
3106.19305	38015.95
3108.55757	38086.45
3110.92066	37966.55
3113.28232	37948.05
3115.64255	37815.15
3118.00134	37803.15
3120.35871	37696.15
3122.71466	37533.25
3125.06917	37420.55
3127.42226	37323.55
3129.77393	37275.15
3132.12417	37199.25
3134.47299	37192.45
3136.82039	37107.35
3139.16636	37018.85
3141.51092	36949.85
3143.85406	37007.85
3146.19579	36962.45
3148.53609	36952.65
3150.87499	37034.15
3153.21246	37019.55
3155.54853	36954.55
3157.88318	36895.45
3160.21642	36919.95
3162.54826	36924.55
3164.87868	36844.35
3167.2077	36825.15
3169.5353	36813.65
3171.86151	36703.85
3174.18631	36651.85
3176.5097	36552.55
3178.83169	36497.05
3181.15228	36534.75
3183.47147	36376.95
3185.78926	36253.55
3188.10565	36216.25
3190.42065	36201.95
3192.73424	36145.15
3195.04645	36127.55
3197.35725	36100.25
3199.66667	35966.35
3201.97469	35958.75
3204.28132	35918.75
3206.58656	35898.85
3208.8904	35802.95
3211.19287	35843.55
3213.49394	35847.15
3215.79363	35902.95
3218.09193	35898.85
3220.38884	35847.95
3222.68438	35896.55
3224.97853	35764.35
3227.2713	35746.75
3229.56269	35625.95
3231.8527	35662.95
3234.14133	35581.65
3236.42858	35491.65
3238.71446	35368.95
3240.99896	35287.65
3243.28209	35260.05
3245.56384	35146.75
3247.84423	35078.15
3250.12324	35052.65
3252.40088	35009.65
3254.67715	34979.65
3256.95205	34949.25
3259.22558	34961.45
3261.49775	34897.25
3263.76855	34854.55
3266.03799	34696.35
3268.30606	34648.75
3270.57277	34626.95
3272.83812	34577.45
3275.10211	34486.05
3277.36474	34401.75
3279.62601	34399.85
3281.88593	34326.75
3284.14448	34428.15
3286.40168	34333.95
3288.65753	34268.65
3290.91202	34211.45
3293.16516	34110.15
3295.41695	34085.45
3297.66738	33893.25
3299.91647	33731.85
3302.16421	33544.75
3304.4106	33423.65
3306.65564	33278.95
3308.89933	33018.25
3311.14169	32811.05
3313.38269	32509.65
3315.62236	32372.25
3317.86068	32171.45
3320.09766	31985.45
3322.3333	31750.45
3324.5676	31637.75
3326.80056	31201.25
3329.03219	31036.85
3331.26248	7.05
3333.49143	2.75
3335.71905	-0.85
