Data from AgNPs_UA_200uM_CRN_0uM_R6G_10uM_Q_RamanShift__12__14-13-54-149.txt Node

Date: Tue Jul 26 14:13:54 BST 2022
User: TCL
Spectrometer: QEP01345
Trigger mode: 4
Integration Time (sec): 7.000000E0
Scans to average: 10
Electric dark correction enabled: true
Nonlinearity correction enabled: false
Boxcar width: 0
XAxis mode: Raman Shifts
Number of Pixels in Spectrum: 1044
>>>>>Begin Spectral Data<<<<<
46.04893	-1.55
50.45542	-0.35
54.85868	-0.55
59.25871	0.75
63.6555	49.55
68.04907	53.75
72.43941	62.25
76.82654	57.35
81.21044	62.35
85.59113	66.45
89.96862	70.05
94.34289	69.95
98.71396	75.15
103.08183	74.65
107.4465	79.85
111.80798	72.95
116.16626	77.65
120.52136	78.15
124.87327	77.75
129.222	81.65
133.56755	80.25
137.90993	84.65
142.24913	86.45
146.58517	92.65
150.91804	99.45
155.24774	112.35
159.57429	133.05
163.89768	156.25
168.21792	196.65
172.53501	259.05
176.84895	345.55
181.15975	483.15
185.46741	666.55
189.77193	919.55
194.07331	1215.15
198.37157	1557.15
202.6667	1919.15
206.9587	2272.35
211.24758	2617.05
215.53334	2942.45
219.81599	3300.15
224.09553	3665.35
228.37195	4097.05
232.64527	4559.65
236.91549	5069.45
241.18261	5613.15
245.44663	6117.05
249.70755	6610.65
253.96539	7044.65
258.22014	7378.35
262.4718	7627.85
266.72039	7751.15
270.96589	7808.45
275.20832	7769.15
279.44768	7661.55
283.68397	7535.25
287.91719	7398.05
292.14735	7272.85
296.37445	7207.85
300.59849	7122.15
304.81948	7094.35
309.03742	7058.45
313.25231	7021.55
317.46415	6975.95
321.67296	6950.75
325.87872	6967.85
330.08145	6989.55
334.28114	7054.95
338.47781	7125.15
342.67145	7202.05
346.86207	7290.25
351.04966	7384.65
355.23424	7493.95
359.4158	7604.15
363.59435	7708.05
367.76989	7795.65
371.94243	7900.65
376.11196	7986.35
380.27849	8039.65
384.44203	8142.95
388.60257	8216.55
392.76012	8297.75
396.91468	8397.35
401.06626	8479.35
405.21485	8588.65
409.36047	8632.15
413.50311	8652.85
417.64277	8642.25
421.77947	8665.45
425.9132	8690.05
430.04396	8719.35
434.17176	8780.85
438.2966	8857.05
442.41849	8913.15
446.53742	8976.45
450.6534	9066.25
454.76644	9138.55
458.87653	9197.25
462.98368	9260.55
467.08789	9287.75
471.18916	9283.85
475.2875	9286.35
479.38291	9292.65
483.4754	9322.15
487.56496	9348.55
491.6516	9374.15
495.73531	9385.35
499.81612	9414.75
503.89401	9449.05
507.96899	9511.85
512.04106	9537.75
516.11023	9573.25
520.1765	9571.25
524.23987	9574.95
528.30034	9606.35
532.35792	9636.25
536.41261	9618.75
540.46441	9615.35
544.51333	9634.75
548.55936	9672.45
552.60252	9686.45
556.64279	9751.55
560.6802	9815.75
564.71473	9833.85
568.7464	9826.15
572.7752	9852.55
576.80114	9881.35
580.82422	9862.45
584.84444	9889.95
588.86181	9924.95
592.87633	9973.55
596.888	10016.75
600.89682	10153.35
604.9028	10320.25
608.90594	10688.75
612.90624	10999.75
616.90371	10842.55
620.89834	10425.15
624.89015	10282.05
628.87913	10264.35
632.86528	10319.45
636.84862	10369.45
640.82913	10403.95
644.80683	10383.25
648.78172	10375.35
652.75379	10409.45
656.72306	10451.85
660.68952	10504.65
664.65319	10561.85
668.61405	10595.85
672.57211	10635.75
676.52738	10682.75
680.47986	10653.85
684.42955	10662.25
688.37646	10667.35
692.32058	10698.45
696.26192	10764.65
700.20048	10807.35
704.13626	10855.95
708.06928	10850.15
711.99952	10815.35
715.927	10780.15
719.85171	10766.55
723.77365	10809.95
727.69284	10803.55
731.60928	10793.55
735.52295	10834.95
739.43388	10841.45
743.34206	10871.25
747.24749	10928.65
751.15017	10954.35
755.05012	10979.75
758.94733	11039.35
762.8418	11128.85
766.73354	11290.35
770.62254	11464.25
774.50882	11561.05
778.39237	11547.35
782.27321	11423.55
786.15132	11289.55
790.02671	11168.85
793.89938	11087.95
797.76935	11074.75
801.6366	11095.95
805.50115	11074.85
809.36299	11087.65
813.22213	11093.15
817.07857	11087.05
820.93231	11108.85
824.78336	11112.55
828.63172	11120.45
832.47738	11106.85
836.32036	11158.45
840.16066	11131.05
843.99827	11169.85
847.8332	11187.75
851.66546	11191.65
855.49504	11218.75
859.32195	11236.85
863.1462	11248.05
866.96777	11277.95
870.78668	11302.05
874.60293	11335.05
878.41652	11355.25
882.22745	11366.05
886.03573	11411.45
889.84136	11423.65
893.64433	11450.45
897.44466	11448.55
901.24235	11450.05
905.0374	11440.65
908.8298	11418.05
912.61957	11433.45
916.40671	11414.55
920.19121	11422.55
923.97308	11397.05
927.75233	11391.35
931.52895	11396.55
935.30295	11392.55
939.07433	11384.75
942.84309	11373.45
946.60924	11386.15
950.37278	11371.35
954.13371	11338.65
957.89203	11321.45
961.64774	11327.25
965.40086	11358.15
969.15137	11341.95
972.89929	11299.35
976.64461	11300.55
980.38733	11322.65
984.12747	11306.35
987.86502	11364.75
991.59999	11364.05
995.33237	11386.05
999.06217	11449.35
1002.78939	11486.25
1006.51404	11539.05
1010.23611	11570.25
1013.95561	11610.35
1017.67255	11630.05
1021.38692	11637.45
1025.09872	11601.85
1028.80796	11595.75
1032.51465	11584.65
1036.21877	11592.75
1039.92035	11595.65
1043.61937	11607.25
1047.31584	11634.75
1051.00976	11649.25
1054.70114	11678.35
1058.38998	11684.45
1062.07627	11718.45
1065.76003	11728.25
1069.44126	11770.25
1073.11995	11865.95
1076.79611	11926.65
1080.46974	11935.05
1084.14085	11914.15
1087.80943	11908.05
1091.47549	11933.75
1095.13903	11942.55
1098.80005	11929.05
1102.45857	11957.65
1106.11456	11932.75
1109.76805	11902.55
1113.41903	11897.75
1117.06751	11909.45
1120.71348	11918.25
1124.35696	11955.65
1127.99793	11958.15
1131.63641	11969.35
1135.2724	11980.15
1138.90589	11924.95
1142.5369	11928.25
1146.16542	11872.25
1149.79145	11874.05
1153.415	11815.45
1157.03607	11767.85
1160.65467	11777.75
1164.27079	11806.85
1167.88443	11859.55
1171.49561	11951.45
1175.10432	12086.95
1178.71056	12252.75
1182.31434	12393.65
1185.91565	12491.25
1189.51451	12597.05
1193.11091	12601.85
1196.70485	12568.05
1200.29634	12511.25
1203.88538	12447.35
1207.47197	12394.05
1211.05612	12266.15
1214.63782	12246.15
1218.21708	12171.05
1221.79391	12153.55
1225.36829	12145.85
1228.94024	12120.25
1232.50976	12109.45
1236.07685	12135.65
1239.6415	12148.95
1243.20374	12187.55
1246.76355	12203.25
1250.32093	12245.45
1253.8759	12257.05
1257.42845	12332.65
1260.97859	12426.05
1264.52631	12457.95
1268.07163	12475.55
1271.61453	12513.85
1275.15503	12534.95
1278.69312	12528.75
1282.22882	12482.15
1285.76211	12455.85
1289.29301	12446.65
1292.82151	12486.95
1296.34761	12545.55
1299.87133	12654.45
1303.39266	12793.65
1306.9116	12906.55
1310.42815	13072.85
1313.94233	13123.65
1317.45412	13126.25
1320.96354	13094.25
1324.47058	12976.85
1327.97525	12851.15
1331.47754	12763.25
1334.97747	12753.95
1338.47502	12761.95
1341.97022	12868.25
1345.46305	13052.75
1348.95352	13206.65
1352.44163	13383.75
1355.92738	13478.55
1359.41078	13574.55
1362.89183	13624.25
1366.37053	13463.75
1369.84688	13124.55
1373.32088	12751.55
1376.79254	12489.75
1380.26186	12319.35
1383.72883	12187.05
1387.19347	12078.15
1390.65578	11967.35
1394.11575	11869.45
1397.57339	11748.35
1401.0287	11723.15
1404.48168	11672.45
1407.93234	11679.95
1411.38068	11660.85
1414.82669	11656.35
1418.27039	11646.25
1421.71177	11620.55
1425.15083	11567.75
1428.58758	11543.85
1432.02203	11528.85
1435.45416	11531.65
1438.88399	11503.55
1442.31151	11473.25
1445.73673	11461.55
1449.15965	11455.05
1452.58027	11467.35
1455.9986	11450.15
1459.41463	11479.15
1462.82837	11518.05
1466.23982	11587.15
1469.64898	11629.05
1473.05586	11693.15
1476.46045	11725.05
1479.86276	11775.15
1483.26279	11824.15
1486.66054	11842.65
1490.05602	11882.65
1493.44922	11998.25
1496.84016	12165.85
1500.22882	12340.05
1503.61521	12555.55
1506.99934	12769.55
1510.38121	12855.95
1513.76081	12820.95
1517.13816	12680.05
1520.51324	12459.35
1523.88607	12296.85
1527.25665	12194.35
1530.62498	12139.85
1533.99105	12148.95
1537.35488	12145.55
1540.71647	12140.95
1544.07581	12172.55
1547.4329	12170.15
1550.78776	12172.05
1554.14038	12147.25
1557.49077	12160.45
1560.83892	12153.45
1564.18484	12163.15
1567.52853	12222.15
1570.86999	12264.65
1574.20922	12310.15
1577.54624	12325.75
1580.88103	12210.95
1584.2136	12117.55
1587.54395	12106.05
1590.87208	12119.45
1594.19801	12155.05
1597.52172	12275.05
1600.84321	12314.25
1604.16251	12310.75
1607.47959	12271.25
1610.79447	12147.15
1614.10715	12002.55
1617.41763	11861.95
1620.7259	11737.65
1624.03199	11642.55
1627.33587	11533.85
1630.63757	11535.15
1633.93707	11585.05
1637.23439	11635.35
1640.52951	11784.35
1643.82246	11927.55
1647.11321	12073.25
1650.40179	12129.35
1653.68819	12044.25
1656.97241	11848.95
1660.25446	11635.65
1663.53433	11442.45
1666.81203	11322.05
1670.08756	11232.75
1673.36092	11177.25
1676.63211	11120.45
1679.90115	11083.75
1683.16801	11029.35
1686.43272	10983.05
1689.69527	10950.65
1692.95567	10929.95
1696.2139	10915.05
1699.46999	10909.55
1702.72392	10892.05
1705.97571	10876.25
1709.22535	10886.25
1712.47284	10891.55
1715.71819	10862.35
1718.96139	10873.75
1722.20246	10840.65
1725.44139	10821.55
1728.67818	10800.65
1731.91284	10779.55
1735.14537	10721.75
1738.37576	10703.65
1741.60403	10690.65
1744.83017	10652.75
1748.05418	10609.75
1751.27607	10592.35
1754.49584	10587.75
1757.71349	10613.15
1760.92903	10577.45
1764.14244	10589.95
1767.35375	10571.35
1770.56294	10545.25
1773.77002	10538.25
1776.97499	10540.85
1780.17785	10512.95
1783.37861	10544.05
1786.57727	10501.55
1789.77382	10515.15
1792.96828	10469.15
1796.16064	10480.65
1799.3509	10437.45
1802.53907	10442.15
1805.72514	10422.75
1808.90913	10389.35
1812.09102	10382.25
1815.27083	10340.45
1818.44856	10339.25
1821.6242	10331.25
1824.79776	10299.45
1827.96924	10312.85
1831.13864	10286.65
1834.30597	10289.85
1837.47122	10284.15
1840.6344	10260.35
1843.7955	10253.75
1846.95454	10262.85
1850.11151	10253.65
1853.26642	10247.85
1856.41926	10218.75
1859.57004	10207.35
1862.71876	10195.45
1865.86542	10193.45
1869.01003	10172.65
1872.15258	10171.85
1875.29308	10160.15
1878.43152	10139.85
1881.56792	10140.95
1884.70227	10115.95
1887.83457	10078.95
1890.96482	10093.45
1894.09304	10077.25
1897.21921	10053.25
1900.34335	10078.45
1903.46544	10045.45
1906.58551	10053.15
1909.70353	10030.25
1912.81953	10019.85
1915.93349	9996.65
1919.04543	9961.45
1922.15534	9988.35
1925.26322	9941.15
1928.36908	9930.15
1931.47292	9909.35
1934.57473	9917.35
1937.67453	9855.35
1940.77232	9849.95
1943.86808	9806.85
1946.96184	9786.35
1950.05358	9788.25
1953.14331	9757.15
1956.23103	9701.85
1959.31675	9700.75
1962.40046	9678.05
1965.48217	9631.95
1968.56188	9608.95
1971.63959	9553.45
1974.7153	9549.45
1977.78901	9525.65
1980.86073	9511.65
1983.93046	9475.05
1986.99819	9434.15
1990.06394	9414.25
1993.1277	9371.35
1996.18947	9362.55
1999.24925	9355.25
2002.30706	9336.45
2005.36288	9295.05
2008.41672	9265.25
2011.46859	9230.95
2014.51848	9249.75
2017.56639	9175.95
2020.61233	9166.95
2023.6563	9129.05
2026.6983	9117.55
2029.73833	9088.55
2032.7764	9051.35
2035.8125	9033.95
2038.84664	9024.25
2041.87881	9016.85
2044.90903	8977.35
2047.93729	8959.75
2050.96359	8954.45
2053.98794	8939.15
2057.01034	8933.95
2060.03078	8940.75
2063.04927	8917.35
2066.06582	8886.55
2069.08042	8907.85
2072.09307	8906.95
2075.10378	8890.65
2078.11255	8886.95
2081.11938	8878.05
2084.12426	8886.05
2087.12722	8870.75
2090.12824	8890.55
2093.12732	8854.55
2096.12447	8852.35
2099.11969	8873.35
2102.11299	8871.85
2105.10435	8871.35
2108.09379	8863.55
2111.08131	8868.65
2114.0669	8863.05
2117.05057	8864.95
2120.03233	8888.55
2123.01216	8902.55
2125.99008	8901.55
2128.96609	8900.65
2131.94018	8900.25
2134.91236	8900.15
2137.88263	8897.55
2140.851	8927.65
2143.81746	8917.55
2146.78201	8926.05
2149.74466	8921.15
2152.7054	8957.25
2155.66425	8914.45
2158.6212	8933.15
2161.57625	8917.95
2164.52941	8901.25
2167.48067	8902.95
2170.43004	8895.35
2173.37752	8917.65
2176.32311	8901.55
2179.26681	8891.05
2182.20863	8897.35
2185.14856	8898.45
2188.08661	8894.75
2191.02278	8892.85
2193.95707	8866.85
2196.88948	8863.95
2199.82001	8866.45
2202.74867	8834.65
2205.67545	8838.15
2208.60037	8811.65
2211.52341	8792.85
2214.44458	8777.75
2217.36388	8754.45
2220.28132	8751.45
2223.1969	8721.75
2226.11061	8692.25
2229.02246	8679.05
2231.93245	8689.55
2234.84058	8680.75
2237.74686	8658.45
2240.65128	8656.75
2243.55385	8640.15
2246.45456	8629.15
2249.35343	8595.35
2252.25044	8591.85
2255.14561	8579.55
2258.03893	8572.85
2260.93041	8561.85
2263.82004	8524.45
2266.70783	8526.95
2269.59378	8496.65
2272.4779	8468.45
2275.36017	8457.45
2278.24061	8432.55
2281.11922	8416.75
2283.996	8418.65
2286.87094	8388.05
2289.74405	8361.55
2292.61534	8329.45
2295.4848	8342.85
2298.35243	8321.85
2301.21824	8310.95
2304.08223	8318.25
2306.94439	8321.35
2309.80474	8302.55
2312.66327	8300.95
2315.51999	8266.85
2318.37489	8274.35
2321.22797	8255.45
2324.07925	8230.45
2326.92871	8214.35
2329.77637	8205.55
2332.62222	8188.65
2335.46626	8162.65
2338.3085	8156.25
2341.14893	8122.45
2343.98756	8133.55
2346.8244	8123.95
2349.65943	8128.65
2352.49267	8103.75
2355.32411	8089.45
2358.15376	8095.85
2360.98161	8095.45
2363.80768	8049.25
2366.63195	8069.75
2369.45444	8058.35
2372.27514	8025.45
2375.09405	8019.55
2377.91118	8001.75
2380.72652	8002.55
2383.54009	7979.05
2386.35187	7962.15
2389.16188	7966.85
2391.97011	7939.85
2394.77657	7893.95
2397.58125	7905.55
2400.38416	7897.45
2403.18529	7902.05
2405.98466	7839.35
2408.78226	7851.25
2411.57809	7842.35
2414.37216	7837.45
2417.16446	7823.45
2419.955	7804.05
2422.74378	7796.45
2425.5308	7792.75
2428.31606	7768.65
2431.09956	7755.65
2433.88131	7748.15
2436.6613	7755.25
2439.43954	7744.75
2442.21603	7737.65
2444.99077	7733.05
2447.76377	7722.45
2450.53501	7694.15
2453.30451	7664.35
2456.07226	7672.75
2458.83827	7673.95
2461.60254	7653.45
2464.36507	7624.15
2467.12586	7613.05
2469.88492	7628.75
2472.64224	7620.65
2475.39782	7594.85
2478.15167	7588.95
2480.90379	7573.65
2483.65417	7582.15
2486.40283	7564.05
2489.14976	7566.35
2491.89497	7566.35
2494.63845	7564.45
2497.3802	7533.45
2500.12024	7516.65
2502.85855	7518.45
2505.59514	7511.65
2508.33002	7481.85
2511.06318	7504.25
2513.79462	7491.05
2516.52435	7448.05
2519.25237	7445.25
2521.97867	7420.95
2524.70327	7422.75
2527.42616	7401.55
2530.14734	7386.25
2532.86681	7399.65
2535.58458	7381.05
2538.30065	7385.15
2541.01501	7358.85
2543.72768	7351.75
2546.43864	7335.85
2549.14791	7320.45
2551.85548	7303.15
2554.56136	7272.95
2557.26554	7276.05
2559.96803	7244.45
2562.66883	7223.85
2565.36794	7219.95
2568.06536	7212.75
2570.7611	7183.75
2573.45514	7177.55
2576.14751	7173.65
2578.83819	7149.25
2581.52719	7126.65
2584.21451	7103.95
2586.90015	7107.65
2589.58411	7092.15
2592.2664	7084.85
2594.94701	7059.15
2597.62594	7046.05
2600.30321	7016.05
2602.9788	7016.05
2605.65273	7005.25
2608.32498	6998.25
2610.99557	6975.95
2613.66449	6981.45
2616.33175	6945.35
2618.99734	6944.55
2621.66128	6940.35
2624.32355	6921.75
2626.98416	6904.75
2629.64311	6889.65
2632.30041	6879.65
2634.95605	6864.25
2637.61004	6841.55
2640.26238	6832.75
2642.91306	6842.15
2645.56209	6802.75
2648.20948	6826.95
2650.85521	6823.75
2653.4993	6810.55
2656.14175	6789.25
2658.78255	6786.95
2661.42171	6791.35
2664.05923	6809.95
2666.6951	6791.95
2669.32934	6784.65
2671.96194	6783.85
2674.59291	6795.35
2677.22224	6783.15
2679.84993	6788.85
2682.476	6762.95
2685.10043	6769.25
2687.72324	6740.65
2690.34441	6744.25
2692.96396	6751.95
2695.58188	6742.15
2698.19818	6743.65
2700.81285	6734.15
2703.4259	6705.85
2706.03733	6732.35
2708.64714	6703.05
2711.25533	6720.15
2713.86191	6696.15
2716.46687	6720.75
2719.07021	6699.15
2721.67194	6698.65
2724.27206	6702.75
2726.87057	6705.25
2729.46747	6709.25
2732.06276	6711.85
2734.65644	6696.35
2737.24852	6706.55
2739.83899	6671.65
2742.42786	6685.65
2745.01513	6665.35
2747.60079	6634.15
2750.18486	6634.85
2752.76733	6605.65
2755.3482	6600.75
2757.92747	6596.15
2760.50515	6593.65
2763.08123	6554.65
2765.65573	6557.65
2768.22863	6559.45
2770.79994	6539.15
2773.36967	6540.15
2775.9378	6506.75
2778.50435	6494.95
2781.06932	6490.95
2783.6327	6462.65
2786.1945	6471.35
2788.75471	6471.05
2791.31335	6433.65
2793.87041	6464.35
2796.42589	6429.25
2798.97979	6421.35
2801.53212	6378.75
2804.08288	6389.85
2806.63206	6360.75
2809.17967	6328.15
2811.72571	6314.25
2814.27018	6319.35
2816.81308	6282.85
2819.35442	6288.45
2821.89419	6266.95
2824.43239	6263.15
2826.96904	6222.95
2829.50412	6223.95
2832.03763	6201.95
2834.56959	6210.15
2837.1	6176.85
2839.62884	6185.55
2842.15613	6179.25
2844.68186	6159.95
2847.20604	6164.75
2849.72867	6157.65
2852.24974	6151.75
2854.76927	6141.45
2857.28724	6130.55
2859.80367	6125.25
2862.31855	6113.05
2864.83189	6080.55
2867.34368	6042.45
2869.85393	6068.15
2872.36264	6041.75
2874.8698	6042.45
2877.37543	6040.05
2879.87952	6043.55
2882.38207	6018.95
2884.88308	6017.65
2887.38256	6040.05
2889.88051	6022.05
2892.37692	6028.35
2894.8718	6026.55
2897.36515	6019.05
2899.85698	6021.75
2902.34727	6012.05
2904.83604	6015.45
2907.32328	6030.05
2909.809	6028.65
2912.29319	6010.35
2914.77587	6007.45
2917.25702	6013.95
2919.73665	6000.95
2922.21476	6015.25
2924.69136	6003.05
2927.16644	6009.65
2929.64	5997.05
2932.11205	5984.25
2934.58258	5949.65
2937.05161	5979.95
2939.51912	5958.25
2941.98513	5958.45
2944.44962	5951.65
2946.91261	5928.55
2949.37409	5945.95
2951.83407	5936.45
2954.29254	5915.65
2956.74951	5920.15
2959.20498	5938.45
2961.65895	5924.45
2964.11142	5930.35
2966.56239	5911.35
2969.01186	5915.55
2971.45984	5908.65
2973.90632	5910.75
2976.35131	5923.45
2978.7948	5893.55
2981.23681	5884.95
2983.67732	5879.75
2986.11635	5871.25
2988.55388	5863.25
2990.98993	5836.05
2993.4245	5844.15
2995.85758	5827.45
2998.28917	5796.95
3000.71928	5784.35
3003.14791	5788.15
3005.57506	5768.25
3008.00073	5759.75
3010.42493	5756.85
3012.84764	5747.65
3015.26888	5732.35
3017.68865	5730.85
3020.10694	5720.65
3022.52376	5724.75
3024.9391	5692.75
3027.35298	5706.25
3029.76539	5692.05
3032.17632	5683.95
3034.5858	5665.65
3036.9938	5673.55
3039.40034	5663.35
3041.80542	5677.65
3044.20903	5646.15
3046.61118	5659.25
3049.01187	5649.05
3051.4111	5639.05
3053.80888	5636.45
3056.20519	5603.45
3058.60005	5597.85
3060.99345	5594.05
3063.3854	5594.95
3065.7759	5564.15
3068.16494	5563.25
3070.55254	5549.45
3072.93868	5548.95
3075.32338	5513.85
3077.70662	5495.75
3080.08842	5504.35
3082.46878	5510.55
3084.84769	5500.05
3087.22515	5504.85
3089.60118	5507.45
3091.97576	5503.55
3094.3489	5516.75
3096.72061	5504.15
3099.09087	5512.65
3101.4597	5523.55
3103.82709	5509.15
3106.19305	5520.05
3108.55757	5515.45
3110.92066	5507.75
3113.28232	5506.05
3115.64255	5490.45
3118.00134	5473.75
3120.35871	5492.25
3122.71466	5465.45
3125.06917	5452.85
3127.42226	5460.15
3129.77393	5455.75
3132.12417	5435.25
3134.47299	5415.95
3136.82039	5444.55
3139.16636	5449.35
3141.51092	5439.45
3143.85406	5435.05
3146.19579	5454.65
3148.53609	5448.45
3150.87499	5458.05
3153.21246	5469.15
3155.54853	5485.85
3157.88318	5477.35
3160.21642	5485.25
3162.54826	5475.45
3164.87868	5468.85
3167.2077	5486.75
3169.5353	5499.35
3171.86151	5498.35
3174.18631	5477.75
3176.5097	5471.45
3178.83169	5476.05
3181.15228	5501.25
3183.47147	5473.45
3185.78926	5450.95
3188.10565	5437.85
3190.42065	5435.25
3192.73424	5475.55
3195.04645	5448.35
3197.35725	5434.25
3199.66667	5440.15
3201.97469	5442.75
3204.28132	5455.75
3206.58656	5472.05
3208.8904	5456.05
3211.19287	5455.95
3213.49394	5459.25
3215.79363	5456.25
3218.09193	5477.85
3220.38884	5466.75
3222.68438	5478.55
3224.97853	5463.85
3227.2713	5460.65
3229.56269	5463.85
3231.8527	5458.75
3234.14133	5457.75
3236.42858	5422.15
3238.71446	5411.15
3240.99896	5382.75
3243.28209	5399.25
3245.56384	5373.75
3247.84423	5361.65
3250.12324	5377.85
3252.40088	5353.65
3254.67715	5358.75
3256.95205	5356.15
3259.22558	5370.35
3261.49775	5360.75
3263.76855	5350.25
3266.03799	5348.25
3268.30606	5364.15
3270.57277	5350.65
3272.83812	5322.75
3275.10211	5303.65
3277.36474	5284.45
3279.62601	5295.65
3281.88593	5267.95
3284.14448	5284.95
3286.40168	5287.25
3288.65753	5279.65
3290.91202	5270.35
3293.16516	5260.05
3295.41695	5228.15
3297.66738	5217.95
3299.91647	5198.05
3302.16421	5162.35
3304.4106	5131.75
3306.65564	5093.05
3308.89933	5058.75
3311.14169	5005.65
3313.38269	4975.85
3315.62236	4991.85
3317.86068	4924.75
3320.09766	4903.15
3322.3333	4860.35
3324.5676	4839.75
3326.80056	4756.35
3329.03219	4736.95
3331.26248	1.35
3333.49143	0.35
3335.71905	-0.05
