Data from AgNPs_UA_200uM_CRN_0uM_R6G_10uM_Q_RamanShift__15__14-17-24-153.txt Node

Date: Tue Jul 26 14:17:24 BST 2022
User: TCL
Spectrometer: QEP01345
Trigger mode: 4
Integration Time (sec): 7.000000E0
Scans to average: 10
Electric dark correction enabled: true
Nonlinearity correction enabled: false
Boxcar width: 0
XAxis mode: Raman Shifts
Number of Pixels in Spectrum: 1044
>>>>>Begin Spectral Data<<<<<
46.04893	-0.25
50.45542	0.55
54.85868	-1.25
59.25871	0.25
63.6555	65.45
68.04907	66.55
72.43941	68.55
76.82654	76.05
81.21044	78.15
85.59113	81.05
89.96862	83.45
94.34289	83.65
98.71396	89.55
103.08183	89.05
107.4465	97.15
111.80798	93.15
116.16626	97.35
120.52136	96.55
124.87327	99.45
129.222	102.85
133.56755	105.65
137.90993	114.15
142.24913	123.75
146.58517	130.75
150.91804	142.95
155.24774	164.15
159.57429	195.25
163.89768	241.55
168.21792	305.45
172.53501	413.45
176.84895	565.75
181.15975	784.45
185.46741	1098.05
189.77193	1518.95
194.07331	2028.05
198.37157	2597.05
202.6667	3212.85
206.9587	3790.45
211.24758	4382.45
215.53334	4976.85
219.81599	5566.25
224.09553	6241.95
228.37195	6962.85
232.64527	7730.85
236.91549	8598.95
241.18261	9480.75
245.44663	10366.85
249.70755	11177.95
253.96539	11924.25
258.22014	12546.25
262.4718	12960.75
266.72039	13300.75
270.96589	13407.65
275.20832	13442.65
279.44768	13309.35
283.68397	13135.85
287.91719	12940.15
292.14735	12772.95
296.37445	12683.05
300.59849	12578.95
304.81948	12544.55
309.03742	12489.55
313.25231	12443.85
317.46415	12384.25
321.67296	12352.75
325.87872	12339.45
330.08145	12433.35
334.28114	12543.75
338.47781	12717.85
342.67145	12860.55
346.86207	13064.45
351.04966	13263.65
355.23424	13463.15
359.4158	13699.85
363.59435	13894.55
367.76989	14085.95
371.94243	14266.75
376.11196	14419.95
380.27849	14577.55
384.44203	14714.15
388.60257	14856.95
392.76012	15007.05
396.91468	15130.45
401.06626	15268.45
405.21485	15394.45
409.36047	15482.45
413.50311	15495.05
417.64277	15477.75
421.77947	15461.35
425.9132	15473.95
430.04396	15571.45
434.17176	15649.55
438.2966	15800.35
442.41849	15956.35
446.53742	16145.05
450.6534	16278.25
454.76644	16451.55
458.87653	16626.35
462.98368	16776.05
467.08789	16824.85
471.18916	16843.95
475.2875	16822.35
479.38291	16770.25
483.4754	16782.65
487.56496	16800.65
491.6516	16783.75
495.73531	16824.85
499.81612	16834.25
503.89401	16940.85
507.96899	17010.25
512.04106	17077.35
516.11023	17095.85
520.1765	17115.35
524.23987	17183.15
528.30034	17208.65
532.35792	17298.55
536.41261	17289.45
540.46441	17259.35
544.51333	17280.95
548.55936	17312.25
552.60252	17413.05
556.64279	17552.25
560.6802	17727.15
564.71473	17743.65
568.7464	17758.55
572.7752	17743.05
576.80114	17702.25
580.82422	17707.95
584.84444	17785.45
588.86181	17856.85
592.87633	17933.75
596.888	18061.75
600.89682	18269.85
604.9028	18696.95
608.90594	19545.95
612.90624	20281.25
616.90371	19840.45
620.89834	18912.65
624.89015	18532.65
628.87913	18552.35
632.86528	18707.55
636.84862	18815.55
640.82913	18828.85
644.80683	18750.55
648.78172	18678.85
652.75379	18726.15
656.72306	18832.25
660.68952	19011.85
664.65319	19115.15
668.61405	19184.75
672.57211	19316.95
676.52738	19374.75
680.47986	19343.35
684.42955	19266.15
688.37646	19287.15
692.32058	19366.85
696.26192	19518.25
700.20048	19663.75
704.13626	19721.35
708.06928	19664.85
711.99952	19607.05
715.927	19600.15
719.85171	19615.35
723.77365	19622.65
727.69284	19618.85
731.60928	19610.95
735.52295	19627.85
739.43388	19636.85
743.34206	19690.85
747.24749	19749.85
751.15017	19731.55
755.05012	19798.75
758.94733	19922.85
762.8418	20140.25
766.73354	20438.85
770.62254	20787.65
774.50882	21075.45
778.39237	21159.65
782.27321	21033.75
786.15132	20736.05
790.02671	20485.15
793.89938	20327.95
797.76935	20223.25
801.6366	20181.35
805.50115	20160.55
809.36299	20152.45
813.22213	20137.05
817.07857	20158.85
820.93231	20190.75
824.78336	20205.25
828.63172	20229.85
832.47738	20258.95
836.32036	20261.05
840.16066	20310.65
843.99827	20272.75
847.8332	20345.25
851.66546	20417.65
855.49504	20431.65
859.32195	20492.25
863.1462	20546.75
866.96777	20554.15
870.78668	20577.95
874.60293	20653.75
878.41652	20721.35
882.22745	20730.45
886.03573	20779.65
889.84136	20814.65
893.64433	20830.35
897.44466	20817.45
901.24235	20814.15
905.0374	20771.85
908.8298	20800.55
912.61957	20770.35
916.40671	20774.85
920.19121	20753.05
923.97308	20767.45
927.75233	20757.95
931.52895	20789.85
935.30295	20790.95
939.07433	20756.15
942.84309	20723.35
946.60924	20745.55
950.37278	20744.65
954.13371	20716.05
957.89203	20689.35
961.64774	20705.35
965.40086	20738.05
969.15137	20655.75
972.89929	20654.65
976.64461	20661.95
980.38733	20686.25
984.12747	20668.55
987.86502	20726.55
991.59999	20798.15
995.33237	20878.45
999.06217	20938.65
1002.78939	21044.95
1006.51404	21140.55
1010.23611	21274.55
1013.95561	21357.85
1017.67255	21435.25
1021.38692	21400.15
1025.09872	21332.85
1028.80796	21326.15
1032.51465	21284.55
1036.21877	21283.25
1039.92035	21341.65
1043.61937	21352.55
1047.31584	21358.05
1051.00976	21407.85
1054.70114	21425.05
1058.38998	21525.45
1062.07627	21534.55
1065.76003	21591.75
1069.44126	21725.25
1073.11995	21949.85
1076.79611	22161.15
1080.46974	22247.45
1084.14085	22218.95
1087.80943	22180.75
1091.47549	22232.75
1095.13903	22271.55
1098.80005	22352.85
1102.45857	22417.65
1106.11456	22427.85
1109.76805	22333.35
1113.41903	22219.15
1117.06751	22140.95
1120.71348	22121.25
1124.35696	22177.15
1127.99793	22154.05
1131.63641	22175.05
1135.2724	22144.95
1138.90589	22080.75
1142.5369	22047.75
1146.16542	22001.65
1149.79145	21922.65
1153.415	21773.75
1157.03607	21688.65
1160.65467	21694.75
1164.27079	21771.45
1167.88443	21922.95
1171.49561	22115.75
1175.10432	22383.15
1178.71056	22742.75
1182.31434	23060.95
1185.91565	23357.45
1189.51451	23560.35
1193.11091	23641.65
1196.70485	23621.95
1200.29634	23504.25
1203.88538	23393.35
1207.47197	23222.55
1211.05612	23012.15
1214.63782	22819.65
1218.21708	22701.25
1221.79391	22500.65
1225.36829	22330.75
1228.94024	22310.75
1232.50976	22279.75
1236.07685	22288.05
1239.6415	22334.85
1243.20374	22377.15
1246.76355	22459.25
1250.32093	22533.25
1253.8759	22601.15
1257.42845	22775.85
1260.97859	23032.35
1264.52631	23184.55
1268.07163	23237.35
1271.61453	23336.05
1275.15503	23328.35
1278.69312	23337.25
1282.22882	23269.75
1285.76211	23221.45
1289.29301	23241.75
1292.82151	23259.85
1296.34761	23322.15
1299.87133	23503.15
1303.39266	23774.55
1306.9116	24087.75
1310.42815	24437.45
1313.94233	24647.65
1317.45412	24767.95
1320.96354	24723.25
1324.47058	24471.05
1327.97525	24192.85
1331.47754	23905.45
1334.97747	23807.05
1338.47502	23939.35
1341.97022	24282.65
1345.46305	24761.35
1348.95352	25241.75
1352.44163	25533.25
1355.92738	25601.15
1359.41078	25616.85
1362.89183	25518.95
1366.37053	25082.65
1369.84688	24306.85
1373.32088	23619.65
1376.79254	23154.45
1380.26186	22826.15
1383.72883	22583.65
1387.19347	22344.45
1390.65578	22124.15
1394.11575	21904.65
1397.57339	21726.15
1401.0287	21620.75
1404.48168	21574.85
1407.93234	21560.95
1411.38068	21659.85
1414.82669	21693.45
1418.27039	21654.35
1421.71177	21611.55
1425.15083	21552.55
1428.58758	21506.55
1432.02203	21472.95
1435.45416	21466.75
1438.88399	21393.95
1442.31151	21392.85
1445.73673	21347.15
1449.15965	21344.35
1452.58027	21300.85
1455.9986	21273.25
1459.41463	21300.15
1462.82837	21351.55
1466.23982	21493.95
1469.64898	21631.45
1473.05586	21742.45
1476.46045	21801.95
1479.86276	21885.05
1483.26279	21949.45
1486.66054	22019.45
1490.05602	22105.45
1493.44922	22365.45
1496.84016	22691.25
1500.22882	23072.15
1503.61521	23520.05
1506.99934	23858.35
1510.38121	23934.25
1513.76081	23791.15
1517.13816	23472.65
1520.51324	23151.25
1523.88607	22773.75
1527.25665	22523.45
1530.62498	22361.25
1533.99105	22322.05
1537.35488	22297.45
1540.71647	22261.35
1544.07581	22324.25
1547.4329	22350.45
1550.78776	22287.55
1554.14038	22256.45
1557.49077	22218.25
1560.83892	22227.55
1564.18484	22292.75
1567.52853	22365.85
1570.86999	22439.05
1574.20922	22511.15
1577.54624	22490.45
1580.88103	22374.15
1584.2136	22192.85
1587.54395	22102.95
1590.87208	22169.15
1594.19801	22325.95
1597.52172	22591.95
1600.84321	22705.45
1604.16251	22722.65
1607.47959	22631.25
1610.79447	22390.75
1614.10715	22035.95
1617.41763	21665.35
1620.7259	21350.85
1624.03199	21196.05
1627.33587	21075.55
1630.63757	21059.95
1633.93707	21125.95
1637.23439	21354.35
1640.52951	21641.05
1643.82246	22064.45
1647.11321	22449.05
1650.40179	22542.65
1653.68819	22277.25
1656.97241	21766.35
1660.25446	21248.75
1663.53433	20909.55
1666.81203	20655.15
1670.08756	20540.65
1673.36092	20451.15
1676.63211	20333.65
1679.90115	20264.55
1683.16801	20183.55
1686.43272	20102.65
1689.69527	20065.05
1692.95567	20018.75
1696.2139	19997.65
1699.46999	19960.15
1702.72392	19928.35
1705.97571	19920.95
1709.22535	19941.85
1712.47284	19913.35
1715.71819	19899.35
1718.96139	19899.45
1722.20246	19850.55
1725.44139	19851.45
1728.67818	19774.35
1731.91284	19715.65
1735.14537	19641.85
1738.37576	19591.15
1741.60403	19578.75
1744.83017	19561.45
1748.05418	19490.55
1751.27607	19404.45
1754.49584	19440.75
1757.71349	19407.15
1760.92903	19411.25
1764.14244	19397.25
1767.35375	19395.95
1770.56294	19361.55
1773.77002	19347.15
1776.97499	19299.65
1780.17785	19257.05
1783.37861	19295.15
1786.57727	19269.35
1789.77382	19237.55
1792.96828	19208.75
1796.16064	19223.15
1799.3509	19135.75
1802.53907	19130.45
1805.72514	19088.95
1808.90913	19051.45
1812.09102	19030.05
1815.27083	18966.95
1818.44856	18979.95
1821.6242	18954.35
1824.79776	18873.15
1827.96924	18911.65
1831.13864	18861.25
1834.30597	18835.75
1837.47122	18800.55
1840.6344	18790.35
1843.7955	18727.75
1846.95454	18742.85
1850.11151	18793.75
1853.26642	18736.45
1856.41926	18685.05
1859.57004	18723.65
1862.71876	18695.35
1865.86542	18648.35
1869.01003	18626.15
1872.15258	18593.45
1875.29308	18603.25
1878.43152	18560.75
1881.56792	18524.85
1884.70227	18550.95
1887.83457	18458.55
1890.96482	18474.45
1894.09304	18447.65
1897.21921	18445.15
1900.34335	18415.95
1903.46544	18390.95
1906.58551	18390.75
1909.70353	18365.45
1912.81953	18340.45
1915.93349	18276.05
1919.04543	18275.45
1922.15534	18250.95
1925.26322	18230.45
1928.36908	18194.75
1931.47292	18165.25
1934.57473	18124.35
1937.67453	18050.55
1940.77232	18023.55
1943.86808	17957.65
1946.96184	17920.85
1950.05358	17899.05
1953.14331	17812.15
1956.23103	17789.85
1959.31675	17737.25
1962.40046	17692.15
1965.48217	17644.85
1968.56188	17577.05
1971.63959	17535.75
1974.7153	17455.45
1977.78901	17417.45
1980.86073	17361.15
1983.93046	17296.45
1986.99819	17226.15
1990.06394	17199.05
1993.1277	17136.55
1996.18947	17117.45
1999.24925	17078.35
2002.30706	17031.05
2005.36288	17001.45
2008.41672	16938.25
2011.46859	16922.65
2014.51848	16856.45
2017.56639	16793.15
2020.61233	16735.95
2023.6563	16680.55
2026.6983	16643.75
2029.73833	16594.75
2032.7764	16540.15
2035.8125	16506.15
2038.84664	16488.75
2041.87881	16465.05
2044.90903	16451.95
2047.93729	16370.65
2050.96359	16377.15
2053.98794	16319.05
2057.01034	16327.35
2060.03078	16298.65
2063.04927	16276.05
2066.06582	16279.45
2069.08042	16265.75
2072.09307	16232.85
2075.10378	16226.55
2078.11255	16215.75
2081.11938	16234.85
2084.12426	16218.45
2087.12722	16213.55
2090.12824	16177.75
2093.12732	16190.15
2096.12447	16163.45
2099.11969	16173.35
2102.11299	16193.05
2105.10435	16188.05
2108.09379	16217.25
2111.08131	16206.15
2114.0669	16181.35
2117.05057	16172.95
2120.03233	16202.45
2123.01216	16227.55
2125.99008	16253.85
2128.96609	16243.95
2131.94018	16263.75
2134.91236	16253.15
2137.88263	16253.75
2140.851	16299.35
2143.81746	16290.55
2146.78201	16263.85
2149.74466	16293.05
2152.7054	16310.05
2155.66425	16287.55
2158.6212	16304.05
2161.57625	16231.75
2164.52941	16243.45
2167.48067	16214.35
2170.43004	16262.55
2173.37752	16247.75
2176.32311	16225.35
2179.26681	16215.15
2182.20863	16218.85
2185.14856	16262.25
2188.08661	16203.85
2191.02278	16210.55
2193.95707	16208.55
2196.88948	16188.15
2199.82001	16172.45
2202.74867	16129.75
2205.67545	16125.85
2208.60037	16123.15
2211.52341	16059.15
2214.44458	16014.05
2217.36388	16003.65
2220.28132	15953.45
2223.1969	15907.15
2226.11061	15874.35
2229.02246	15838.05
2231.93245	15803.95
2234.84058	15824.65
2237.74686	15810.35
2240.65128	15752.05
2243.55385	15768.45
2246.45456	15714.15
2249.35343	15716.55
2252.25044	15685.85
2255.14561	15652.35
2258.03893	15631.85
2260.93041	15567.45
2263.82004	15553.15
2266.70783	15534.75
2269.59378	15466.95
2272.4779	15441.85
2275.36017	15394.65
2278.24061	15375.65
2281.11922	15341.15
2283.996	15335.15
2286.87094	15311.25
2289.74405	15246.55
2292.61534	15207.75
2295.4848	15190.85
2298.35243	15189.35
2301.21824	15193.25
2304.08223	15169.35
2306.94439	15155.15
2309.80474	15109.85
2312.66327	15112.55
2315.51999	15070.05
2318.37489	15042.85
2321.22797	15070.95
2324.07925	14990.05
2326.92871	14964.75
2329.77637	14943.15
2332.62222	14929.15
2335.46626	14855.35
2338.3085	14821.05
2341.14893	14812.05
2343.98756	14812.95
2346.8244	14794.75
2349.65943	14782.05
2352.49267	14767.35
2355.32411	14744.45
2358.15376	14741.95
2360.98161	14743.55
2363.80768	14703.35
2366.63195	14686.65
2369.45444	14652.75
2372.27514	14624.25
2375.09405	14621.05
2377.91118	14622.85
2380.72652	14584.25
2383.54009	14538.75
2386.35187	14504.45
2389.16188	14489.35
2391.97011	14456.55
2394.77657	14425.75
2397.58125	14378.95
2400.38416	14381.85
2403.18529	14342.45
2405.98466	14330.15
2408.78226	14278.45
2411.57809	14273.95
2414.37216	14250.75
2417.16446	14250.75
2419.955	14223.75
2422.74378	14193.55
2425.5308	14167.85
2428.31606	14165.15
2431.09956	14144.65
2433.88131	14124.75
2436.6613	14094.85
2439.43954	14087.95
2442.21603	14115.85
2444.99077	14073.95
2447.76377	14058.35
2450.53501	14002.25
2453.30451	13963.15
2456.07226	13952.25
2458.83827	13941.85
2461.60254	13889.95
2464.36507	13908.75
2467.12586	13882.05
2469.88492	13873.25
2472.64224	13878.05
2475.39782	13838.35
2478.15167	13870.95
2480.90379	13842.65
2483.65417	13806.55
2486.40283	13803.35
2489.14976	13790.15
2491.89497	13763.85
2494.63845	13757.15
2497.3802	13714.65
2500.12024	13709.15
2502.85855	13673.95
2505.59514	13673.15
2508.33002	13630.75
2511.06318	13607.15
2513.79462	13612.45
2516.52435	13605.65
2519.25237	13569.55
2521.97867	13556.25
2524.70327	13527.85
2527.42616	13480.15
2530.14734	13486.15
2532.86681	13459.65
2535.58458	13451.65
2538.30065	13434.75
2541.01501	13413.75
2543.72768	13369.85
2546.43864	13316.45
2549.14791	13299.15
2551.85548	13292.85
2554.56136	13262.65
2557.26554	13231.35
2559.96803	13205.45
2562.66883	13165.15
2565.36794	13133.25
2568.06536	13100.75
2570.7611	13121.95
2573.45514	13054.55
2576.14751	13032.55
2578.83819	12985.95
2581.52719	12952.85
2584.21451	12942.55
2586.90015	12916.45
2589.58411	12920.85
2592.2664	12858.25
2594.94701	12845.55
2597.62594	12820.75
2600.30321	12801.75
2602.9788	12743.45
2605.65273	12722.75
2608.32498	12729.65
2610.99557	12681.05
2613.66449	12693.05
2616.33175	12685.65
2618.99734	12644.05
2621.66128	12611.65
2624.32355	12570.25
2626.98416	12573.75
2629.64311	12523.05
2632.30041	12515.75
2634.95605	12478.05
2637.61004	12445.65
2640.26238	12430.15
2642.91306	12432.25
2645.56209	12407.85
2648.20948	12410.95
2650.85521	12406.05
2653.4993	12379.65
2656.14175	12345.05
2658.78255	12372.45
2661.42171	12366.45
2664.05923	12379.05
2666.6951	12346.45
2669.32934	12349.65
2671.96194	12335.05
2674.59291	12341.45
2677.22224	12327.55
2679.84993	12353.15
2682.476	12301.55
2685.10043	12285.75
2687.72324	12252.55
2690.34441	12251.75
2692.96396	12247.75
2695.58188	12270.05
2698.19818	12252.65
2700.81285	12231.15
2703.4259	12188.15
2706.03733	12208.55
2708.64714	12200.25
2711.25533	12216.35
2713.86191	12215.35
2716.46687	12207.25
2719.07021	12166.35
2721.67194	12187.35
2724.27206	12157.25
2726.87057	12171.75
2729.46747	12175.65
2732.06276	12176.05
2734.65644	12174.65
2737.24852	12145.15
2739.83899	12150.05
2742.42786	12131.65
2745.01513	12102.65
2747.60079	12098.55
2750.18486	12034.95
2752.76733	12026.55
2755.3482	11971.45
2757.92747	11978.65
2760.50515	11941.55
2763.08123	11929.55
2765.65573	11906.95
2768.22863	11888.45
2770.79994	11869.45
2773.36967	11847.35
2775.9378	11824.35
2778.50435	11794.25
2781.06932	11776.25
2783.6327	11793.75
2786.1945	11782.05
2788.75471	11761.85
2791.31335	11707.05
2793.87041	11684.15
2796.42589	11649.45
2798.97979	11638.35
2801.53212	11575.55
2804.08288	11594.55
2806.63206	11518.15
2809.17967	11497.05
2811.72571	11464.35
2814.27018	11457.25
2816.81308	11415.75
2819.35442	11411.25
2821.89419	11335.95
2824.43239	11341.25
2826.96904	11328.75
2829.50412	11281.95
2832.03763	11270.95
2834.56959	11244.95
2837.1	11230.15
2839.62884	11217.15
2842.15613	11180.15
2844.68186	11196.15
2847.20604	11189.25
2849.72867	11132.15
2852.24974	11137.05
2854.76927	11127.65
2857.28724	11108.05
2859.80367	11090.35
2862.31855	11063.05
2864.83189	11023.95
2867.34368	11005.35
2869.85393	10976.05
2872.36264	10964.95
2874.8698	10931.85
2877.37543	10933.45
2879.87952	10959.55
2882.38207	10920.25
2884.88308	10889.75
2887.38256	10906.25
2889.88051	10895.95
2892.37692	10891.85
2894.8718	10895.35
2897.36515	10881.45
2899.85698	10867.35
2902.34727	10883.35
2904.83604	10890.55
2907.32328	10895.95
2909.809	10873.45
2912.29319	10879.15
2914.77587	10868.85
2917.25702	10846.75
2919.73665	10837.95
2922.21476	10851.35
2924.69136	10821.55
2927.16644	10819.55
2929.64	10810.95
2932.11205	10804.85
2934.58258	10767.05
2937.05161	10789.25
2939.51912	10771.55
2941.98513	10758.55
2944.44962	10738.95
2946.91261	10729.25
2949.37409	10718.45
2951.83407	10712.15
2954.29254	10719.45
2956.74951	10697.25
2959.20498	10701.05
2961.65895	10701.05
2964.11142	10719.75
2966.56239	10711.25
2969.01186	10711.35
2971.45984	10689.45
2973.90632	10677.45
2976.35131	10658.95
2978.7948	10636.35
2981.23681	10632.85
2983.67732	10623.95
2986.11635	10574.75
2988.55388	10568.45
2990.98993	10539.75
2993.4245	10509.55
2995.85758	10507.65
2998.28917	10474.95
3000.71928	10442.05
3003.14791	10398.65
3005.57506	10394.35
3008.00073	10363.75
3010.42493	10357.55
3012.84764	10353.95
3015.26888	10353.25
3017.68865	10293.45
3020.10694	10296.25
3022.52376	10290.95
3024.9391	10265.95
3027.35298	10244.65
3029.76539	10243.35
3032.17632	10231.35
3034.5858	10211.15
3036.9938	10182.55
3039.40034	10178.55
3041.80542	10154.15
3044.20903	10157.75
3046.61118	10168.15
3049.01187	10122.55
3051.4111	10103.45
3053.80888	10109.25
3056.20519	10075.45
3058.60005	10056.85
3060.99345	10035.15
3063.3854	9990.75
3065.7759	9962.25
3068.16494	9959.95
3070.55254	9890.25
3072.93868	9888.15
3075.32338	9872.05
3077.70662	9871.35
3080.08842	9848.25
3082.46878	9857.35
3084.84769	9835.25
3087.22515	9829.85
3089.60118	9810.05
3091.97576	9820.55
3094.3489	9840.35
3096.72061	9845.85
3099.09087	9827.55
3101.4597	9858.15
3103.82709	9845.15
3106.19305	9806.85
3108.55757	9812.25
3110.92066	9781.05
3113.28232	9792.25
3115.64255	9755.85
3118.00134	9760.05
3120.35871	9729.85
3122.71466	9689.45
3125.06917	9681.15
3127.42226	9642.15
3129.77393	9662.15
3132.12417	9646.15
3134.47299	9632.05
3136.82039	9590.25
3139.16636	9617.75
3141.51092	9583.55
3143.85406	9617.45
3146.19579	9594.65
3148.53609	9611.25
3150.87499	9646.45
3153.21246	9614.45
3155.54853	9654.15
3157.88318	9624.55
3160.21642	9632.75
3162.54826	9638.95
3164.87868	9602.15
3167.2077	9614.45
3169.5353	9609.85
3171.86151	9633.15
3174.18631	9603.25
3176.5097	9611.55
3178.83169	9582.95
3181.15228	9585.65
3183.47147	9559.15
3185.78926	9537.15
3188.10565	9516.15
3190.42065	9498.75
3192.73424	9495.65
3195.04645	9515.65
3197.35725	9507.65
3199.66667	9499.65
3201.97469	9478.15
3204.28132	9485.15
3206.58656	9495.65
3208.8904	9494.25
3211.19287	9498.25
3213.49394	9486.15
3215.79363	9498.65
3218.09193	9504.75
3220.38884	9498.95
3222.68438	9515.85
3224.97853	9478.55
3227.2713	9493.95
3229.56269	9478.15
3231.8527	9457.85
3234.14133	9431.95
3236.42858	9412.45
3238.71446	9389.85
3240.99896	9348.75
3243.28209	9339.95
3245.56384	9322.25
3247.84423	9330.75
3250.12324	9292.35
3252.40088	9282.45
3254.67715	9274.55
3256.95205	9271.35
3259.22558	9284.35
3261.49775	9281.75
3263.76855	9283.85
3266.03799	9257.85
3268.30606	9244.25
3270.57277	9232.85
3272.83812	9204.25
3275.10211	9180.25
3277.36474	9158.05
3279.62601	9176.45
3281.88593	9141.55
3284.14448	9144.65
3286.40168	9126.25
3288.65753	9114.95
3290.91202	9124.05
3293.16516	9085.05
3295.41695	9048.45
3297.66738	9000.25
3299.91647	8966.75
3302.16421	8912.35
3304.4106	8876.45
3306.65564	8825.85
3308.89933	8744.15
3311.14169	8694.75
3313.38269	8617.05
3315.62236	8589.65
3317.86068	8503.45
3320.09766	8456.85
3322.3333	8408.35
3324.5676	8359.45
3326.80056	8232.35
3329.03219	8185.65
3331.26248	1.35
3333.49143	0.35
3335.71905	-0.45
