Data from AgNPs_APTES_FTO_UA_100uM_CRN_0uM_R6G_10uM_Scan_RamanShift__30__12-39-03-542.txt Node

Date: Thu Jun 23 12:39:03 BST 2022
User: TCL
Spectrometer: QEP01345
Trigger mode: 4
Integration Time (sec): 7.000000E0
Scans to average: 10
Electric dark correction enabled: true
Nonlinearity correction enabled: false
Boxcar width: 0
XAxis mode: Raman Shifts
Number of Pixels in Spectrum: 1044
>>>>>Begin Spectral Data<<<<<
46.04893	1.1125
50.45542	-0.3875
54.85868	-1.2875
59.25871	-1.1875
63.6555	26.7125
68.04907	28.6125
72.43941	34.2125
76.82654	41.5125
81.21044	40.5125
85.59113	40.1125
89.96862	43.7125
94.34289	43.9125
98.71396	48.0125
103.08183	45.7125
107.4465	47.0125
111.80798	47.3125
116.16626	47.6125
120.52136	48.9125
124.87327	47.8125
129.222	44.7125
133.56755	48.0125
137.90993	45.6125
142.24913	47.8125
146.58517	46.9125
150.91804	47.4125
155.24774	52.9125
159.57429	54.1125
163.89768	58.4125
168.21792	66.4125
172.53501	80.2125
176.84895	95.0125
181.15975	126.0125
185.46741	166.9125
189.77193	221.0125
194.07331	285.3125
198.37157	356.9125
202.6667	435.4125
206.9587	517.2125
211.24758	593.3125
215.53334	672.0125
219.81599	748.8125
224.09553	833.1125
228.37195	923.9125
232.64527	1015.1125
236.91549	1119.1125
241.18261	1208.0125
245.44663	1304.7125
249.70755	1389.7125
253.96539	1463.9125
258.22014	1525.9125
262.4718	1559.1125
266.72039	1585.7125
270.96589	1595.3125
275.20832	1579.7125
279.44768	1569.0125
283.68397	1531.7125
287.91719	1514.4125
292.14735	1489.1125
296.37445	1479.0125
300.59849	1494.0125
304.81948	1484.4125
309.03742	1495.9125
313.25231	1488.2125
317.46415	1465.4125
321.67296	1427.6125
325.87872	1393.8125
330.08145	1364.6125
334.28114	1371.9125
338.47781	1385.8125
342.67145	1395.0125
346.86207	1418.5125
351.04966	1442.0125
355.23424	1477.6125
359.4158	1517.7125
363.59435	1550.3125
367.76989	1563.6125
371.94243	1582.2125
376.11196	1594.0125
380.27849	1612.3125
384.44203	1631.4125
388.60257	1622.5125
392.76012	1637.8125
396.91468	1656.6125
401.06626	1665.2125
405.21485	1673.0125
409.36047	1667.1125
413.50311	1638.7125
417.64277	1613.3125
421.77947	1588.7125
425.9132	1577.1125
430.04396	1577.9125
434.17176	1584.1125
438.2966	1591.6125
442.41849	1611.8125
446.53742	1642.9125
450.6534	1644.3125
454.76644	1668.3125
458.87653	1661.4125
462.98368	1672.5125
467.08789	1666.5125
471.18916	1667.2125
475.2875	1675.2125
479.38291	1675.6125
483.4754	1690.4125
487.56496	1714.7125
491.6516	1756.4125
495.73531	1771.3125
499.81612	1767.9125
503.89401	1743.9125
507.96899	1728.4125
512.04106	1726.5125
516.11023	1721.0125
520.1765	1734.1125
524.23987	1749.0125
528.30034	1750.0125
532.35792	1761.4125
536.41261	1740.7125
540.46441	1703.9125
544.51333	1682.6125
548.55936	1668.5125
552.60252	1656.3125
556.64279	1658.7125
560.6802	1659.6125
564.71473	1654.6125
568.7464	1662.7125
572.7752	1677.3125
576.80114	1677.1125
580.82422	1672.1125
584.84444	1689.4125
588.86181	1732.7125
592.87633	1731.1125
596.888	1748.9125
600.89682	1758.4125
604.9028	1843.2125
608.90594	2017.0125
612.90624	2257.8125
616.90371	2239.3125
620.89834	2042.8125
624.89015	2005.2125
628.87913	2101.7125
632.86528	2220.0125
636.84862	2281.2125
640.82913	2225.8125
644.80683	2119.2125
648.78172	1980.2125
652.75379	1882.0125
656.72306	1824.1125
660.68952	1801.3125
664.65319	1770.5125
668.61405	1750.8125
672.57211	1729.6125
676.52738	1730.6125
680.47986	1743.2125
684.42955	1755.0125
688.37646	1740.6125
692.32058	1728.9125
696.26192	1713.7125
700.20048	1697.1125
704.13626	1692.5125
708.06928	1685.7125
711.99952	1681.7125
715.927	1691.2125
719.85171	1714.0125
723.77365	1721.1125
727.69284	1737.2125
731.60928	1724.3125
735.52295	1709.0125
739.43388	1687.7125
743.34206	1676.8125
747.24749	1680.2125
751.15017	1672.7125
755.05012	1692.6125
758.94733	1701.2125
762.8418	1765.5125
766.73354	1865.2125
770.62254	1969.8125
774.50882	2037.9125
778.39237	2020.3125
782.27321	1906.8125
786.15132	1791.4125
790.02671	1730.3125
793.89938	1694.9125
797.76935	1702.9125
801.6366	1729.0125
805.50115	1788.3125
809.36299	1844.7125
813.22213	1866.3125
817.07857	1836.2125
820.93231	1777.9125
824.78336	1724.7125
828.63172	1672.6125
832.47738	1649.5125
836.32036	1635.9125
840.16066	1634.1125
843.99827	1627.1125
847.8332	1629.9125
851.66546	1624.4125
855.49504	1622.7125
859.32195	1618.4125
863.1462	1625.8125
866.96777	1651.6125
870.78668	1674.9125
874.60293	1710.6125
878.41652	1746.2125
882.22745	1803.2125
886.03573	1846.7125
889.84136	1846.7125
893.64433	1821.9125
897.44466	1772.4125
901.24235	1712.0125
905.0374	1661.4125
908.8298	1633.0125
912.61957	1622.7125
916.40671	1614.8125
920.19121	1621.6125
923.97308	1630.3125
927.75233	1635.5125
931.52895	1633.8125
935.30295	1631.7125
939.07433	1601.2125
942.84309	1584.0125
946.60924	1564.6125
950.37278	1552.0125
954.13371	1535.8125
957.89203	1515.1125
961.64774	1508.2125
965.40086	1500.0125
969.15137	1480.3125
972.89929	1473.9125
976.64461	1476.5125
980.38733	1467.2125
984.12747	1470.6125
987.86502	1467.2125
991.59999	1476.5125
995.33237	1484.6125
999.06217	1497.1125
1002.78939	1524.8125
1006.51404	1545.9125
1010.23611	1580.6125
1013.95561	1603.1125
1017.67255	1617.1125
1021.38692	1617.2125
1025.09872	1589.8125
1028.80796	1571.5125
1032.51465	1538.9125
1036.21877	1516.1125
1039.92035	1499.6125
1043.61937	1499.5125
1047.31584	1501.4125
1051.00976	1487.7125
1054.70114	1500.5125
1058.38998	1505.2125
1062.07627	1504.0125
1065.76003	1515.8125
1069.44126	1532.2125
1073.11995	1539.8125
1076.79611	1538.5125
1080.46974	1552.3125
1084.14085	1537.7125
1087.80943	1538.0125
1091.47549	1528.9125
1095.13903	1520.1125
1098.80005	1475.8125
1102.45857	1461.5125
1106.11456	1459.7125
1109.76805	1467.9125
1113.41903	1492.9125
1117.06751	1540.4125
1120.71348	1605.7125
1124.35696	1718.0125
1127.99793	1844.1125
1131.63641	1940.7125
1135.2724	1989.4125
1138.90589	1979.7125
1142.5369	1900.7125
1146.16542	1803.0125
1149.79145	1693.2125
1153.415	1591.1125
1157.03607	1516.2125
1160.65467	1497.1125
1164.27079	1474.2125
1167.88443	1489.1125
1171.49561	1512.9125
1175.10432	1588.3125
1178.71056	1677.9125
1182.31434	1763.4125
1185.91565	1812.1125
1189.51451	1823.5125
1193.11091	1802.9125
1196.70485	1825.6125
1200.29634	1842.9125
1203.88538	1831.1125
1207.47197	1795.4125
1211.05612	1725.9125
1214.63782	1648.6125
1218.21708	1586.3125
1221.79391	1537.2125
1225.36829	1505.4125
1228.94024	1484.4125
1232.50976	1462.8125
1236.07685	1452.6125
1239.6415	1452.6125
1243.20374	1459.7125
1246.76355	1460.0125
1250.32093	1467.8125
1253.8759	1474.5125
1257.42845	1505.5125
1260.97859	1513.5125
1264.52631	1529.8125
1268.07163	1542.7125
1271.61453	1551.4125
1275.15503	1564.4125
1278.69312	1551.4125
1282.22882	1561.6125
1285.76211	1561.2125
1289.29301	1567.5125
1292.82151	1586.6125
1296.34761	1634.8125
1299.87133	1672.2125
1303.39266	1742.5125
1306.9116	1838.5125
1310.42815	1934.2125
1313.94233	1984.3125
1317.45412	1958.1125
1320.96354	1898.8125
1324.47058	1821.7125
1327.97525	1764.0125
1331.47754	1725.2125
1334.97747	1710.2125
1338.47502	1738.4125
1341.97022	1770.5125
1345.46305	1848.2125
1348.95352	1935.3125
1352.44163	2056.1125
1355.92738	2193.3125
1359.41078	2368.4125
1362.89183	2493.9125
1366.37053	2453.8125
1369.84688	2260.1125
1373.32088	2070.2125
1376.79254	1924.1125
1380.26186	1832.5125
1383.72883	1757.8125
1387.19347	1703.0125
1390.65578	1652.2125
1394.11575	1615.7125
1397.57339	1587.7125
1401.0287	1560.0125
1404.48168	1527.7125
1407.93234	1501.1125
1411.38068	1471.5125
1414.82669	1443.4125
1418.27039	1415.1125
1421.71177	1400.3125
1425.15083	1367.4125
1428.58758	1355.7125
1432.02203	1353.4125
1435.45416	1347.2125
1438.88399	1332.6125
1442.31151	1333.1125
1445.73673	1318.8125
1449.15965	1324.5125
1452.58027	1326.3125
1455.9986	1316.2125
1459.41463	1313.2125
1462.82837	1326.6125
1466.23982	1334.0125
1469.64898	1332.1125
1473.05586	1346.8125
1476.46045	1353.7125
1479.86276	1364.2125
1483.26279	1380.0125
1486.66054	1404.5125
1490.05602	1425.0125
1493.44922	1485.2125
1496.84016	1554.7125
1500.22882	1652.8125
1503.61521	1784.4125
1506.99934	1920.6125
1510.38121	2024.9125
1513.76081	2051.4125
1517.13816	1952.1125
1520.51324	1805.6125
1523.88607	1656.2125
1527.25665	1562.6125
1530.62498	1508.9125
1533.99105	1493.5125
1537.35488	1480.7125
1540.71647	1481.0125
1544.07581	1485.3125
1547.4329	1494.6125
1550.78776	1517.7125
1554.14038	1527.4125
1557.49077	1538.5125
1560.83892	1546.7125
1564.18484	1561.1125
1567.52853	1574.2125
1570.86999	1598.4125
1574.20922	1623.8125
1577.54624	1614.2125
1580.88103	1570.0125
1584.2136	1517.5125
1587.54395	1468.5125
1590.87208	1446.1125
1594.19801	1462.4125
1597.52172	1485.0125
1600.84321	1486.5125
1604.16251	1499.6125
1607.47959	1482.0125
1610.79447	1472.7125
1614.10715	1447.6125
1617.41763	1438.4125
1620.7259	1441.9125
1624.03199	1425.5125
1627.33587	1439.6125
1630.63757	1436.7125
1633.93707	1465.1125
1637.23439	1493.0125
1640.52951	1539.0125
1643.82246	1628.8125
1647.11321	1713.8125
1650.40179	1797.0125
1653.68819	1767.4125
1656.97241	1678.8125
1660.25446	1562.2125
1663.53433	1442.3125
1666.81203	1367.7125
1670.08756	1305.2125
1673.36092	1278.3125
1676.63211	1247.3125
1679.90115	1232.3125
1683.16801	1208.6125
1686.43272	1193.7125
1689.69527	1177.0125
1692.95567	1141.4125
1696.2139	1121.3125
1699.46999	1082.1125
1702.72392	1041.1125
1705.97571	1034.3125
1709.22535	1007.5125
1712.47284	1010.9125
1715.71819	992.3125
1718.96139	980.9125
1722.20246	966.2125
1725.44139	952.6125
1728.67818	942.7125
1731.91284	933.5125
1735.14537	920.8125
1738.37576	914.2125
1741.60403	904.0125
1744.83017	899.5125
1748.05418	892.3125
1751.27607	883.3125
1754.49584	869.5125
1757.71349	860.3125
1760.92903	848.7125
1764.14244	843.1125
1767.35375	833.3125
1770.56294	836.0125
1773.77002	837.5125
1776.97499	836.7125
1780.17785	847.6125
1783.37861	844.8125
1786.57727	848.7125
1789.77382	845.1125
1792.96828	842.8125
1796.16064	841.4125
1799.3509	834.1125
1802.53907	831.5125
1805.72514	827.2125
1808.90913	830.5125
1812.09102	824.5125
1815.27083	820.9125
1818.44856	823.5125
1821.6242	816.2125
1824.79776	821.5125
1827.96924	809.0125
1831.13864	810.6125
1834.30597	807.7125
1837.47122	796.2125
1840.6344	794.0125
1843.7955	798.7125
1846.95454	800.9125
1850.11151	799.7125
1853.26642	795.5125
1856.41926	796.2125
1859.57004	791.4125
1862.71876	788.8125
1865.86542	788.2125
1869.01003	782.3125
1872.15258	783.3125
1875.29308	780.1125
1878.43152	779.9125
1881.56792	777.2125
1884.70227	777.7125
1887.83457	766.9125
1890.96482	765.5125
1894.09304	764.5125
1897.21921	768.0125
1900.34335	754.8125
1903.46544	755.9125
1906.58551	756.5125
1909.70353	747.6125
1912.81953	753.0125
1915.93349	743.6125
1919.04543	755.5125
1922.15534	742.4125
1925.26322	736.5125
1928.36908	743.7125
1931.47292	735.9125
1934.57473	731.7125
1937.67453	730.7125
1940.77232	721.2125
1943.86808	723.0125
1946.96184	724.6125
1950.05358	716.5125
1953.14331	719.6125
1956.23103	712.9125
1959.31675	708.1125
1962.40046	709.4125
1965.48217	702.2125
1968.56188	697.4125
1971.63959	694.0125
1974.7153	692.3125
1977.78901	697.8125
1980.86073	690.4125
1983.93046	688.0125
1986.99819	685.0125
1990.06394	682.3125
1993.1277	682.7125
1996.18947	671.2125
1999.24925	668.6125
2002.30706	669.3125
2005.36288	665.6125
2008.41672	662.3125
2011.46859	656.9125
2014.51848	665.5125
2017.56639	655.0125
2020.61233	654.5125
2023.6563	654.2125
2026.6983	647.7125
2029.73833	639.5125
2032.7764	644.6125
2035.8125	642.3125
2038.84664	634.9125
2041.87881	639.6125
2044.90903	635.3125
2047.93729	639.1125
2050.96359	636.4125
2053.98794	635.1125
2057.01034	627.8125
2060.03078	626.7125
2063.04927	634.2125
2066.06582	632.8125
2069.08042	625.1125
2072.09307	627.0125
2075.10378	627.4125
2078.11255	624.9125
2081.11938	630.4125
2084.12426	622.8125
2087.12722	620.8125
2090.12824	615.1125
2093.12732	619.5125
2096.12447	615.6125
2099.11969	610.7125
2102.11299	615.5125
2105.10435	616.2125
2108.09379	612.5125
2111.08131	614.5125
2114.0669	612.8125
2117.05057	611.1125
2120.03233	613.4125
2123.01216	611.4125
2125.99008	612.4125
2128.96609	609.3125
2131.94018	612.5125
2134.91236	603.4125
2137.88263	606.4125
2140.851	613.3125
2143.81746	607.2125
2146.78201	606.9125
2149.74466	608.1125
2152.7054	605.0125
2155.66425	605.9125
2158.6212	595.4125
2161.57625	600.1125
2164.52941	593.8125
2167.48067	599.6125
2170.43004	600.2125
2173.37752	590.8125
2176.32311	588.4125
2179.26681	588.5125
2182.20863	596.7125
2185.14856	596.2125
2188.08661	587.5125
2191.02278	585.3125
2193.95707	585.2125
2196.88948	586.6125
2199.82001	582.8125
2202.74867	585.3125
2205.67545	581.6125
2208.60037	580.8125
2211.52341	576.2125
2214.44458	570.3125
2217.36388	572.5125
2220.28132	575.8125
2223.1969	566.6125
2226.11061	562.1125
2229.02246	562.7125
2231.93245	558.8125
2234.84058	555.8125
2237.74686	556.7125
2240.65128	558.6125
2243.55385	552.4125
2246.45456	558.4125
2249.35343	549.0125
2252.25044	548.6125
2255.14561	544.0125
2258.03893	545.0125
2260.93041	546.8125
2263.82004	538.9125
2266.70783	542.5125
2269.59378	547.4125
2272.4779	538.4125
2275.36017	538.0125
2278.24061	536.0125
2281.11922	529.5125
2283.996	534.7125
2286.87094	534.8125
2289.74405	526.7125
2292.61534	531.6125
2295.4848	523.3125
2298.35243	527.6125
2301.21824	517.8125
2304.08223	519.7125
2306.94439	527.0125
2309.80474	520.4125
2312.66327	524.3125
2315.51999	514.0125
2318.37489	513.2125
2321.22797	515.0125
2324.07925	514.2125
2326.92871	514.3125
2329.77637	510.9125
2332.62222	506.1125
2335.46626	510.8125
2338.3085	504.8125
2341.14893	506.0125
2343.98756	502.9125
2346.8244	499.5125
2349.65943	499.4125
2352.49267	496.1125
2355.32411	499.3125
2358.15376	496.8125
2360.98161	493.0125
2363.80768	489.6125
2366.63195	489.4125
2369.45444	495.0125
2372.27514	499.7125
2375.09405	493.1125
2377.91118	500.3125
2380.72652	490.6125
2383.54009	489.0125
2386.35187	484.6125
2389.16188	487.8125
2391.97011	484.4125
2394.77657	483.6125
2397.58125	480.8125
2400.38416	480.8125
2403.18529	480.0125
2405.98466	475.2125
2408.78226	469.8125
2411.57809	470.5125
2414.37216	467.2125
2417.16446	470.5125
2419.955	473.6125
2422.74378	466.2125
2425.5308	457.2125
2428.31606	464.0125
2431.09956	466.5125
2433.88131	457.5125
2436.6613	460.9125
2439.43954	460.8125
2442.21603	463.2125
2444.99077	460.4125
2447.76377	457.5125
2450.53501	458.6125
2453.30451	460.4125
2456.07226	452.7125
2458.83827	450.9125
2461.60254	454.2125
2464.36507	447.1125
2467.12586	450.9125
2469.88492	446.9125
2472.64224	453.8125
2475.39782	446.9125
2478.15167	442.4125
2480.90379	442.1125
2483.65417	444.3125
2486.40283	442.6125
2489.14976	441.3125
2491.89497	443.7125
2494.63845	441.1125
2497.3802	440.2125
2500.12024	441.1125
2502.85855	440.1125
2505.59514	435.4125
2508.33002	440.7125
2511.06318	437.4125
2513.79462	434.8125
2516.52435	426.6125
2519.25237	427.3125
2521.97867	427.5125
2524.70327	422.4125
2527.42616	428.2125
2530.14734	423.0125
2532.86681	421.0125
2535.58458	426.2125
2538.30065	427.3125
2541.01501	424.1125
2543.72768	427.5125
2546.43864	418.1125
2549.14791	415.2125
2551.85548	417.0125
2554.56136	412.3125
2557.26554	416.6125
2559.96803	414.8125
2562.66883	409.9125
2565.36794	413.7125
2568.06536	409.3125
2570.7611	409.2125
2573.45514	410.2125
2576.14751	407.0125
2578.83819	410.2125
2581.52719	404.4125
2584.21451	406.6125
2586.90015	406.3125
2589.58411	396.1125
2592.2664	406.8125
2594.94701	400.4125
2597.62594	398.7125
2600.30321	395.4125
2602.9788	392.4125
2605.65273	395.1125
2608.32498	398.5125
2610.99557	393.0125
2613.66449	394.0125
2616.33175	395.5125
2618.99734	389.4125
2621.66128	390.6125
2624.32355	384.2125
2626.98416	386.8125
2629.64311	384.1125
2632.30041	389.9125
2634.95605	387.0125
2637.61004	391.0125
2640.26238	383.0125
2642.91306	385.1125
2645.56209	378.8125
2648.20948	377.9125
2650.85521	380.7125
2653.4993	383.5125
2656.14175	381.2125
2658.78255	377.7125
2661.42171	378.1125
2664.05923	373.5125
2666.6951	378.1125
2669.32934	383.8125
2671.96194	376.5125
2674.59291	378.9125
2677.22224	385.0125
2679.84993	376.1125
2682.476	379.7125
2685.10043	381.7125
2687.72324	382.1125
2690.34441	377.7125
2692.96396	378.9125
2695.58188	376.7125
2698.19818	376.6125
2700.81285	379.9125
2703.4259	373.0125
2706.03733	346.8125
2708.64714	356.0125
2711.25533	377.5125
2713.86191	374.5125
2716.46687	373.1125
2719.07021	373.3125
2721.67194	378.1125
2724.27206	375.9125
2726.87057	373.7125
2729.46747	373.9125
2732.06276	374.2125
2734.65644	375.5125
2737.24852	375.4125
2739.83899	380.3125
2742.42786	375.3125
2745.01513	368.3125
2747.60079	371.6125
2750.18486	371.7125
2752.76733	372.6125
2755.3482	372.7125
2757.92747	377.7125
2760.50515	367.8125
2763.08123	369.9125
2765.65573	373.3125
2768.22863	370.6125
2770.79994	371.1125
2773.36967	369.5125
2775.9378	371.0125
2778.50435	367.7125
2781.06932	365.2125
2783.6327	367.3125
2786.1945	373.5125
2788.75471	368.6125
2791.31335	365.3125
2793.87041	366.9125
2796.42589	367.0125
2798.97979	364.8125
2801.53212	366.5125
2804.08288	365.6125
2806.63206	364.2125
2809.17967	359.9125
2811.72571	364.8125
2814.27018	364.8125
2816.81308	363.1125
2819.35442	356.2125
2821.89419	365.3125
2824.43239	364.7125
2826.96904	358.4125
2829.50412	361.3125
2832.03763	358.7125
2834.56959	361.4125
2837.1	364.1125
2839.62884	363.4125
2842.15613	364.5125
2844.68186	364.2125
2847.20604	364.8125
2849.72867	370.9125
2852.24974	367.1125
2854.76927	368.0125
2857.28724	357.8125
2859.80367	366.8125
2862.31855	366.3125
2864.83189	366.2125
2867.34368	357.6125
2869.85393	368.9125
2872.36264	368.7125
2874.8698	372.3125
2877.37543	368.8125
2879.87952	373.2125
2882.38207	369.3125
2884.88308	367.8125
2887.38256	370.0125
2889.88051	371.8125
2892.37692	373.2125
2894.8718	373.4125
2897.36515	379.4125
2899.85698	373.0125
2902.34727	373.7125
2904.83604	384.4125
2907.32328	382.6125
2909.809	386.0125
2912.29319	381.2125
2914.77587	386.3125
2917.25702	391.2125
2919.73665	387.4125
2922.21476	388.7125
2924.69136	387.5125
2927.16644	393.8125
2929.64	393.4125
2932.11205	389.5125
2934.58258	387.6125
2937.05161	393.3125
2939.51912	385.1125
2941.98513	385.5125
2944.44962	381.9125
2946.91261	378.2125
2949.37409	379.8125
2951.83407	384.3125
2954.29254	377.0125
2956.74951	372.0125
2959.20498	369.8125
2961.65895	373.5125
2964.11142	371.2125
2966.56239	376.6125
2969.01186	371.3125
2971.45984	379.3125
2973.90632	367.2125
2976.35131	372.4125
2978.7948	366.4125
2981.23681	371.1125
2983.67732	375.9125
2986.11635	370.8125
2988.55388	372.3125
2990.98993	368.0125
2993.4245	373.8125
2995.85758	375.1125
2998.28917	371.6125
3000.71928	374.5125
3003.14791	372.2125
3005.57506	369.6125
3008.00073	374.8125
3010.42493	387.8125
3012.84764	378.7125
3015.26888	380.6125
3017.68865	381.9125
3020.10694	373.8125
3022.52376	385.0125
3024.9391	385.1125
3027.35298	385.7125
3029.76539	383.5125
3032.17632	390.6125
3034.5858	388.1125
3036.9938	391.3125
3039.40034	396.9125
3041.80542	391.5125
3044.20903	394.9125
3046.61118	404.9125
3049.01187	398.1125
3051.4111	405.8125
3053.80888	411.6125
3056.20519	412.9125
3058.60005	411.6125
3060.99345	417.2125
3063.3854	418.1125
3065.7759	417.9125
3068.16494	412.1125
3070.55254	417.4125
3072.93868	427.3125
3075.32338	434.1125
3077.70662	433.5125
3080.08842	433.9125
3082.46878	436.8125
3084.84769	439.8125
3087.22515	446.8125
3089.60118	446.7125
3091.97576	453.8125
3094.3489	446.6125
3096.72061	456.5125
3099.09087	465.4125
3101.4597	464.3125
3103.82709	475.1125
3106.19305	476.4125
3108.55757	487.4125
3110.92066	492.4125
3113.28232	491.0125
3115.64255	496.7125
3118.00134	505.0125
3120.35871	505.6125
3122.71466	512.6125
3125.06917	513.8125
3127.42226	513.3125
3129.77393	518.9125
3132.12417	526.8125
3134.47299	541.5125
3136.82039	541.0125
3139.16636	543.4125
3141.51092	549.4125
3143.85406	562.1125
3146.19579	560.5125
3148.53609	567.8125
3150.87499	577.3125
3153.21246	578.8125
3155.54853	591.5125
3157.88318	602.5125
3160.21642	608.5125
3162.54826	606.7125
3164.87868	614.5125
3167.2077	616.4125
3169.5353	629.9125
3171.86151	628.3125
3174.18631	642.8125
3176.5097	640.2125
3178.83169	653.3125
3181.15228	650.5125
3183.47147	657.2125
3185.78926	669.2125
3188.10565	665.5125
3190.42065	667.0125
3192.73424	674.8125
3195.04645	680.5125
3197.35725	682.7125
3199.66667	693.9125
3201.97469	706.3125
3204.28132	701.3125
3206.58656	707.8125
3208.8904	715.3125
3211.19287	718.9125
3213.49394	713.5125
3215.79363	722.3125
3218.09193	722.2125
3220.38884	719.8125
3222.68438	722.3125
3224.97853	728.2125
3227.2713	729.0125
3229.56269	734.4125
3231.8527	741.6125
3234.14133	744.6125
3236.42858	738.9125
3238.71446	740.9125
3240.99896	742.5125
3243.28209	741.3125
3245.56384	746.2125
3247.84423	745.6125
3250.12324	744.3125
3252.40088	748.9125
3254.67715	742.4125
3256.95205	753.6125
3259.22558	745.8125
3261.49775	753.2125
3263.76855	749.4125
3266.03799	749.4125
3268.30606	750.9125
3270.57277	756.9125
3272.83812	742.8125
3275.10211	750.1125
3277.36474	744.5125
3279.62601	747.9125
3281.88593	745.4125
3284.14448	749.5125
3286.40168	742.1125
3288.65753	745.9125
3290.91202	750.5125
3293.16516	748.0125
3295.41695	750.0125
3297.66738	737.9125
3299.91647	743.9125
3302.16421	744.7125
3304.4106	736.0125
3306.65564	737.1125
3308.89933	729.8125
3311.14169	721.6125
3313.38269	716.1125
3315.62236	710.5125
3317.86068	707.8125
3320.09766	706.2125
3322.3333	701.0125
3324.5676	694.3125
3326.80056	674.7125
3329.03219	675.6125
3331.26248	-0.3875
3333.49143	0.7125
3335.71905	0.5125
