Data from AgNPs_APTES_FTO_UA_50uM_CRN_0uM_R6G_10uM_Scan_RamanShift__5__11-16-53-653.txt Node

Date: Tue Jul 05 11:16:53 BST 2022
User: TCL
Spectrometer: QEP01345
Trigger mode: 4
Integration Time (sec): 7.000000E0
Scans to average: 10
Electric dark correction enabled: true
Nonlinearity correction enabled: false
Boxcar width: 0
XAxis mode: Raman Shifts
Number of Pixels in Spectrum: 1044
>>>>>Begin Spectral Data<<<<<
46.04893	-0.25
50.45542	0.35
54.85868	-0.65
59.25871	1.05
63.6555	43.95
68.04907	48.95
72.43941	48.65
76.82654	52.25
81.21044	57.25
85.59113	59.45
89.96862	62.95
94.34289	63.65
98.71396	67.35
103.08183	69.35
107.4465	67.05
111.80798	70.75
116.16626	67.65
120.52136	67.95
124.87327	69.15
129.222	72.85
133.56755	73.75
137.90993	74.35
142.24913	76.85
146.58517	80.35
150.91804	87.35
155.24774	96.55
159.57429	113.75
163.89768	136.05
168.21792	172.05
172.53501	221.85
176.84895	298.25
181.15975	406.95
185.46741	560.85
189.77193	768.45
194.07331	1032.45
198.37157	1324.05
202.6667	1649.35
206.9587	1970.85
211.24758	2320.75
215.53334	2665.55
219.81599	3039.15
224.09553	3459.55
228.37195	3895.15
232.64527	4360.15
236.91549	4820.95
241.18261	5215.45
245.44663	5530.15
249.70755	5800.35
253.96539	5996.05
258.22014	6177.35
262.4718	6325.05
266.72039	6394.65
270.96589	6369.95
275.20832	6252.45
279.44768	6084.75
283.68397	5858.15
287.91719	5702.45
292.14735	5608.85
296.37445	5665.65
300.59849	5846.75
304.81948	6133.35
309.03742	6425.65
313.25231	6564.55
317.46415	6372.25
321.67296	5873.55
325.87872	5354.65
330.08145	5041.05
334.28114	4983.65
338.47781	5039.95
342.67145	5208.35
346.86207	5452.25
351.04966	5813.15
355.23424	6194.25
359.4158	6399.95
363.59435	6367.05
367.76989	6226.35
371.94243	6097.95
376.11196	5956.15
380.27849	5840.95
384.44203	5744.85
388.60257	5623.35
392.76012	5612.85
396.91468	5667.25
401.06626	5788.15
405.21485	5842.65
409.36047	5706.05
413.50311	5386.15
417.64277	5103.05
421.77947	4923.25
425.9132	4741.25
430.04396	4628.15
434.17176	4650.05
438.2966	4682.75
442.41849	4787.65
446.53742	4907.95
450.6534	5006.15
454.76644	5029.25
458.87653	5003.45
462.98368	4950.65
467.08789	4877.75
471.18916	4812.25
475.2875	4722.05
479.38291	4640.05
483.4754	4580.95
487.56496	4538.55
491.6516	4549.25
495.73531	4582.05
499.81612	4602.85
503.89401	4683.95
507.96899	4761.05
512.04106	4877.75
516.11023	4972.35
520.1765	5070.55
524.23987	5083.45
528.30034	5039.35
532.35792	4958.05
536.41261	4842.55
540.46441	4731.15
544.51333	4657.15
548.55936	4664.95
552.60252	4728.45
556.64279	4855.75
560.6802	4974.25
564.71473	5138.35
568.7464	5409.85
572.7752	5496.25
576.80114	5164.05
580.82422	4814.95
584.84444	4682.95
588.86181	4685.75
592.87633	4774.45
596.888	4881.75
600.89682	5143.75
604.9028	5982.55
608.90594	8224.55
612.90624	11188.55
616.90371	11068.75
620.89834	7570.65
624.89015	5642.75
628.87913	5223.05
632.86528	5258.65
636.84862	5368.55
640.82913	5213.25
644.80683	4878.65
648.78172	4624.65
652.75379	4614.25
656.72306	4845.85
660.68952	5141.55
664.65319	5090.85
668.61405	4788.75
672.57211	4653.25
676.52738	4759.95
680.47986	4956.95
684.42955	5164.85
688.37646	5270.55
692.32058	5216.35
696.26192	5032.75
700.20048	4911.55
704.13626	4837.85
708.06928	4787.65
711.99952	4737.75
715.927	4696.65
719.85171	4693.75
723.77365	4718.25
727.69284	4669.55
731.60928	4599.95
735.52295	4584.55
739.43388	4590.65
743.34206	4588.85
747.24749	4590.85
751.15017	4584.75
755.05012	4657.85
758.94733	4946.85
762.8418	5718.55
766.73354	7005.75
770.62254	8183.55
774.50882	8574.55
778.39237	8081.35
782.27321	7032.65
786.15132	5875.15
790.02671	5141.55
793.89938	4815.95
797.76935	4684.45
801.6366	4644.15
805.50115	4628.35
809.36299	4644.35
813.22213	4636.55
817.07857	4622.95
820.93231	4604.95
824.78336	4611.65
828.63172	4614.55
832.47738	4609.65
836.32036	4589.25
840.16066	4552.35
843.99827	4550.65
847.8332	4546.35
851.66546	4545.45
855.49504	4515.35
859.32195	4507.35
863.1462	4500.45
866.96777	4496.15
870.78668	4528.25
874.60293	4559.65
878.41652	4602.95
882.22745	4678.75
886.03573	4748.25
889.84136	4804.75
893.64433	4845.35
897.44466	4886.25
901.24235	4957.05
905.0374	4988.75
908.8298	5030.05
912.61957	5092.05
916.40671	5203.05
920.19121	5358.95
923.97308	5500.05
927.75233	5682.25
931.52895	5800.55
935.30295	5683.65
939.07433	5407.55
942.84309	5108.95
946.60924	4894.65
950.37278	4767.65
954.13371	4644.05
957.89203	4553.95
961.64774	4459.55
965.40086	4384.55
969.15137	4313.35
972.89929	4257.65
976.64461	4197.05
980.38733	4182.35
984.12747	4135.65
987.86502	4128.65
991.59999	4121.65
995.33237	4134.35
999.06217	4154.95
1002.78939	4220.75
1006.51404	4307.65
1010.23611	4408.35
1013.95561	4422.65
1017.67255	4388.45
1021.38692	4352.05
1025.09872	4311.25
1028.80796	4256.65
1032.51465	4220.85
1036.21877	4234.85
1039.92035	4265.25
1043.61937	4311.55
1047.31584	4326.05
1051.00976	4347.15
1054.70114	4339.85
1058.38998	4313.55
1062.07627	4306.75
1065.76003	4303.95
1069.44126	4281.75
1073.11995	4255.45
1076.79611	4316.55
1080.46974	4408.95
1084.14085	4595.55
1087.80943	4800.35
1091.47549	4809.65
1095.13903	4663.35
1098.80005	4428.45
1102.45857	4256.95
1106.11456	4222.15
1109.76805	4239.95
1113.41903	4387.95
1117.06751	4600.05
1120.71348	4896.25
1124.35696	5279.55
1127.99793	5667.45
1131.63641	5740.45
1135.2724	5336.05
1138.90589	4908.15
1142.5369	4670.05
1146.16542	4482.45
1149.79145	4355.15
1153.415	4260.15
1157.03607	4251.65
1160.65467	4305.35
1164.27079	4435.45
1167.88443	4644.85
1171.49561	5052.85
1175.10432	5748.95
1178.71056	6794.05
1182.31434	7658.45
1185.91565	7797.75
1189.51451	7360.65
1193.11091	6706.45
1196.70485	6085.75
1200.29634	5671.05
1203.88538	5389.15
1207.47197	4989.35
1211.05612	4591.35
1214.63782	4372.15
1218.21708	4236.35
1221.79391	4195.65
1225.36829	4210.35
1228.94024	4216.05
1232.50976	4221.65
1236.07685	4223.55
1239.6415	4236.65
1243.20374	4257.85
1246.76355	4317.65
1250.32093	4370.35
1253.8759	4465.25
1257.42845	4616.75
1260.97859	4804.95
1264.52631	5061.35
1268.07163	5266.75
1271.61453	5447.65
1275.15503	5515.55
1278.69312	5467.25
1282.22882	5457.15
1285.76211	5612.15
1289.29301	5948.65
1292.82151	6271.85
1296.34761	6523.85
1299.87133	6929.85
1303.39266	7647.45
1306.9116	8890.15
1310.42815	10432.65
1313.94233	11383.45
1317.45412	10852.95
1320.96354	9461.95
1324.47058	8047.65
1327.97525	6918.55
1331.47754	6239.35
1334.97747	5930.95
1338.47502	5927.15
1341.97022	6190.95
1345.46305	6809.05
1348.95352	7832.85
1352.44163	9003.85
1355.92738	10399.15
1359.41078	12507.65
1362.89183	15103.75
1366.37053	15541.35
1369.84688	12729.35
1373.32088	9581.95
1376.79254	7771.15
1380.26186	6994.25
1383.72883	6533.35
1387.19347	6174.25
1390.65578	5838.45
1394.11575	5612.95
1397.57339	5478.45
1401.0287	5345.45
1404.48168	5227.65
1407.93234	5098.55
1411.38068	5018.55
1414.82669	5016.65
1418.27039	5056.95
1421.71177	5112.45
1425.15083	5045.15
1428.58758	4937.35
1432.02203	4932.35
1435.45416	4992.45
1438.88399	5002.15
1442.31151	4887.85
1445.73673	4849.45
1449.15965	4817.85
1452.58027	4769.55
1455.9986	4706.15
1459.41463	4658.45
1462.82837	4656.95
1466.23982	4721.75
1469.64898	4828.15
1473.05586	4918.45
1476.46045	4958.75
1479.86276	5007.05
1483.26279	5127.75
1486.66054	5305.05
1490.05602	5584.25
1493.44922	6021.15
1496.84016	6736.65
1500.22882	7894.75
1503.61521	9612.75
1506.99934	11741.15
1510.38121	13856.15
1513.76081	14910.05
1517.13816	13962.15
1520.51324	11582.75
1523.88607	9164.45
1527.25665	7493.25
1530.62498	6488.95
1533.99105	5908.75
1537.35488	5550.85
1540.71647	5280.25
1544.07581	5172.55
1547.4329	5128.05
1550.78776	5183.95
1554.14038	5267.55
1557.49077	5395.25
1560.83892	5584.65
1564.18484	5924.35
1567.52853	6333.55
1570.86999	6747.75
1574.20922	6986.05
1577.54624	6978.35
1580.88103	6490.35
1584.2136	5710.15
1587.54395	5092.35
1590.87208	4829.35
1594.19801	4901.15
1597.52172	5188.15
1600.84321	5319.45
1604.16251	5120.15
1607.47959	4850.35
1610.79447	4648.15
1614.10715	4440.25
1617.41763	4248.75
1620.7259	4124.75
1624.03199	4076.65
1627.33587	4110.35
1630.63757	4202.15
1633.93707	4367.75
1637.23439	4671.45
1640.52951	5209.05
1643.82246	6167.75
1647.11321	7515.05
1650.40179	8835.15
1653.68819	9048.55
1656.97241	7900.65
1660.25446	6241.65
1663.53433	5035.95
1666.81203	4289.25
1670.08756	3885.05
1673.36092	3653.65
1676.63211	3518.15
1679.90115	3410.85
1683.16801	3361.55
1686.43272	3305.65
1689.69527	3281.45
1692.95567	3258.15
1696.2139	3218.15
1699.46999	3198.35
1702.72392	3163.85
1705.97571	3131.25
1709.22535	3110.35
1712.47284	3092.55
1715.71819	3064.05
1718.96139	3027.55
1722.20246	2994.15
1725.44139	2954.55
1728.67818	2907.55
1731.91284	2873.85
1735.14537	2840.95
1738.37576	2818.35
1741.60403	2772.65
1744.83017	2757.55
1748.05418	2757.75
1751.27607	2735.15
1754.49584	2733.55
1757.71349	2713.15
1760.92903	2693.45
1764.14244	2690.25
1767.35375	2682.05
1770.56294	2656.35
1773.77002	2633.55
1776.97499	2630.85
1780.17785	2627.55
1783.37861	2612.85
1786.57727	2596.95
1789.77382	2581.95
1792.96828	2575.75
1796.16064	2571.65
1799.3509	2556.75
1802.53907	2552.95
1805.72514	2537.65
1808.90913	2514.85
1812.09102	2508.55
1815.27083	2479.25
1818.44856	2480.45
1821.6242	2459.85
1824.79776	2458.65
1827.96924	2442.75
1831.13864	2438.35
1834.30597	2428.15
1837.47122	2414.75
1840.6344	2402.55
1843.7955	2387.75
1846.95454	2379.95
1850.11151	2379.55
1853.26642	2372.45
1856.41926	2360.35
1859.57004	2349.75
1862.71876	2351.25
1865.86542	2351.55
1869.01003	2360.95
1872.15258	2345.55
1875.29308	2344.55
1878.43152	2337.45
1881.56792	2340.75
1884.70227	2333.75
1887.83457	2322.35
1890.96482	2311.95
1894.09304	2301.55
1897.21921	2304.25
1900.34335	2310.15
1903.46544	2295.65
1906.58551	2297.05
1909.70353	2291.85
1912.81953	2288.55
1915.93349	2283.65
1919.04543	2280.15
1922.15534	2283.15
1925.26322	2261.85
1928.36908	2257.55
1931.47292	2256.65
1934.57473	2236.15
1937.67453	2232.55
1940.77232	2209.25
1943.86808	2209.35
1946.96184	2196.35
1950.05358	2190.95
1953.14331	2194.65
1956.23103	2181.85
1959.31675	2173.85
1962.40046	2171.75
1965.48217	2155.65
1968.56188	2165.65
1971.63959	2147.15
1974.7153	2155.25
1977.78901	2148.95
1980.86073	2152.95
1983.93046	2133.15
1986.99819	2117.95
1990.06394	2107.45
1993.1277	2103.15
1996.18947	2081.55
1999.24925	2088.15
2002.30706	2075.65
2005.36288	2061.85
2008.41672	2053.25
2011.46859	2052.15
2014.51848	2042.15
2017.56639	2040.35
2020.61233	2032.25
2023.6563	2013.85
2026.6983	2007.15
2029.73833	2007.55
2032.7764	1992.55
2035.8125	1994.05
2038.84664	1987.15
2041.87881	1985.25
2044.90903	1984.85
2047.93729	1990.35
2050.96359	1986.35
2053.98794	1984.55
2057.01034	1984.05
2060.03078	1980.45
2063.04927	1994.25
2066.06582	1992.85
2069.08042	1981.15
2072.09307	1970.45
2075.10378	1988.85
2078.11255	1995.95
2081.11938	2007.95
2084.12426	2006.45
2087.12722	2017.05
2090.12824	2025.35
2093.12732	2019.75
2096.12447	2032.15
2099.11969	2022.55
2102.11299	2024.35
2105.10435	2030.25
2108.09379	2033.05
2111.08131	2031.95
2114.0669	2022.95
2117.05057	2037.35
2120.03233	2033.95
2123.01216	2030.85
2125.99008	2026.25
2128.96609	2019.75
2131.94018	2015.55
2134.91236	1998.55
2137.88263	2006.75
2140.851	1979.05
2143.81746	1977.55
2146.78201	1953.25
2149.74466	1945.75
2152.7054	1939.35
2155.66425	1918.25
2158.6212	1910.75
2161.57625	1902.75
2164.52941	1889.25
2167.48067	1878.45
2170.43004	1889.75
2173.37752	1880.35
2176.32311	1875.65
2179.26681	1876.75
2182.20863	1878.05
2185.14856	1867.85
2188.08661	1872.75
2191.02278	1865.15
2193.95707	1850.35
2196.88948	1849.35
2199.82001	1861.15
2202.74867	1841.65
2205.67545	1848.75
2208.60037	1833.05
2211.52341	1826.55
2214.44458	1819.85
2217.36388	1816.95
2220.28132	1812.65
2223.1969	1814.35
2226.11061	1807.35
2229.02246	1800.75
2231.93245	1789.45
2234.84058	1781.75
2237.74686	1783.35
2240.65128	1785.35
2243.55385	1780.15
2246.45456	1775.65
2249.35343	1759.15
2252.25044	1772.55
2255.14561	1769.15
2258.03893	1783.15
2260.93041	1784.85
2263.82004	1770.85
2266.70783	1764.85
2269.59378	1745.65
2272.4779	1759.05
2275.36017	1752.55
2278.24061	1748.25
2281.11922	1740.15
2283.996	1747.25
2286.87094	1723.45
2289.74405	1723.15
2292.61534	1710.15
2295.4848	1710.65
2298.35243	1691.55
2301.21824	1701.95
2304.08223	1692.25
2306.94439	1692.95
2309.80474	1687.85
2312.66327	1686.75
2315.51999	1692.05
2318.37489	1679.95
2321.22797	1673.55
2324.07925	1674.95
2326.92871	1661.85
2329.77637	1673.05
2332.62222	1663.55
2335.46626	1657.05
2338.3085	1652.45
2341.14893	1654.15
2343.98756	1655.65
2346.8244	1648.75
2349.65943	1652.85
2352.49267	1655.65
2355.32411	1654.45
2358.15376	1663.55
2360.98161	1669.95
2363.80768	1670.15
2366.63195	1677.85
2369.45444	1679.65
2372.27514	1681.95
2375.09405	1680.55
2377.91118	1678.55
2380.72652	1665.05
2383.54009	1661.85
2386.35187	1639.55
2389.16188	1636.95
2391.97011	1624.65
2394.77657	1612.15
2397.58125	1607.45
2400.38416	1599.95
2403.18529	1589.85
2405.98466	1585.75
2408.78226	1584.35
2411.57809	1568.25
2414.37216	1576.95
2417.16446	1570.75
2419.955	1569.15
2422.74378	1574.75
2425.5308	1568.55
2428.31606	1567.45
2431.09956	1561.45
2433.88131	1558.45
2436.6613	1570.15
2439.43954	1557.25
2442.21603	1562.85
2444.99077	1565.25
2447.76377	1555.35
2450.53501	1566.85
2453.30451	1567.55
2456.07226	1560.65
2458.83827	1561.45
2461.60254	1554.35
2464.36507	1554.25
2467.12586	1550.05
2469.88492	1550.25
2472.64224	1540.15
2475.39782	1553.55
2478.15167	1549.45
2480.90379	1548.15
2483.65417	1565.75
2486.40283	1568.35
2489.14976	1565.95
2491.89497	1570.05
2494.63845	1560.05
2497.3802	1559.85
2500.12024	1561.65
2502.85855	1553.05
2505.59514	1544.55
2508.33002	1532.35
2511.06318	1519.65
2513.79462	1516.85
2516.52435	1498.05
2519.25237	1495.05
2521.97867	1489.55
2524.70327	1478.15
2527.42616	1464.35
2530.14734	1460.55
2532.86681	1455.85
2535.58458	1450.55
2538.30065	1458.35
2541.01501	1447.55
2543.72768	1459.45
2546.43864	1447.15
2549.14791	1452.25
2551.85548	1450.95
2554.56136	1451.05
2557.26554	1448.55
2559.96803	1444.65
2562.66883	1439.75
2565.36794	1430.15
2568.06536	1438.85
2570.7611	1426.25
2573.45514	1427.95
2576.14751	1430.15
2578.83819	1418.85
2581.52719	1416.45
2584.21451	1405.75
2586.90015	1412.25
2589.58411	1405.15
2592.2664	1403.35
2594.94701	1395.35
2597.62594	1402.05
2600.30321	1387.35
2602.9788	1390.65
2605.65273	1390.25
2608.32498	1385.15
2610.99557	1386.45
2613.66449	1393.85
2616.33175	1386.05
2618.99734	1383.75
2621.66128	1378.95
2624.32355	1375.75
2626.98416	1375.25
2629.64311	1369.95
2632.30041	1365.35
2634.95605	1362.85
2637.61004	1361.45
2640.26238	1350.05
2642.91306	1350.65
2645.56209	1343.15
2648.20948	1360.75
2650.85521	1339.85
2653.4993	1354.15
2656.14175	1343.25
2658.78255	1355.05
2661.42171	1347.95
2664.05923	1347.55
2666.6951	1356.75
2669.32934	1356.35
2671.96194	1354.75
2674.59291	1361.95
2677.22224	1363.55
2679.84993	1363.15
2682.476	1364.15
2685.10043	1360.35
2687.72324	1361.95
2690.34441	1357.85
2692.96396	1352.25
2695.58188	1359.85
2698.19818	1349.85
2700.81285	1350.85
2703.4259	1350.75
2706.03733	1354.45
2708.64714	1341.55
2711.25533	1347.45
2713.86191	1354.55
2716.46687	1355.25
2719.07021	1352.15
2721.67194	1359.55
2724.27206	1354.75
2726.87057	1365.85
2729.46747	1352.25
2732.06276	1360.65
2734.65644	1354.05
2737.24852	1342.55
2739.83899	1333.95
2742.42786	1337.05
2745.01513	1333.75
2747.60079	1336.35
2750.18486	1331.35
2752.76733	1314.15
2755.3482	1314.55
2757.92747	1312.95
2760.50515	1316.05
2763.08123	1308.45
2765.65573	1313.85
2768.22863	1300.65
2770.79994	1295.95
2773.36967	1294.45
2775.9378	1295.75
2778.50435	1288.85
2781.06932	1297.35
2783.6327	1292.35
2786.1945	1288.75
2788.75471	1288.85
2791.31335	1278.35
2793.87041	1277.95
2796.42589	1284.25
2798.97979	1285.15
2801.53212	1273.95
2804.08288	1274.85
2806.63206	1273.85
2809.17967	1273.05
2811.72571	1269.15
2814.27018	1274.25
2816.81308	1269.55
2819.35442	1274.55
2821.89419	1273.95
2824.43239	1271.45
2826.96904	1275.55
2829.50412	1274.55
2832.03763	1272.25
2834.56959	1282.55
2837.1	1277.95
2839.62884	1274.25
2842.15613	1274.15
2844.68186	1297.65
2847.20604	1300.95
2849.72867	1307.55
2852.24974	1319.35
2854.76927	1317.25
2857.28724	1320.25
2859.80367	1323.25
2862.31855	1328.95
2864.83189	1315.95
2867.34368	1333.25
2869.85393	1337.25
2872.36264	1339.25
2874.8698	1336.85
2877.37543	1340.85
2879.87952	1346.15
2882.38207	1331.65
2884.88308	1339.15
2887.38256	1340.85
2889.88051	1338.55
2892.37692	1332.85
2894.8718	1335.45
2897.36515	1339.85
2899.85698	1353.85
2902.34727	1361.55
2904.83604	1369.25
2907.32328	1383.35
2909.809	1387.75
2912.29319	1406.35
2914.77587	1410.05
2917.25702	1414.15
2919.73665	1428.05
2922.21476	1425.45
2924.69136	1430.45
2927.16644	1422.85
2929.64	1422.35
2932.11205	1420.25
2934.58258	1418.45
2937.05161	1396.85
2939.51912	1412.65
2941.98513	1393.65
2944.44962	1386.15
2946.91261	1371.35
2949.37409	1369.45
2951.83407	1350.15
2954.29254	1337.55
2956.74951	1329.15
2959.20498	1310.05
2961.65895	1313.05
2964.11142	1311.75
2966.56239	1289.55
2969.01186	1257.15
2971.45984	1274.15
2973.90632	1286.95
2976.35131	1278.55
2978.7948	1272.05
2981.23681	1265.75
2983.67732	1261.25
2986.11635	1256.15
2988.55388	1247.45
2990.98993	1246.35
2993.4245	1241.55
2995.85758	1236.55
2998.28917	1244.05
3000.71928	1232.25
3003.14791	1235.95
3005.57506	1237.45
3008.00073	1233.05
3010.42493	1236.35
3012.84764	1230.85
3015.26888	1234.75
3017.68865	1237.35
3020.10694	1233.45
3022.52376	1236.45
3024.9391	1227.85
3027.35298	1229.95
3029.76539	1230.75
3032.17632	1227.95
3034.5858	1225.35
3036.9938	1220.25
3039.40034	1217.75
3041.80542	1217.85
3044.20903	1213.35
3046.61118	1214.15
3049.01187	1210.85
3051.4111	1209.35
3053.80888	1219.95
3056.20519	1213.05
3058.60005	1219.05
3060.99345	1217.05
3063.3854	1214.85
3065.7759	1215.15
3068.16494	1213.25
3070.55254	1213.25
3072.93868	1215.55
3075.32338	1210.85
3077.70662	1211.15
3080.08842	1210.95
3082.46878	1208.75
3084.84769	1211.05
3087.22515	1214.95
3089.60118	1226.35
3091.97576	1230.95
3094.3489	1224.15
3096.72061	1231.95
3099.09087	1235.95
3101.4597	1236.75
3103.82709	1243.55
3106.19305	1251.15
3108.55757	1253.65
3110.92066	1250.05
3113.28232	1263.55
3115.64255	1261.85
3118.00134	1259.95
3120.35871	1259.65
3122.71466	1264.85
3125.06917	1270.05
3127.42226	1277.95
3129.77393	1275.95
3132.12417	1283.55
3134.47299	1287.75
3136.82039	1304.45
3139.16636	1299.15
3141.51092	1291.95
3143.85406	1305.45
3146.19579	1319.05
3148.53609	1328.05
3150.87499	1331.75
3153.21246	1343.45
3155.54853	1339.75
3157.88318	1339.15
3160.21642	1357.35
3162.54826	1360.75
3164.87868	1370.95
3167.2077	1383.05
3169.5353	1386.45
3171.86151	1385.05
3174.18631	1391.75
3176.5097	1391.55
3178.83169	1391.15
3181.15228	1397.05
3183.47147	1397.05
3185.78926	1398.65
3188.10565	1400.15
3190.42065	1409.95
3192.73424	1421.35
3195.04645	1420.15
3197.35725	1424.55
3199.66667	1427.25
3201.97469	1421.35
3204.28132	1435.15
3206.58656	1447.35
3208.8904	1446.55
3211.19287	1449.05
3213.49394	1456.85
3215.79363	1460.35
3218.09193	1464.85
3220.38884	1475.75
3222.68438	1469.35
3224.97853	1485.15
3227.2713	1479.45
3229.56269	1479.65
3231.8527	1486.65
3234.14133	1489.65
3236.42858	1483.25
3238.71446	1477.15
3240.99896	1475.65
3243.28209	1472.55
3245.56384	1468.35
3247.84423	1479.15
3250.12324	1478.85
3252.40088	1477.05
3254.67715	1486.05
3256.95205	1465.95
3259.22558	1480.55
3261.49775	1482.05
3263.76855	1471.45
3266.03799	1474.75
3268.30606	1469.45
3270.57277	1479.05
3272.83812	1478.25
3275.10211	1472.65
3277.36474	1472.35
3279.62601	1469.95
3281.88593	1473.35
3284.14448	1467.45
3286.40168	1471.25
3288.65753	1465.35
3290.91202	1482.75
3293.16516	1476.35
3295.41695	1475.65
3297.66738	1479.15
3299.91647	1468.85
3302.16421	1453.65
3304.4106	1462.05
3306.65564	1448.05
3308.89933	1441.15
3311.14169	1434.85
3313.38269	1424.25
3315.62236	1419.25
3317.86068	1405.75
3320.09766	1390.95
3322.3333	1389.75
3324.5676	1392.55
3326.80056	1373.15
3329.03219	1363.35
3331.26248	-0.25
3333.49143	-0.15
3335.71905	-1.05
