Data from AgNPs_APTES_FTO_UA_50uM_CRN_0uM_R6G_10uM_Scan_RamanShift__70__12-32-43-744.txt Node

Date: Tue Jul 05 12:32:43 BST 2022
User: TCL
Spectrometer: QEP01345
Trigger mode: 4
Integration Time (sec): 7.000000E0
Scans to average: 10
Electric dark correction enabled: true
Nonlinearity correction enabled: false
Boxcar width: 0
XAxis mode: Raman Shifts
Number of Pixels in Spectrum: 1044
>>>>>Begin Spectral Data<<<<<
46.04893	-0.65
50.45542	-0.15
54.85868	-1.15
59.25871	0.55
63.6555	36.35
68.04907	40.95
72.43941	40.95
76.82654	44.15
81.21044	45.35
85.59113	51.15
89.96862	51.45
94.34289	50.25
98.71396	54.65
103.08183	58.85
107.4465	56.55
111.80798	61.55
116.16626	56.45
120.52136	58.65
124.87327	62.05
129.222	63.65
133.56755	66.25
137.90993	65.55
142.24913	67.05
146.58517	74.15
150.91804	79.75
155.24774	88.55
159.57429	101.75
163.89768	126.55
168.21792	161.05
172.53501	216.45
176.84895	296.95
181.15975	411.85
185.46741	576.85
189.77193	789.55
194.07331	1056.45
198.37157	1357.15
202.6667	1663.85
206.9587	1984.35
211.24758	2284.75
215.53334	2592.75
219.81599	2894.45
224.09553	3217.25
228.37195	3589.45
232.64527	4011.45
236.91549	4444.05
241.18261	4918.65
245.44663	5394.35
249.70755	5870.15
253.96539	6268.95
258.22014	6606.05
262.4718	6867.55
266.72039	7027.85
270.96589	7091.15
275.20832	7102.45
279.44768	7025.55
283.68397	6934.65
287.91719	6826.35
292.14735	6721.15
296.37445	6633.15
300.59849	6567.45
304.81948	6518.65
309.03742	6483.95
313.25231	6450.85
317.46415	6447.95
321.67296	6427.95
325.87872	6437.75
330.08145	6461.65
334.28114	6526.05
338.47781	6602.25
342.67145	6671.55
346.86207	6758.75
351.04966	6840.95
355.23424	6945.05
359.4158	7032.25
363.59435	7111.45
367.76989	7198.35
371.94243	7289.25
376.11196	7373.35
380.27849	7427.15
384.44203	7493.85
388.60257	7601.45
392.76012	7623.55
396.91468	7700.95
401.06626	7751.65
405.21485	7832.35
409.36047	7888.65
413.50311	7894.35
417.64277	7928.25
421.77947	7958.15
425.9132	7979.05
430.04396	8037.35
434.17176	8094.05
438.2966	8148.65
442.41849	8240.45
446.53742	8313.25
450.6534	8394.55
454.76644	8446.25
458.87653	8506.65
462.98368	8548.75
467.08789	8625.65
471.18916	8617.75
475.2875	8642.95
479.38291	8662.25
483.4754	8654.55
487.56496	8654.25
491.6516	8698.45
495.73531	8704.55
499.81612	8719.15
503.89401	8759.85
507.96899	8804.65
512.04106	8816.65
516.11023	8842.35
520.1765	8884.65
524.23987	8906.25
528.30034	8935.05
532.35792	8954.85
536.41261	8995.25
540.46441	8992.55
544.51333	8992.45
548.55936	9024.45
552.60252	9068.15
556.64279	9164.95
560.6802	9201.45
564.71473	9241.95
568.7464	9231.75
572.7752	9238.85
576.80114	9281.35
580.82422	9278.15
584.84444	9308.95
588.86181	9384.95
592.87633	9430.95
596.888	9471.65
600.89682	9512.75
604.9028	9609.65
608.90594	9805.95
612.90624	9984.55
616.90371	9889.75
620.89834	9638.15
624.89015	9566.85
628.87913	9571.25
632.86528	9590.65
636.84862	9628.75
640.82913	9664.95
644.80683	9633.65
648.78172	9618.45
652.75379	9649.65
656.72306	9678.45
660.68952	9756.15
664.65319	9819.35
668.61405	9815.55
672.57211	9882.65
676.52738	9948.25
680.47986	9972.75
684.42955	10008.15
688.37646	10065.15
692.32058	10136.35
696.26192	10158.55
700.20048	10193.95
704.13626	10217.25
708.06928	10246.85
711.99952	10262.85
715.927	10269.85
719.85171	10290.05
723.77365	10272.05
727.69284	10213.65
731.60928	10198.65
735.52295	10169.65
739.43388	10185.45
743.34206	10225.25
747.24749	10246.45
751.15017	10251.55
755.05012	10265.35
758.94733	10317.25
762.8418	10391.25
766.73354	10491.15
770.62254	10600.75
774.50882	10721.85
778.39237	10709.25
782.27321	10639.95
786.15132	10535.35
790.02671	10483.25
793.89938	10441.15
797.76935	10418.55
801.6366	10420.95
805.50115	10433.55
809.36299	10418.75
813.22213	10416.95
817.07857	10429.15
820.93231	10438.85
824.78336	10453.85
828.63172	10474.75
832.47738	10496.45
836.32036	10528.55
840.16066	10537.45
843.99827	10561.35
847.8332	10577.35
851.66546	10608.85
855.49504	10607.45
859.32195	10636.85
863.1462	10640.25
866.96777	10667.05
870.78668	10674.45
874.60293	10717.05
878.41652	10764.95
882.22745	10742.65
886.03573	10783.35
889.84136	10785.25
893.64433	10809.65
897.44466	10828.15
901.24235	10857.75
905.0374	10865.25
908.8298	10924.55
912.61957	10928.75
916.40671	10947.75
920.19121	10924.95
923.97308	10932.85
927.75233	10904.05
931.52895	10894.05
935.30295	10898.35
939.07433	10876.75
942.84309	10842.95
946.60924	10814.25
950.37278	10786.45
954.13371	10796.25
957.89203	10803.75
961.64774	10794.85
965.40086	10758.25
969.15137	10770.75
972.89929	10734.35
976.64461	10745.55
980.38733	10755.05
984.12747	10777.85
987.86502	10763.05
991.59999	10792.95
995.33237	10802.05
999.06217	10826.25
1002.78939	10888.55
1006.51404	10916.45
1010.23611	10972.85
1013.95561	11009.65
1017.67255	11023.25
1021.38692	11022.65
1025.09872	10996.05
1028.80796	10958.95
1032.51465	10945.65
1036.21877	10943.55
1039.92035	10966.75
1043.61937	10982.95
1047.31584	10999.95
1051.00976	11021.55
1054.70114	11051.25
1058.38998	11051.05
1062.07627	11079.75
1065.76003	11114.45
1069.44126	11108.95
1073.11995	11169.15
1076.79611	11210.15
1080.46974	11256.75
1084.14085	11263.95
1087.80943	11226.65
1091.47549	11262.65
1095.13903	11248.25
1098.80005	11270.05
1102.45857	11233.85
1106.11456	11250.45
1109.76805	11200.55
1113.41903	11162.45
1117.06751	11150.95
1120.71348	11151.25
1124.35696	11165.25
1127.99793	11161.55
1131.63641	11175.85
1135.2724	11181.95
1138.90589	11172.25
1142.5369	11179.95
1146.16542	11135.75
1149.79145	11128.35
1153.415	11078.05
1157.03607	11074.15
1160.65467	11063.65
1164.27079	11105.95
1167.88443	11137.15
1171.49561	11196.15
1175.10432	11302.55
1178.71056	11393.65
1182.31434	11487.95
1185.91565	11615.35
1189.51451	11694.95
1193.11091	11752.35
1196.70485	11737.65
1200.29634	11702.35
1203.88538	11693.35
1207.47197	11584.45
1211.05612	11538.15
1214.63782	11493.75
1218.21708	11452.05
1221.79391	11392.95
1225.36829	11339.55
1228.94024	11346.65
1232.50976	11325.45
1236.07685	11321.15
1239.6415	11317.05
1243.20374	11322.75
1246.76355	11364.15
1250.32093	11370.45
1253.8759	11434.05
1257.42845	11511.75
1260.97859	11556.35
1264.52631	11595.55
1268.07163	11603.75
1271.61453	11690.35
1275.15503	11668.85
1278.69312	11696.95
1282.22882	11700.85
1285.76211	11681.25
1289.29301	11705.75
1292.82151	11722.35
1296.34761	11774.95
1299.87133	11870.25
1303.39266	11952.95
1306.9116	12034.15
1310.42815	12174.45
1313.94233	12232.85
1317.45412	12253.55
1320.96354	12268.25
1324.47058	12213.35
1327.97525	12109.25
1331.47754	12035.65
1334.97747	11999.75
1338.47502	12026.15
1341.97022	12125.75
1345.46305	12254.15
1348.95352	12408.75
1352.44163	12435.65
1355.92738	12434.35
1359.41078	12390.25
1362.89183	12319.15
1366.37053	12188.75
1369.84688	11973.55
1373.32088	11757.75
1376.79254	11606.55
1380.26186	11481.75
1383.72883	11385.85
1387.19347	11317.75
1390.65578	11207.55
1394.11575	11162.95
1397.57339	11085.25
1401.0287	11071.25
1404.48168	11045.25
1407.93234	11031.85
1411.38068	11035.25
1414.82669	10985.55
1418.27039	10951.75
1421.71177	10896.15
1425.15083	10871.85
1428.58758	10826.35
1432.02203	10825.55
1435.45416	10812.85
1438.88399	10788.55
1442.31151	10811.75
1445.73673	10815.45
1449.15965	10819.15
1452.58027	10805.65
1455.9986	10801.05
1459.41463	10816.35
1462.82837	10864.65
1466.23982	10909.05
1469.64898	10988.75
1473.05586	11009.95
1476.46045	11022.95
1479.86276	11055.25
1483.26279	11086.55
1486.66054	11109.85
1490.05602	11114.85
1493.44922	11139.05
1496.84016	11243.55
1500.22882	11313.95
1503.61521	11454.55
1506.99934	11508.05
1510.38121	11572.75
1513.76081	11531.95
1517.13816	11490.45
1520.51324	11367.55
1523.88607	11357.45
1527.25665	11290.05
1530.62498	11264.85
1533.99105	11281.25
1537.35488	11293.05
1540.71647	11261.65
1544.07581	11266.75
1547.4329	11286.25
1550.78776	11267.55
1554.14038	11254.55
1557.49077	11246.05
1560.83892	11244.95
1564.18484	11274.85
1567.52853	11269.25
1570.86999	11272.75
1574.20922	11299.25
1577.54624	11281.45
1580.88103	11251.55
1584.2136	11215.35
1587.54395	11195.25
1590.87208	11207.05
1594.19801	11281.05
1597.52172	11414.05
1600.84321	11438.45
1604.16251	11457.55
1607.47959	11399.95
1610.79447	11261.55
1614.10715	11095.95
1617.41763	10942.45
1620.7259	10825.35
1624.03199	10763.65
1627.33587	10727.95
1630.63757	10707.65
1633.93707	10739.95
1637.23439	10805.55
1640.52951	10910.35
1643.82246	11085.55
1647.11321	11215.35
1650.40179	11234.15
1653.68819	11143.15
1656.97241	10930.95
1660.25446	10710.65
1663.53433	10571.45
1666.81203	10440.05
1670.08756	10378.75
1673.36092	10304.85
1676.63211	10270.35
1679.90115	10216.75
1683.16801	10167.95
1686.43272	10177.85
1689.69527	10167.85
1692.95567	10151.35
1696.2139	10116.25
1699.46999	10085.15
1702.72392	10079.45
1705.97571	10075.85
1709.22535	10124.45
1712.47284	10102.15
1715.71819	10121.25
1718.96139	10122.15
1722.20246	10088.55
1725.44139	10066.35
1728.67818	10067.95
1731.91284	10015.15
1735.14537	9989.35
1738.37576	9933.75
1741.60403	9945.55
1744.83017	9913.75
1748.05418	9913.75
1751.27607	9885.15
1754.49584	9869.85
1757.71349	9819.85
1760.92903	9820.35
1764.14244	9780.25
1767.35375	9805.35
1770.56294	9780.35
1773.77002	9762.15
1776.97499	9768.85
1780.17785	9788.95
1783.37861	9796.25
1786.57727	9778.25
1789.77382	9759.45
1792.96828	9738.25
1796.16064	9737.65
1799.3509	9704.55
1802.53907	9688.95
1805.72514	9649.95
1808.90913	9655.15
1812.09102	9665.45
1815.27083	9632.55
1818.44856	9629.55
1821.6242	9625.55
1824.79776	9587.85
1827.96924	9599.15
1831.13864	9578.95
1834.30597	9551.95
1837.47122	9559.35
1840.6344	9538.85
1843.7955	9528.05
1846.95454	9491.75
1850.11151	9509.75
1853.26642	9521.05
1856.41926	9502.45
1859.57004	9521.35
1862.71876	9494.25
1865.86542	9481.65
1869.01003	9480.45
1872.15258	9487.45
1875.29308	9449.25
1878.43152	9442.95
1881.56792	9427.35
1884.70227	9423.35
1887.83457	9374.35
1890.96482	9405.15
1894.09304	9356.85
1897.21921	9371.15
1900.34335	9348.95
1903.46544	9327.55
1906.58551	9309.15
1909.70353	9310.65
1912.81953	9288.05
1915.93349	9309.85
1919.04543	9297.45
1922.15534	9259.35
1925.26322	9228.15
1928.36908	9229.35
1931.47292	9228.15
1934.57473	9198.35
1937.67453	9179.85
1940.77232	9161.15
1943.86808	9121.15
1946.96184	9114.15
1950.05358	9073.75
1953.14331	9064.25
1956.23103	9023.25
1959.31675	9018.85
1962.40046	8966.05
1965.48217	8955.45
1968.56188	8901.95
1971.63959	8886.35
1974.7153	8853.75
1977.78901	8835.05
1980.86073	8806.75
1983.93046	8782.15
1986.99819	8745.35
1990.06394	8717.25
1993.1277	8712.65
1996.18947	8680.75
1999.24925	8630.25
2002.30706	8609.15
2005.36288	8589.75
2008.41672	8584.95
2011.46859	8554.45
2014.51848	8527.75
2017.56639	8511.05
2020.61233	8501.05
2023.6563	8457.65
2026.6983	8416.95
2029.73833	8391.95
2032.7764	8371.55
2035.8125	8346.35
2038.84664	8330.45
2041.87881	8327.35
2044.90903	8303.85
2047.93729	8295.65
2050.96359	8284.65
2053.98794	8248.95
2057.01034	8269.95
2060.03078	8232.35
2063.04927	8275.15
2066.06582	8249.35
2069.08042	8218.75
2072.09307	8205.15
2075.10378	8188.05
2078.11255	8206.45
2081.11938	8218.05
2084.12426	8205.45
2087.12722	8188.25
2090.12824	8174.45
2093.12732	8172.65
2096.12447	8175.85
2099.11969	8183.25
2102.11299	8165.95
2105.10435	8186.45
2108.09379	8176.15
2111.08131	8187.95
2114.0669	8190.05
2117.05057	8202.75
2120.03233	8226.35
2123.01216	8230.15
2125.99008	8208.15
2128.96609	8212.05
2131.94018	8208.75
2134.91236	8238.55
2137.88263	8247.25
2140.851	8237.45
2143.81746	8247.85
2146.78201	8234.95
2149.74466	8227.35
2152.7054	8261.85
2155.66425	8226.15
2158.6212	8211.85
2161.57625	8222.45
2164.52941	8185.95
2167.48067	8210.25
2170.43004	8224.35
2173.37752	8211.85
2176.32311	8212.65
2179.26681	8200.95
2182.20863	8185.15
2185.14856	8194.65
2188.08661	8189.55
2191.02278	8169.55
2193.95707	8161.35
2196.88948	8161.15
2199.82001	8185.35
2202.74867	8144.55
2205.67545	8141.25
2208.60037	8128.15
2211.52341	8097.95
2214.44458	8067.45
2217.36388	8055.05
2220.28132	8034.35
2223.1969	8047.25
2226.11061	8013.45
2229.02246	8013.25
2231.93245	7977.35
2234.84058	7959.65
2237.74686	7988.65
2240.65128	7962.65
2243.55385	7940.95
2246.45456	7916.15
2249.35343	7879.65
2252.25044	7904.85
2255.14561	7879.05
2258.03893	7871.75
2260.93041	7860.85
2263.82004	7831.65
2266.70783	7807.45
2269.59378	7790.05
2272.4779	7768.55
2275.36017	7752.25
2278.24061	7718.25
2281.11922	7708.15
2283.996	7727.45
2286.87094	7672.45
2289.74405	7666.95
2292.61534	7637.55
2295.4848	7611.55
2298.35243	7633.05
2301.21824	7633.95
2304.08223	7614.55
2306.94439	7610.95
2309.80474	7616.95
2312.66327	7615.75
2315.51999	7593.95
2318.37489	7572.25
2321.22797	7580.65
2324.07925	7562.05
2326.92871	7515.45
2329.77637	7525.15
2332.62222	7503.35
2335.46626	7469.95
2338.3085	7477.55
2341.14893	7447.95
2343.98756	7436.75
2346.8244	7410.35
2349.65943	7409.25
2352.49267	7401.45
2355.32411	7402.65
2358.15376	7422.45
2360.98161	7382.35
2363.80768	7387.45
2366.63195	7390.65
2369.45444	7375.15
2372.27514	7371.65
2375.09405	7341.05
2377.91118	7351.05
2380.72652	7329.85
2383.54009	7314.85
2386.35187	7304.65
2389.16188	7268.65
2391.97011	7245.65
2394.77657	7228.45
2397.58125	7219.75
2400.38416	7189.45
2403.18529	7174.25
2405.98466	7163.15
2408.78226	7169.05
2411.57809	7154.65
2414.37216	7133.25
2417.16446	7139.05
2419.955	7137.75
2422.74378	7123.85
2425.5308	7122.95
2428.31606	7110.15
2431.09956	7120.85
2433.88131	7090.45
2436.6613	7071.85
2439.43954	7075.55
2442.21603	7051.25
2444.99077	7043.45
2447.76377	7038.15
2450.53501	7013.75
2453.30451	7016.65
2456.07226	6971.15
2458.83827	6981.55
2461.60254	6979.45
2464.36507	6948.15
2467.12586	6961.55
2469.88492	6938.35
2472.64224	6907.75
2475.39782	6921.95
2478.15167	6911.75
2480.90379	6911.45
2483.65417	6916.85
2486.40283	6905.15
2489.14976	6899.35
2491.89497	6894.05
2494.63845	6858.15
2497.3802	6858.55
2500.12024	6843.25
2502.85855	6838.85
2505.59514	6846.15
2508.33002	6852.25
2511.06318	6813.05
2513.79462	6807.95
2516.52435	6803.75
2519.25237	6770.95
2521.97867	6806.25
2524.70327	6786.95
2527.42616	6743.05
2530.14734	6751.35
2532.86681	6719.75
2535.58458	6730.25
2538.30065	6722.35
2541.01501	6695.85
2543.72768	6677.85
2546.43864	6655.05
2549.14791	6638.35
2551.85548	6635.85
2554.56136	6613.95
2557.26554	6616.65
2559.96803	6588.15
2562.66883	6573.25
2565.36794	6549.85
2568.06536	6540.65
2570.7611	6519.45
2573.45514	6539.85
2576.14751	6529.85
2578.83819	6494.05
2581.52719	6484.55
2584.21451	6453.65
2586.90015	6450.35
2589.58411	6441.65
2592.2664	6437.65
2594.94701	6404.05
2597.62594	6381.35
2600.30321	6371.35
2602.9788	6377.45
2605.65273	6325.45
2608.32498	6329.45
2610.99557	6332.65
2613.66449	6322.95
2616.33175	6317.85
2618.99734	6310.55
2621.66128	6294.05
2624.32355	6271.35
2626.98416	6279.55
2629.64311	6241.25
2632.30041	6249.25
2634.95605	6225.95
2637.61004	6231.95
2640.26238	6212.45
2642.91306	6214.95
2645.56209	6184.55
2648.20948	6199.45
2650.85521	6195.05
2653.4993	6170.95
2656.14175	6169.25
2658.78255	6158.15
2661.42171	6144.65
2664.05923	6166.45
2666.6951	6175.65
2669.32934	6141.45
2671.96194	6124.05
2674.59291	6132.95
2677.22224	6130.65
2679.84993	6129.85
2682.476	6129.45
2685.10043	6130.75
2687.72324	6126.05
2690.34441	6133.85
2692.96396	6105.95
2695.58188	6108.25
2698.19818	6080.35
2700.81285	6093.35
2703.4259	6078.45
2706.03733	6055.75
2708.64714	6058.35
2711.25533	6063.15
2713.86191	6057.95
2716.46687	6065.45
2719.07021	6075.25
2721.67194	6076.25
2724.27206	6075.15
2726.87057	6060.85
2729.46747	6061.45
2732.06276	6077.75
2734.65644	6056.55
2737.24852	6037.65
2739.83899	6021.95
2742.42786	6028.85
2745.01513	6020.85
2747.60079	6018.45
2750.18486	5991.05
2752.76733	5996.55
2755.3482	5986.55
2757.92747	5990.35
2760.50515	5976.85
2763.08123	5960.85
2765.65573	5938.25
2768.22863	5933.15
2770.79994	5914.85
2773.36967	5905.25
2775.9378	5908.55
2778.50435	5864.05
2781.06932	5859.15
2783.6327	5854.75
2786.1945	5847.95
2788.75471	5859.85
2791.31335	5816.35
2793.87041	5830.75
2796.42589	5800.35
2798.97979	5796.25
2801.53212	5779.75
2804.08288	5728.55
2806.63206	5724.45
2809.17967	5710.95
2811.72571	5695.55
2814.27018	5686.35
2816.81308	5667.55
2819.35442	5645.75
2821.89419	5642.55
2824.43239	5631.05
2826.96904	5627.65
2829.50412	5609.45
2832.03763	5592.15
2834.56959	5599.75
2837.1	5591.85
2839.62884	5579.35
2842.15613	5565.65
2844.68186	5575.25
2847.20604	5550.55
2849.72867	5544.95
2852.24974	5540.15
2854.76927	5511.05
2857.28724	5497.35
2859.80367	5509.15
2862.31855	5505.25
2864.83189	5482.55
2867.34368	5469.85
2869.85393	5464.55
2872.36264	5454.45
2874.8698	5464.45
2877.37543	5470.05
2879.87952	5465.55
2882.38207	5457.05
2884.88308	5450.05
2887.38256	5432.85
2889.88051	5444.25
2892.37692	5436.65
2894.8718	5421.45
2897.36515	5424.25
2899.85698	5416.45
2902.34727	5422.25
2904.83604	5412.45
2907.32328	5419.05
2909.809	5413.35
2912.29319	5422.35
2914.77587	5418.85
2917.25702	5407.85
2919.73665	5395.95
2922.21476	5392.05
2924.69136	5400.55
2927.16644	5390.05
2929.64	5371.85
2932.11205	5361.15
2934.58258	5371.55
2937.05161	5376.55
2939.51912	5353.35
2941.98513	5357.45
2944.44962	5338.05
2946.91261	5341.75
2949.37409	5355.35
2951.83407	5325.85
2954.29254	5319.05
2956.74951	5312.25
2959.20498	5311.75
2961.65895	5322.95
2964.11142	5347.05
2966.56239	5321.65
2969.01186	5280.35
2971.45984	5312.35
2973.90632	5330.75
2976.35131	5307.15
2978.7948	5284.65
2981.23681	5286.25
2983.67732	5287.05
2986.11635	5255.95
2988.55388	5254.65
2990.98993	5266.85
2993.4245	5261.55
2995.85758	5242.35
2998.28917	5224.95
3000.71928	5221.15
3003.14791	5197.95
3005.57506	5186.45
3008.00073	5170.55
3010.42493	5191.85
3012.84764	5181.55
3015.26888	5157.45
3017.68865	5158.75
3020.10694	5155.05
3022.52376	5157.65
3024.9391	5143.75
3027.35298	5131.65
3029.76539	5121.95
3032.17632	5128.95
3034.5858	5118.15
3036.9938	5105.25
3039.40034	5110.05
3041.80542	5091.65
3044.20903	5083.15
3046.61118	5098.45
3049.01187	5064.25
3051.4111	5072.35
3053.80888	5055.15
3056.20519	5058.35
3058.60005	5064.25
3060.99345	5050.15
3063.3854	5022.75
3065.7759	5025.45
3068.16494	5006.95
3070.55254	4994.35
3072.93868	4986.35
3075.32338	4975.05
3077.70662	4960.75
3080.08842	4950.55
3082.46878	4963.45
3084.84769	4947.95
3087.22515	4952.05
3089.60118	4949.05
3091.97576	4971.35
3094.3489	4958.65
3096.72061	4970.45
3099.09087	4958.15
3101.4597	4969.25
3103.82709	4972.25
3106.19305	4981.55
3108.55757	4955.25
3110.92066	4961.95
3113.28232	4974.65
3115.64255	4956.55
3118.00134	4944.75
3120.35871	4922.65
3122.71466	4909.45
3125.06917	4923.85
3127.42226	4904.15
3129.77393	4927.45
3132.12417	4909.15
3134.47299	4908.75
3136.82039	4917.05
3139.16636	4918.85
3141.51092	4923.25
3143.85406	4927.65
3146.19579	4924.45
3148.53609	4925.25
3150.87499	4948.85
3153.21246	4920.15
3155.54853	4929.35
3157.88318	4941.55
3160.21642	4940.45
3162.54826	4947.95
3164.87868	4953.35
3167.2077	4972.85
3169.5353	4958.85
3171.86151	4963.35
3174.18631	4974.75
3176.5097	4957.65
3178.83169	4955.35
3181.15228	4949.55
3183.47147	4941.65
3185.78926	4930.55
3188.10565	4936.45
3190.42065	4917.55
3192.73424	4929.45
3195.04645	4948.75
3197.35725	4934.75
3199.66667	4930.15
3201.97469	4943.15
3204.28132	4929.75
3206.58656	4929.35
3208.8904	4919.75
3211.19287	4937.85
3213.49394	4950.95
3215.79363	4947.75
3218.09193	4960.15
3220.38884	4937.45
3222.68438	4954.35
3224.97853	4945.65
3227.2713	4941.15
3229.56269	4943.35
3231.8527	4931.55
3234.14133	4921.45
3236.42858	4921.95
3238.71446	4916.95
3240.99896	4890.55
3243.28209	4884.75
3245.56384	4877.55
3247.84423	4878.65
3250.12324	4887.25
3252.40088	4880.05
3254.67715	4862.05
3256.95205	4845.45
3259.22558	4849.15
3261.49775	4841.55
3263.76855	4840.85
3266.03799	4832.75
3268.30606	4844.25
3270.57277	4822.45
3272.83812	4801.65
3275.10211	4811.55
3277.36474	4786.15
3279.62601	4779.95
3281.88593	4752.35
3284.14448	4760.75
3286.40168	4772.95
3288.65753	4758.35
3290.91202	4755.05
3293.16516	4720.65
3295.41695	4747.45
3297.66738	4709.85
3299.91647	4695.45
3302.16421	4680.95
3304.4106	4664.05
3306.65564	4640.25
3308.89933	4606.65
3311.14169	4581.95
3313.38269	4539.25
3315.62236	4519.85
3317.86068	4493.15
3320.09766	4452.85
3322.3333	4437.15
3324.5676	4408.55
3326.80056	4358.95
3329.03219	4332.45
3331.26248	1.75
3333.49143	-0.75
3335.71905	-0.65
