Data from AgNPs_APTES_FTO_UA_50uM_CRN_0uM_R6G_10uM_Scan_RamanShift__10__11-22-43-660.txt Node

Date: Tue Jul 05 11:22:43 BST 2022
User: TCL
Spectrometer: QEP01345
Trigger mode: 4
Integration Time (sec): 7.000000E0
Scans to average: 10
Electric dark correction enabled: true
Nonlinearity correction enabled: false
Boxcar width: 0
XAxis mode: Raman Shifts
Number of Pixels in Spectrum: 1044
>>>>>Begin Spectral Data<<<<<
46.04893	-0.55
50.45542	1.05
54.85868	-1.65
59.25871	0.85
63.6555	39.75
68.04907	44.95
72.43941	41.85
76.82654	50.65
81.21044	50.25
85.59113	53.55
89.96862	53.45
94.34289	58.05
98.71396	57.85
103.08183	59.85
107.4465	59.95
111.80798	63.35
116.16626	62.95
120.52136	61.75
124.87327	64.25
129.222	63.95
133.56755	64.55
137.90993	68.65
142.24913	71.65
146.58517	75.85
150.91804	85.35
155.24774	89.35
159.57429	106.55
163.89768	131.75
168.21792	166.35
172.53501	213.05
176.84895	286.65
181.15975	396.55
185.46741	549.15
189.77193	756.65
194.07331	999.85
198.37157	1290.45
202.6667	1590.45
206.9587	1907.55
211.24758	2218.65
215.53334	2540.35
219.81599	2889.35
224.09553	3262.85
228.37195	3691.25
232.64527	4143.85
236.91549	4595.75
241.18261	5013.85
245.44663	5375.05
249.70755	5638.35
253.96539	5860.75
258.22014	6037.95
262.4718	6205.65
266.72039	6299.75
270.96589	6320.05
275.20832	6251.15
279.44768	6107.45
283.68397	5940.85
287.91719	5798.15
292.14735	5733.95
296.37445	5795.45
300.59849	5906.15
304.81948	6144.45
309.03742	6345.55
313.25231	6433.25
317.46415	6274.85
321.67296	5936.25
325.87872	5557.35
330.08145	5323.75
334.28114	5264.65
338.47781	5328.35
342.67145	5431.05
346.86207	5621.85
351.04966	5906.15
355.23424	6207.65
359.4158	6376.65
363.59435	6414.25
367.76989	6351.65
371.94243	6312.75
376.11196	6242.45
380.27849	6182.45
384.44203	6150.15
388.60257	6113.45
392.76012	6087.65
396.91468	6139.95
401.06626	6236.95
405.21485	6303.45
409.36047	6199.95
413.50311	6013.15
417.64277	5980.85
421.77947	5950.55
425.9132	5569.45
430.04396	5389.75
434.17176	5402.75
438.2966	5441.85
442.41849	5547.15
446.53742	5677.45
450.6534	5799.45
454.76644	5845.55
458.87653	5813.55
462.98368	5737.95
467.08789	5656.05
471.18916	5573.65
475.2875	5458.75
479.38291	5385.85
483.4754	5326.65
487.56496	5303.25
491.6516	5314.75
495.73531	5362.35
499.81612	5408.35
503.89401	5469.85
507.96899	5547.35
512.04106	5602.75
516.11023	5691.75
520.1765	5759.05
524.23987	5773.25
528.30034	5735.95
532.35792	5673.45
536.41261	5581.25
540.46441	5468.75
544.51333	5371.35
548.55936	5402.45
552.60252	5459.35
556.64279	5576.25
560.6802	5679.45
564.71473	5780.35
568.7464	5953.05
572.7752	6047.95
576.80114	5829.65
580.82422	5640.25
584.84444	5637.95
588.86181	5726.55
592.87633	5861.35
596.888	5994.75
600.89682	6099.35
604.9028	6675.25
608.90594	8451.05
612.90624	10764.05
616.90371	10556.95
620.89834	7707.25
624.89015	6181.75
628.87913	5831.15
632.86528	5898.75
636.84862	6003.15
640.82913	5880.55
644.80683	5603.75
648.78172	5397.05
652.75379	5368.75
656.72306	5521.65
660.68952	5729.15
664.65319	5683.95
668.61405	5409.25
672.57211	5316.45
676.52738	5412.95
680.47986	5558.35
684.42955	5731.05
688.37646	5775.25
692.32058	5721.75
696.26192	5590.25
700.20048	5477.05
704.13626	5455.05
708.06928	5413.05
711.99952	5372.45
715.927	5340.95
719.85171	5352.15
723.77365	5355.85
727.69284	5334.35
731.60928	5293.95
735.52295	5277.25
739.43388	5273.35
743.34206	5292.25
747.24749	5289.85
751.15017	5269.25
755.05012	5358.55
758.94733	5588.05
762.8418	6187.15
766.73354	7240.55
770.62254	8274.45
774.50882	8679.35
778.39237	8233.95
782.27321	7261.55
786.15132	6312.05
790.02671	5710.85
793.89938	5443.65
797.76935	5313.75
801.6366	5302.35
805.50115	5306.95
809.36299	5299.95
813.22213	5282.45
817.07857	5267.65
820.93231	5233.25
824.78336	5195.65
828.63172	5204.25
832.47738	5187.45
836.32036	5160.95
840.16066	5142.05
843.99827	5141.55
847.8332	5145.55
851.66546	5141.75
855.49504	5135.15
859.32195	5125.35
863.1462	5101.95
866.96777	5098.65
870.78668	5135.25
874.60293	5157.45
878.41652	5205.45
882.22745	5238.75
886.03573	5312.45
889.84136	5331.15
893.64433	5350.35
897.44466	5387.45
901.24235	5399.55
905.0374	5425.95
908.8298	5446.95
912.61957	5492.85
916.40671	5595.95
920.19121	5723.85
923.97308	5861.75
927.75233	5992.25
931.52895	6068.85
935.30295	5978.15
939.07433	5725.75
942.84309	5487.15
946.60924	5286.35
950.37278	5156.25
954.13371	5059.95
957.89203	4978.35
961.64774	4894.45
965.40086	4832.75
969.15137	4766.45
972.89929	4709.55
976.64461	4667.05
980.38733	4624.15
984.12747	4593.35
987.86502	4585.35
991.59999	4590.45
995.33237	4603.35
999.06217	4626.95
1002.78939	4719.95
1006.51404	4772.75
1010.23611	4880.15
1013.95561	4936.05
1017.67255	4949.55
1021.38692	4899.15
1025.09872	4813.85
1028.80796	4746.05
1032.51465	4696.25
1036.21877	4681.75
1039.92035	4700.85
1043.61937	4710.75
1047.31584	4740.55
1051.00976	4751.25
1054.70114	4750.05
1058.38998	4758.85
1062.07627	4764.25
1065.76003	4781.15
1069.44126	4746.25
1073.11995	4755.75
1076.79611	4812.95
1080.46974	4883.95
1084.14085	5017.35
1087.80943	5170.15
1091.47549	5206.45
1095.13903	5088.25
1098.80005	4866.25
1102.45857	4722.75
1106.11456	4669.35
1109.76805	4690.35
1113.41903	4790.65
1117.06751	4969.95
1120.71348	5223.75
1124.35696	5508.55
1127.99793	5832.25
1131.63641	5907.65
1135.2724	5647.35
1138.90589	5331.15
1142.5369	5111.05
1146.16542	4943.75
1149.79145	4817.25
1153.415	4732.45
1157.03607	4717.05
1160.65467	4772.75
1164.27079	4910.35
1167.88443	5153.25
1171.49561	5557.45
1175.10432	6227.65
1178.71056	7184.65
1182.31434	7972.85
1185.91565	8177.15
1189.51451	7792.65
1193.11091	7219.25
1196.70485	6648.35
1200.29634	6221.55
1203.88538	5896.55
1207.47197	5497.85
1211.05612	5138.65
1214.63782	4922.55
1218.21708	4823.85
1221.79391	4796.85
1225.36829	4810.75
1228.94024	4843.85
1232.50976	4813.35
1236.07685	4766.65
1239.6415	4748.95
1243.20374	4745.75
1246.76355	4789.45
1250.32093	4845.05
1253.8759	4934.45
1257.42845	5083.05
1260.97859	5256.95
1264.52631	5476.55
1268.07163	5703.65
1271.61453	5872.65
1275.15503	5938.15
1278.69312	5967.55
1282.22882	5975.95
1285.76211	6108.25
1289.29301	6395.85
1292.82151	6699.15
1296.34761	6987.65
1299.87133	7391.65
1303.39266	8022.65
1306.9116	9018.65
1310.42815	10263.15
1313.94233	11047.45
1317.45412	10851.45
1320.96354	9850.45
1324.47058	8722.45
1327.97525	7776.65
1331.47754	7095.35
1334.97747	6785.25
1338.47502	6702.85
1341.97022	6822.55
1345.46305	7296.65
1348.95352	8060.95
1352.44163	9084.05
1355.92738	10336.35
1359.41078	12151.65
1362.89183	14236.35
1366.37053	14590.85
1369.84688	12430.75
1373.32088	9727.25
1376.79254	8024.15
1380.26186	7242.95
1383.72883	6867.45
1387.19347	6561.15
1390.65578	6255.65
1394.11575	6041.95
1397.57339	5906.15
1401.0287	5808.95
1404.48168	5736.55
1407.93234	5632.95
1411.38068	5519.85
1414.82669	5471.45
1418.27039	5461.15
1421.71177	5452.15
1425.15083	5339.25
1428.58758	5255.95
1432.02203	5234.05
1435.45416	5318.25
1438.88399	5337.45
1442.31151	5314.95
1445.73673	5265.35
1449.15965	5246.45
1452.58027	5205.65
1455.9986	5134.55
1459.41463	5084.05
1462.82837	5090.95
1466.23982	5178.65
1469.64898	5305.25
1473.05586	5383.65
1476.46045	5445.55
1479.86276	5507.95
1483.26279	5609.55
1486.66054	5759.75
1490.05602	5968.65
1493.44922	6334.65
1496.84016	6864.85
1500.22882	7743.35
1503.61521	9012.75
1506.99934	10636.95
1510.38121	12263.15
1513.76081	13187.45
1517.13816	12552.95
1520.51324	10773.25
1523.88607	8903.95
1527.25665	7528.55
1530.62498	6703.95
1533.99105	6219.75
1537.35488	5903.65
1540.71647	5688.35
1544.07581	5556.15
1547.4329	5473.15
1550.78776	5482.35
1554.14038	5529.55
1557.49077	5617.75
1560.83892	5762.85
1564.18484	5998.05
1567.52853	6324.95
1570.86999	6604.35
1574.20922	6826.05
1577.54624	6832.25
1580.88103	6455.65
1584.2136	5843.45
1587.54395	5365.35
1590.87208	5218.45
1594.19801	5376.55
1597.52172	5724.45
1600.84321	5913.15
1604.16251	5723.35
1607.47959	5393.35
1610.79447	5088.55
1614.10715	4785.15
1617.41763	4551.15
1620.7259	4389.95
1624.03199	4314.85
1627.33587	4338.75
1630.63757	4438.85
1633.93707	4636.35
1637.23439	4959.95
1640.52951	5540.65
1643.82246	6474.35
1647.11321	7700.45
1650.40179	8725.55
1653.68819	8803.85
1656.97241	7742.35
1660.25446	6262.95
1663.53433	5132.95
1666.81203	4479.15
1670.08756	4072.65
1673.36092	3838.95
1676.63211	3710.35
1679.90115	3625.45
1683.16801	3565.45
1686.43272	3515.95
1689.69527	3499.85
1692.95567	3454.25
1696.2139	3444.05
1699.46999	3412.45
1702.72392	3376.25
1705.97571	3347.95
1709.22535	3324.45
1712.47284	3277.45
1715.71819	3243.35
1718.96139	3214.25
1722.20246	3174.55
1725.44139	3118.85
1728.67818	3082.75
1731.91284	3045.25
1735.14537	3002.25
1738.37576	2959.65
1741.60403	2922.15
1744.83017	2910.05
1748.05418	2893.25
1751.27607	2877.65
1754.49584	2867.35
1757.71349	2843.15
1760.92903	2829.55
1764.14244	2814.05
1767.35375	2804.65
1770.56294	2781.65
1773.77002	2782.55
1776.97499	2757.65
1780.17785	2768.65
1783.37861	2746.35
1786.57727	2731.45
1789.77382	2708.55
1792.96828	2707.15
1796.16064	2691.25
1799.3509	2696.25
1802.53907	2680.55
1805.72514	2657.45
1808.90913	2649.05
1812.09102	2646.95
1815.27083	2615.05
1818.44856	2618.85
1821.6242	2611.45
1824.79776	2594.25
1827.96924	2585.75
1831.13864	2580.95
1834.30597	2576.45
1837.47122	2563.55
1840.6344	2569.15
1843.7955	2549.05
1846.95454	2534.95
1850.11151	2537.65
1853.26642	2522.05
1856.41926	2525.05
1859.57004	2513.85
1862.71876	2508.25
1865.86542	2495.15
1869.01003	2503.55
1872.15258	2482.95
1875.29308	2492.15
1878.43152	2478.45
1881.56792	2471.45
1884.70227	2467.85
1887.83457	2461.35
1890.96482	2461.35
1894.09304	2443.55
1897.21921	2442.75
1900.34335	2427.55
1903.46544	2439.35
1906.58551	2426.75
1909.70353	2413.65
1912.81953	2418.55
1915.93349	2401.05
1919.04543	2415.25
1922.15534	2396.45
1925.26322	2379.95
1928.36908	2376.75
1931.47292	2365.35
1934.57473	2354.15
1937.67453	2343.35
1940.77232	2329.55
1943.86808	2317.95
1946.96184	2308.95
1950.05358	2303.45
1953.14331	2297.45
1956.23103	2285.95
1959.31675	2271.45
1962.40046	2267.05
1965.48217	2265.45
1968.56188	2255.35
1971.63959	2252.65
1974.7153	2246.15
1977.78901	2236.45
1980.86073	2242.15
1983.93046	2223.65
1986.99819	2209.05
1990.06394	2193.35
1993.1277	2179.75
1996.18947	2170.85
1999.24925	2170.85
2002.30706	2166.15
2005.36288	2153.75
2008.41672	2142.05
2011.46859	2144.85
2014.51848	2134.15
2017.56639	2121.65
2020.61233	2112.65
2023.6563	2108.85
2026.6983	2094.05
2029.73833	2082.15
2032.7764	2066.25
2035.8125	2075.15
2038.84664	2062.95
2041.87881	2059.35
2044.90903	2052.35
2047.93729	2046.95
2050.96359	2051.15
2053.98794	2049.35
2057.01034	2044.05
2060.03078	2038.45
2063.04927	2030.65
2066.06582	2035.75
2069.08042	2029.85
2072.09307	2023.15
2075.10378	2024.95
2078.11255	2024.85
2081.11938	2031.65
2084.12426	2029.15
2087.12722	2025.55
2090.12824	2024.55
2093.12732	2029.75
2096.12447	2032.45
2099.11969	2030.25
2102.11299	2026.05
2105.10435	2027.05
2108.09379	2026.95
2111.08131	2026.75
2114.0669	2025.45
2117.05057	2033.75
2120.03233	2022.65
2123.01216	2013.45
2125.99008	2024.35
2128.96609	2012.25
2131.94018	2012.55
2134.91236	2009.65
2137.88263	2008.85
2140.851	1987.25
2143.81746	1990.25
2146.78201	1971.85
2149.74466	1980.05
2152.7054	1964.85
2155.66425	1963.25
2158.6212	1952.25
2161.57625	1935.25
2164.52941	1928.05
2167.48067	1937.05
2170.43004	1925.55
2173.37752	1940.95
2176.32311	1926.55
2179.26681	1927.75
2182.20863	1918.15
2185.14856	1920.95
2188.08661	1917.35
2191.02278	1914.15
2193.95707	1894.75
2196.88948	1903.55
2199.82001	1914.15
2202.74867	1898.35
2205.67545	1892.45
2208.60037	1881.85
2211.52341	1876.55
2214.44458	1867.95
2217.36388	1859.95
2220.28132	1860.45
2223.1969	1860.35
2226.11061	1851.95
2229.02246	1852.25
2231.93245	1834.65
2234.84058	1826.25
2237.74686	1830.55
2240.65128	1832.55
2243.55385	1824.85
2246.45456	1822.05
2249.35343	1810.75
2252.25044	1816.45
2255.14561	1808.95
2258.03893	1808.25
2260.93041	1804.55
2263.82004	1796.55
2266.70783	1795.95
2269.59378	1786.65
2272.4779	1778.65
2275.36017	1783.35
2278.24061	1779.75
2281.11922	1761.65
2283.996	1759.35
2286.87094	1753.25
2289.74405	1751.45
2292.61534	1746.15
2295.4848	1740.15
2298.35243	1729.75
2301.21824	1719.45
2304.08223	1732.15
2306.94439	1716.45
2309.80474	1710.55
2312.66327	1715.35
2315.51999	1720.55
2318.37489	1702.65
2321.22797	1699.05
2324.07925	1696.25
2326.92871	1696.25
2329.77637	1702.45
2332.62222	1702.45
2335.46626	1681.75
2338.3085	1675.95
2341.14893	1671.35
2343.98756	1669.45
2346.8244	1674.05
2349.65943	1670.95
2352.49267	1669.85
2355.32411	1672.55
2358.15376	1680.05
2360.98161	1685.65
2363.80768	1685.75
2366.63195	1683.15
2369.45444	1696.95
2372.27514	1699.55
2375.09405	1691.55
2377.91118	1672.55
2380.72652	1679.15
2383.54009	1657.55
2386.35187	1646.75
2389.16188	1640.85
2391.97011	1634.05
2394.77657	1613.65
2397.58125	1615.45
2400.38416	1602.25
2403.18529	1593.95
2405.98466	1604.55
2408.78226	1584.65
2411.57809	1588.15
2414.37216	1582.95
2417.16446	1579.85
2419.955	1582.65
2422.74378	1583.35
2425.5308	1585.35
2428.31606	1576.55
2431.09956	1575.05
2433.88131	1569.35
2436.6613	1570.55
2439.43954	1571.25
2442.21603	1566.25
2444.99077	1576.65
2447.76377	1572.75
2450.53501	1564.05
2453.30451	1562.85
2456.07226	1563.65
2458.83827	1555.05
2461.60254	1554.55
2464.36507	1549.65
2467.12586	1550.85
2469.88492	1550.65
2472.64224	1541.65
2475.39782	1539.15
2478.15167	1554.15
2480.90379	1557.85
2483.65417	1547.35
2486.40283	1552.85
2489.14976	1556.15
2491.89497	1564.65
2494.63845	1558.15
2497.3802	1559.85
2500.12024	1553.05
2502.85855	1548.45
2505.59514	1536.85
2508.33002	1526.95
2511.06318	1520.15
2513.79462	1511.35
2516.52435	1497.55
2519.25237	1490.95
2521.97867	1487.75
2524.70327	1471.35
2527.42616	1470.25
2530.14734	1460.05
2532.86681	1455.25
2535.58458	1445.55
2538.30065	1449.85
2541.01501	1454.55
2543.72768	1453.75
2546.43864	1442.65
2549.14791	1437.25
2551.85548	1449.55
2554.56136	1440.55
2557.26554	1444.65
2559.96803	1434.15
2562.66883	1431.05
2565.36794	1430.15
2568.06536	1420.35
2570.7611	1428.15
2573.45514	1413.55
2576.14751	1417.45
2578.83819	1416.85
2581.52719	1412.45
2584.21451	1393.25
2586.90015	1400.95
2589.58411	1390.95
2592.2664	1392.45
2594.94701	1378.65
2597.62594	1382.35
2600.30321	1377.75
2602.9788	1378.65
2605.65273	1377.05
2608.32498	1370.55
2610.99557	1376.55
2613.66449	1359.55
2616.33175	1381.35
2618.99734	1367.95
2621.66128	1367.35
2624.32355	1361.35
2626.98416	1365.15
2629.64311	1354.35
2632.30041	1352.15
2634.95605	1357.65
2637.61004	1343.65
2640.26238	1340.55
2642.91306	1337.65
2645.56209	1342.15
2648.20948	1341.25
2650.85521	1338.55
2653.4993	1332.15
2656.14175	1333.45
2658.78255	1337.85
2661.42171	1339.75
2664.05923	1336.65
2666.6951	1341.85
2669.32934	1345.95
2671.96194	1342.95
2674.59291	1341.45
2677.22224	1342.05
2679.84993	1337.45
2682.476	1344.05
2685.10043	1345.95
2687.72324	1341.25
2690.34441	1334.55
2692.96396	1334.75
2695.58188	1329.05
2698.19818	1326.95
2700.81285	1333.25
2703.4259	1333.05
2706.03733	1325.85
2708.64714	1316.55
2711.25533	1328.75
2713.86191	1329.45
2716.46687	1336.15
2719.07021	1328.05
2721.67194	1333.15
2724.27206	1340.35
2726.87057	1338.85
2729.46747	1330.05
2732.06276	1330.15
2734.65644	1323.55
2737.24852	1318.35
2739.83899	1309.95
2742.42786	1317.15
2745.01513	1309.65
2747.60079	1301.35
2750.18486	1306.15
2752.76733	1303.85
2755.3482	1307.95
2757.92747	1299.75
2760.50515	1297.45
2763.08123	1285.45
2765.65573	1287.15
2768.22863	1288.65
2770.79994	1278.85
2773.36967	1276.45
2775.9378	1284.05
2778.50435	1272.55
2781.06932	1264.55
2783.6327	1271.25
2786.1945	1268.55
2788.75471	1269.15
2791.31335	1264.05
2793.87041	1260.45
2796.42589	1257.75
2798.97979	1260.25
2801.53212	1261.05
2804.08288	1256.35
2806.63206	1256.35
2809.17967	1243.85
2811.72571	1251.55
2814.27018	1241.65
2816.81308	1252.05
2819.35442	1242.75
2821.89419	1248.75
2824.43239	1245.15
2826.96904	1242.15
2829.50412	1251.15
2832.03763	1247.55
2834.56959	1249.75
2837.1	1247.45
2839.62884	1253.85
2842.15613	1252.85
2844.68186	1266.45
2847.20604	1278.05
2849.72867	1283.55
2852.24974	1282.05
2854.76927	1286.25
2857.28724	1289.35
2859.80367	1295.25
2862.31855	1295.95
2864.83189	1294.45
2867.34368	1303.85
2869.85393	1304.25
2872.36264	1292.85
2874.8698	1303.55
2877.37543	1303.05
2879.87952	1304.55
2882.38207	1297.25
2884.88308	1306.95
2887.38256	1296.55
2889.88051	1304.25
2892.37692	1303.45
2894.8718	1301.05
2897.36515	1308.25
2899.85698	1313.95
2902.34727	1320.25
2904.83604	1325.95
2907.32328	1334.25
2909.809	1342.45
2912.29319	1344.75
2914.77587	1357.35
2917.25702	1359.35
2919.73665	1362.55
2922.21476	1368.85
2924.69136	1368.25
2927.16644	1368.15
2929.64	1359.45
2932.11205	1365.15
2934.58258	1361.05
2937.05161	1360.75
2939.51912	1353.05
2941.98513	1344.85
2944.44962	1329.85
2946.91261	1312.55
2949.37409	1306.35
2951.83407	1288.95
2954.29254	1287.45
2956.74951	1289.15
2959.20498	1270.95
2961.65895	1262.25
2964.11142	1260.55
2966.56239	1245.65
2969.01186	1215.35
2971.45984	1222.05
2973.90632	1234.05
2976.35131	1226.55
2978.7948	1223.95
2981.23681	1217.95
2983.67732	1211.15
2986.11635	1201.05
2988.55388	1202.55
2990.98993	1208.75
2993.4245	1191.05
2995.85758	1197.45
2998.28917	1194.55
3000.71928	1196.45
3003.14791	1185.05
3005.57506	1183.85
3008.00073	1180.55
3010.42493	1184.05
3012.84764	1191.55
3015.26888	1184.05
3017.68865	1184.85
3020.10694	1186.85
3022.52376	1180.45
3024.9391	1179.95
3027.35298	1177.05
3029.76539	1171.75
3032.17632	1177.55
3034.5858	1173.35
3036.9938	1168.85
3039.40034	1172.05
3041.80542	1170.85
3044.20903	1166.15
3046.61118	1168.05
3049.01187	1164.35
3051.4111	1163.55
3053.80888	1162.25
3056.20519	1161.05
3058.60005	1163.75
3060.99345	1164.55
3063.3854	1162.35
3065.7759	1162.15
3068.16494	1165.25
3070.55254	1160.45
3072.93868	1164.25
3075.32338	1169.65
3077.70662	1158.85
3080.08842	1166.35
3082.46878	1157.95
3084.84769	1170.85
3087.22515	1160.35
3089.60118	1163.65
3091.97576	1163.95
3094.3489	1170.45
3096.72061	1178.15
3099.09087	1181.45
3101.4597	1187.95
3103.82709	1187.45
3106.19305	1197.05
3108.55757	1192.15
3110.92066	1187.05
3113.28232	1194.25
3115.64255	1195.15
3118.00134	1199.15
3120.35871	1205.15
3122.71466	1207.25
3125.06917	1204.55
3127.42226	1210.35
3129.77393	1214.55
3132.12417	1212.35
3134.47299	1226.55
3136.82039	1229.05
3139.16636	1231.15
3141.51092	1228.75
3143.85406	1240.05
3146.19579	1247.25
3148.53609	1248.65
3150.87499	1268.85
3153.21246	1264.55
3155.54853	1264.85
3157.88318	1266.75
3160.21642	1280.05
3162.54826	1294.95
3164.87868	1296.55
3167.2077	1296.85
3169.5353	1300.85
3171.86151	1308.85
3174.18631	1314.65
3176.5097	1314.15
3178.83169	1318.65
3181.15228	1326.55
3183.47147	1324.85
3185.78926	1324.85
3188.10565	1332.25
3190.42065	1331.35
3192.73424	1339.95
3195.04645	1350.05
3197.35725	1343.85
3199.66667	1344.45
3201.97469	1359.25
3204.28132	1362.95
3206.58656	1362.95
3208.8904	1374.35
3211.19287	1367.45
3213.49394	1375.55
3215.79363	1386.65
3218.09193	1385.85
3220.38884	1381.05
3222.68438	1389.05
3224.97853	1389.35
3227.2713	1398.15
3229.56269	1391.65
3231.8527	1405.35
3234.14133	1400.15
3236.42858	1395.35
3238.71446	1385.45
3240.99896	1390.25
3243.28209	1386.85
3245.56384	1394.05
3247.84423	1387.35
3250.12324	1393.05
3252.40088	1390.15
3254.67715	1399.45
3256.95205	1386.95
3259.22558	1391.85
3261.49775	1388.05
3263.76855	1390.35
3266.03799	1397.15
3268.30606	1399.45
3270.57277	1380.75
3272.83812	1384.65
3275.10211	1389.45
3277.36474	1382.35
3279.62601	1386.45
3281.88593	1379.55
3284.14448	1379.95
3286.40168	1379.75
3288.65753	1386.05
3290.91202	1379.65
3293.16516	1377.25
3295.41695	1386.95
3297.66738	1384.45
3299.91647	1380.45
3302.16421	1369.35
3304.4106	1362.25
3306.65564	1357.15
3308.89933	1353.55
3311.14169	1348.75
3313.38269	1334.25
3315.62236	1323.55
3317.86068	1317.55
3320.09766	1310.65
3322.3333	1304.65
3324.5676	1304.05
3326.80056	1279.05
3329.03219	1278.05
3331.26248	1.55
3333.49143	-0.05
3335.71905	-0.75
