Data from AgNPs_APTES_FTO_UA_50uM_CRN_0uM_R6G_10uM_Scan_RamanShift__62__12-23-23-733.txt Node

Date: Tue Jul 05 12:23:23 BST 2022
User: TCL
Spectrometer: QEP01345
Trigger mode: 4
Integration Time (sec): 7.000000E0
Scans to average: 10
Electric dark correction enabled: true
Nonlinearity correction enabled: false
Boxcar width: 0
XAxis mode: Raman Shifts
Number of Pixels in Spectrum: 1044
>>>>>Begin Spectral Data<<<<<
46.04893	-1.05
50.45542	-0.05
54.85868	-0.75
59.25871	0.45
63.6555	53.05
68.04907	53.95
72.43941	58.65
76.82654	61.05
81.21044	64.85
85.59113	67.75
89.96862	66.05
94.34289	69.65
98.71396	73.85
103.08183	78.45
107.4465	77.75
111.80798	81.05
116.16626	78.85
120.52136	80.45
124.87327	85.25
129.222	84.85
133.56755	88.05
137.90993	89.25
142.24913	96.25
146.58517	104.95
150.91804	116.25
155.24774	133.15
159.57429	157.25
163.89768	200.55
168.21792	264.95
172.53501	350.55
176.84895	487.95
181.15975	684.65
185.46741	956.05
189.77193	1328.15
194.07331	1766.05
198.37157	2265.65
202.6667	2794.65
206.9587	3325.75
211.24758	3839.25
215.53334	4327.05
219.81599	4855.35
224.09553	5428.95
228.37195	6063.05
232.64527	6771.45
236.91549	7526.25
241.18261	8303.05
245.44663	9149.15
249.70755	9856.95
253.96539	10515.55
258.22014	11089.85
262.4718	11478.15
266.72039	11720.25
270.96589	11811.05
275.20832	11786.65
279.44768	11676.15
283.68397	11494.85
287.91719	11301.45
292.14735	11154.75
296.37445	11022.85
300.59849	10931.65
304.81948	10837.95
309.03742	10775.95
313.25231	10753.95
317.46415	10662.05
321.67296	10609.35
325.87872	10565.35
330.08145	10600.15
334.28114	10645.85
338.47781	10751.75
342.67145	10879.35
346.86207	11000.05
351.04966	11137.55
355.23424	11249.05
359.4158	11409.25
363.59435	11501.55
367.76989	11636.75
371.94243	11706.55
376.11196	11813.45
380.27849	11869.75
384.44203	11942.35
388.60257	12031.75
392.76012	12085.45
396.91468	12168.05
401.06626	12277.95
405.21485	12406.35
409.36047	12442.25
413.50311	12427.15
417.64277	12371.95
421.77947	12407.85
425.9132	12467.95
430.04396	12516.95
434.17176	12624.65
438.2966	12722.35
442.41849	12809.05
446.53742	12932.65
450.6534	13051.85
454.76644	13165.65
458.87653	13237.45
462.98368	13277.35
467.08789	13335.05
471.18916	13348.15
475.2875	13306.85
479.38291	13292.95
483.4754	13280.35
487.56496	13318.45
491.6516	13307.85
495.73531	13301.95
499.81612	13301.25
503.89401	13359.05
507.96899	13403.05
512.04106	13446.15
516.11023	13453.05
520.1765	13450.15
524.23987	13403.25
528.30034	13407.85
532.35792	13377.55
536.41261	13362.95
540.46441	13327.05
544.51333	13337.25
548.55936	13346.45
552.60252	13439.25
556.64279	13530.45
560.6802	13652.25
564.71473	13726.35
568.7464	13801.35
572.7752	13935.25
576.80114	14054.05
580.82422	14196.55
584.84444	14318.65
588.86181	14441.05
592.87633	14603.15
596.888	14747.85
600.89682	14739.85
604.9028	14833.45
608.90594	15165.35
612.90624	15486.55
616.90371	15154.25
620.89834	14461.15
624.89015	14165.75
628.87913	14127.45
632.86528	14161.95
636.84862	14164.65
640.82913	14120.85
644.80683	14025.85
648.78172	13953.95
652.75379	13947.35
656.72306	14041.65
660.68952	14189.15
664.65319	14199.75
668.61405	14218.45
672.57211	14269.95
676.52738	14340.85
680.47986	14391.15
684.42955	14428.85
688.37646	14485.85
692.32058	14507.95
696.26192	14557.85
700.20048	14561.05
704.13626	14629.35
708.06928	14629.25
711.99952	14620.35
715.927	14571.95
719.85171	14542.65
723.77365	14534.55
727.69284	14452.45
731.60928	14430.95
735.52295	14414.45
739.43388	14417.75
743.34206	14474.45
747.24749	14539.35
751.15017	14534.35
755.05012	14628.05
758.94733	14735.35
762.8418	14930.75
766.73354	15228.45
770.62254	15538.25
774.50882	15658.75
778.39237	15520.55
782.27321	15274.95
786.15132	14975.75
790.02671	14788.55
793.89938	14673.85
797.76935	14612.05
801.6366	14627.45
805.50115	14587.15
809.36299	14571.35
813.22213	14537.95
817.07857	14535.85
820.93231	14556.05
824.78336	14568.85
828.63172	14569.35
832.47738	14542.65
836.32036	14555.25
840.16066	14605.55
843.99827	14637.95
847.8332	14664.15
851.66546	14701.35
855.49504	14674.35
859.32195	14669.45
863.1462	14717.95
866.96777	14690.15
870.78668	14719.35
874.60293	14752.75
878.41652	14768.25
882.22745	14790.35
886.03573	14801.35
889.84136	14831.25
893.64433	14817.35
897.44466	14805.45
901.24235	14827.35
905.0374	14822.15
908.8298	14823.25
912.61957	14829.25
916.40671	14845.85
920.19121	14878.15
923.97308	14900.05
927.75233	14903.15
931.52895	14865.55
935.30295	14815.05
939.07433	14712.85
942.84309	14644.15
946.60924	14604.35
950.37278	14564.55
954.13371	14549.35
957.89203	14561.35
961.64774	14549.95
965.40086	14490.75
969.15137	14497.15
972.89929	14469.85
976.64461	14458.65
980.38733	14494.85
984.12747	14456.15
987.86502	14438.05
991.59999	14469.15
995.33237	14505.35
999.06217	14576.55
1002.78939	14673.25
1006.51404	14722.95
1010.23611	14792.05
1013.95561	14893.35
1017.67255	14903.75
1021.38692	14825.45
1025.09872	14784.85
1028.80796	14724.45
1032.51465	14672.95
1036.21877	14707.85
1039.92035	14707.45
1043.61937	14730.85
1047.31584	14768.95
1051.00976	14812.85
1054.70114	14834.35
1058.38998	14887.75
1062.07627	14963.45
1065.76003	14998.55
1069.44126	15024.05
1073.11995	15036.45
1076.79611	15158.75
1080.46974	15230.15
1084.14085	15229.05
1087.80943	15230.05
1091.47549	15247.95
1095.13903	15271.85
1098.80005	15260.35
1102.45857	15195.15
1106.11456	15168.95
1109.76805	15087.95
1113.41903	15049.15
1117.06751	15019.75
1120.71348	15028.25
1124.35696	15096.65
1127.99793	15121.35
1131.63641	15185.85
1135.2724	15175.25
1138.90589	15141.75
1142.5369	15118.15
1146.16542	15101.05
1149.79145	15121.85
1153.415	15098.85
1157.03607	15112.25
1160.65467	15154.95
1164.27079	15256.15
1167.88443	15427.05
1171.49561	15636.05
1175.10432	15922.45
1178.71056	16250.05
1182.31434	16568.35
1185.91565	16830.75
1189.51451	16902.35
1193.11091	16871.85
1196.70485	16808.75
1200.29634	16603.75
1203.88538	16403.35
1207.47197	16273.25
1211.05612	16141.85
1214.63782	16068.55
1218.21708	15960.15
1221.79391	15875.15
1225.36829	15800.75
1228.94024	15804.15
1232.50976	15738.15
1236.07685	15705.85
1239.6415	15635.75
1243.20374	15654.55
1246.76355	15672.45
1250.32093	15747.65
1253.8759	15791.65
1257.42845	15943.15
1260.97859	16057.65
1264.52631	16182.75
1268.07163	16349.65
1271.61453	16484.05
1275.15503	16578.55
1278.69312	16702.45
1282.22882	16801.45
1285.76211	16862.45
1289.29301	16998.35
1292.82151	17173.65
1296.34761	17399.85
1299.87133	17689.25
1303.39266	17960.15
1306.9116	18266.85
1310.42815	18602.75
1313.94233	18805.85
1317.45412	18842.75
1320.96354	18744.55
1324.47058	18622.15
1327.97525	18492.55
1331.47754	18400.45
1334.97747	18304.55
1338.47502	18322.55
1341.97022	18396.55
1345.46305	18550.85
1348.95352	18707.75
1352.44163	18693.95
1355.92738	18694.65
1359.41078	18699.45
1362.89183	18694.25
1366.37053	18452.25
1369.84688	17969.05
1373.32088	17373.95
1376.79254	16950.05
1380.26186	16685.75
1383.72883	16516.55
1387.19347	16443.35
1390.65578	16292.25
1394.11575	16169.55
1397.57339	16103.45
1401.0287	16088.65
1404.48168	16088.35
1407.93234	16010.55
1411.38068	15953.95
1414.82669	15863.85
1418.27039	15688.25
1421.71177	15472.35
1425.15083	15336.15
1428.58758	15238.25
1432.02203	15192.95
1435.45416	15237.15
1438.88399	15291.95
1442.31151	15363.65
1445.73673	15403.35
1449.15965	15448.15
1452.58027	15498.85
1455.9986	15516.95
1459.41463	15573.15
1462.82837	15688.55
1466.23982	15765.05
1469.64898	15876.65
1473.05586	15973.75
1476.46045	15990.45
1479.86276	16013.65
1483.26279	16058.05
1486.66054	16079.25
1490.05602	16106.05
1493.44922	16240.45
1496.84016	16431.95
1500.22882	16643.05
1503.61521	16870.15
1506.99934	17054.55
1510.38121	17147.45
1513.76081	17126.55
1517.13816	16987.35
1520.51324	16759.45
1523.88607	16623.45
1527.25665	16507.65
1530.62498	16447.95
1533.99105	16409.25
1537.35488	16348.35
1540.71647	16243.15
1544.07581	16170.45
1547.4329	16117.85
1550.78776	16059.95
1554.14038	16009.25
1557.49077	16041.05
1560.83892	16070.25
1564.18484	16146.05
1567.52853	16173.95
1570.86999	16230.15
1574.20922	16296.15
1577.54624	16330.25
1580.88103	16281.15
1584.2136	16234.45
1587.54395	16236.55
1590.87208	16355.55
1594.19801	16535.95
1597.52172	16768.85
1600.84321	16805.65
1604.16251	16657.75
1607.47959	16358.35
1610.79447	15955.75
1614.10715	15539.05
1617.41763	15162.95
1620.7259	14844.75
1624.03199	14663.05
1627.33587	14646.15
1630.63757	14662.65
1633.93707	14848.25
1637.23439	15186.45
1640.52951	15701.65
1643.82246	16335.35
1647.11321	16817.25
1650.40179	17041.65
1653.68819	16707.55
1656.97241	16028.45
1660.25446	15209.65
1663.53433	14578.55
1666.81203	14148.25
1670.08756	13830.45
1673.36092	13652.35
1676.63211	13490.85
1679.90115	13421.95
1683.16801	13316.35
1686.43272	13277.05
1689.69527	13230.35
1692.95567	13192.95
1696.2139	13155.75
1699.46999	13145.15
1702.72392	13105.45
1705.97571	13102.45
1709.22535	13077.35
1712.47284	13075.55
1715.71819	13054.85
1718.96139	13069.95
1722.20246	13007.25
1725.44139	12977.55
1728.67818	12919.15
1731.91284	12873.05
1735.14537	12811.05
1738.37576	12744.95
1741.60403	12713.65
1744.83017	12682.85
1748.05418	12695.05
1751.27607	12670.05
1754.49584	12653.05
1757.71349	12609.15
1760.92903	12569.65
1764.14244	12593.35
1767.35375	12555.35
1770.56294	12524.45
1773.77002	12507.05
1776.97499	12514.65
1780.17785	12524.45
1783.37861	12508.95
1786.57727	12486.55
1789.77382	12458.95
1792.96828	12393.25
1796.16064	12399.35
1799.3509	12360.65
1802.53907	12328.05
1805.72514	12298.35
1808.90913	12285.85
1812.09102	12256.85
1815.27083	12263.85
1818.44856	12248.25
1821.6242	12200.15
1824.79776	12195.75
1827.96924	12160.95
1831.13864	12142.45
1834.30597	12139.65
1837.47122	12131.25
1840.6344	12112.35
1843.7955	12088.15
1846.95454	12078.65
1850.11151	12080.45
1853.26642	12075.25
1856.41926	12097.55
1859.57004	12101.45
1862.71876	12085.05
1865.86542	12074.55
1869.01003	12083.25
1872.15258	12031.65
1875.29308	12015.55
1878.43152	11989.65
1881.56792	11945.65
1884.70227	11943.25
1887.83457	11939.85
1890.96482	11894.65
1894.09304	11869.15
1897.21921	11852.55
1900.34335	11838.65
1903.46544	11815.75
1906.58551	11803.45
1909.70353	11768.65
1912.81953	11785.15
1915.93349	11751.35
1919.04543	11737.75
1922.15534	11730.05
1925.26322	11693.05
1928.36908	11680.15
1931.47292	11629.45
1934.57473	11607.95
1937.67453	11609.55
1940.77232	11558.35
1943.86808	11539.55
1946.96184	11470.15
1950.05358	11453.75
1953.14331	11431.65
1956.23103	11378.45
1959.31675	11335.85
1962.40046	11319.05
1965.48217	11269.55
1968.56188	11238.95
1971.63959	11209.95
1974.7153	11143.85
1977.78901	11134.35
1980.86073	11119.55
1983.93046	11051.65
1986.99819	10978.05
1990.06394	10971.75
1993.1277	10944.65
1996.18947	10924.05
1999.24925	10868.35
2002.30706	10850.95
2005.36288	10806.55
2008.41672	10793.25
2011.46859	10766.75
2014.51848	10733.45
2017.56639	10703.05
2020.61233	10675.15
2023.6563	10627.45
2026.6983	10592.75
2029.73833	10541.65
2032.7764	10520.55
2035.8125	10477.05
2038.84664	10456.25
2041.87881	10450.35
2044.90903	10421.65
2047.93729	10402.35
2050.96359	10403.15
2053.98794	10374.85
2057.01034	10344.75
2060.03078	10341.45
2063.04927	10355.55
2066.06582	10323.65
2069.08042	10292.65
2072.09307	10290.95
2075.10378	10262.75
2078.11255	10270.65
2081.11938	10311.15
2084.12426	10279.85
2087.12722	10256.15
2090.12824	10239.15
2093.12732	10220.95
2096.12447	10223.25
2099.11969	10220.75
2102.11299	10235.25
2105.10435	10231.45
2108.09379	10244.85
2111.08131	10243.55
2114.0669	10263.45
2117.05057	10267.55
2120.03233	10277.45
2123.01216	10255.95
2125.99008	10280.15
2128.96609	10275.65
2131.94018	10274.55
2134.91236	10261.95
2137.88263	10319.75
2140.851	10295.55
2143.81746	10295.45
2146.78201	10289.25
2149.74466	10274.15
2152.7054	10264.15
2155.66425	10283.95
2158.6212	10247.15
2161.57625	10246.65
2164.52941	10232.85
2167.48067	10258.45
2170.43004	10254.25
2173.37752	10265.35
2176.32311	10229.15
2179.26681	10222.75
2182.20863	10221.45
2185.14856	10237.35
2188.08661	10211.15
2191.02278	10205.35
2193.95707	10182.35
2196.88948	10192.75
2199.82001	10219.25
2202.74867	10146.95
2205.67545	10116.45
2208.60037	10112.75
2211.52341	10081.15
2214.44458	10078.75
2217.36388	10036.85
2220.28132	10010.15
2223.1969	9994.25
2226.11061	9973.35
2229.02246	9952.85
2231.93245	9905.75
2234.84058	9920.55
2237.74686	9920.05
2240.65128	9916.15
2243.55385	9884.95
2246.45456	9872.55
2249.35343	9804.85
2252.25044	9799.35
2255.14561	9809.45
2258.03893	9782.95
2260.93041	9761.35
2263.82004	9713.55
2266.70783	9710.65
2269.59378	9644.95
2272.4779	9642.55
2275.36017	9646.15
2278.24061	9587.35
2281.11922	9574.75
2283.996	9556.95
2286.87094	9545.75
2289.74405	9510.15
2292.61534	9501.05
2295.4848	9459.35
2298.35243	9474.65
2301.21824	9480.15
2304.08223	9473.15
2306.94439	9431.85
2309.80474	9449.05
2312.66327	9449.25
2315.51999	9428.25
2318.37489	9406.85
2321.22797	9386.15
2324.07925	9375.95
2326.92871	9331.65
2329.77637	9328.15
2332.62222	9306.55
2335.46626	9286.95
2338.3085	9261.75
2341.14893	9250.35
2343.98756	9243.15
2346.8244	9211.35
2349.65943	9206.15
2352.49267	9196.45
2355.32411	9189.75
2358.15376	9200.15
2360.98161	9162.15
2363.80768	9145.25
2366.63195	9185.95
2369.45444	9144.85
2372.27514	9163.45
2375.09405	9135.85
2377.91118	9093.05
2380.72652	9074.05
2383.54009	9058.75
2386.35187	9041.25
2389.16188	8998.95
2391.97011	8980.65
2394.77657	8940.45
2397.58125	8944.85
2400.38416	8927.55
2403.18529	8912.35
2405.98466	8871.95
2408.78226	8877.25
2411.57809	8859.85
2414.37216	8839.15
2417.16446	8828.05
2419.955	8821.65
2422.74378	8825.75
2425.5308	8818.05
2428.31606	8814.15
2431.09956	8785.05
2433.88131	8764.75
2436.6613	8757.65
2439.43954	8763.95
2442.21603	8745.65
2444.99077	8712.25
2447.76377	8718.55
2450.53501	8688.55
2453.30451	8676.15
2456.07226	8663.95
2458.83827	8642.65
2461.60254	8636.65
2464.36507	8629.75
2467.12586	8613.75
2469.88492	8594.35
2472.64224	8583.55
2475.39782	8584.15
2478.15167	8574.15
2480.90379	8592.95
2483.65417	8571.45
2486.40283	8560.45
2489.14976	8560.15
2491.89497	8533.35
2494.63845	8521.15
2497.3802	8500.05
2500.12024	8488.55
2502.85855	8491.75
2505.59514	8500.05
2508.33002	8487.95
2511.06318	8452.35
2513.79462	8422.75
2516.52435	8429.35
2519.25237	8415.85
2521.97867	8409.45
2524.70327	8433.95
2527.42616	8351.65
2530.14734	8373.05
2532.86681	8317.85
2535.58458	8349.95
2538.30065	8323.25
2541.01501	8310.45
2543.72768	8261.55
2546.43864	8241.45
2549.14791	8211.15
2551.85548	8217.15
2554.56136	8220.85
2557.26554	8206.95
2559.96803	8198.35
2562.66883	8153.65
2565.36794	8125.15
2568.06536	8116.35
2570.7611	8100.35
2573.45514	8097.05
2576.14751	8057.55
2578.83819	8051.85
2581.52719	8036.05
2584.21451	7994.75
2586.90015	8000.65
2589.58411	7965.65
2592.2664	7964.55
2594.94701	7927.75
2597.62594	7923.75
2600.30321	7874.85
2602.9788	7892.65
2605.65273	7882.85
2608.32498	7855.55
2610.99557	7843.35
2613.66449	7858.25
2616.33175	7829.05
2618.99734	7829.05
2621.66128	7818.45
2624.32355	7805.55
2626.98416	7781.45
2629.64311	7763.15
2632.30041	7758.75
2634.95605	7751.95
2637.61004	7729.75
2640.26238	7713.85
2642.91306	7693.45
2645.56209	7680.75
2648.20948	7665.75
2650.85521	7681.85
2653.4993	7663.65
2656.14175	7663.05
2658.78255	7662.85
2661.42171	7658.95
2664.05923	7682.25
2666.6951	7668.55
2669.32934	7650.65
2671.96194	7647.65
2674.59291	7619.35
2677.22224	7614.15
2679.84993	7623.55
2682.476	7590.75
2685.10043	7610.85
2687.72324	7607.85
2690.34441	7603.35
2692.96396	7591.75
2695.58188	7594.85
2698.19818	7570.15
2700.81285	7571.95
2703.4259	7571.55
2706.03733	7575.75
2708.64714	7547.05
2711.25533	7549.05
2713.86191	7553.05
2716.46687	7559.25
2719.07021	7555.05
2721.67194	7574.75
2724.27206	7537.45
2726.87057	7543.75
2729.46747	7558.05
2732.06276	7552.75
2734.65644	7542.05
2737.24852	7550.25
2739.83899	7515.25
2742.42786	7518.05
2745.01513	7477.95
2747.60079	7464.35
2750.18486	7470.55
2752.76733	7456.65
2755.3482	7440.85
2757.92747	7458.95
2760.50515	7448.35
2763.08123	7406.45
2765.65573	7414.35
2768.22863	7394.65
2770.79994	7361.75
2773.36967	7348.25
2775.9378	7340.65
2778.50435	7320.55
2781.06932	7305.25
2783.6327	7315.35
2786.1945	7301.75
2788.75471	7272.95
2791.31335	7264.95
2793.87041	7246.55
2796.42589	7223.35
2798.97979	7229.45
2801.53212	7190.15
2804.08288	7187.95
2806.63206	7134.95
2809.17967	7129.25
2811.72571	7115.95
2814.27018	7096.25
2816.81308	7061.75
2819.35442	7031.65
2821.89419	7030.85
2824.43239	7015.55
2826.96904	7019.55
2829.50412	6995.05
2832.03763	6971.75
2834.56959	6997.25
2837.1	6984.45
2839.62884	6953.65
2842.15613	6935.75
2844.68186	6942.55
2847.20604	6913.95
2849.72867	6908.65
2852.24974	6897.45
2854.76927	6888.35
2857.28724	6887.25
2859.80367	6875.35
2862.31855	6855.35
2864.83189	6844.15
2867.34368	6835.95
2869.85393	6814.55
2872.36264	6824.65
2874.8698	6817.15
2877.37543	6823.35
2879.87952	6819.75
2882.38207	6807.15
2884.88308	6788.65
2887.38256	6793.85
2889.88051	6782.85
2892.37692	6765.45
2894.8718	6771.85
2897.36515	6744.55
2899.85698	6749.05
2902.34727	6747.95
2904.83604	6739.75
2907.32328	6763.05
2909.809	6770.05
2912.29319	6764.15
2914.77587	6753.85
2917.25702	6786.35
2919.73665	6729.85
2922.21476	6724.05
2924.69136	6733.95
2927.16644	6719.75
2929.64	6700.65
2932.11205	6693.25
2934.58258	6690.55
2937.05161	6688.55
2939.51912	6691.65
2941.98513	6675.15
2944.44962	6678.55
2946.91261	6671.95
2949.37409	6675.65
2951.83407	6655.35
2954.29254	6661.65
2956.74951	6642.15
2959.20498	6631.05
2961.65895	6625.45
2964.11142	6652.95
2966.56239	6634.65
2969.01186	6596.15
2971.45984	6625.95
2973.90632	6644.25
2976.35131	6612.75
2978.7948	6599.15
2981.23681	6577.75
2983.67732	6572.75
2986.11635	6531.75
2988.55388	6542.75
2990.98993	6551.65
2993.4245	6554.95
2995.85758	6504.15
2998.28917	6508.35
3000.71928	6499.75
3003.14791	6479.55
3005.57506	6459.95
3008.00073	6436.65
3010.42493	6437.05
3012.84764	6411.75
3015.26888	6420.45
3017.68865	6395.25
3020.10694	6393.05
3022.52376	6373.95
3024.9391	6392.05
3027.35298	6375.65
3029.76539	6358.95
3032.17632	6359.25
3034.5858	6336.25
3036.9938	6333.15
3039.40034	6345.75
3041.80542	6321.55
3044.20903	6312.65
3046.61118	6302.65
3049.01187	6303.95
3051.4111	6285.95
3053.80888	6262.15
3056.20519	6264.35
3058.60005	6271.45
3060.99345	6255.25
3063.3854	6233.85
3065.7759	6207.85
3068.16494	6202.85
3070.55254	6173.35
3072.93868	6168.15
3075.32338	6163.45
3077.70662	6168.25
3080.08842	6114.35
3082.46878	6122.35
3084.84769	6113.05
3087.22515	6131.05
3089.60118	6116.05
3091.97576	6140.55
3094.3489	6139.55
3096.72061	6129.95
3099.09087	6124.45
3101.4597	6111.25
3103.82709	6142.05
3106.19305	6142.65
3108.55757	6156.85
3110.92066	6118.45
3113.28232	6128.85
3115.64255	6099.05
3118.00134	6097.15
3120.35871	6060.45
3122.71466	6046.25
3125.06917	6067.55
3127.42226	6069.35
3129.77393	6068.25
3132.12417	6043.25
3134.47299	6050.45
3136.82039	6045.75
3139.16636	6046.05
3141.51092	6040.45
3143.85406	6058.15
3146.19579	6046.05
3148.53609	6066.95
3150.87499	6076.55
3153.21246	6074.35
3155.54853	6055.75
3157.88318	6075.75
3160.21642	6079.15
3162.54826	6085.65
3164.87868	6083.65
3167.2077	6087.45
3169.5353	6095.65
3171.86151	6090.05
3174.18631	6094.35
3176.5097	6098.65
3178.83169	6067.95
3181.15228	6058.95
3183.47147	6066.55
3185.78926	6067.25
3188.10565	6025.05
3190.42065	6036.45
3192.73424	6037.45
3195.04645	6032.75
3197.35725	6045.45
3199.66667	6050.85
3201.97469	6042.35
3204.28132	6025.35
3206.58656	6037.35
3208.8904	6033.15
3211.19287	6027.25
3213.49394	6045.55
3215.79363	6053.15
3218.09193	6058.75
3220.38884	6062.85
3222.68438	6057.35
3224.97853	6045.35
3227.2713	6050.05
3229.56269	6043.35
3231.8527	6043.75
3234.14133	6038.95
3236.42858	6021.15
3238.71446	6016.65
3240.99896	5980.55
3243.28209	5957.95
3245.56384	5977.85
3247.84423	5942.05
3250.12324	5952.15
3252.40088	5947.05
3254.67715	5934.85
3256.95205	5932.15
3259.22558	5908.75
3261.49775	5898.45
3263.76855	5910.45
3266.03799	5891.25
3268.30606	5904.95
3270.57277	5893.35
3272.83812	5867.85
3275.10211	5866.15
3277.36474	5856.15
3279.62601	5839.55
3281.88593	5828.85
3284.14448	5824.85
3286.40168	5820.65
3288.65753	5803.45
3290.91202	5797.35
3293.16516	5782.85
3295.41695	5783.55
3297.66738	5757.25
3299.91647	5726.15
3302.16421	5707.45
3304.4106	5680.25
3306.65564	5634.15
3308.89933	5597.45
3311.14169	5571.95
3313.38269	5517.15
3315.62236	5498.05
3317.86068	5465.05
3320.09766	5418.25
3322.3333	5396.35
3324.5676	5381.25
3326.80056	5305.55
3329.03219	5266.35
3331.26248	2.25
3333.49143	-1.65
3335.71905	-0.25
