Data from AgNPs_APTES_FTO_UA_100uM_CRN_0uM_R6G_10uM_Scan_RamanShift__48__11-35-41-293.txt Node

Date: Wed Jun 29 11:35:41 BST 2022
User: TCL
Spectrometer: QEP01345
Trigger mode: 4
Integration Time (sec): 7.000000E0
Scans to average: 10
Electric dark correction enabled: true
Nonlinearity correction enabled: false
Boxcar width: 0
XAxis mode: Raman Shifts
Number of Pixels in Spectrum: 1044
>>>>>Begin Spectral Data<<<<<
46.04893	0.55
50.45542	0.75
54.85868	0.75
59.25871	0.85
63.6555	38.35
68.04907	43.15
72.43941	44.35
76.82654	46.25
81.21044	51.35
85.59113	53.25
89.96862	58.35
94.34289	57.95
98.71396	62.15
103.08183	60.75
107.4465	61.95
111.80798	62.45
116.16626	60.15
120.52136	60.25
124.87327	57.95
129.222	59.85
133.56755	58.05
137.90993	58.95
142.24913	58.75
146.58517	55.85
150.91804	56.15
155.24774	57.45
159.57429	62.15
163.89768	66.35
168.21792	72.05
172.53501	87.35
176.84895	103.65
181.15975	133.25
185.46741	169.85
189.77193	218.65
194.07331	282.25
198.37157	357.65
202.6667	429.75
206.9587	502.85
211.24758	585.55
215.53334	662.15
219.81599	750.05
224.09553	839.95
228.37195	937.25
232.64527	1045.35
236.91549	1152.55
241.18261	1250.45
245.44663	1338.25
249.70755	1415.55
253.96539	1471.15
258.22014	1521.95
262.4718	1565.95
266.72039	1581.55
270.96589	1587.95
275.20832	1571.25
279.44768	1541.65
283.68397	1505.75
287.91719	1482.45
292.14735	1479.25
296.37445	1491.15
300.59849	1528.55
304.81948	1582.55
309.03742	1628.15
313.25231	1618.25
317.46415	1576.85
321.67296	1505.75
325.87872	1431.35
330.08145	1409.35
334.28114	1411.15
338.47781	1440.25
342.67145	1461.75
346.86207	1514.85
351.04966	1580.25
355.23424	1661.75
359.4158	1730.55
363.59435	1763.95
367.76989	1768.25
371.94243	1783.85
376.11196	1775.95
380.27849	1774.75
384.44203	1770.55
388.60257	1767.75
392.76012	1769.25
396.91468	1784.85
401.06626	1808.65
405.21485	1825.85
409.36047	1810.05
413.50311	1752.05
417.64277	1686.15
421.77947	1653.45
425.9132	1629.65
430.04396	1640.15
434.17176	1649.25
438.2966	1667.85
442.41849	1702.25
446.53742	1733.45
450.6534	1758.15
454.76644	1771.85
458.87653	1776.25
462.98368	1770.75
467.08789	1758.55
471.18916	1744.15
475.2875	1728.95
479.38291	1726.55
483.4754	1719.05
487.56496	1723.05
491.6516	1732.05
495.73531	1731.95
499.81612	1725.75
503.89401	1721.85
507.96899	1737.05
512.04106	1740.05
516.11023	1773.85
520.1765	1792.85
524.23987	1780.35
528.30034	1792.85
532.35792	1787.85
536.41261	1774.65
540.46441	1737.25
544.51333	1716.95
548.55936	1721.25
552.60252	1729.95
556.64279	1740.35
560.6802	1769.45
564.71473	1794.95
568.7464	1834.95
572.7752	1848.65
576.80114	1788.85
580.82422	1744.55
584.84444	1739.45
588.86181	1754.75
592.87633	1779.55
596.888	1807.85
600.89682	1845.45
604.9028	2001.85
608.90594	2409.65
612.90624	2888.75
616.90371	2804.65
620.89834	2220.15
624.89015	1966.45
628.87913	1973.45
632.86528	2034.95
636.84862	2072.05
640.82913	2055.15
644.80683	1967.75
648.78172	1879.95
652.75379	1854.55
656.72306	1877.45
660.68952	1918.85
664.65319	1888.75
668.61405	1834.05
672.57211	1818.55
676.52738	1832.45
680.47986	1838.45
684.42955	1848.55
688.37646	1848.65
692.32058	1860.75
696.26192	1848.55
700.20048	1846.05
704.13626	1831.15
708.06928	1811.25
711.99952	1796.75
715.927	1807.05
719.85171	1810.25
723.77365	1813.75
727.69284	1822.25
731.60928	1821.25
735.52295	1820.75
739.43388	1795.65
743.34206	1803.35
747.24749	1799.15
751.15017	1801.65
755.05012	1784.05
758.94733	1865.55
762.8418	2005.45
766.73354	2238.45
770.62254	2446.75
774.50882	2575.05
778.39237	2501.55
782.27321	2296.15
786.15132	2050.05
790.02671	1912.65
793.89938	1851.95
797.76935	1834.65
801.6366	1826.15
805.50115	1850.15
809.36299	1866.65
813.22213	1880.45
817.07857	1861.45
820.93231	1828.45
824.78336	1814.85
828.63172	1789.55
832.47738	1791.85
836.32036	1796.85
840.16066	1770.85
843.99827	1781.35
847.8332	1778.85
851.66546	1759.25
855.49504	1773.05
859.32195	1774.45
863.1462	1773.75
866.96777	1780.35
870.78668	1779.05
874.60293	1791.55
878.41652	1817.85
882.22745	1849.45
886.03573	1867.45
889.84136	1866.05
893.64433	1860.35
897.44466	1831.75
901.24235	1815.15
905.0374	1785.65
908.8298	1755.65
912.61957	1743.45
916.40671	1744.05
920.19121	1738.05
923.97308	1760.25
927.75233	1783.75
931.52895	1799.15
935.30295	1786.35
939.07433	1761.65
942.84309	1730.45
946.60924	1714.85
950.37278	1722.85
954.13371	1708.35
957.89203	1715.25
961.64774	1707.55
965.40086	1688.55
969.15137	1700.65
972.89929	1684.35
976.64461	1684.25
980.38733	1685.55
984.12747	1688.45
987.86502	1690.45
991.59999	1689.55
995.33237	1714.65
999.06217	1744.95
1002.78939	1790.25
1006.51404	1824.55
1010.23611	1841.45
1013.95561	1860.55
1017.67255	1874.05
1021.38692	1864.85
1025.09872	1858.05
1028.80796	1837.15
1032.51465	1850.35
1036.21877	1856.65
1039.92035	1862.35
1043.61937	1835.25
1047.31584	1834.45
1051.00976	1808.85
1054.70114	1823.25
1058.38998	1805.35
1062.07627	1822.05
1065.76003	1829.65
1069.44126	1840.85
1073.11995	1864.95
1076.79611	1886.35
1080.46974	1902.15
1084.14085	1939.25
1087.80943	1953.85
1091.47549	1953.55
1095.13903	1913.05
1098.80005	1877.25
1102.45857	1856.15
1106.11456	1846.25
1109.76805	1865.05
1113.41903	1892.75
1117.06751	1958.45
1120.71348	2051.65
1124.35696	2153.35
1127.99793	2250.95
1131.63641	2276.35
1135.2724	2255.85
1138.90589	2179.15
1142.5369	2119.95
1146.16542	2039.25
1149.79145	1972.75
1153.415	1917.05
1157.03607	1896.35
1160.65467	1894.55
1164.27079	1919.75
1167.88443	1971.75
1171.49561	2074.35
1175.10432	2239.85
1178.71056	2444.15
1182.31434	2632.85
1185.91565	2685.75
1189.51451	2635.75
1193.11091	2511.35
1196.70485	2428.55
1200.29634	2358.95
1203.88538	2294.35
1207.47197	2210.05
1211.05612	2127.15
1214.63782	2053.55
1218.21708	2004.25
1221.79391	1980.75
1225.36829	1976.65
1228.94024	1963.35
1232.50976	1939.95
1236.07685	1949.05
1239.6415	1942.05
1243.20374	1964.25
1246.76355	1966.15
1250.32093	1983.25
1253.8759	2013.25
1257.42845	2043.55
1260.97859	2098.45
1264.52631	2145.25
1268.07163	2190.05
1271.61453	2224.55
1275.15503	2269.05
1278.69312	2269.35
1282.22882	2295.75
1285.76211	2343.25
1289.29301	2390.25
1292.82151	2450.55
1296.34761	2513.55
1299.87133	2618.65
1303.39266	2790.75
1306.9116	3059.05
1310.42815	3355.45
1313.94233	3466.15
1317.45412	3306.55
1320.96354	3038.05
1324.47058	2793.55
1327.97525	2607.35
1331.47754	2505.25
1334.97747	2475.65
1338.47502	2504.45
1341.97022	2588.55
1345.46305	2735.65
1348.95352	2917.75
1352.44163	3143.65
1355.92738	3423.95
1359.41078	3883.25
1362.89183	4263.05
1366.37053	4072.05
1369.84688	3488.05
1373.32088	2960.45
1376.79254	2666.05
1380.26186	2498.95
1383.72883	2390.95
1387.19347	2298.85
1390.65578	2223.75
1394.11575	2151.35
1397.57339	2116.15
1401.0287	2091.45
1404.48168	2087.45
1407.93234	2078.35
1411.38068	2077.35
1414.82669	2067.65
1418.27039	2057.25
1421.71177	2049.05
1425.15083	2019.85
1428.58758	2028.25
1432.02203	2043.75
1435.45416	2072.65
1438.88399	2084.15
1442.31151	2076.25
1445.73673	2086.55
1449.15965	2105.25
1452.58027	2101.85
1455.9986	2104.15
1459.41463	2113.65
1462.82837	2130.95
1466.23982	2158.05
1469.64898	2207.65
1473.05586	2232.95
1476.46045	2212.15
1479.86276	2226.15
1483.26279	2252.55
1486.66054	2267.65
1490.05602	2322.95
1493.44922	2410.35
1496.84016	2551.15
1500.22882	2803.25
1503.61521	3148.55
1506.99934	3548.15
1510.38121	3832.45
1513.76081	3876.75
1517.13816	3591.35
1520.51324	3145.95
1523.88607	2756.95
1527.25665	2514.75
1530.62498	2369.65
1533.99105	2292.85
1537.35488	2241.95
1540.71647	2218.05
1544.07581	2214.85
1547.4329	2220.25
1550.78776	2235.15
1554.14038	2252.45
1557.49077	2280.55
1560.83892	2320.35
1564.18484	2375.05
1567.52853	2435.45
1570.86999	2498.95
1574.20922	2539.65
1577.54624	2528.55
1580.88103	2439.75
1584.2136	2294.35
1587.54395	2195.35
1590.87208	2191.05
1594.19801	2249.85
1597.52172	2368.95
1600.84321	2418.25
1604.16251	2381.15
1607.47959	2276.75
1610.79447	2189.85
1614.10715	2088.85
1617.41763	2014.35
1620.7259	1972.45
1624.03199	1953.75
1627.33587	1952.05
1630.63757	1969.85
1633.93707	2013.75
1637.23439	2107.05
1640.52951	2263.05
1643.82246	2479.05
1647.11321	2749.15
1650.40179	2918.05
1653.68819	2846.15
1656.97241	2544.55
1660.25446	2241.35
1663.53433	2018.95
1666.81203	1887.45
1670.08756	1817.05
1673.36092	1771.85
1676.63211	1740.25
1679.90115	1714.35
1683.16801	1685.35
1686.43272	1666.95
1689.69527	1649.15
1692.95567	1641.65
1696.2139	1625.05
1699.46999	1597.95
1702.72392	1570.15
1705.97571	1559.25
1709.22535	1548.15
1712.47284	1540.75
1715.71819	1539.45
1718.96139	1534.25
1722.20246	1516.45
1725.44139	1499.95
1728.67818	1485.65
1731.91284	1462.25
1735.14537	1461.75
1738.37576	1457.55
1741.60403	1440.35
1744.83017	1430.15
1748.05418	1432.45
1751.27607	1420.55
1754.49584	1421.35
1757.71349	1402.65
1760.92903	1402.75
1764.14244	1399.75
1767.35375	1389.65
1770.56294	1378.05
1773.77002	1384.15
1776.97499	1373.95
1780.17785	1377.05
1783.37861	1383.55
1786.57727	1376.25
1789.77382	1370.95
1792.96828	1367.05
1796.16064	1367.75
1799.3509	1365.95
1802.53907	1364.25
1805.72514	1359.35
1808.90913	1353.75
1812.09102	1350.95
1815.27083	1345.85
1818.44856	1343.95
1821.6242	1353.55
1824.79776	1345.45
1827.96924	1332.45
1831.13864	1338.65
1834.30597	1327.15
1837.47122	1334.15
1840.6344	1327.85
1843.7955	1325.85
1846.95454	1324.55
1850.11151	1329.75
1853.26642	1327.45
1856.41926	1316.55
1859.57004	1315.45
1862.71876	1311.25
1865.86542	1329.05
1869.01003	1326.65
1872.15258	1321.35
1875.29308	1314.55
1878.43152	1309.15
1881.56792	1310.35
1884.70227	1317.95
1887.83457	1306.75
1890.96482	1304.85
1894.09304	1306.65
1897.21921	1301.55
1900.34335	1297.95
1903.46544	1308.45
1906.58551	1307.95
1909.70353	1295.25
1912.81953	1307.35
1915.93349	1297.65
1919.04543	1310.95
1922.15534	1297.25
1925.26322	1283.75
1928.36908	1283.85
1931.47292	1290.05
1934.57473	1288.65
1937.67453	1289.15
1940.77232	1278.55
1943.86808	1280.55
1946.96184	1279.55
1950.05358	1264.35
1953.14331	1266.05
1956.23103	1259.15
1959.31675	1264.15
1962.40046	1249.35
1965.48217	1250.75
1968.56188	1247.35
1971.63959	1258.45
1974.7153	1246.75
1977.78901	1239.05
1980.86073	1233.45
1983.93046	1227.65
1986.99819	1237.85
1990.06394	1218.85
1993.1277	1221.65
1996.18947	1218.15
1999.24925	1216.55
2002.30706	1209.45
2005.36288	1202.05
2008.41672	1198.85
2011.46859	1201.45
2014.51848	1190.65
2017.56639	1195.35
2020.61233	1189.55
2023.6563	1186.65
2026.6983	1180.75
2029.73833	1178.55
2032.7764	1175.75
2035.8125	1178.15
2038.84664	1170.05
2041.87881	1178.45
2044.90903	1166.75
2047.93729	1171.95
2050.96359	1171.75
2053.98794	1170.35
2057.01034	1168.05
2060.03078	1165.15
2063.04927	1168.85
2066.06582	1164.35
2069.08042	1158.25
2072.09307	1166.75
2075.10378	1157.95
2078.11255	1162.45
2081.11938	1164.35
2084.12426	1166.55
2087.12722	1171.95
2090.12824	1165.45
2093.12732	1160.35
2096.12447	1158.15
2099.11969	1154.05
2102.11299	1162.05
2105.10435	1159.05
2108.09379	1169.45
2111.08131	1165.75
2114.0669	1174.35
2117.05057	1170.95
2120.03233	1170.45
2123.01216	1171.95
2125.99008	1168.85
2128.96609	1162.05
2131.94018	1170.45
2134.91236	1175.15
2137.88263	1174.15
2140.851	1172.45
2143.81746	1170.65
2146.78201	1172.25
2149.74466	1174.55
2152.7054	1163.95
2155.66425	1166.65
2158.6212	1173.65
2161.57625	1166.25
2164.52941	1173.55
2167.48067	1166.75
2170.43004	1171.45
2173.37752	1170.95
2176.32311	1171.05
2179.26681	1169.75
2182.20863	1169.75
2185.14856	1170.15
2188.08661	1172.65
2191.02278	1178.55
2193.95707	1166.55
2196.88948	1160.95
2199.82001	1168.35
2202.74867	1162.45
2205.67545	1168.45
2208.60037	1152.35
2211.52341	1169.05
2214.44458	1162.85
2217.36388	1158.35
2220.28132	1162.95
2223.1969	1153.35
2226.11061	1159.15
2229.02246	1149.05
2231.93245	1153.15
2234.84058	1144.45
2237.74686	1150.75
2240.65128	1140.65
2243.55385	1140.65
2246.45456	1144.75
2249.35343	1143.55
2252.25044	1134.25
2255.14561	1146.05
2258.03893	1135.45
2260.93041	1134.95
2263.82004	1135.35
2266.70783	1124.85
2269.59378	1133.05
2272.4779	1128.25
2275.36017	1128.45
2278.24061	1116.95
2281.11922	1116.85
2283.996	1120.15
2286.87094	1115.55
2289.74405	1119.55
2292.61534	1124.95
2295.4848	1112.55
2298.35243	1116.55
2301.21824	1106.75
2304.08223	1115.85
2306.94439	1108.15
2309.80474	1110.75
2312.66327	1104.25
2315.51999	1111.25
2318.37489	1116.55
2321.22797	1105.95
2324.07925	1107.45
2326.92871	1102.65
2329.77637	1114.95
2332.62222	1109.35
2335.46626	1101.95
2338.3085	1111.75
2341.14893	1108.55
2343.98756	1103.25
2346.8244	1102.65
2349.65943	1108.45
2352.49267	1103.75
2355.32411	1097.15
2358.15376	1091.95
2360.98161	1098.65
2363.80768	1105.65
2366.63195	1107.65
2369.45444	1105.45
2372.27514	1103.95
2375.09405	1100.55
2377.91118	1106.25
2380.72652	1100.35
2383.54009	1087.45
2386.35187	1095.85
2389.16188	1090.85
2391.97011	1083.45
2394.77657	1086.95
2397.58125	1081.15
2400.38416	1081.95
2403.18529	1080.45
2405.98466	1081.55
2408.78226	1072.75
2411.57809	1072.15
2414.37216	1081.25
2417.16446	1067.15
2419.955	1067.45
2422.74378	1074.05
2425.5308	1062.25
2428.31606	1073.25
2431.09956	1072.55
2433.88131	1061.25
2436.6613	1069.15
2439.43954	1064.25
2442.21603	1063.65
2444.99077	1062.05
2447.76377	1072.05
2450.53501	1066.05
2453.30451	1065.65
2456.07226	1067.05
2458.83827	1068.75
2461.60254	1060.25
2464.36507	1059.05
2467.12586	1071.45
2469.88492	1063.95
2472.64224	1062.45
2475.39782	1056.55
2478.15167	1056.65
2480.90379	1065.25
2483.65417	1066.65
2486.40283	1069.35
2489.14976	1069.15
2491.89497	1063.05
2494.63845	1066.65
2497.3802	1073.35
2500.12024	1066.05
2502.85855	1062.65
2505.59514	1060.75
2508.33002	1054.35
2511.06318	1057.75
2513.79462	1055.35
2516.52435	1050.55
2519.25237	1050.15
2521.97867	1047.15
2524.70327	1047.85
2527.42616	1043.75
2530.14734	1046.15
2532.86681	1042.85
2535.58458	1047.35
2538.30065	1046.95
2541.01501	1044.15
2543.72768	1049.15
2546.43864	1032.85
2549.14791	1038.25
2551.85548	1032.95
2554.56136	1037.65
2557.26554	1040.75
2559.96803	1037.55
2562.66883	1030.45
2565.36794	1035.05
2568.06536	1030.25
2570.7611	1033.15
2573.45514	1033.05
2576.14751	1028.25
2578.83819	1029.85
2581.52719	1025.35
2584.21451	1021.55
2586.90015	1020.25
2589.58411	1016.95
2592.2664	1019.65
2594.94701	1027.05
2597.62594	1014.75
2600.30321	1024.75
2602.9788	1015.85
2605.65273	1017.85
2608.32498	1015.35
2610.99557	1014.35
2613.66449	1017.75
2616.33175	1013.95
2618.99734	1012.45
2621.66128	1014.85
2624.32355	1021.65
2626.98416	1011.85
2629.64311	1007.95
2632.30041	1015.25
2634.95605	1016.45
2637.61004	1011.85
2640.26238	1009.95
2642.91306	1008.25
2645.56209	1002.65
2648.20948	1007.95
2650.85521	1002.65
2653.4993	1006.25
2656.14175	1010.55
2658.78255	1008.75
2661.42171	1008.55
2664.05923	998.55
2666.6951	1003.55
2669.32934	1010.65
2671.96194	1009.95
2674.59291	1015.55
2677.22224	1004.95
2679.84993	1007.15
2682.476	1010.85
2685.10043	1016.35
2687.72324	1008.05
2690.34441	1015.85
2692.96396	1000.25
2695.58188	1011.45
2698.19818	1008.85
2700.81285	1000.05
2703.4259	1012.05
2706.03733	992.45
2708.64714	993.25
2711.25533	999.45
2713.86191	1005.85
2716.46687	1012.25
2719.07021	1009.85
2721.67194	1012.75
2724.27206	1017.95
2726.87057	1013.85
2729.46747	1012.75
2732.06276	1022.65
2734.65644	1021.15
2737.24852	1023.55
2739.83899	1016.35
2742.42786	1023.05
2745.01513	1014.65
2747.60079	1018.75
2750.18486	1006.85
2752.76733	1011.95
2755.3482	1008.05
2757.92747	1005.15
2760.50515	1011.35
2763.08123	1005.85
2765.65573	1007.25
2768.22863	1006.95
2770.79994	1002.15
2773.36967	1001.85
2775.9378	1011.55
2778.50435	1000.55
2781.06932	1007.25
2783.6327	1005.25
2786.1945	1006.15
2788.75471	1007.55
2791.31335	1008.15
2793.87041	1005.25
2796.42589	1008.55
2798.97979	1009.55
2801.53212	1002.05
2804.08288	994.15
2806.63206	992.95
2809.17967	990.95
2811.72571	990.75
2814.27018	999.85
2816.81308	989.55
2819.35442	996.75
2821.89419	993.05
2824.43239	984.15
2826.96904	983.25
2829.50412	989.75
2832.03763	991.65
2834.56959	989.95
2837.1	988.85
2839.62884	992.55
2842.15613	990.65
2844.68186	993.55
2847.20604	982.85
2849.72867	985.95
2852.24974	991.25
2854.76927	997.05
2857.28724	993.05
2859.80367	1000.35
2862.31855	998.55
2864.83189	999.25
2867.34368	1000.55
2869.85393	1002.35
2872.36264	1003.15
2874.8698	999.65
2877.37543	996.05
2879.87952	1002.35
2882.38207	993.05
2884.88308	999.15
2887.38256	1006.85
2889.88051	999.05
2892.37692	1014.35
2894.8718	1014.45
2897.36515	1015.85
2899.85698	1004.05
2902.34727	1009.95
2904.83604	1009.15
2907.32328	1011.95
2909.809	1016.05
2912.29319	1025.65
2914.77587	1023.25
2917.25702	1021.35
2919.73665	1017.85
2922.21476	1017.85
2924.69136	1016.65
2927.16644	1028.05
2929.64	1023.55
2932.11205	1027.85
2934.58258	1013.45
2937.05161	1016.35
2939.51912	1015.55
2941.98513	1013.85
2944.44962	1012.15
2946.91261	1030.25
2949.37409	1022.75
2951.83407	1017.95
2954.29254	1027.25
2956.74951	1021.85
2959.20498	1024.45
2961.65895	1023.35
2964.11142	1033.25
2966.56239	1022.85
2969.01186	1020.65
2971.45984	1020.55
2973.90632	1027.45
2976.35131	1019.65
2978.7948	1020.85
2981.23681	1015.45
2983.67732	1019.45
2986.11635	1014.15
2988.55388	1008.35
2990.98993	1007.15
2993.4245	1008.85
2995.85758	1016.95
2998.28917	1019.25
3000.71928	1019.85
3003.14791	1020.55
3005.57506	1021.95
3008.00073	1012.05
3010.42493	1009.75
3012.84764	1019.05
3015.26888	1023.25
3017.68865	1030.35
3020.10694	1017.75
3022.52376	1026.05
3024.9391	1026.15
3027.35298	1027.45
3029.76539	1031.45
3032.17632	1030.55
3034.5858	1028.85
3036.9938	1036.45
3039.40034	1041.05
3041.80542	1042.35
3044.20903	1048.35
3046.61118	1038.05
3049.01187	1043.15
3051.4111	1050.65
3053.80888	1049.35
3056.20519	1052.45
3058.60005	1049.95
3060.99345	1056.15
3063.3854	1053.15
3065.7759	1050.25
3068.16494	1062.85
3070.55254	1062.75
3072.93868	1059.75
3075.32338	1065.05
3077.70662	1070.05
3080.08842	1068.15
3082.46878	1071.95
3084.84769	1069.75
3087.22515	1088.25
3089.60118	1080.55
3091.97576	1097.25
3094.3489	1092.05
3096.72061	1095.95
3099.09087	1099.45
3101.4597	1109.65
3103.82709	1111.35
3106.19305	1127.35
3108.55757	1129.25
3110.92066	1132.75
3113.28232	1144.45
3115.64255	1143.25
3118.00134	1150.25
3120.35871	1162.85
3122.71466	1153.05
3125.06917	1163.05
3127.42226	1160.85
3129.77393	1171.25
3132.12417	1177.25
3134.47299	1183.75
3136.82039	1192.15
3139.16636	1194.05
3141.51092	1198.15
3143.85406	1209.35
3146.19579	1216.35
3148.53609	1215.35
3150.87499	1228.15
3153.21246	1239.55
3155.54853	1244.25
3157.88318	1253.35
3160.21642	1264.35
3162.54826	1280.65
3164.87868	1273.95
3167.2077	1287.25
3169.5353	1292.05
3171.86151	1298.15
3174.18631	1299.55
3176.5097	1311.05
3178.83169	1318.25
3181.15228	1323.45
3183.47147	1324.65
3185.78926	1340.75
3188.10565	1333.65
3190.42065	1344.35
3192.73424	1352.25
3195.04645	1349.95
3197.35725	1353.05
3199.66667	1355.25
3201.97469	1358.15
3204.28132	1371.75
3206.58656	1386.85
3208.8904	1382.25
3211.19287	1389.05
3213.49394	1390.55
3215.79363	1390.15
3218.09193	1407.55
3220.38884	1408.55
3222.68438	1417.45
3224.97853	1405.95
3227.2713	1421.35
3229.56269	1421.65
3231.8527	1416.25
3234.14133	1416.25
3236.42858	1426.15
3238.71446	1423.95
3240.99896	1413.85
3243.28209	1422.85
3245.56384	1414.75
3247.84423	1426.95
3250.12324	1416.35
3252.40088	1418.75
3254.67715	1425.95
3256.95205	1417.55
3259.22558	1427.55
3261.49775	1425.45
3263.76855	1426.95
3266.03799	1431.75
3268.30606	1427.85
3270.57277	1435.65
3272.83812	1419.85
3275.10211	1421.35
3277.36474	1430.35
3279.62601	1430.35
3281.88593	1424.75
3284.14448	1415.95
3286.40168	1427.15
3288.65753	1426.15
3290.91202	1413.55
3293.16516	1416.15
3295.41695	1419.55
3297.66738	1422.85
3299.91647	1413.35
3302.16421	1407.75
3304.4106	1390.05
3306.65564	1385.35
3308.89933	1376.85
3311.14169	1368.25
3313.38269	1349.25
3315.62236	1348.95
3317.86068	1329.45
3320.09766	1327.95
3322.3333	1319.55
3324.5676	1313.95
3326.80056	1293.55
3329.03219	1280.65
3331.26248	0.45
3333.49143	-0.25
3335.71905	-2.65
