Data from AgNPs_APTES_FTO_UA_100uM_CRN_0uM_R6G_10uM_Scan_RamanShift__16__10-58-21-248.txt Node

Date: Wed Jun 29 10:58:21 BST 2022
User: TCL
Spectrometer: QEP01345
Trigger mode: 4
Integration Time (sec): 7.000000E0
Scans to average: 10
Electric dark correction enabled: true
Nonlinearity correction enabled: false
Boxcar width: 0
XAxis mode: Raman Shifts
Number of Pixels in Spectrum: 1044
>>>>>Begin Spectral Data<<<<<
46.04893	-0.05
50.45542	1.15
54.85868	0.85
59.25871	1.65
63.6555	33.15
68.04907	36.25
72.43941	40.65
76.82654	39.85
81.21044	44.45
85.59113	46.95
89.96862	51.05
94.34289	52.45
98.71396	52.15
103.08183	55.15
107.4465	55.35
111.80798	58.35
116.16626	53.15
120.52136	56.15
124.87327	52.05
129.222	52.25
133.56755	49.55
137.90993	49.75
142.24913	49.55
146.58517	47.95
150.91804	47.25
155.24774	49.45
159.57429	52.95
163.89768	54.05
168.21792	58.85
172.53501	66.15
176.84895	77.95
181.15975	99.65
185.46741	124.55
189.77193	153.35
194.07331	201.25
198.37157	251.35
202.6667	305.05
206.9587	347.25
211.24758	410.35
215.53334	462.45
219.81599	521.75
224.09553	572.75
228.37195	637.15
232.64527	707.95
236.91549	792.35
241.18261	855.05
245.44663	931.05
249.70755	992.15
253.96539	1035.05
258.22014	1072.35
262.4718	1101.05
266.72039	1107.45
270.96589	1099.05
275.20832	1079.85
279.44768	1051.35
283.68397	1022.05
287.91719	999.95
292.14735	985.75
296.37445	956.75
300.59849	944.25
304.81948	918.45
309.03742	923.85
313.25231	920.65
317.46415	901.75
321.67296	887.55
325.87872	874.45
330.08145	874.65
334.28114	874.45
338.47781	877.75
342.67145	884.35
346.86207	893.35
351.04966	912.75
355.23424	932.05
359.4158	936.75
363.59435	949.75
367.76989	963.65
371.94243	965.95
376.11196	965.95
380.27849	977.75
384.44203	985.65
388.60257	995.55
392.76012	992.25
396.91468	1007.55
401.06626	1009.35
405.21485	1014.15
409.36047	1008.85
413.50311	1013.05
417.64277	1003.25
421.77947	997.45
425.9132	998.65
430.04396	995.15
434.17176	1000.15
438.2966	1016.75
442.41849	1021.05
446.53742	1033.65
450.6534	1046.25
454.76644	1051.65
458.87653	1055.95
462.98368	1057.65
467.08789	1071.15
471.18916	1059.85
475.2875	1069.05
479.38291	1071.55
483.4754	1073.55
487.56496	1076.45
491.6516	1081.45
495.73531	1082.65
499.81612	1079.45
503.89401	1081.15
507.96899	1072.75
512.04106	1072.25
516.11023	1071.85
520.1765	1072.25
524.23987	1058.85
528.30034	1063.45
532.35792	1053.55
536.41261	1055.35
540.46441	1052.75
544.51333	1047.35
548.55936	1042.55
552.60252	1054.55
556.64279	1045.65
560.6802	1050.95
564.71473	1061.55
568.7464	1058.55
572.7752	1065.25
576.80114	1063.55
580.82422	1056.95
584.84444	1065.35
588.86181	1068.55
592.87633	1076.85
596.888	1074.85
600.89682	1082.25
604.9028	1109.75
608.90594	1180.15
612.90624	1247.95
616.90371	1252.05
620.89834	1164.35
624.89015	1123.25
628.87913	1126.95
632.86528	1137.05
636.84862	1157.75
640.82913	1159.65
644.80683	1143.55
648.78172	1141.35
652.75379	1136.85
656.72306	1133.65
660.68952	1139.85
664.65319	1150.85
668.61405	1148.05
672.57211	1159.55
676.52738	1171.45
680.47986	1188.45
684.42955	1234.75
688.37646	1252.75
692.32058	1245.95
696.26192	1202.65
700.20048	1173.75
704.13626	1170.15
708.06928	1159.25
711.99952	1157.35
715.927	1153.05
719.85171	1147.65
723.77365	1144.35
727.69284	1137.25
731.60928	1133.25
735.52295	1137.85
739.43388	1133.75
743.34206	1120.15
747.24749	1123.65
751.15017	1120.05
755.05012	1101.35
758.94733	1131.35
762.8418	1153.85
766.73354	1196.15
770.62254	1231.45
774.50882	1250.75
778.39237	1235.45
782.27321	1213.25
786.15132	1174.65
790.02671	1161.35
793.89938	1152.55
797.76935	1148.55
801.6366	1151.95
805.50115	1151.85
809.36299	1157.85
813.22213	1163.25
817.07857	1162.75
820.93231	1146.55
824.78336	1136.85
828.63172	1134.35
832.47738	1123.05
836.32036	1117.55
840.16066	1112.35
843.99827	1119.05
847.8332	1118.25
851.66546	1114.75
855.49504	1113.15
859.32195	1105.45
863.1462	1109.95
866.96777	1110.65
870.78668	1117.45
874.60293	1115.05
878.41652	1131.75
882.22745	1132.65
886.03573	1134.35
889.84136	1148.05
893.64433	1157.55
897.44466	1149.95
901.24235	1155.75
905.0374	1158.75
908.8298	1148.75
912.61957	1146.45
916.40671	1150.35
920.19121	1160.65
923.97308	1160.35
927.75233	1175.65
931.52895	1175.45
935.30295	1162.45
939.07433	1156.15
942.84309	1134.45
946.60924	1131.75
950.37278	1134.05
954.13371	1123.75
957.89203	1124.45
961.64774	1122.15
965.40086	1108.95
969.15137	1103.35
972.89929	1108.25
976.64461	1095.65
980.38733	1096.25
984.12747	1092.75
987.86502	1093.85
991.59999	1098.55
995.33237	1098.05
999.06217	1099.35
1002.78939	1103.05
1006.51404	1116.75
1010.23611	1112.95
1013.95561	1126.75
1017.67255	1129.35
1021.38692	1139.25
1025.09872	1126.85
1028.80796	1129.35
1032.51465	1119.35
1036.21877	1117.75
1039.92035	1120.15
1043.61937	1109.55
1047.31584	1112.65
1051.00976	1118.75
1054.70114	1119.45
1058.38998	1115.25
1062.07627	1121.35
1065.76003	1116.55
1069.44126	1131.15
1073.11995	1133.75
1076.79611	1137.15
1080.46974	1140.85
1084.14085	1133.35
1087.80943	1138.95
1091.47549	1136.65
1095.13903	1121.75
1098.80005	1113.45
1102.45857	1108.35
1106.11456	1101.35
1109.76805	1109.45
1113.41903	1116.75
1117.06751	1130.45
1120.71348	1151.25
1124.35696	1178.35
1127.99793	1209.35
1131.63641	1221.15
1135.2724	1227.25
1138.90589	1221.55
1142.5369	1204.85
1146.16542	1190.55
1149.79145	1174.75
1153.415	1155.15
1157.03607	1143.05
1160.65467	1134.75
1164.27079	1143.65
1167.88443	1142.45
1171.49561	1156.55
1175.10432	1184.35
1178.71056	1216.85
1182.31434	1252.35
1185.91565	1261.95
1189.51451	1256.25
1193.11091	1240.75
1196.70485	1226.55
1200.29634	1216.25
1203.88538	1211.15
1207.47197	1198.55
1211.05612	1183.95
1214.63782	1167.85
1218.21708	1160.15
1221.79391	1164.55
1225.36829	1160.45
1228.94024	1154.15
1232.50976	1153.35
1236.07685	1167.45
1239.6415	1168.25
1243.20374	1175.85
1246.76355	1171.65
1250.32093	1174.55
1253.8759	1176.55
1257.42845	1183.65
1260.97859	1185.75
1264.52631	1201.95
1268.07163	1222.45
1271.61453	1214.45
1275.15503	1233.25
1278.69312	1233.95
1282.22882	1239.45
1285.76211	1247.45
1289.29301	1260.95
1292.82151	1282.15
1296.34761	1295.05
1299.87133	1333.95
1303.39266	1358.85
1306.9116	1410.85
1310.42815	1454.65
1313.94233	1471.45
1317.45412	1453.95
1320.96354	1424.35
1324.47058	1390.05
1327.97525	1354.15
1331.47754	1355.25
1334.97747	1355.05
1338.47502	1368.45
1341.97022	1384.25
1345.46305	1402.85
1348.95352	1439.95
1352.44163	1486.15
1355.92738	1533.35
1359.41078	1602.05
1362.89183	1675.95
1366.37053	1686.35
1369.84688	1604.15
1373.32088	1514.35
1376.79254	1445.15
1380.26186	1403.95
1383.72883	1385.35
1387.19347	1362.25
1390.65578	1344.35
1394.11575	1330.55
1397.57339	1321.15
1401.0287	1322.45
1404.48168	1302.35
1407.93234	1290.05
1411.38068	1283.15
1414.82669	1272.85
1418.27039	1266.05
1421.71177	1252.55
1425.15083	1237.85
1428.58758	1229.05
1432.02203	1208.95
1435.45416	1211.25
1438.88399	1202.15
1442.31151	1189.45
1445.73673	1178.45
1449.15965	1167.05
1452.58027	1173.15
1455.9986	1177.55
1459.41463	1168.15
1462.82837	1177.25
1466.23982	1175.95
1469.64898	1188.15
1473.05586	1189.75
1476.46045	1189.65
1479.86276	1208.35
1483.26279	1204.05
1486.66054	1218.25
1490.05602	1222.85
1493.44922	1230.15
1496.84016	1265.45
1500.22882	1299.05
1503.61521	1341.05
1506.99934	1396.85
1510.38121	1439.55
1513.76081	1458.25
1517.13816	1419.65
1520.51324	1361.55
1523.88607	1293.25
1527.25665	1253.65
1530.62498	1232.85
1533.99105	1228.95
1537.35488	1218.25
1540.71647	1214.65
1544.07581	1208.15
1547.4329	1213.05
1550.78776	1215.85
1554.14038	1217.25
1557.49077	1227.95
1560.83892	1229.55
1564.18484	1234.45
1567.52853	1239.15
1570.86999	1260.35
1574.20922	1262.25
1577.54624	1262.05
1580.88103	1248.95
1584.2136	1222.55
1587.54395	1193.55
1590.87208	1188.95
1594.19801	1183.65
1597.52172	1177.55
1600.84321	1173.15
1604.16251	1165.35
1607.47959	1150.95
1610.79447	1148.75
1614.10715	1125.45
1617.41763	1125.75
1620.7259	1111.45
1624.03199	1107.15
1627.33587	1103.95
1630.63757	1092.55
1633.93707	1095.45
1637.23439	1095.75
1640.52951	1099.05
1643.82246	1122.55
1647.11321	1155.85
1650.40179	1169.15
1653.68819	1159.45
1656.97241	1112.65
1660.25446	1069.65
1663.53433	1029.45
1666.81203	1011.95
1670.08756	1012.95
1673.36092	1016.95
1676.63211	1026.35
1679.90115	1016.75
1683.16801	1011.85
1686.43272	1000.85
1689.69527	986.05
1692.95567	962.25
1696.2139	915.25
1699.46999	874.85
1702.72392	862.65
1705.97571	872.55
1709.22535	888.25
1712.47284	902.05
1715.71819	907.05
1718.96139	899.05
1722.20246	897.65
1725.44139	888.35
1728.67818	865.85
1731.91284	862.55
1735.14537	861.15
1738.37576	858.15
1741.60403	847.15
1744.83017	830.85
1748.05418	827.45
1751.27607	808.35
1754.49584	792.35
1757.71349	768.75
1760.92903	760.35
1764.14244	765.45
1767.35375	758.95
1770.56294	752.85
1773.77002	767.35
1776.97499	768.35
1780.17785	794.05
1783.37861	799.45
1786.57727	806.85
1789.77382	796.85
1792.96828	803.65
1796.16064	803.35
1799.3509	798.85
1802.53907	805.45
1805.72514	798.65
1808.90913	799.55
1812.09102	795.65
1815.27083	793.35
1818.44856	786.15
1821.6242	790.95
1824.79776	789.15
1827.96924	785.25
1831.13864	786.95
1834.30597	785.45
1837.47122	787.25
1840.6344	791.05
1843.7955	785.35
1846.95454	777.25
1850.11151	779.65
1853.26642	781.75
1856.41926	775.95
1859.57004	779.05
1862.71876	783.25
1865.86542	773.15
1869.01003	785.15
1872.15258	776.65
1875.29308	772.85
1878.43152	772.15
1881.56792	773.45
1884.70227	775.55
1887.83457	766.85
1890.96482	769.35
1894.09304	768.65
1897.21921	763.25
1900.34335	764.85
1903.46544	755.45
1906.58551	761.95
1909.70353	761.15
1912.81953	766.85
1915.93349	758.25
1919.04543	770.75
1922.15534	768.15
1925.26322	757.45
1928.36908	759.75
1931.47292	759.45
1934.57473	758.65
1937.67453	757.95
1940.77232	755.15
1943.86808	748.55
1946.96184	753.55
1950.05358	749.15
1953.14331	747.15
1956.23103	741.05
1959.31675	748.05
1962.40046	733.75
1965.48217	743.85
1968.56188	739.35
1971.63959	734.25
1974.7153	733.75
1977.78901	726.35
1980.86073	727.05
1983.93046	724.15
1986.99819	723.75
1990.06394	723.15
1993.1277	721.65
1996.18947	716.05
1999.24925	719.65
2002.30706	719.05
2005.36288	715.55
2008.41672	708.05
2011.46859	708.55
2014.51848	703.65
2017.56639	704.75
2020.61233	709.45
2023.6563	704.25
2026.6983	700.15
2029.73833	707.25
2032.7764	699.05
2035.8125	702.75
2038.84664	699.35
2041.87881	696.45
2044.90903	698.45
2047.93729	695.15
2050.96359	691.95
2053.98794	700.55
2057.01034	695.65
2060.03078	695.05
2063.04927	702.25
2066.06582	709.95
2069.08042	702.05
2072.09307	713.65
2075.10378	708.15
2078.11255	717.45
2081.11938	715.25
2084.12426	720.15
2087.12722	725.75
2090.12824	719.15
2093.12732	722.95
2096.12447	724.45
2099.11969	732.25
2102.11299	734.75
2105.10435	741.35
2108.09379	741.05
2111.08131	744.65
2114.0669	748.15
2117.05057	750.35
2120.03233	748.65
2123.01216	749.05
2125.99008	746.65
2128.96609	740.65
2131.94018	748.35
2134.91236	745.15
2137.88263	750.15
2140.851	737.85
2143.81746	741.75
2146.78201	742.65
2149.74466	743.45
2152.7054	738.25
2155.66425	729.75
2158.6212	735.35
2161.57625	734.25
2164.52941	735.95
2167.48067	735.35
2170.43004	735.75
2173.37752	727.95
2176.32311	738.35
2179.26681	727.55
2182.20863	731.55
2185.14856	729.15
2188.08661	727.55
2191.02278	731.55
2193.95707	729.45
2196.88948	705.25
2199.82001	710.55
2202.74867	709.05
2205.67545	706.45
2208.60037	706.75
2211.52341	706.95
2214.44458	704.45
2217.36388	698.75
2220.28132	696.55
2223.1969	698.25
2226.11061	694.15
2229.02246	691.15
2231.93245	689.95
2234.84058	690.05
2237.74686	694.85
2240.65128	690.35
2243.55385	682.65
2246.45456	691.75
2249.35343	685.95
2252.25044	687.65
2255.14561	684.85
2258.03893	682.75
2260.93041	667.55
2263.82004	676.35
2266.70783	670.55
2269.59378	678.45
2272.4779	670.95
2275.36017	673.85
2278.24061	672.55
2281.11922	662.95
2283.996	670.75
2286.87094	674.75
2289.74405	671.55
2292.61534	673.25
2295.4848	667.35
2298.35243	665.15
2301.21824	669.25
2304.08223	673.15
2306.94439	664.95
2309.80474	664.85
2312.66327	667.25
2315.51999	669.95
2318.37489	668.95
2321.22797	662.65
2324.07925	661.25
2326.92871	663.05
2329.77637	672.45
2332.62222	661.25
2335.46626	658.85
2338.3085	660.45
2341.14893	658.05
2343.98756	657.05
2346.8244	653.45
2349.65943	653.35
2352.49267	659.95
2355.32411	646.85
2358.15376	655.45
2360.98161	653.15
2363.80768	657.45
2366.63195	660.95
2369.45444	655.55
2372.27514	662.55
2375.09405	654.85
2377.91118	657.05
2380.72652	658.65
2383.54009	655.95
2386.35187	654.35
2389.16188	655.25
2391.97011	655.85
2394.77657	652.35
2397.58125	642.25
2400.38416	649.05
2403.18529	646.15
2405.98466	649.25
2408.78226	643.55
2411.57809	643.25
2414.37216	651.55
2417.16446	641.45
2419.955	639.25
2422.74378	642.45
2425.5308	642.45
2428.31606	645.95
2431.09956	639.05
2433.88131	639.65
2436.6613	636.25
2439.43954	639.95
2442.21603	638.05
2444.99077	642.35
2447.76377	640.15
2450.53501	639.15
2453.30451	641.55
2456.07226	637.85
2458.83827	641.05
2461.60254	627.05
2464.36507	639.65
2467.12586	636.05
2469.88492	636.85
2472.64224	632.15
2475.39782	628.45
2478.15167	623.25
2480.90379	626.45
2483.65417	633.95
2486.40283	635.55
2489.14976	641.25
2491.89497	634.25
2494.63845	621.25
2497.3802	623.85
2500.12024	623.25
2502.85855	626.95
2505.59514	624.05
2508.33002	628.35
2511.06318	634.45
2513.79462	636.05
2516.52435	634.65
2519.25237	628.95
2521.97867	632.85
2524.70327	627.85
2527.42616	630.05
2530.14734	625.55
2532.86681	625.35
2535.58458	629.45
2538.30065	629.55
2541.01501	625.35
2543.72768	619.85
2546.43864	622.25
2549.14791	626.05
2551.85548	619.55
2554.56136	617.45
2557.26554	617.95
2559.96803	616.05
2562.66883	621.85
2565.36794	616.75
2568.06536	617.85
2570.7611	613.85
2573.45514	612.65
2576.14751	611.45
2578.83819	604.95
2581.52719	615.05
2584.21451	609.75
2586.90015	605.45
2589.58411	609.55
2592.2664	613.15
2594.94701	611.45
2597.62594	605.15
2600.30321	612.95
2602.9788	611.05
2605.65273	611.15
2608.32498	604.35
2610.99557	606.55
2613.66449	601.95
2616.33175	605.55
2618.99734	611.25
2621.66128	604.05
2624.32355	598.95
2626.98416	605.15
2629.64311	601.65
2632.30041	601.35
2634.95605	601.45
2637.61004	610.45
2640.26238	599.45
2642.91306	593.45
2645.56209	600.95
2648.20948	595.55
2650.85521	595.85
2653.4993	602.75
2656.14175	604.35
2658.78255	604.95
2661.42171	603.05
2664.05923	606.15
2666.6951	601.35
2669.32934	595.75
2671.96194	605.55
2674.59291	600.45
2677.22224	595.75
2679.84993	598.05
2682.476	604.35
2685.10043	611.75
2687.72324	604.05
2690.34441	601.15
2692.96396	603.45
2695.58188	607.55
2698.19818	600.45
2700.81285	604.95
2703.4259	592.85
2706.03733	544.55
2708.64714	569.75
2711.25533	589.25
2713.86191	592.25
2716.46687	598.45
2719.07021	599.35
2721.67194	607.85
2724.27206	610.15
2726.87057	604.65
2729.46747	610.75
2732.06276	618.35
2734.65644	604.15
2737.24852	609.65
2739.83899	610.35
2742.42786	616.95
2745.01513	609.45
2747.60079	615.45
2750.18486	612.85
2752.76733	603.05
2755.3482	606.05
2757.92747	605.65
2760.50515	610.75
2763.08123	603.45
2765.65573	602.25
2768.22863	609.25
2770.79994	606.95
2773.36967	605.95
2775.9378	607.95
2778.50435	606.35
2781.06932	610.05
2783.6327	601.15
2786.1945	601.15
2788.75471	601.15
2791.31335	606.45
2793.87041	601.65
2796.42589	599.55
2798.97979	609.15
2801.53212	598.85
2804.08288	602.05
2806.63206	602.85
2809.17967	591.65
2811.72571	589.45
2814.27018	599.15
2816.81308	594.55
2819.35442	592.65
2821.89419	590.55
2824.43239	593.15
2826.96904	591.65
2829.50412	586.95
2832.03763	593.55
2834.56959	595.85
2837.1	596.25
2839.62884	593.65
2842.15613	587.35
2844.68186	591.15
2847.20604	589.35
2849.72867	582.45
2852.24974	592.25
2854.76927	579.55
2857.28724	574.95
2859.80367	584.75
2862.31855	589.45
2864.83189	587.55
2867.34368	592.05
2869.85393	591.15
2872.36264	596.35
2874.8698	594.45
2877.37543	596.95
2879.87952	589.95
2882.38207	598.45
2884.88308	597.15
2887.38256	595.35
2889.88051	603.15
2892.37692	603.35
2894.8718	603.25
2897.36515	611.95
2899.85698	600.55
2902.34727	608.05
2904.83604	613.05
2907.32328	611.95
2909.809	611.55
2912.29319	616.95
2914.77587	612.85
2917.25702	615.55
2919.73665	621.75
2922.21476	620.25
2924.69136	624.65
2927.16644	625.65
2929.64	623.75
2932.11205	622.35
2934.58258	627.35
2937.05161	623.45
2939.51912	621.05
2941.98513	625.05
2944.44962	622.95
2946.91261	621.95
2949.37409	630.75
2951.83407	627.45
2954.29254	626.05
2956.74951	628.65
2959.20498	630.15
2961.65895	626.45
2964.11142	633.95
2966.56239	624.45
2969.01186	632.25
2971.45984	634.05
2973.90632	634.75
2976.35131	636.35
2978.7948	630.35
2981.23681	635.55
2983.67732	633.35
2986.11635	634.25
2988.55388	633.75
2990.98993	636.75
2993.4245	631.25
2995.85758	640.75
2998.28917	637.15
3000.71928	639.45
3003.14791	639.55
3005.57506	638.55
3008.00073	632.85
3010.42493	638.85
3012.84764	639.85
3015.26888	647.95
3017.68865	651.35
3020.10694	645.15
3022.52376	648.25
3024.9391	655.65
3027.35298	654.55
3029.76539	653.85
3032.17632	659.65
3034.5858	659.65
3036.9938	657.15
3039.40034	664.15
3041.80542	673.65
3044.20903	676.75
3046.61118	674.75
3049.01187	680.65
3051.4111	681.65
3053.80888	681.45
3056.20519	707.85
3058.60005	694.95
3060.99345	692.95
3063.3854	692.65
3065.7759	693.95
3068.16494	695.35
3070.55254	701.75
3072.93868	701.75
3075.32338	714.95
3077.70662	708.55
3080.08842	708.65
3082.46878	711.35
3084.84769	720.95
3087.22515	720.75
3089.60118	724.55
3091.97576	741.45
3094.3489	742.25
3096.72061	747.75
3099.09087	753.45
3101.4597	757.85
3103.82709	768.25
3106.19305	771.95
3108.55757	780.65
3110.92066	778.35
3113.28232	789.35
3115.64255	796.65
3118.00134	796.25
3120.35871	802.65
3122.71466	801.95
3125.06917	809.25
3127.42226	811.95
3129.77393	817.85
3132.12417	828.35
3134.47299	833.85
3136.82039	829.95
3139.16636	844.75
3141.51092	856.45
3143.85406	863.85
3146.19579	866.05
3148.53609	875.65
3150.87499	882.45
3153.21246	885.05
3155.54853	894.35
3157.88318	897.85
3160.21642	912.05
3162.54826	925.15
3164.87868	925.25
3167.2077	936.95
3169.5353	939.65
3171.86151	953.95
3174.18631	952.45
3176.5097	956.65
3178.83169	962.15
3181.15228	970.15
3183.47147	973.35
3185.78926	985.75
3188.10565	980.35
3190.42065	991.05
3192.73424	996.75
3195.04645	1001.75
3197.35725	1003.05
3199.66667	1014.35
3201.97469	1023.15
3204.28132	1026.25
3206.58656	1038.65
3208.8904	1029.35
3211.19287	1042.65
3213.49394	1047.45
3215.79363	1049.85
3218.09193	1051.55
3220.38884	1048.85
3222.68438	1045.85
3224.97853	1047.15
3227.2713	1061.65
3229.56269	1064.45
3231.8527	1067.55
3234.14133	1064.45
3236.42858	1068.95
3238.71446	1068.65
3240.99896	1061.85
3243.28209	1070.35
3245.56384	1064.35
3247.84423	1062.65
3250.12324	1068.45
3252.40088	1065.85
3254.67715	1066.95
3256.95205	1066.25
3259.22558	1072.95
3261.49775	1070.55
3263.76855	1076.15
3266.03799	1075.95
3268.30606	1080.25
3270.57277	1085.75
3272.83812	1075.25
3275.10211	1072.75
3277.36474	1076.35
3279.62601	1078.15
3281.88593	1069.45
3284.14448	1076.55
3286.40168	1078.65
3288.65753	1083.65
3290.91202	1081.25
3293.16516	1074.05
3295.41695	1067.95
3297.66738	1074.05
3299.91647	1066.65
3302.16421	1052.95
3304.4106	1055.35
3306.65564	1044.55
3308.89933	1041.35
3311.14169	1029.85
3313.38269	1016.15
3315.62236	1017.55
3317.86068	1002.65
3320.09766	1003.55
3322.3333	1000.45
3324.5676	992.45
3326.80056	961.25
3329.03219	969.55
3331.26248	0.05
3333.49143	-0.95
3335.71905	-1.85
