Data from AgNPs_APTES_FTO_UA_100uM_CRN_0uM_R6G_10uM_Scan_RamanShift__4__10-44-21-231.txt Node

Date: Wed Jun 29 10:44:21 BST 2022
User: TCL
Spectrometer: QEP01345
Trigger mode: 4
Integration Time (sec): 7.000000E0
Scans to average: 10
Electric dark correction enabled: true
Nonlinearity correction enabled: false
Boxcar width: 0
XAxis mode: Raman Shifts
Number of Pixels in Spectrum: 1044
>>>>>Begin Spectral Data<<<<<
46.04893	0.1125
50.45542	-0.1875
54.85868	0.7125
59.25871	1.6125
63.6555	40.6125
68.04907	42.9125
72.43941	46.0125
76.82654	48.8125
81.21044	53.6125
85.59113	54.8125
89.96862	56.3125
94.34289	59.8125
98.71396	57.4125
103.08183	63.6125
107.4465	61.5125
111.80798	64.5125
116.16626	62.7125
120.52136	64.9125
124.87327	61.8125
129.222	60.0125
133.56755	59.2125
137.90993	52.7125
142.24913	58.2125
146.58517	55.5125
150.91804	53.0125
155.24774	60.8125
159.57429	58.3125
163.89768	64.1125
168.21792	67.7125
172.53501	79.7125
176.84895	94.3125
181.15975	120.0125
185.46741	148.3125
189.77193	191.3125
194.07331	244.1125
198.37157	310.2125
202.6667	377.1125
206.9587	436.4125
211.24758	510.2125
215.53334	573.5125
219.81599	646.5125
224.09553	721.2125
228.37195	803.2125
232.64527	894.1125
236.91549	981.4125
241.18261	1075.8125
245.44663	1162.0125
249.70755	1241.8125
253.96539	1309.6125
258.22014	1335.6125
262.4718	1365.9125
266.72039	1363.8125
270.96589	1347.3125
275.20832	1318.3125
279.44768	1279.9125
283.68397	1231.0125
287.91719	1188.3125
292.14735	1147.6125
296.37445	1110.1125
300.59849	1089.8125
304.81948	1063.3125
309.03742	1047.9125
313.25231	1031.4125
317.46415	1015.2125
321.67296	986.1125
325.87872	972.8125
330.08145	969.5125
334.28114	969.4125
338.47781	971.7125
342.67145	983.1125
346.86207	992.5125
351.04966	1009.6125
355.23424	1027.5125
359.4158	1031.3125
363.59435	1040.1125
367.76989	1058.9125
371.94243	1061.2125
376.11196	1050.5125
380.27849	1071.9125
384.44203	1069.3125
388.60257	1071.5125
392.76012	1078.6125
396.91468	1090.2125
401.06626	1096.8125
405.21485	1106.6125
409.36047	1097.1125
413.50311	1104.3125
417.64277	1087.1125
421.77947	1089.9125
425.9132	1097.4125
430.04396	1101.3125
434.17176	1105.6125
438.2966	1122.6125
442.41849	1134.3125
446.53742	1136.8125
450.6534	1147.1125
454.76644	1159.5125
458.87653	1169.2125
462.98368	1164.2125
467.08789	1164.1125
471.18916	1176.2125
475.2875	1165.8125
479.38291	1171.3125
483.4754	1170.8125
487.56496	1173.6125
491.6516	1171.8125
495.73531	1180.5125
499.81612	1170.0125
503.89401	1164.2125
507.96899	1170.8125
512.04106	1165.4125
516.11023	1153.6125
520.1765	1158.6125
524.23987	1152.3125
528.30034	1152.9125
532.35792	1148.5125
536.41261	1148.4125
540.46441	1141.7125
544.51333	1136.8125
548.55936	1143.0125
552.60252	1144.1125
556.64279	1150.7125
560.6802	1148.9125
564.71473	1143.4125
568.7464	1151.4125
572.7752	1164.0125
576.80114	1151.7125
580.82422	1148.2125
584.84444	1145.1125
588.86181	1151.7125
592.87633	1155.7125
596.888	1160.4125
600.89682	1176.6125
604.9028	1198.9125
608.90594	1261.7125
612.90624	1346.7125
616.90371	1347.4125
620.89834	1269.1125
624.89015	1229.9125
628.87913	1231.3125
632.86528	1230.0125
636.84862	1234.5125
640.82913	1230.8125
644.80683	1221.4125
648.78172	1222.2125
652.75379	1228.5125
656.72306	1225.7125
660.68952	1241.6125
664.65319	1252.6125
668.61405	1261.0125
672.57211	1276.8125
676.52738	1298.8125
680.47986	1309.3125
684.42955	1327.0125
688.37646	1344.1125
692.32058	1337.7125
696.26192	1327.0125
700.20048	1315.2125
704.13626	1312.1125
708.06928	1307.4125
711.99952	1308.6125
715.927	1295.9125
719.85171	1285.3125
723.77365	1271.9125
727.69284	1264.0125
731.60928	1265.7125
735.52295	1258.3125
739.43388	1241.0125
743.34206	1239.5125
747.24749	1231.6125
751.15017	1233.4125
755.05012	1214.7125
758.94733	1248.0125
762.8418	1261.6125
766.73354	1306.5125
770.62254	1332.9125
774.50882	1364.7125
778.39237	1354.3125
782.27321	1328.6125
786.15132	1313.6125
790.02671	1284.9125
793.89938	1277.0125
797.76935	1287.1125
801.6366	1289.5125
805.50115	1288.5125
809.36299	1294.3125
813.22213	1297.5125
817.07857	1300.6125
820.93231	1287.3125
824.78336	1281.1125
828.63172	1269.1125
832.47738	1262.9125
836.32036	1261.8125
840.16066	1272.8125
843.99827	1267.3125
847.8332	1266.1125
851.66546	1254.4125
855.49504	1254.8125
859.32195	1246.8125
863.1462	1253.5125
866.96777	1253.4125
870.78668	1261.6125
874.60293	1266.4125
878.41652	1271.8125
882.22745	1292.1125
886.03573	1313.1125
889.84136	1332.9125
893.64433	1345.5125
897.44466	1349.3125
901.24235	1357.0125
905.0374	1348.5125
908.8298	1356.2125
912.61957	1348.0125
916.40671	1362.8125
920.19121	1383.0125
923.97308	1387.6125
927.75233	1400.6125
931.52895	1405.0125
935.30295	1397.0125
939.07433	1375.8125
942.84309	1349.2125
946.60924	1335.5125
950.37278	1334.9125
954.13371	1331.0125
957.89203	1309.9125
961.64774	1317.5125
965.40086	1304.5125
969.15137	1294.3125
972.89929	1285.8125
976.64461	1290.1125
980.38733	1290.8125
984.12747	1283.7125
987.86502	1279.4125
991.59999	1283.1125
995.33237	1280.7125
999.06217	1287.8125
1002.78939	1288.9125
1006.51404	1295.5125
1010.23611	1296.2125
1013.95561	1303.9125
1017.67255	1305.7125
1021.38692	1306.9125
1025.09872	1305.0125
1028.80796	1313.9125
1032.51465	1310.5125
1036.21877	1298.1125
1039.92035	1315.9125
1043.61937	1307.2125
1047.31584	1305.9125
1051.00976	1312.8125
1054.70114	1299.6125
1058.38998	1304.8125
1062.07627	1296.2125
1065.76003	1301.6125
1069.44126	1291.3125
1073.11995	1290.3125
1076.79611	1287.1125
1080.46974	1280.5125
1084.14085	1279.0125
1087.80943	1270.7125
1091.47549	1269.4125
1095.13903	1256.5125
1098.80005	1255.3125
1102.45857	1248.4125
1106.11456	1244.0125
1109.76805	1249.5125
1113.41903	1248.0125
1117.06751	1258.6125
1120.71348	1265.3125
1124.35696	1281.8125
1127.99793	1311.0125
1131.63641	1322.5125
1135.2724	1326.6125
1138.90589	1321.3125
1142.5369	1305.2125
1146.16542	1304.3125
1149.79145	1288.2125
1153.415	1278.1125
1157.03607	1278.4125
1160.65467	1275.8125
1164.27079	1266.7125
1167.88443	1279.7125
1171.49561	1300.0125
1175.10432	1314.5125
1178.71056	1342.3125
1182.31434	1377.2125
1185.91565	1383.6125
1189.51451	1373.6125
1193.11091	1352.4125
1196.70485	1339.2125
1200.29634	1336.7125
1203.88538	1335.6125
1207.47197	1325.9125
1211.05612	1323.7125
1214.63782	1308.9125
1218.21708	1315.7125
1221.79391	1305.7125
1225.36829	1314.1125
1228.94024	1314.1125
1232.50976	1329.6125
1236.07685	1331.8125
1239.6415	1339.4125
1243.20374	1362.3125
1246.76355	1361.4125
1250.32093	1366.7125
1253.8759	1378.1125
1257.42845	1378.6125
1260.97859	1383.4125
1264.52631	1397.3125
1268.07163	1408.7125
1271.61453	1417.2125
1275.15503	1432.2125
1278.69312	1435.0125
1282.22882	1447.8125
1285.76211	1466.7125
1289.29301	1473.4125
1292.82151	1492.3125
1296.34761	1511.8125
1299.87133	1541.1125
1303.39266	1559.1125
1306.9116	1598.5125
1310.42815	1646.7125
1313.94233	1664.6125
1317.45412	1646.0125
1320.96354	1619.9125
1324.47058	1600.4125
1327.97525	1577.7125
1331.47754	1583.1125
1334.97747	1583.0125
1338.47502	1606.9125
1341.97022	1623.8125
1345.46305	1651.1125
1348.95352	1701.6125
1352.44163	1739.6125
1355.92738	1800.9125
1359.41078	1868.3125
1362.89183	1951.4125
1366.37053	1955.7125
1369.84688	1894.2125
1373.32088	1828.5125
1376.79254	1771.6125
1380.26186	1763.9125
1383.72883	1757.6125
1387.19347	1740.2125
1390.65578	1729.2125
1394.11575	1711.4125
1397.57339	1701.1125
1401.0287	1704.8125
1404.48168	1685.3125
1407.93234	1676.8125
1411.38068	1672.7125
1414.82669	1659.0125
1418.27039	1641.4125
1421.71177	1636.2125
1425.15083	1619.0125
1428.58758	1596.0125
1432.02203	1589.4125
1435.45416	1570.9125
1438.88399	1575.3125
1442.31151	1555.4125
1445.73673	1545.0125
1449.15965	1540.2125
1452.58027	1536.1125
1455.9986	1539.0125
1459.41463	1540.2125
1462.82837	1554.9125
1466.23982	1554.9125
1469.64898	1572.3125
1473.05586	1574.9125
1476.46045	1592.6125
1479.86276	1592.1125
1483.26279	1598.5125
1486.66054	1610.5125
1490.05602	1600.0125
1493.44922	1616.2125
1496.84016	1617.5125
1500.22882	1632.9125
1503.61521	1666.7125
1506.99934	1708.0125
1510.38121	1742.4125
1513.76081	1743.5125
1517.13816	1689.6125
1520.51324	1621.1125
1523.88607	1556.8125
1527.25665	1508.8125
1530.62498	1479.6125
1533.99105	1458.1125
1537.35488	1449.7125
1540.71647	1445.4125
1544.07581	1437.3125
1547.4329	1424.9125
1550.78776	1426.1125
1554.14038	1416.9125
1557.49077	1416.9125
1560.83892	1429.2125
1564.18484	1418.4125
1567.52853	1430.2125
1570.86999	1432.1125
1574.20922	1446.8125
1577.54624	1431.9125
1580.88103	1418.9125
1584.2136	1402.1125
1587.54395	1371.9125
1590.87208	1358.9125
1594.19801	1346.8125
1597.52172	1344.0125
1600.84321	1330.5125
1604.16251	1322.8125
1607.47959	1317.1125
1610.79447	1302.0125
1614.10715	1292.5125
1617.41763	1290.1125
1620.7259	1275.2125
1624.03199	1270.8125
1627.33587	1268.2125
1630.63757	1255.5125
1633.93707	1256.7125
1637.23439	1247.1125
1640.52951	1254.0125
1643.82246	1263.9125
1647.11321	1280.8125
1650.40179	1299.7125
1653.68819	1297.1125
1656.97241	1250.2125
1660.25446	1212.1125
1663.53433	1173.0125
1666.81203	1144.9125
1670.08756	1123.1125
1673.36092	1131.6125
1676.63211	1112.1125
1679.90115	1107.0125
1683.16801	1091.1125
1686.43272	1089.7125
1689.69527	1068.4125
1692.95567	1046.3125
1696.2139	1032.7125
1699.46999	1007.6125
1702.72392	994.4125
1705.97571	1003.8125
1709.22535	1003.2125
1712.47284	1002.2125
1715.71819	1004.1125
1718.96139	1003.8125
1722.20246	992.5125
1725.44139	982.8125
1728.67818	976.7125
1731.91284	971.3125
1735.14537	959.8125
1738.37576	961.4125
1741.60403	951.2125
1744.83017	939.2125
1748.05418	938.4125
1751.27607	926.1125
1754.49584	910.6125
1757.71349	904.5125
1760.92903	904.1125
1764.14244	905.3125
1767.35375	894.0125
1770.56294	893.4125
1773.77002	896.9125
1776.97499	901.4125
1780.17785	900.7125
1783.37861	907.0125
1786.57727	906.5125
1789.77382	910.1125
1792.96828	908.1125
1796.16064	895.8125
1799.3509	896.3125
1802.53907	899.5125
1805.72514	893.9125
1808.90913	896.0125
1812.09102	891.7125
1815.27083	883.1125
1818.44856	879.7125
1821.6242	888.0125
1824.79776	887.6125
1827.96924	879.7125
1831.13864	882.4125
1834.30597	876.7125
1837.47122	879.3125
1840.6344	878.2125
1843.7955	874.7125
1846.95454	872.7125
1850.11151	874.7125
1853.26642	873.1125
1856.41926	870.9125
1859.57004	878.1125
1862.71876	861.7125
1865.86542	868.3125
1869.01003	871.5125
1872.15258	875.1125
1875.29308	868.1125
1878.43152	854.4125
1881.56792	859.5125
1884.70227	858.4125
1887.83457	858.3125
1890.96482	858.0125
1894.09304	862.3125
1897.21921	856.3125
1900.34335	855.1125
1903.46544	855.5125
1906.58551	859.8125
1909.70353	855.2125
1912.81953	853.0125
1915.93349	854.9125
1919.04543	855.3125
1922.15534	851.4125
1925.26322	854.7125
1928.36908	846.7125
1931.47292	849.6125
1934.57473	850.3125
1937.67453	854.7125
1940.77232	843.7125
1943.86808	840.5125
1946.96184	838.7125
1950.05358	835.9125
1953.14331	831.3125
1956.23103	834.6125
1959.31675	833.2125
1962.40046	827.4125
1965.48217	824.4125
1968.56188	819.5125
1971.63959	826.7125
1974.7153	808.7125
1977.78901	811.1125
1980.86073	816.7125
1983.93046	813.6125
1986.99819	805.9125
1990.06394	809.0125
1993.1277	803.3125
1996.18947	800.0125
1999.24925	799.5125
2002.30706	801.9125
2005.36288	794.9125
2008.41672	789.5125
2011.46859	788.7125
2014.51848	788.7125
2017.56639	789.3125
2020.61233	780.7125
2023.6563	789.4125
2026.6983	788.0125
2029.73833	779.5125
2032.7764	783.0125
2035.8125	781.2125
2038.84664	781.6125
2041.87881	782.4125
2044.90903	779.7125
2047.93729	778.9125
2050.96359	780.6125
2053.98794	786.5125
2057.01034	787.8125
2060.03078	782.6125
2063.04927	792.8125
2066.06582	804.6125
2069.08042	808.7125
2072.09307	811.4125
2075.10378	820.5125
2078.11255	820.6125
2081.11938	828.9125
2084.12426	836.6125
2087.12722	847.9125
2090.12824	841.5125
2093.12732	860.4125
2096.12447	862.7125
2099.11969	854.5125
2102.11299	860.8125
2105.10435	862.9125
2108.09379	867.7125
2111.08131	869.9125
2114.0669	864.9125
2117.05057	871.2125
2120.03233	868.6125
2123.01216	863.1125
2125.99008	852.6125
2128.96609	850.9125
2131.94018	846.2125
2134.91236	846.5125
2137.88263	844.3125
2140.851	844.0125
2143.81746	830.5125
2146.78201	821.9125
2149.74466	827.6125
2152.7054	822.1125
2155.66425	818.7125
2158.6212	818.2125
2161.57625	815.0125
2164.52941	819.7125
2167.48067	814.1125
2170.43004	804.4125
2173.37752	809.3125
2176.32311	808.0125
2179.26681	799.5125
2182.20863	803.4125
2185.14856	800.5125
2188.08661	796.0125
2191.02278	790.8125
2193.95707	792.9125
2196.88948	779.9125
2199.82001	767.2125
2202.74867	775.5125
2205.67545	772.9125
2208.60037	769.0125
2211.52341	776.0125
2214.44458	765.3125
2217.36388	764.7125
2220.28132	755.5125
2223.1969	761.9125
2226.11061	756.7125
2229.02246	754.5125
2231.93245	752.7125
2234.84058	752.4125
2237.74686	758.2125
2240.65128	751.3125
2243.55385	743.4125
2246.45456	753.8125
2249.35343	748.4125
2252.25044	747.6125
2255.14561	752.4125
2258.03893	741.0125
2260.93041	732.0125
2263.82004	739.1125
2266.70783	739.4125
2269.59378	738.1125
2272.4779	731.7125
2275.36017	734.4125
2278.24061	736.3125
2281.11922	731.2125
2283.996	725.1125
2286.87094	726.3125
2289.74405	728.5125
2292.61534	726.9125
2295.4848	730.8125
2298.35243	734.7125
2301.21824	723.7125
2304.08223	733.9125
2306.94439	732.0125
2309.80474	724.8125
2312.66327	725.1125
2315.51999	730.2125
2318.37489	728.9125
2321.22797	726.7125
2324.07925	716.2125
2326.92871	715.8125
2329.77637	726.5125
2332.62222	720.5125
2335.46626	717.7125
2338.3085	721.1125
2341.14893	708.7125
2343.98756	711.5125
2346.8244	708.0125
2349.65943	709.9125
2352.49267	709.5125
2355.32411	706.8125
2358.15376	708.9125
2360.98161	707.5125
2363.80768	708.2125
2366.63195	713.7125
2369.45444	705.5125
2372.27514	711.4125
2375.09405	709.2125
2377.91118	703.0125
2380.72652	707.8125
2383.54009	706.2125
2386.35187	700.2125
2389.16188	698.7125
2391.97011	705.5125
2394.77657	698.3125
2397.58125	700.4125
2400.38416	693.0125
2403.18529	694.7125
2405.98466	698.8125
2408.78226	691.4125
2411.57809	692.1125
2414.37216	692.7125
2417.16446	688.8125
2419.955	693.7125
2422.74378	692.7125
2425.5308	687.5125
2428.31606	690.1125
2431.09956	688.4125
2433.88131	685.2125
2436.6613	686.1125
2439.43954	689.0125
2442.21603	688.9125
2444.99077	689.1125
2447.76377	688.3125
2450.53501	686.4125
2453.30451	684.5125
2456.07226	685.3125
2458.83827	679.3125
2461.60254	682.3125
2464.36507	681.1125
2467.12586	681.8125
2469.88492	677.9125
2472.64224	678.5125
2475.39782	670.6125
2478.15167	665.9125
2480.90379	673.5125
2483.65417	682.0125
2486.40283	682.2125
2489.14976	675.6125
2491.89497	672.5125
2494.63845	669.6125
2497.3802	676.7125
2500.12024	673.6125
2502.85855	670.9125
2505.59514	672.1125
2508.33002	671.1125
2511.06318	670.7125
2513.79462	682.6125
2516.52435	671.4125
2519.25237	665.9125
2521.97867	671.6125
2524.70327	663.9125
2527.42616	672.8125
2530.14734	656.6125
2532.86681	672.2125
2535.58458	673.2125
2538.30065	667.0125
2541.01501	664.2125
2543.72768	664.6125
2546.43864	655.9125
2549.14791	656.9125
2551.85548	662.8125
2554.56136	654.8125
2557.26554	654.8125
2559.96803	654.4125
2562.66883	655.7125
2565.36794	653.9125
2568.06536	652.0125
2570.7611	652.0125
2573.45514	647.4125
2576.14751	649.7125
2578.83819	648.4125
2581.52719	648.7125
2584.21451	651.1125
2586.90015	641.4125
2589.58411	643.2125
2592.2664	639.4125
2594.94701	645.8125
2597.62594	646.1125
2600.30321	646.7125
2602.9788	648.5125
2605.65273	648.0125
2608.32498	635.2125
2610.99557	637.8125
2613.66449	641.1125
2616.33175	642.1125
2618.99734	638.3125
2621.66128	642.3125
2624.32355	637.8125
2626.98416	639.8125
2629.64311	628.9125
2632.30041	637.0125
2634.95605	643.5125
2637.61004	639.1125
2640.26238	637.0125
2642.91306	623.7125
2645.56209	628.0125
2648.20948	632.6125
2650.85521	629.8125
2653.4993	627.2125
2656.14175	634.2125
2658.78255	637.8125
2661.42171	633.2125
2664.05923	628.9125
2666.6951	635.1125
2669.32934	634.5125
2671.96194	634.4125
2674.59291	622.4125
2677.22224	630.6125
2679.84993	632.8125
2682.476	631.7125
2685.10043	635.8125
2687.72324	636.5125
2690.34441	635.0125
2692.96396	629.0125
2695.58188	636.2125
2698.19818	631.6125
2700.81285	632.5125
2703.4259	632.1125
2706.03733	607.0125
2708.64714	614.6125
2711.25533	623.0125
2713.86191	631.3125
2716.46687	640.5125
2719.07021	629.0125
2721.67194	641.4125
2724.27206	637.2125
2726.87057	641.3125
2729.46747	640.9125
2732.06276	641.9125
2734.65644	645.7125
2737.24852	638.4125
2739.83899	642.3125
2742.42786	642.0125
2745.01513	633.2125
2747.60079	637.4125
2750.18486	631.5125
2752.76733	637.4125
2755.3482	639.1125
2757.92747	637.6125
2760.50515	632.3125
2763.08123	634.2125
2765.65573	634.4125
2768.22863	638.0125
2770.79994	635.1125
2773.36967	635.8125
2775.9378	636.9125
2778.50435	630.8125
2781.06932	633.9125
2783.6327	632.7125
2786.1945	635.6125
2788.75471	630.8125
2791.31335	636.8125
2793.87041	632.2125
2796.42589	634.4125
2798.97979	631.5125
2801.53212	622.5125
2804.08288	626.9125
2806.63206	623.2125
2809.17967	622.0125
2811.72571	624.7125
2814.27018	627.6125
2816.81308	617.3125
2819.35442	617.7125
2821.89419	617.4125
2824.43239	620.3125
2826.96904	610.6125
2829.50412	619.1125
2832.03763	613.1125
2834.56959	615.0125
2837.1	619.7125
2839.62884	615.5125
2842.15613	611.6125
2844.68186	609.7125
2847.20604	614.6125
2849.72867	612.7125
2852.24974	619.2125
2854.76927	614.9125
2857.28724	606.5125
2859.80367	611.6125
2862.31855	617.0125
2864.83189	609.4125
2867.34368	611.9125
2869.85393	616.1125
2872.36264	608.8125
2874.8698	614.0125
2877.37543	613.8125
2879.87952	617.7125
2882.38207	613.3125
2884.88308	619.9125
2887.38256	619.9125
2889.88051	620.7125
2892.37692	626.2125
2894.8718	620.6125
2897.36515	626.8125
2899.85698	623.9125
2902.34727	630.7125
2904.83604	626.2125
2907.32328	638.0125
2909.809	636.6125
2912.29319	639.3125
2914.77587	637.1125
2917.25702	643.8125
2919.73665	645.1125
2922.21476	650.8125
2924.69136	642.6125
2927.16644	649.1125
2929.64	651.2125
2932.11205	647.5125
2934.58258	652.9125
2937.05161	653.0125
2939.51912	651.7125
2941.98513	653.1125
2944.44962	646.9125
2946.91261	655.7125
2949.37409	644.3125
2951.83407	653.2125
2954.29254	652.6125
2956.74951	651.0125
2959.20498	654.9125
2961.65895	643.9125
2964.11142	646.9125
2966.56239	651.0125
2969.01186	650.4125
2971.45984	646.9125
2973.90632	650.7125
2976.35131	648.6125
2978.7948	652.4125
2981.23681	655.9125
2983.67732	644.6125
2986.11635	646.7125
2988.55388	651.6125
2990.98993	650.4125
2993.4245	647.1125
2995.85758	655.3125
2998.28917	654.8125
3000.71928	652.9125
3003.14791	654.3125
3005.57506	657.2125
3008.00073	652.1125
3010.42493	661.5125
3012.84764	659.6125
3015.26888	665.8125
3017.68865	657.3125
3020.10694	660.6125
3022.52376	667.5125
3024.9391	654.6125
3027.35298	669.1125
3029.76539	671.2125
3032.17632	672.5125
3034.5858	671.9125
3036.9938	669.4125
3039.40034	679.9125
3041.80542	681.8125
3044.20903	690.4125
3046.61118	684.7125
3049.01187	685.6125
3051.4111	689.8125
3053.80888	695.2125
3056.20519	696.3125
3058.60005	706.2125
3060.99345	706.6125
3063.3854	701.6125
3065.7759	710.0125
3068.16494	714.3125
3070.55254	711.1125
3072.93868	720.5125
3075.32338	721.2125
3077.70662	725.9125
3080.08842	720.0125
3082.46878	724.1125
3084.84769	728.3125
3087.22515	739.5125
3089.60118	746.5125
3091.97576	747.1125
3094.3489	753.9125
3096.72061	756.4125
3099.09087	759.9125
3101.4597	773.2125
3103.82709	779.2125
3106.19305	788.3125
3108.55757	787.2125
3110.92066	793.6125
3113.28232	805.8125
3115.64255	792.7125
3118.00134	810.3125
3120.35871	811.1125
3122.71466	822.5125
3125.06917	825.3125
3127.42226	823.5125
3129.77393	835.0125
3132.12417	842.4125
3134.47299	845.1125
3136.82039	851.6125
3139.16636	859.5125
3141.51092	865.7125
3143.85406	880.1125
3146.19579	884.4125
3148.53609	884.0125
3150.87499	895.0125
3153.21246	909.7125
3155.54853	922.1125
3157.88318	924.0125
3160.21642	928.5125
3162.54826	931.4125
3164.87868	949.9125
3167.2077	959.2125
3169.5353	962.7125
3171.86151	965.2125
3174.18631	979.1125
3176.5097	979.6125
3178.83169	981.0125
3181.15228	992.1125
3183.47147	995.5125
3185.78926	999.2125
3188.10565	1010.5125
3190.42065	1017.4125
3192.73424	1016.2125
3195.04645	1018.0125
3197.35725	1022.4125
3199.66667	1028.4125
3201.97469	1036.5125
3204.28132	1049.5125
3206.58656	1051.6125
3208.8904	1054.7125
3211.19287	1059.6125
3213.49394	1064.2125
3215.79363	1065.5125
3218.09193	1077.0125
3220.38884	1070.9125
3222.68438	1077.8125
3224.97853	1072.6125
3227.2713	1088.0125
3229.56269	1088.1125
3231.8527	1085.9125
3234.14133	1094.6125
3236.42858	1087.6125
3238.71446	1091.8125
3240.99896	1088.4125
3243.28209	1089.7125
3245.56384	1084.5125
3247.84423	1088.4125
3250.12324	1093.9125
3252.40088	1089.7125
3254.67715	1092.4125
3256.95205	1097.1125
3259.22558	1100.4125
3261.49775	1098.3125
3263.76855	1103.4125
3266.03799	1099.6125
3268.30606	1097.5125
3270.57277	1100.9125
3272.83812	1101.5125
3275.10211	1097.0125
3277.36474	1096.4125
3279.62601	1094.5125
3281.88593	1095.7125
3284.14448	1098.9125
3286.40168	1101.7125
3288.65753	1100.1125
3290.91202	1097.2125
3293.16516	1093.5125
3295.41695	1103.4125
3297.66738	1091.3125
3299.91647	1084.2125
3302.16421	1085.4125
3304.4106	1076.0125
3306.65564	1069.8125
3308.89933	1065.8125
3311.14169	1055.3125
3313.38269	1048.7125
3315.62236	1043.4125
3317.86068	1042.9125
3320.09766	1032.6125
3322.3333	1025.9125
3324.5676	1019.3125
3326.80056	1000.8125
3329.03219	995.5125
3331.26248	-0.5875
3333.49143	0.9125
3335.71905	-2.6875
