Data from AgNPs_APTES_FTO_UA_100uM_CRN_0uM_R6G_10uM_Scan_RamanShift__79__12-11-51-335.txt Node

Date: Wed Jun 29 12:11:51 BST 2022
User: TCL
Spectrometer: QEP01345
Trigger mode: 4
Integration Time (sec): 7.000000E0
Scans to average: 10
Electric dark correction enabled: true
Nonlinearity correction enabled: false
Boxcar width: 0
XAxis mode: Raman Shifts
Number of Pixels in Spectrum: 1044
>>>>>Begin Spectral Data<<<<<
46.04893	0.55
50.45542	-0.15
54.85868	0.45
59.25871	0.95
63.6555	28.35
68.04907	29.45
72.43941	35.05
76.82654	33.25
81.21044	35.25
85.59113	41.65
89.96862	43.75
94.34289	43.35
98.71396	43.25
103.08183	44.05
107.4465	43.65
111.80798	45.75
116.16626	40.15
120.52136	48.45
124.87327	42.85
129.222	46.45
133.56755	41.05
137.90993	40.25
142.24913	39.25
146.58517	37.95
150.91804	41.75
155.24774	39.85
159.57429	42.45
163.89768	43.55
168.21792	48.05
172.53501	55.05
176.84895	65.05
181.15975	85.45
185.46741	101.65
189.77193	134.85
194.07331	171.85
198.37157	213.05
202.6667	257.95
206.9587	300.05
211.24758	344.15
215.53334	383.15
219.81599	429.65
224.09553	472.75
228.37195	527.45
232.64527	578.15
236.91549	646.65
241.18261	702.55
245.44663	782.55
249.70755	842.35
253.96539	895.85
258.22014	942.85
262.4718	980.05
266.72039	986.75
270.96589	986.95
275.20832	980.95
279.44768	961.55
283.68397	948.55
287.91719	918.75
292.14735	896.25
296.37445	872.45
300.59849	851.65
304.81948	837.85
309.03742	836.75
313.25231	818.75
317.46415	818.35
321.67296	812.85
325.87872	816.15
330.08145	816.65
334.28114	815.05
338.47781	832.55
342.67145	828.35
346.86207	847.05
351.04966	852.65
355.23424	862.05
359.4158	879.05
363.59435	875.85
367.76989	894.05
371.94243	893.95
376.11196	897.45
380.27849	911.25
384.44203	929.45
388.60257	930.35
392.76012	938.85
396.91468	949.85
401.06626	952.15
405.21485	965.35
409.36047	975.95
413.50311	980.25
417.64277	975.95
421.77947	990.65
425.9132	980.45
430.04396	984.95
434.17176	996.25
438.2966	1001.65
442.41849	1014.25
446.53742	1027.65
450.6534	1031.15
454.76644	1044.75
458.87653	1043.45
462.98368	1051.95
467.08789	1053.65
471.18916	1056.15
475.2875	1066.95
479.38291	1063.25
483.4754	1076.25
487.56496	1064.15
491.6516	1071.45
495.73531	1073.85
499.81612	1071.95
503.89401	1056.65
507.96899	1059.85
512.04106	1061.65
516.11023	1063.65
520.1765	1067.85
524.23987	1063.75
528.30034	1071.55
532.35792	1089.85
536.41261	1087.85
540.46441	1095.25
544.51333	1099.05
548.55936	1100.05
552.60252	1110.95
556.64279	1112.25
560.6802	1115.55
564.71473	1118.75
568.7464	1115.15
572.7752	1119.45
576.80114	1110.15
580.82422	1104.85
584.84444	1098.95
588.86181	1105.75
592.87633	1099.45
596.888	1097.45
600.89682	1098.35
604.9028	1108.85
608.90594	1113.65
612.90624	1125.95
616.90371	1130.85
620.89834	1114.35
624.89015	1114.55
628.87913	1120.85
632.86528	1108.65
636.84862	1111.55
640.82913	1125.55
644.80683	1130.05
648.78172	1125.15
652.75379	1139.35
656.72306	1125.35
660.68952	1133.55
664.65319	1140.15
668.61405	1137.45
672.57211	1151.55
676.52738	1148.65
680.47986	1156.65
684.42955	1160.75
688.37646	1161.25
692.32058	1168.55
696.26192	1174.05
700.20048	1171.45
704.13626	1169.05
708.06928	1164.25
711.99952	1167.95
715.927	1182.95
719.85171	1181.55
723.77365	1174.55
727.69284	1173.25
731.60928	1167.75
735.52295	1172.45
739.43388	1171.35
743.34206	1168.35
747.24749	1174.55
751.15017	1179.35
755.05012	1150.65
758.94733	1185.15
762.8418	1189.25
766.73354	1193.95
770.62254	1198.15
774.50882	1203.25
778.39237	1200.95
782.27321	1200.15
786.15132	1200.15
790.02671	1202.85
793.89938	1196.95
797.76935	1196.85
801.6366	1202.15
805.50115	1206.05
809.36299	1197.45
813.22213	1196.75
817.07857	1195.05
820.93231	1202.85
824.78336	1207.05
828.63172	1195.55
832.47738	1206.35
836.32036	1197.95
840.16066	1201.25
843.99827	1204.55
847.8332	1208.65
851.66546	1203.85
855.49504	1205.75
859.32195	1201.95
863.1462	1218.35
866.96777	1205.35
870.78668	1214.85
874.60293	1220.75
878.41652	1225.25
882.22745	1233.35
886.03573	1228.75
889.84136	1230.45
893.64433	1245.35
897.44466	1241.15
901.24235	1257.15
905.0374	1272.15
908.8298	1274.85
912.61957	1274.65
916.40671	1278.05
920.19121	1284.45
923.97308	1285.15
927.75233	1283.45
931.52895	1268.85
935.30295	1259.35
939.07433	1273.35
942.84309	1265.45
946.60924	1263.75
950.37278	1266.95
954.13371	1264.45
957.89203	1261.95
961.64774	1268.15
965.40086	1254.65
969.15137	1251.35
972.89929	1257.05
976.64461	1250.95
980.38733	1258.65
984.12747	1252.45
987.86502	1260.55
991.59999	1250.85
995.33237	1252.25
999.06217	1265.05
1002.78939	1259.85
1006.51404	1262.85
1010.23611	1261.15
1013.95561	1270.25
1017.67255	1269.75
1021.38692	1279.25
1025.09872	1281.05
1028.80796	1281.85
1032.51465	1279.85
1036.21877	1283.45
1039.92035	1289.35
1043.61937	1289.15
1047.31584	1294.65
1051.00976	1291.55
1054.70114	1298.65
1058.38998	1287.65
1062.07627	1305.45
1065.76003	1291.15
1069.44126	1304.05
1073.11995	1298.95
1076.79611	1290.15
1080.46974	1295.05
1084.14085	1288.45
1087.80943	1289.05
1091.47549	1288.25
1095.13903	1287.95
1098.80005	1277.65
1102.45857	1281.85
1106.11456	1268.65
1109.76805	1271.95
1113.41903	1283.75
1117.06751	1277.65
1120.71348	1272.85
1124.35696	1271.35
1127.99793	1280.45
1131.63641	1281.05
1135.2724	1283.35
1138.90589	1287.35
1142.5369	1280.05
1146.16542	1286.45
1149.79145	1277.25
1153.415	1280.05
1157.03607	1272.55
1160.65467	1273.85
1164.27079	1273.15
1167.88443	1272.65
1171.49561	1287.35
1175.10432	1285.95
1178.71056	1284.55
1182.31434	1300.15
1185.91565	1297.75
1189.51451	1310.85
1193.11091	1307.75
1196.70485	1305.05
1200.29634	1306.45
1203.88538	1305.95
1207.47197	1305.25
1211.05612	1304.75
1214.63782	1295.65
1218.21708	1295.55
1221.79391	1296.55
1225.36829	1297.85
1228.94024	1303.85
1232.50976	1286.65
1236.07685	1298.55
1239.6415	1294.95
1243.20374	1303.55
1246.76355	1303.15
1250.32093	1293.95
1253.8759	1295.55
1257.42845	1297.35
1260.97859	1298.55
1264.52631	1295.55
1268.07163	1303.45
1271.61453	1305.45
1275.15503	1302.85
1278.69312	1306.45
1282.22882	1306.85
1285.76211	1317.95
1289.29301	1320.65
1292.82151	1320.75
1296.34761	1330.95
1299.87133	1336.25
1303.39266	1338.85
1306.9116	1348.55
1310.42815	1350.55
1313.94233	1353.15
1317.45412	1362.25
1320.96354	1355.85
1324.47058	1352.05
1327.97525	1335.95
1331.47754	1344.95
1334.97747	1338.95
1338.47502	1340.25
1341.97022	1340.45
1345.46305	1346.05
1348.95352	1349.15
1352.44163	1349.05
1355.92738	1353.75
1359.41078	1353.65
1362.89183	1350.45
1366.37053	1355.45
1369.84688	1332.75
1373.32088	1324.15
1376.79254	1309.45
1380.26186	1298.35
1383.72883	1293.35
1387.19347	1276.25
1390.65578	1267.95
1394.11575	1261.85
1397.57339	1268.15
1401.0287	1264.05
1404.48168	1272.75
1407.93234	1262.85
1411.38068	1267.75
1414.82669	1264.75
1418.27039	1256.75
1421.71177	1263.65
1425.15083	1247.35
1428.58758	1250.85
1432.02203	1249.45
1435.45416	1243.65
1438.88399	1248.25
1442.31151	1250.45
1445.73673	1238.25
1449.15965	1229.25
1452.58027	1241.95
1455.9986	1254.25
1459.41463	1246.25
1462.82837	1255.05
1466.23982	1248.15
1469.64898	1262.35
1473.05586	1262.75
1476.46045	1257.75
1479.86276	1255.35
1483.26279	1262.35
1486.66054	1270.15
1490.05602	1263.65
1493.44922	1273.35
1496.84016	1273.95
1500.22882	1271.45
1503.61521	1284.65
1506.99934	1289.95
1510.38121	1283.25
1513.76081	1283.65
1517.13816	1282.95
1520.51324	1286.25
1523.88607	1290.65
1527.25665	1288.95
1530.62498	1295.25
1533.99105	1297.95
1537.35488	1302.95
1540.71647	1309.15
1544.07581	1310.45
1547.4329	1308.55
1550.78776	1314.85
1554.14038	1313.65
1557.49077	1323.55
1560.83892	1327.55
1564.18484	1315.85
1567.52853	1320.75
1570.86999	1323.95
1574.20922	1332.25
1577.54624	1320.55
1580.88103	1326.85
1584.2136	1328.25
1587.54395	1316.85
1590.87208	1328.65
1594.19801	1319.25
1597.52172	1317.95
1600.84321	1319.75
1604.16251	1317.95
1607.47959	1319.35
1610.79447	1314.65
1614.10715	1307.05
1617.41763	1300.65
1620.7259	1289.05
1624.03199	1289.75
1627.33587	1279.95
1630.63757	1286.25
1633.93707	1270.95
1637.23439	1268.85
1640.52951	1270.35
1643.82246	1269.85
1647.11321	1269.05
1650.40179	1242.85
1653.68819	1238.25
1656.97241	1214.35
1660.25446	1215.25
1663.53433	1207.25
1666.81203	1206.85
1670.08756	1209.45
1673.36092	1227.35
1676.63211	1224.65
1679.90115	1233.55
1683.16801	1214.65
1686.43272	1219.35
1689.69527	1207.55
1692.95567	1185.15
1696.2139	1156.05
1699.46999	1126.65
1702.72392	1119.55
1705.97571	1145.15
1709.22535	1181.45
1712.47284	1196.95
1715.71819	1211.05
1718.96139	1221.25
1722.20246	1222.35
1725.44139	1217.75
1728.67818	1228.15
1731.91284	1218.95
1735.14537	1219.25
1738.37576	1217.05
1741.60403	1211.05
1744.83017	1202.25
1748.05418	1192.55
1751.27607	1180.15
1754.49584	1167.95
1757.71349	1143.95
1760.92903	1127.95
1764.14244	1135.95
1767.35375	1128.05
1770.56294	1124.25
1773.77002	1134.45
1776.97499	1140.85
1780.17785	1173.65
1783.37861	1186.75
1786.57727	1198.95
1789.77382	1203.05
1792.96828	1193.85
1796.16064	1192.55
1799.3509	1207.05
1802.53907	1201.65
1805.72514	1200.65
1808.90913	1200.45
1812.09102	1198.45
1815.27083	1205.95
1818.44856	1196.55
1821.6242	1188.45
1824.79776	1206.75
1827.96924	1194.95
1831.13864	1199.25
1834.30597	1191.05
1837.47122	1198.65
1840.6344	1198.25
1843.7955	1199.45
1846.95454	1197.95
1850.11151	1198.95
1853.26642	1202.95
1856.41926	1203.15
1859.57004	1200.05
1862.71876	1200.25
1865.86542	1197.85
1869.01003	1199.55
1872.15258	1192.05
1875.29308	1195.45
1878.43152	1191.85
1881.56792	1197.65
1884.70227	1196.95
1887.83457	1195.55
1890.96482	1197.75
1894.09304	1195.45
1897.21921	1187.75
1900.34335	1200.85
1903.46544	1192.95
1906.58551	1194.15
1909.70353	1190.45
1912.81953	1196.05
1915.93349	1183.45
1919.04543	1184.35
1922.15534	1190.95
1925.26322	1190.85
1928.36908	1186.25
1931.47292	1193.55
1934.57473	1186.75
1937.67453	1192.45
1940.77232	1191.35
1943.86808	1195.55
1946.96184	1184.55
1950.05358	1179.05
1953.14331	1177.75
1956.23103	1175.65
1959.31675	1175.55
1962.40046	1165.25
1965.48217	1173.45
1968.56188	1158.55
1971.63959	1168.95
1974.7153	1167.75
1977.78901	1162.15
1980.86073	1160.85
1983.93046	1160.25
1986.99819	1154.95
1990.06394	1149.95
1993.1277	1151.55
1996.18947	1148.35
1999.24925	1153.35
2002.30706	1144.25
2005.36288	1137.75
2008.41672	1128.25
2011.46859	1141.35
2014.51848	1137.05
2017.56639	1131.75
2020.61233	1135.15
2023.6563	1130.55
2026.6983	1125.45
2029.73833	1132.15
2032.7764	1132.25
2035.8125	1128.25
2038.84664	1120.85
2041.87881	1128.45
2044.90903	1129.25
2047.93729	1131.75
2050.96359	1126.65
2053.98794	1125.15
2057.01034	1127.15
2060.03078	1133.35
2063.04927	1131.65
2066.06582	1137.65
2069.08042	1136.75
2072.09307	1134.85
2075.10378	1136.15
2078.11255	1133.85
2081.11938	1144.25
2084.12426	1142.95
2087.12722	1151.85
2090.12824	1134.75
2093.12732	1141.95
2096.12447	1137.95
2099.11969	1143.85
2102.11299	1146.15
2105.10435	1137.05
2108.09379	1142.05
2111.08131	1147.45
2114.0669	1152.15
2117.05057	1153.65
2120.03233	1158.15
2123.01216	1153.95
2125.99008	1158.25
2128.96609	1158.05
2131.94018	1162.55
2134.91236	1165.15
2137.88263	1170.75
2140.851	1172.95
2143.81746	1176.85
2146.78201	1176.65
2149.74466	1183.55
2152.7054	1179.05
2155.66425	1173.65
2158.6212	1176.15
2161.57625	1170.05
2164.52941	1180.15
2167.48067	1176.45
2170.43004	1180.25
2173.37752	1175.55
2176.32311	1175.95
2179.26681	1173.85
2182.20863	1185.45
2185.14856	1184.95
2188.08661	1180.05
2191.02278	1184.55
2193.95707	1184.85
2196.88948	1179.25
2199.82001	1184.25
2202.74867	1182.75
2205.67545	1178.45
2208.60037	1174.15
2211.52341	1171.55
2214.44458	1182.45
2217.36388	1172.25
2220.28132	1165.85
2223.1969	1170.95
2226.11061	1164.65
2229.02246	1164.95
2231.93245	1161.85
2234.84058	1168.15
2237.74686	1158.55
2240.65128	1157.55
2243.55385	1163.65
2246.45456	1161.35
2249.35343	1166.85
2252.25044	1157.95
2255.14561	1162.65
2258.03893	1159.55
2260.93041	1138.35
2263.82004	1154.35
2266.70783	1156.35
2269.59378	1155.45
2272.4779	1150.65
2275.36017	1160.05
2278.24061	1151.55
2281.11922	1157.45
2283.996	1147.05
2286.87094	1157.25
2289.74405	1149.05
2292.61534	1152.35
2295.4848	1153.85
2298.35243	1149.85
2301.21824	1149.95
2304.08223	1151.15
2306.94439	1153.55
2309.80474	1150.25
2312.66327	1149.05
2315.51999	1161.35
2318.37489	1153.15
2321.22797	1139.65
2324.07925	1147.45
2326.92871	1150.35
2329.77637	1153.85
2332.62222	1139.35
2335.46626	1142.45
2338.3085	1141.15
2341.14893	1144.15
2343.98756	1141.85
2346.8244	1139.25
2349.65943	1147.25
2352.49267	1147.85
2355.32411	1136.45
2358.15376	1137.65
2360.98161	1136.65
2363.80768	1146.75
2366.63195	1158.75
2369.45444	1146.05
2372.27514	1155.15
2375.09405	1143.35
2377.91118	1146.95
2380.72652	1141.35
2383.54009	1134.15
2386.35187	1146.65
2389.16188	1142.45
2391.97011	1137.55
2394.77657	1139.15
2397.58125	1137.25
2400.38416	1128.25
2403.18529	1131.25
2405.98466	1135.55
2408.78226	1136.35
2411.57809	1130.05
2414.37216	1132.95
2417.16446	1140.35
2419.955	1138.35
2422.74378	1137.25
2425.5308	1138.65
2428.31606	1131.45
2431.09956	1146.05
2433.88131	1134.15
2436.6613	1128.75
2439.43954	1133.65
2442.21603	1127.25
2444.99077	1128.25
2447.76377	1139.65
2450.53501	1127.65
2453.30451	1146.25
2456.07226	1133.95
2458.83827	1135.05
2461.60254	1125.35
2464.36507	1127.15
2467.12586	1134.55
2469.88492	1125.45
2472.64224	1127.35
2475.39782	1123.55
2478.15167	1116.35
2480.90379	1122.55
2483.65417	1134.55
2486.40283	1132.65
2489.14976	1136.15
2491.89497	1131.05
2494.63845	1120.55
2497.3802	1121.65
2500.12024	1130.35
2502.85855	1123.55
2505.59514	1130.05
2508.33002	1131.05
2511.06318	1135.95
2513.79462	1132.75
2516.52435	1148.05
2519.25237	1132.25
2521.97867	1121.35
2524.70327	1128.85
2527.42616	1133.45
2530.14734	1127.25
2532.86681	1126.35
2535.58458	1132.55
2538.30065	1126.25
2541.01501	1126.65
2543.72768	1129.15
2546.43864	1124.15
2549.14791	1123.75
2551.85548	1124.55
2554.56136	1117.95
2557.26554	1127.05
2559.96803	1115.15
2562.66883	1121.65
2565.36794	1118.85
2568.06536	1122.65
2570.7611	1110.15
2573.45514	1118.65
2576.14751	1110.65
2578.83819	1114.25
2581.52719	1115.65
2584.21451	1118.85
2586.90015	1109.05
2589.58411	1105.65
2592.2664	1120.45
2594.94701	1113.85
2597.62594	1103.35
2600.30321	1109.35
2602.9788	1108.05
2605.65273	1106.55
2608.32498	1102.95
2610.99557	1105.95
2613.66449	1099.05
2616.33175	1104.15
2618.99734	1106.75
2621.66128	1100.15
2624.32355	1101.15
2626.98416	1097.15
2629.64311	1091.35
2632.30041	1094.95
2634.95605	1088.35
2637.61004	1097.85
2640.26238	1096.15
2642.91306	1098.55
2645.56209	1099.65
2648.20948	1088.95
2650.85521	1090.15
2653.4993	1097.35
2656.14175	1094.35
2658.78255	1095.45
2661.42171	1092.55
2664.05923	1098.75
2666.6951	1100.75
2669.32934	1100.35
2671.96194	1102.15
2674.59291	1098.05
2677.22224	1093.35
2679.84993	1099.85
2682.476	1093.75
2685.10043	1105.05
2687.72324	1107.35
2690.34441	1101.65
2692.96396	1100.65
2695.58188	1102.75
2698.19818	1100.85
2700.81285	1101.65
2703.4259	1082.25
2706.03733	1036.75
2708.64714	1067.25
2711.25533	1088.35
2713.86191	1092.25
2716.46687	1101.15
2719.07021	1095.15
2721.67194	1112.35
2724.27206	1111.25
2726.87057	1125.05
2729.46747	1117.45
2732.06276	1127.75
2734.65644	1121.65
2737.24852	1127.45
2739.83899	1116.85
2742.42786	1132.85
2745.01513	1114.55
2747.60079	1122.25
2750.18486	1122.95
2752.76733	1123.15
2755.3482	1110.65
2757.92747	1114.95
2760.50515	1117.85
2763.08123	1108.55
2765.65573	1116.35
2768.22863	1110.65
2770.79994	1109.25
2773.36967	1109.85
2775.9378	1114.95
2778.50435	1115.05
2781.06932	1116.05
2783.6327	1116.35
2786.1945	1119.25
2788.75471	1104.35
2791.31335	1108.65
2793.87041	1102.75
2796.42589	1109.45
2798.97979	1111.75
2801.53212	1109.45
2804.08288	1097.45
2806.63206	1095.45
2809.17967	1094.35
2811.72571	1100.25
2814.27018	1094.65
2816.81308	1094.25
2819.35442	1094.85
2821.89419	1086.75
2824.43239	1091.05
2826.96904	1087.05
2829.50412	1085.35
2832.03763	1088.55
2834.56959	1091.55
2837.1	1096.85
2839.62884	1097.95
2842.15613	1093.55
2844.68186	1087.85
2847.20604	1086.05
2849.72867	1093.45
2852.24974	1094.15
2854.76927	1080.05
2857.28724	1075.35
2859.80367	1078.65
2862.31855	1084.55
2864.83189	1090.25
2867.34368	1091.45
2869.85393	1084.35
2872.36264	1086.85
2874.8698	1086.95
2877.37543	1081.65
2879.87952	1081.55
2882.38207	1090.85
2884.88308	1080.55
2887.38256	1086.15
2889.88051	1091.85
2892.37692	1097.95
2894.8718	1096.75
2897.36515	1097.85
2899.85698	1087.45
2902.34727	1099.15
2904.83604	1092.15
2907.32328	1101.55
2909.809	1103.35
2912.29319	1105.25
2914.77587	1112.95
2917.25702	1109.45
2919.73665	1108.55
2922.21476	1107.35
2924.69136	1106.75
2927.16644	1119.15
2929.64	1109.25
2932.11205	1109.25
2934.58258	1108.45
2937.05161	1111.05
2939.51912	1116.85
2941.98513	1111.35
2944.44962	1116.95
2946.91261	1114.95
2949.37409	1112.75
2951.83407	1120.05
2954.29254	1124.65
2956.74951	1126.25
2959.20498	1123.95
2961.65895	1124.35
2964.11142	1128.25
2966.56239	1127.45
2969.01186	1131.35
2971.45984	1132.25
2973.90632	1134.85
2976.35131	1144.25
2978.7948	1137.65
2981.23681	1136.05
2983.67732	1138.95
2986.11635	1126.55
2988.55388	1142.75
2990.98993	1133.85
2993.4245	1139.35
2995.85758	1132.05
2998.28917	1131.75
3000.71928	1135.75
3003.14791	1135.45
3005.57506	1133.95
3008.00073	1129.05
3010.42493	1134.75
3012.84764	1142.45
3015.26888	1136.25
3017.68865	1139.55
3020.10694	1139.15
3022.52376	1143.15
3024.9391	1138.05
3027.35298	1143.75
3029.76539	1145.75
3032.17632	1149.75
3034.5858	1153.75
3036.9938	1150.45
3039.40034	1151.55
3041.80542	1163.75
3044.20903	1167.15
3046.61118	1163.65
3049.01187	1162.65
3051.4111	1176.65
3053.80888	1169.35
3056.20519	1173.75
3058.60005	1178.55
3060.99345	1180.45
3063.3854	1164.85
3065.7759	1182.55
3068.16494	1180.05
3070.55254	1181.65
3072.93868	1182.35
3075.32338	1183.45
3077.70662	1183.65
3080.08842	1192.55
3082.46878	1186.45
3084.84769	1184.45
3087.22515	1197.65
3089.60118	1201.25
3091.97576	1213.65
3094.3489	1214.55
3096.72061	1209.25
3099.09087	1214.75
3101.4597	1225.75
3103.82709	1234.95
3106.19305	1248.15
3108.55757	1253.05
3110.92066	1252.35
3113.28232	1255.25
3115.64255	1258.05
3118.00134	1263.45
3120.35871	1263.35
3122.71466	1267.65
3125.06917	1268.85
3127.42226	1273.05
3129.77393	1288.75
3132.12417	1290.55
3134.47299	1281.85
3136.82039	1300.05
3139.16636	1292.25
3141.51092	1306.15
3143.85406	1309.65
3146.19579	1322.05
3148.53609	1325.05
3150.87499	1334.35
3153.21246	1341.65
3155.54853	1344.75
3157.88318	1349.45
3160.21642	1369.35
3162.54826	1367.65
3164.87868	1374.35
3167.2077	1389.05
3169.5353	1386.85
3171.86151	1393.65
3174.18631	1401.85
3176.5097	1408.65
3178.83169	1414.85
3181.15228	1418.25
3183.47147	1425.25
3185.78926	1426.95
3188.10565	1432.05
3190.42065	1447.45
3192.73424	1442.55
3195.04645	1438.95
3197.35725	1441.55
3199.66667	1448.45
3201.97469	1453.85
3204.28132	1456.95
3206.58656	1469.95
3208.8904	1471.75
3211.19287	1475.55
3213.49394	1474.25
3215.79363	1487.95
3218.09193	1484.85
3220.38884	1479.05
3222.68438	1484.45
3224.97853	1483.95
3227.2713	1505.65
3229.56269	1493.85
3231.8527	1501.55
3234.14133	1492.05
3236.42858	1498.95
3238.71446	1497.65
3240.99896	1488.85
3243.28209	1495.45
3245.56384	1487.55
3247.84423	1492.95
3250.12324	1499.05
3252.40088	1488.35
3254.67715	1494.75
3256.95205	1494.65
3259.22558	1492.95
3261.49775	1496.45
3263.76855	1495.85
3266.03799	1509.45
3268.30606	1508.45
3270.57277	1515.15
3272.83812	1501.95
3275.10211	1486.95
3277.36474	1506.75
3279.62601	1506.35
3281.88593	1495.75
3284.14448	1500.65
3286.40168	1500.15
3288.65753	1499.85
3290.91202	1496.75
3293.16516	1491.15
3295.41695	1500.15
3297.66738	1489.65
3299.91647	1480.35
3302.16421	1458.55
3304.4106	1455.25
3306.65564	1451.75
3308.89933	1446.15
3311.14169	1431.45
3313.38269	1408.05
3315.62236	1404.25
3317.86068	1388.35
3320.09766	1394.15
3322.3333	1377.35
3324.5676	1366.85
3326.80056	1333.35
3329.03219	1325.85
3331.26248	-0.05
3333.49143	0.45
3335.71905	-1.25
