Data from AgNPs_APTES_FTO_UA_100uM_CRN_0uM_R6G_10uM_Scan_RamanShift__68__11-59-01-320.txt Node

Date: Wed Jun 29 11:59:01 BST 2022
User: TCL
Spectrometer: QEP01345
Trigger mode: 4
Integration Time (sec): 7.000000E0
Scans to average: 10
Electric dark correction enabled: true
Nonlinearity correction enabled: false
Boxcar width: 0
XAxis mode: Raman Shifts
Number of Pixels in Spectrum: 1044
>>>>>Begin Spectral Data<<<<<
46.04893	1.6125
50.45542	0.7125
54.85868	0.1125
59.25871	2.4125
63.6555	38.6125
68.04907	44.7125
72.43941	45.4125
76.82654	48.6125
81.21044	50.1125
85.59113	54.1125
89.96862	58.1125
94.34289	59.6125
98.71396	59.0125
103.08183	64.2125
107.4465	59.0125
111.80798	60.5125
116.16626	61.1125
120.52136	66.5125
124.87327	60.6125
129.222	57.8125
133.56755	59.6125
137.90993	57.8125
142.24913	60.5125
146.58517	56.9125
150.91804	56.8125
155.24774	63.6125
159.57429	64.5125
163.89768	72.3125
168.21792	80.8125
172.53501	98.9125
176.84895	115.4125
181.15975	151.7125
185.46741	199.1125
189.77193	261.8125
194.07331	342.1125
198.37157	430.8125
202.6667	534.6125
206.9587	626.1125
211.24758	729.7125
215.53334	836.9125
219.81599	962.0125
224.09553	1095.6125
228.37195	1244.0125
232.64527	1414.6125
236.91549	1570.7125
241.18261	1702.3125
245.44663	1804.2125
249.70755	1894.4125
253.96539	1959.6125
258.22014	2006.8125
262.4718	2030.8125
266.72039	2037.7125
270.96589	2003.5125
275.20832	1961.9125
279.44768	1894.8125
283.68397	1845.6125
287.91719	1818.2125
292.14735	1837.0125
296.37445	1909.0125
300.59849	2038.6125
304.81948	2202.0125
309.03742	2341.3125
313.25231	2372.8125
317.46415	2234.6125
321.67296	2003.9125
325.87872	1815.9125
330.08145	1730.4125
334.28114	1738.8125
338.47781	1793.8125
342.67145	1872.2125
346.86207	1998.7125
351.04966	2198.3125
355.23424	2415.2125
359.4158	2552.9125
363.59435	2591.9125
367.76989	2590.1125
371.94243	2530.3125
376.11196	2484.9125
380.27849	2426.2125
384.44203	2375.5125
388.60257	2311.0125
392.76012	2265.9125
396.91468	2282.8125
401.06626	2338.1125
405.21485	2385.9125
409.36047	2294.7125
413.50311	2113.3125
417.64277	1951.5125
421.77947	1847.2125
425.9132	1813.9125
430.04396	1798.6125
434.17176	1807.0125
438.2966	1856.0125
442.41849	1909.7125
446.53742	1971.4125
450.6534	2014.7125
454.76644	2031.7125
458.87653	2016.2125
462.98368	1987.5125
467.08789	1933.3125
471.18916	1887.4125
475.2875	1839.4125
479.38291	1808.5125
483.4754	1787.4125
487.56496	1774.4125
491.6516	1774.7125
495.73531	1773.8125
499.81612	1772.0125
503.89401	1797.7125
507.96899	1853.2125
512.04106	1905.8125
516.11023	1970.1125
520.1765	2025.2125
524.23987	2024.1125
528.30034	1987.8125
532.35792	1945.5125
536.41261	1895.9125
540.46441	1828.1125
544.51333	1788.5125
548.55936	1789.5125
552.60252	1839.0125
556.64279	1883.5125
560.6802	1920.1125
564.71473	2025.2125
568.7464	2173.2125
572.7752	2182.4125
576.80114	2006.6125
580.82422	1827.2125
584.84444	1765.1125
588.86181	1745.8125
592.87633	1764.3125
596.888	1804.8125
600.89682	1934.2125
604.9028	2379.2125
608.90594	3451.0125
612.90624	4729.7125
616.90371	4413.4125
620.89834	2846.0125
624.89015	2127.9125
628.87913	2008.1125
632.86528	2061.0125
636.84862	2125.3125
640.82913	2053.4125
644.80683	1908.1125
648.78172	1801.5125
652.75379	1822.5125
656.72306	1933.6125
660.68952	2062.7125
664.65319	1988.2125
668.61405	1812.9125
672.57211	1746.0125
676.52738	1733.4125
680.47986	1731.6125
684.42955	1713.5125
688.37646	1700.0125
692.32058	1722.1125
696.26192	1743.8125
700.20048	1778.4125
704.13626	1801.1125
708.06928	1781.5125
711.99952	1755.9125
715.927	1754.2125
719.85171	1786.8125
723.77365	1799.4125
727.69284	1796.9125
731.60928	1785.0125
735.52295	1778.9125
739.43388	1767.7125
743.34206	1769.2125
747.24749	1769.3125
751.15017	1780.0125
755.05012	1805.9125
758.94733	2007.8125
762.8418	2397.5125
766.73354	2976.9125
770.62254	3442.6125
774.50882	3710.3125
778.39237	3606.5125
782.27321	3046.2125
786.15132	2401.4125
790.02671	2034.1125
793.89938	1888.0125
797.76935	1844.3125
801.6366	1817.1125
805.50115	1815.4125
809.36299	1818.1125
813.22213	1814.2125
817.07857	1806.0125
820.93231	1800.4125
824.78336	1805.6125
828.63172	1800.7125
832.47738	1797.8125
836.32036	1779.7125
840.16066	1751.5125
843.99827	1730.1125
847.8332	1733.1125
851.66546	1734.6125
855.49504	1752.2125
859.32195	1736.0125
863.1462	1728.7125
866.96777	1729.5125
870.78668	1732.1125
874.60293	1750.0125
878.41652	1773.9125
882.22745	1810.1125
886.03573	1824.7125
889.84136	1815.0125
893.64433	1820.4125
897.44466	1810.8125
901.24235	1802.7125
905.0374	1778.2125
908.8298	1744.5125
912.61957	1715.3125
916.40671	1697.3125
920.19121	1699.3125
923.97308	1719.1125
927.75233	1779.0125
931.52895	1825.7125
935.30295	1796.4125
939.07433	1721.8125
942.84309	1653.0125
946.60924	1620.3125
950.37278	1609.2125
954.13371	1605.1125
957.89203	1598.7125
961.64774	1603.1125
965.40086	1600.2125
969.15137	1579.3125
972.89929	1580.3125
976.64461	1580.2125
980.38733	1582.5125
984.12747	1579.0125
987.86502	1586.8125
991.59999	1594.6125
995.33237	1617.4125
999.06217	1640.1125
1002.78939	1671.7125
1006.51404	1714.8125
1010.23611	1747.6125
1013.95561	1754.4125
1017.67255	1739.7125
1021.38692	1733.8125
1025.09872	1706.9125
1028.80796	1679.5125
1032.51465	1686.5125
1036.21877	1712.8125
1039.92035	1730.7125
1043.61937	1745.8125
1047.31584	1752.3125
1051.00976	1743.8125
1054.70114	1722.4125
1058.38998	1703.6125
1062.07627	1718.7125
1065.76003	1717.0125
1069.44126	1739.3125
1073.11995	1760.9125
1076.79611	1801.2125
1080.46974	1897.8125
1084.14085	2012.1125
1087.80943	2080.1125
1091.47549	2078.0125
1095.13903	1998.7125
1098.80005	1891.0125
1102.45857	1822.0125
1106.11456	1830.1125
1109.76805	1873.0125
1113.41903	1975.3125
1117.06751	2137.4125
1120.71348	2358.8125
1124.35696	2623.7125
1127.99793	2761.6125
1131.63641	2594.8125
1135.2724	2342.0125
1138.90589	2157.1125
1142.5369	2026.9125
1146.16542	1940.6125
1149.79145	1876.7125
1153.415	1860.0125
1157.03607	1859.5125
1160.65467	1894.3125
1164.27079	1968.1125
1167.88443	2096.7125
1171.49561	2300.9125
1175.10432	2663.6125
1178.71056	3166.3125
1182.31434	3526.8125
1185.91565	3575.1125
1189.51451	3396.5125
1193.11091	3103.4125
1196.70485	2834.0125
1200.29634	2672.4125
1203.88538	2512.1125
1207.47197	2283.2125
1211.05612	2089.7125
1214.63782	1956.9125
1218.21708	1889.0125
1221.79391	1846.2125
1225.36829	1849.7125
1228.94024	1838.2125
1232.50976	1830.5125
1236.07685	1845.4125
1239.6415	1869.1125
1243.20374	1901.3125
1246.76355	1915.8125
1250.32093	1942.0125
1253.8759	1990.6125
1257.42845	2052.3125
1260.97859	2146.1125
1264.52631	2260.4125
1268.07163	2347.9125
1271.61453	2389.7125
1275.15503	2389.9125
1278.69312	2378.7125
1282.22882	2395.0125
1285.76211	2491.2125
1289.29301	2616.4125
1292.82151	2732.8125
1296.34761	2843.4125
1299.87133	3076.1125
1303.39266	3493.6125
1306.9116	4174.3125
1310.42815	4841.4125
1313.94233	4936.3125
1317.45412	4419.8125
1320.96354	3723.1125
1324.47058	3127.8125
1327.97525	2686.3125
1331.47754	2493.5125
1334.97747	2432.9125
1338.47502	2511.0125
1341.97022	2749.6125
1345.46305	3123.5125
1348.95352	3579.4125
1352.44163	4108.8125
1355.92738	4924.6125
1359.41078	6074.2125
1362.89183	6772.4125
1366.37053	6048.3125
1369.84688	4690.5125
1373.32088	3708.8125
1376.79254	3140.8125
1380.26186	2791.7125
1383.72883	2533.5125
1387.19347	2299.9125
1390.65578	2114.4125
1394.11575	1978.2125
1397.57339	1900.9125
1401.0287	1873.7125
1404.48168	1850.2125
1407.93234	1851.2125
1411.38068	1869.6125
1414.82669	1920.0125
1418.27039	1942.0125
1421.71177	1921.8125
1425.15083	1922.2125
1428.58758	1956.0125
1432.02203	2013.2125
1435.45416	2036.1125
1438.88399	2007.7125
1442.31151	1984.2125
1445.73673	1984.5125
1449.15965	1989.1125
1452.58027	1973.8125
1455.9986	1949.5125
1459.41463	1924.3125
1462.82837	1966.2125
1466.23982	2030.8125
1469.64898	2075.6125
1473.05586	2087.6125
1476.46045	2101.1125
1479.86276	2140.8125
1483.26279	2226.7125
1486.66054	2348.2125
1490.05602	2523.2125
1493.44922	2812.9125
1496.84016	3270.6125
1500.22882	3967.6125
1503.61521	4944.1125
1506.99934	6002.5125
1510.38121	6747.1125
1513.76081	6683.6125
1517.13816	5788.2125
1520.51324	4552.2125
1523.88607	3556.7125
1527.25665	2961.6125
1530.62498	2640.9125
1533.99105	2468.1125
1537.35488	2364.8125
1540.71647	2334.8125
1544.07581	2339.4125
1547.4329	2399.0125
1550.78776	2441.8125
1554.14038	2460.9125
1557.49077	2497.2125
1560.83892	2585.1125
1564.18484	2723.6125
1567.52853	2922.2125
1570.86999	3074.4125
1574.20922	3138.8125
1577.54624	3055.3125
1580.88103	2771.2125
1584.2136	2415.2125
1587.54395	2197.6125
1590.87208	2158.3125
1594.19801	2263.1125
1597.52172	2441.6125
1600.84321	2502.9125
1604.16251	2424.3125
1607.47959	2272.3125
1610.79447	2124.9125
1614.10715	1974.0125
1617.41763	1871.1125
1620.7259	1826.1125
1624.03199	1793.7125
1627.33587	1831.2125
1630.63757	1872.6125
1633.93707	1990.1125
1637.23439	2197.1125
1640.52951	2544.6125
1643.82246	3079.0125
1647.11321	3756.9125
1650.40179	4126.4125
1653.68819	3899.4125
1656.97241	3224.0125
1660.25446	2565.1125
1663.53433	2133.4125
1666.81203	1895.9125
1670.08756	1758.3125
1673.36092	1677.7125
1676.63211	1616.1125
1679.90115	1581.0125
1683.16801	1548.9125
1686.43272	1531.0125
1689.69527	1510.4125
1692.95567	1497.4125
1696.2139	1496.9125
1699.46999	1499.5125
1702.72392	1502.7125
1705.97571	1490.3125
1709.22535	1491.1125
1712.47284	1471.1125
1715.71819	1470.6125
1718.96139	1464.3125
1722.20246	1456.8125
1725.44139	1445.7125
1728.67818	1419.7125
1731.91284	1407.4125
1735.14537	1398.7125
1738.37576	1397.5125
1741.60403	1389.1125
1744.83017	1381.3125
1748.05418	1370.3125
1751.27607	1360.2125
1754.49584	1373.5125
1757.71349	1368.1125
1760.92903	1369.0125
1764.14244	1354.5125
1767.35375	1352.5125
1770.56294	1338.7125
1773.77002	1330.4125
1776.97499	1320.4125
1780.17785	1308.3125
1783.37861	1305.0125
1786.57727	1299.6125
1789.77382	1293.0125
1792.96828	1295.0125
1796.16064	1290.6125
1799.3509	1293.9125
1802.53907	1289.6125
1805.72514	1280.8125
1808.90913	1279.0125
1812.09102	1274.0125
1815.27083	1272.9125
1818.44856	1263.9125
1821.6242	1264.3125
1824.79776	1259.0125
1827.96924	1249.1125
1831.13864	1254.1125
1834.30597	1248.1125
1837.47122	1245.7125
1840.6344	1238.1125
1843.7955	1245.3125
1846.95454	1238.6125
1850.11151	1237.0125
1853.26642	1238.2125
1856.41926	1235.9125
1859.57004	1247.9125
1862.71876	1237.4125
1865.86542	1239.1125
1869.01003	1234.5125
1872.15258	1236.8125
1875.29308	1237.8125
1878.43152	1236.1125
1881.56792	1229.6125
1884.70227	1227.5125
1887.83457	1224.1125
1890.96482	1223.8125
1894.09304	1223.0125
1897.21921	1219.5125
1900.34335	1220.7125
1903.46544	1222.6125
1906.58551	1225.9125
1909.70353	1216.3125
1912.81953	1211.3125
1915.93349	1222.0125
1919.04543	1225.2125
1922.15534	1213.7125
1925.26322	1211.8125
1928.36908	1207.1125
1931.47292	1203.1125
1934.57473	1199.4125
1937.67453	1207.3125
1940.77232	1194.6125
1943.86808	1186.8125
1946.96184	1188.9125
1950.05358	1184.6125
1953.14331	1183.4125
1956.23103	1179.2125
1959.31675	1177.5125
1962.40046	1171.1125
1965.48217	1171.2125
1968.56188	1169.0125
1971.63959	1166.3125
1974.7153	1167.6125
1977.78901	1160.3125
1980.86073	1151.7125
1983.93046	1147.9125
1986.99819	1143.1125
1990.06394	1134.0125
1993.1277	1140.0125
1996.18947	1134.9125
1999.24925	1133.4125
2002.30706	1134.4125
2005.36288	1124.3125
2008.41672	1121.6125
2011.46859	1117.0125
2014.51848	1111.4125
2017.56639	1113.8125
2020.61233	1112.1125
2023.6563	1095.6125
2026.6983	1102.9125
2029.73833	1096.2125
2032.7764	1093.4125
2035.8125	1094.7125
2038.84664	1091.4125
2041.87881	1087.0125
2044.90903	1089.2125
2047.93729	1085.2125
2050.96359	1084.7125
2053.98794	1083.9125
2057.01034	1084.6125
2060.03078	1080.5125
2063.04927	1079.7125
2066.06582	1081.3125
2069.08042	1073.6125
2072.09307	1089.0125
2075.10378	1073.4125
2078.11255	1073.5125
2081.11938	1074.7125
2084.12426	1082.1125
2087.12722	1085.3125
2090.12824	1077.7125
2093.12732	1084.2125
2096.12447	1081.1125
2099.11969	1077.9125
2102.11299	1078.7125
2105.10435	1085.8125
2108.09379	1076.0125
2111.08131	1080.3125
2114.0669	1082.3125
2117.05057	1093.7125
2120.03233	1091.9125
2123.01216	1098.3125
2125.99008	1095.2125
2128.96609	1095.3125
2131.94018	1107.2125
2134.91236	1095.8125
2137.88263	1106.0125
2140.851	1104.3125
2143.81746	1100.5125
2146.78201	1092.8125
2149.74466	1097.4125
2152.7054	1096.9125
2155.66425	1086.2125
2158.6212	1095.2125
2161.57625	1093.9125
2164.52941	1088.4125
2167.48067	1093.2125
2170.43004	1100.4125
2173.37752	1086.6125
2176.32311	1094.0125
2179.26681	1090.8125
2182.20863	1099.5125
2185.14856	1097.7125
2188.08661	1094.6125
2191.02278	1102.3125
2193.95707	1097.4125
2196.88948	1083.1125
2199.82001	1086.9125
2202.74867	1087.8125
2205.67545	1086.7125
2208.60037	1080.2125
2211.52341	1090.0125
2214.44458	1082.0125
2217.36388	1071.2125
2220.28132	1076.2125
2223.1969	1073.5125
2226.11061	1077.5125
2229.02246	1071.0125
2231.93245	1068.5125
2234.84058	1075.2125
2237.74686	1070.3125
2240.65128	1068.2125
2243.55385	1067.7125
2246.45456	1068.9125
2249.35343	1067.3125
2252.25044	1071.3125
2255.14561	1070.5125
2258.03893	1076.3125
2260.93041	1080.2125
2263.82004	1071.7125
2266.70783	1072.5125
2269.59378	1073.5125
2272.4779	1068.4125
2275.36017	1063.4125
2278.24061	1060.2125
2281.11922	1049.3125
2283.996	1050.5125
2286.87094	1058.7125
2289.74405	1054.7125
2292.61534	1063.1125
2295.4848	1047.3125
2298.35243	1044.1125
2301.21824	1044.1125
2304.08223	1047.9125
2306.94439	1045.8125
2309.80474	1046.7125
2312.66327	1046.3125
2315.51999	1047.8125
2318.37489	1045.9125
2321.22797	1030.6125
2324.07925	1037.7125
2326.92871	1038.7125
2329.77637	1044.2125
2332.62222	1038.3125
2335.46626	1038.7125
2338.3085	1029.9125
2341.14893	1039.0125
2343.98756	1041.5125
2346.8244	1037.1125
2349.65943	1039.8125
2352.49267	1040.6125
2355.32411	1034.3125
2358.15376	1037.1125
2360.98161	1040.9125
2363.80768	1046.3125
2366.63195	1048.9125
2369.45444	1050.9125
2372.27514	1060.6125
2375.09405	1055.8125
2377.91118	1055.6125
2380.72652	1047.6125
2383.54009	1042.4125
2386.35187	1046.5125
2389.16188	1035.6125
2391.97011	1040.2125
2394.77657	1025.4125
2397.58125	1014.5125
2400.38416	1021.4125
2403.18529	1028.6125
2405.98466	1023.0125
2408.78226	1024.7125
2411.57809	1011.4125
2414.37216	1024.0125
2417.16446	1011.4125
2419.955	1012.8125
2422.74378	1016.9125
2425.5308	1017.2125
2428.31606	1020.6125
2431.09956	1016.9125
2433.88131	1016.9125
2436.6613	1017.4125
2439.43954	1015.6125
2442.21603	1015.5125
2444.99077	1013.7125
2447.76377	1023.3125
2450.53501	1020.2125
2453.30451	1027.7125
2456.07226	1023.0125
2458.83827	1015.8125
2461.60254	1014.2125
2464.36507	1021.9125
2467.12586	1016.9125
2469.88492	1015.8125
2472.64224	1025.0125
2475.39782	1014.9125
2478.15167	1025.2125
2480.90379	1028.4125
2483.65417	1035.0125
2486.40283	1034.1125
2489.14976	1039.3125
2491.89497	1034.0125
2494.63845	1039.4125
2497.3802	1042.3125
2500.12024	1030.9125
2502.85855	1030.7125
2505.59514	1026.7125
2508.33002	1020.2125
2511.06318	1019.8125
2513.79462	1014.6125
2516.52435	1005.9125
2519.25237	997.8125
2521.97867	1001.8125
2524.70327	998.9125
2527.42616	996.0125
2530.14734	996.3125
2532.86681	994.1125
2535.58458	1000.5125
2538.30065	992.1125
2541.01501	991.1125
2543.72768	998.5125
2546.43864	995.5125
2549.14791	998.5125
2551.85548	995.1125
2554.56136	992.2125
2557.26554	993.0125
2559.96803	995.0125
2562.66883	995.6125
2565.36794	998.0125
2568.06536	998.7125
2570.7611	990.7125
2573.45514	991.5125
2576.14751	983.9125
2578.83819	991.5125
2581.52719	986.8125
2584.21451	973.9125
2586.90015	972.1125
2589.58411	974.0125
2592.2664	979.4125
2594.94701	980.1125
2597.62594	977.7125
2600.30321	974.1125
2602.9788	978.1125
2605.65273	972.0125
2608.32498	972.2125
2610.99557	971.4125
2613.66449	967.3125
2616.33175	978.5125
2618.99734	974.1125
2621.66128	971.7125
2624.32355	972.8125
2626.98416	970.0125
2629.64311	966.9125
2632.30041	965.5125
2634.95605	963.6125
2637.61004	964.6125
2640.26238	965.0125
2642.91306	956.6125
2645.56209	959.6125
2648.20948	956.2125
2650.85521	958.6125
2653.4993	960.0125
2656.14175	961.4125
2658.78255	972.1125
2661.42171	955.2125
2664.05923	966.6125
2666.6951	974.2125
2669.32934	963.5125
2671.96194	970.2125
2674.59291	976.5125
2677.22224	975.8125
2679.84993	972.2125
2682.476	974.4125
2685.10043	975.6125
2687.72324	973.4125
2690.34441	974.9125
2692.96396	971.0125
2695.58188	970.8125
2698.19818	974.6125
2700.81285	964.3125
2703.4259	975.2125
2706.03733	976.4125
2708.64714	974.2125
2711.25533	969.4125
2713.86191	976.2125
2716.46687	982.9125
2719.07021	979.4125
2721.67194	982.8125
2724.27206	984.7125
2726.87057	989.8125
2729.46747	984.9125
2732.06276	995.9125
2734.65644	989.3125
2737.24852	995.3125
2739.83899	983.5125
2742.42786	987.1125
2745.01513	986.0125
2747.60079	980.7125
2750.18486	974.9125
2752.76733	976.0125
2755.3482	973.6125
2757.92747	976.2125
2760.50515	974.5125
2763.08123	975.0125
2765.65573	968.0125
2768.22863	965.4125
2770.79994	964.1125
2773.36967	973.4125
2775.9378	970.2125
2778.50435	980.1125
2781.06932	977.7125
2783.6327	973.6125
2786.1945	979.1125
2788.75471	977.7125
2791.31335	982.8125
2793.87041	985.8125
2796.42589	973.3125
2798.97979	980.7125
2801.53212	980.1125
2804.08288	973.4125
2806.63206	976.6125
2809.17967	977.9125
2811.72571	980.6125
2814.27018	978.9125
2816.81308	976.5125
2819.35442	983.4125
2821.89419	987.4125
2824.43239	981.1125
2826.96904	993.8125
2829.50412	985.5125
2832.03763	992.8125
2834.56959	991.9125
2837.1	993.5125
2839.62884	990.0125
2842.15613	990.9125
2844.68186	997.3125
2847.20604	999.3125
2849.72867	996.3125
2852.24974	1009.2125
2854.76927	1018.0125
2857.28724	1008.2125
2859.80367	1017.2125
2862.31855	1022.0125
2864.83189	1021.0125
2867.34368	1022.1125
2869.85393	1017.2125
2872.36264	1016.6125
2874.8698	1021.3125
2877.37543	1014.9125
2879.87952	1014.0125
2882.38207	1015.5125
2884.88308	1014.1125
2887.38256	1014.6125
2889.88051	1012.5125
2892.37692	1019.7125
2894.8718	1013.9125
2897.36515	1026.1125
2899.85698	1016.1125
2902.34727	1017.8125
2904.83604	1021.2125
2907.32328	1020.3125
2909.809	1026.1125
2912.29319	1029.0125
2914.77587	1026.1125
2917.25702	1023.2125
2919.73665	1021.7125
2922.21476	1020.1125
2924.69136	1013.8125
2927.16644	1016.5125
2929.64	1023.7125
2932.11205	1020.7125
2934.58258	1014.9125
2937.05161	1016.2125
2939.51912	1017.3125
2941.98513	1018.8125
2944.44962	1005.8125
2946.91261	1007.1125
2949.37409	1010.0125
2951.83407	1016.3125
2954.29254	1017.6125
2956.74951	1016.5125
2959.20498	1015.7125
2961.65895	1017.2125
2964.11142	1016.6125
2966.56239	1007.1125
2969.01186	1017.9125
2971.45984	1015.5125
2973.90632	1013.8125
2976.35131	1017.7125
2978.7948	1016.8125
2981.23681	1016.9125
2983.67732	1009.5125
2986.11635	1004.0125
2988.55388	1006.9125
2990.98993	1006.7125
2993.4245	1008.3125
2995.85758	1007.7125
2998.28917	1006.9125
3000.71928	1005.7125
3003.14791	1010.4125
3005.57506	1008.7125
3008.00073	1022.0125
3010.42493	1016.7125
3012.84764	1014.3125
3015.26888	1020.5125
3017.68865	1022.4125
3020.10694	1011.6125
3022.52376	1020.5125
3024.9391	1021.7125
3027.35298	1023.7125
3029.76539	1016.0125
3032.17632	1027.0125
3034.5858	1025.2125
3036.9938	1032.9125
3039.40034	1026.8125
3041.80542	1030.4125
3044.20903	1031.7125
3046.61118	1034.7125
3049.01187	1034.4125
3051.4111	1038.7125
3053.80888	1048.2125
3056.20519	1046.7125
3058.60005	1044.7125
3060.99345	1051.0125
3063.3854	1043.3125
3065.7759	1054.6125
3068.16494	1055.6125
3070.55254	1048.9125
3072.93868	1057.2125
3075.32338	1061.6125
3077.70662	1052.7125
3080.08842	1049.5125
3082.46878	1060.2125
3084.84769	1061.6125
3087.22515	1070.3125
3089.60118	1073.3125
3091.97576	1085.7125
3094.3489	1081.3125
3096.72061	1084.5125
3099.09087	1090.0125
3101.4597	1094.5125
3103.82709	1113.0125
3106.19305	1114.9125
3108.55757	1124.7125
3110.92066	1122.3125
3113.28232	1125.5125
3115.64255	1134.1125
3118.00134	1140.1125
3120.35871	1147.1125
3122.71466	1153.9125
3125.06917	1154.6125
3127.42226	1157.7125
3129.77393	1164.3125
3132.12417	1167.2125
3134.47299	1175.3125
3136.82039	1179.0125
3139.16636	1195.9125
3141.51092	1189.0125
3143.85406	1214.7125
3146.19579	1209.0125
3148.53609	1226.1125
3150.87499	1228.3125
3153.21246	1231.5125
3155.54853	1245.5125
3157.88318	1259.5125
3160.21642	1267.3125
3162.54826	1282.3125
3164.87868	1276.4125
3167.2077	1281.2125
3169.5353	1294.1125
3171.86151	1300.6125
3174.18631	1302.8125
3176.5097	1309.1125
3178.83169	1320.0125
3181.15228	1324.7125
3183.47147	1323.8125
3185.78926	1334.9125
3188.10565	1340.4125
3190.42065	1351.3125
3192.73424	1348.8125
3195.04645	1354.5125
3197.35725	1352.3125
3199.66667	1361.1125
3201.97469	1376.9125
3204.28132	1375.2125
3206.58656	1395.5125
3208.8904	1397.4125
3211.19287	1401.8125
3213.49394	1406.7125
3215.79363	1411.5125
3218.09193	1420.8125
3220.38884	1417.4125
3222.68438	1431.1125
3224.97853	1430.2125
3227.2713	1435.9125
3229.56269	1438.4125
3231.8527	1444.8125
3234.14133	1430.4125
3236.42858	1430.0125
3238.71446	1428.0125
3240.99896	1433.5125
3243.28209	1435.1125
3245.56384	1433.8125
3247.84423	1434.1125
3250.12324	1426.8125
3252.40088	1427.6125
3254.67715	1432.2125
3256.95205	1428.6125
3259.22558	1437.1125
3261.49775	1426.0125
3263.76855	1437.7125
3266.03799	1446.2125
3268.30606	1449.6125
3270.57277	1440.1125
3272.83812	1441.8125
3275.10211	1429.9125
3277.36474	1437.8125
3279.62601	1436.9125
3281.88593	1438.9125
3284.14448	1430.6125
3286.40168	1445.4125
3288.65753	1443.3125
3290.91202	1439.1125
3293.16516	1440.0125
3295.41695	1430.5125
3297.66738	1429.1125
3299.91647	1418.8125
3302.16421	1420.7125
3304.4106	1397.0125
3306.65564	1394.1125
3308.89933	1380.6125
3311.14169	1378.7125
3313.38269	1364.7125
3315.62236	1357.5125
3317.86068	1351.8125
3320.09766	1337.1125
3322.3333	1322.4125
3324.5676	1323.3125
3326.80056	1309.4125
3329.03219	1298.8125
3331.26248	-0.9875
3333.49143	0.2125
3335.71905	-3.2875
