Data from AgNPs_APTES_FTO_UA_100uM_CRN_0uM_R6G_10uM_Scan_RamanShift__7__10-47-51-236.txt Node

Date: Wed Jun 29 10:47:51 BST 2022
User: TCL
Spectrometer: QEP01345
Trigger mode: 4
Integration Time (sec): 7.000000E0
Scans to average: 10
Electric dark correction enabled: true
Nonlinearity correction enabled: false
Boxcar width: 0
XAxis mode: Raman Shifts
Number of Pixels in Spectrum: 1044
>>>>>Begin Spectral Data<<<<<
46.04893	-0.3875
50.45542	0.7125
54.85868	0.8125
59.25871	1.5125
63.6555	35.8125
68.04907	40.5125
72.43941	42.6125
76.82654	43.9125
81.21044	47.9125
85.59113	48.6125
89.96862	53.3125
94.34289	53.5125
98.71396	54.0125
103.08183	57.5125
107.4465	56.3125
111.80798	58.0125
116.16626	56.8125
120.52136	58.5125
124.87327	52.4125
129.222	57.7125
133.56755	55.9125
137.90993	51.7125
142.24913	52.5125
146.58517	49.4125
150.91804	51.2125
155.24774	51.4125
159.57429	55.3125
163.89768	55.8125
168.21792	62.6125
172.53501	71.7125
176.84895	80.5125
181.15975	102.1125
185.46741	128.0125
189.77193	160.2125
194.07331	207.9125
198.37157	260.8125
202.6667	314.3125
206.9587	356.6125
211.24758	416.4125
215.53334	468.3125
219.81599	533.3125
224.09553	580.3125
228.37195	644.0125
232.64527	717.5125
236.91549	776.9125
241.18261	840.4125
245.44663	925.3125
249.70755	971.8125
253.96539	1021.2125
258.22014	1053.6125
262.4718	1093.7125
266.72039	1104.2125
270.96589	1094.3125
275.20832	1084.0125
279.44768	1058.4125
283.68397	1043.6125
287.91719	1012.0125
292.14735	990.4125
296.37445	979.0125
300.59849	974.1125
304.81948	968.8125
309.03742	970.5125
313.25231	964.4125
317.46415	948.5125
321.67296	933.6125
325.87872	907.4125
330.08145	906.3125
334.28114	908.6125
338.47781	917.7125
342.67145	927.8125
346.86207	941.6125
351.04966	963.4125
355.23424	983.8125
359.4158	999.8125
363.59435	1002.7125
367.76989	1013.4125
371.94243	1032.9125
376.11196	1022.9125
380.27849	1039.9125
384.44203	1039.8125
388.60257	1042.3125
392.76012	1048.1125
396.91468	1043.7125
401.06626	1060.3125
405.21485	1077.9125
409.36047	1062.8125
413.50311	1062.6125
417.64277	1038.5125
421.77947	1035.5125
425.9132	1036.8125
430.04396	1028.0125
434.17176	1043.8125
438.2966	1050.2125
442.41849	1062.6125
446.53742	1069.9125
450.6534	1092.7125
454.76644	1090.1125
458.87653	1105.1125
462.98368	1104.9125
467.08789	1110.3125
471.18916	1113.4125
475.2875	1111.8125
479.38291	1106.5125
483.4754	1122.5125
487.56496	1122.9125
491.6516	1117.5125
495.73531	1127.8125
499.81612	1128.2125
503.89401	1121.1125
507.96899	1123.2125
512.04106	1116.2125
516.11023	1119.3125
520.1765	1114.0125
524.23987	1103.2125
528.30034	1109.9125
532.35792	1106.8125
536.41261	1098.1125
540.46441	1096.0125
544.51333	1095.6125
548.55936	1081.6125
552.60252	1092.1125
556.64279	1094.5125
560.6802	1097.4125
564.71473	1095.7125
568.7464	1112.1125
572.7752	1117.4125
576.80114	1105.1125
580.82422	1102.4125
584.84444	1104.0125
588.86181	1107.2125
592.87633	1117.5125
596.888	1115.7125
600.89682	1131.6125
604.9028	1153.3125
608.90594	1239.0125
612.90624	1355.2125
616.90371	1354.4125
620.89834	1246.8125
624.89015	1184.2125
628.87913	1187.3125
632.86528	1206.1125
636.84862	1227.6125
640.82913	1228.8125
644.80683	1217.7125
648.78172	1195.4125
652.75379	1189.2125
656.72306	1184.9125
660.68952	1196.8125
664.65319	1209.7125
668.61405	1195.1125
672.57211	1196.7125
676.52738	1219.9125
680.47986	1235.9125
684.42955	1267.7125
688.37646	1290.7125
692.32058	1275.3125
696.26192	1242.0125
700.20048	1231.5125
704.13626	1211.7125
708.06928	1200.6125
711.99952	1206.9125
715.927	1201.8125
719.85171	1207.7125
723.77365	1202.2125
727.69284	1189.1125
731.60928	1185.7125
735.52295	1178.8125
739.43388	1184.6125
743.34206	1179.3125
747.24749	1171.8125
751.15017	1181.1125
755.05012	1150.7125
758.94733	1177.1125
762.8418	1215.1125
766.73354	1268.7125
770.62254	1318.0125
774.50882	1342.8125
778.39237	1329.2125
782.27321	1279.2125
786.15132	1249.2125
790.02671	1221.6125
793.89938	1214.5125
797.76935	1216.5125
801.6366	1213.0125
805.50115	1212.0125
809.36299	1233.3125
813.22213	1235.5125
817.07857	1230.4125
820.93231	1202.3125
824.78336	1201.6125
828.63172	1178.6125
832.47738	1178.1125
836.32036	1176.4125
840.16066	1178.6125
843.99827	1174.1125
847.8332	1173.4125
851.66546	1166.8125
855.49504	1157.5125
859.32195	1158.7125
863.1462	1154.5125
866.96777	1162.8125
870.78668	1170.2125
874.60293	1175.2125
878.41652	1184.9125
882.22745	1198.3125
886.03573	1215.5125
889.84136	1225.1125
893.64433	1236.4125
897.44466	1225.2125
901.24235	1222.9125
905.0374	1222.3125
908.8298	1214.5125
912.61957	1204.5125
916.40671	1219.7125
920.19121	1225.4125
923.97308	1229.1125
927.75233	1228.6125
931.52895	1239.1125
935.30295	1220.9125
939.07433	1218.9125
942.84309	1207.2125
946.60924	1194.9125
950.37278	1189.4125
954.13371	1195.8125
957.89203	1181.3125
961.64774	1178.1125
965.40086	1169.2125
969.15137	1162.5125
972.89929	1158.1125
976.64461	1146.8125
980.38733	1144.5125
984.12747	1147.1125
987.86502	1142.3125
991.59999	1139.3125
995.33237	1146.4125
999.06217	1151.0125
1002.78939	1160.5125
1006.51404	1167.5125
1010.23611	1183.7125
1013.95561	1193.7125
1017.67255	1190.7125
1021.38692	1185.5125
1025.09872	1189.1125
1028.80796	1192.3125
1032.51465	1181.0125
1036.21877	1175.5125
1039.92035	1172.8125
1043.61937	1166.1125
1047.31584	1167.6125
1051.00976	1169.9125
1054.70114	1167.1125
1058.38998	1173.1125
1062.07627	1173.5125
1065.76003	1179.5125
1069.44126	1188.4125
1073.11995	1184.0125
1076.79611	1197.5125
1080.46974	1194.3125
1084.14085	1197.0125
1087.80943	1192.8125
1091.47549	1191.5125
1095.13903	1174.5125
1098.80005	1169.8125
1102.45857	1158.8125
1106.11456	1153.1125
1109.76805	1163.0125
1113.41903	1160.7125
1117.06751	1191.8125
1120.71348	1213.8125
1124.35696	1248.9125
1127.99793	1283.1125
1131.63641	1303.1125
1135.2724	1311.4125
1138.90589	1298.2125
1142.5369	1280.1125
1146.16542	1256.8125
1149.79145	1236.2125
1153.415	1217.3125
1157.03607	1203.1125
1160.65467	1192.0125
1164.27079	1198.8125
1167.88443	1205.3125
1171.49561	1222.6125
1175.10432	1258.3125
1178.71056	1303.7125
1182.31434	1343.2125
1185.91565	1343.4125
1189.51451	1325.5125
1193.11091	1303.8125
1196.70485	1299.5125
1200.29634	1285.0125
1203.88538	1275.5125
1207.47197	1263.5125
1211.05612	1247.9125
1214.63782	1232.0125
1218.21708	1226.8125
1221.79391	1215.9125
1225.36829	1214.8125
1228.94024	1223.9125
1232.50976	1219.2125
1236.07685	1229.2125
1239.6415	1237.8125
1243.20374	1237.1125
1246.76355	1245.5125
1250.32093	1252.8125
1253.8759	1248.0125
1257.42845	1260.0125
1260.97859	1267.5125
1264.52631	1290.0125
1268.07163	1297.1125
1271.61453	1307.2125
1275.15503	1313.0125
1278.69312	1321.4125
1282.22882	1321.1125
1285.76211	1345.6125
1289.29301	1362.3125
1292.82151	1391.6125
1296.34761	1407.8125
1299.87133	1447.9125
1303.39266	1481.6125
1306.9116	1535.5125
1310.42815	1594.8125
1313.94233	1625.0125
1317.45412	1599.0125
1320.96354	1557.8125
1324.47058	1506.7125
1327.97525	1466.1125
1331.47754	1450.2125
1334.97747	1443.4125
1338.47502	1453.8125
1341.97022	1476.6125
1345.46305	1521.8125
1348.95352	1562.9125
1352.44163	1619.6125
1355.92738	1689.4125
1359.41078	1789.7125
1362.89183	1894.8125
1366.37053	1907.8125
1369.84688	1792.0125
1373.32088	1684.4125
1376.79254	1600.3125
1380.26186	1560.5125
1383.72883	1555.1125
1387.19347	1512.3125
1390.65578	1495.1125
1394.11575	1473.4125
1397.57339	1460.4125
1401.0287	1460.2125
1404.48168	1441.1125
1407.93234	1432.0125
1411.38068	1424.8125
1414.82669	1411.0125
1418.27039	1413.7125
1421.71177	1390.1125
1425.15083	1383.9125
1428.58758	1359.9125
1432.02203	1347.8125
1435.45416	1345.0125
1438.88399	1337.9125
1442.31151	1319.1125
1445.73673	1302.5125
1449.15965	1316.1125
1452.58027	1303.4125
1455.9986	1302.5125
1459.41463	1308.5125
1462.82837	1301.4125
1466.23982	1321.1125
1469.64898	1330.8125
1473.05586	1340.7125
1476.46045	1336.2125
1479.86276	1351.2125
1483.26279	1354.8125
1486.66054	1367.4125
1490.05602	1380.0125
1493.44922	1401.3125
1496.84016	1411.2125
1500.22882	1454.2125
1503.61521	1504.4125
1506.99934	1581.7125
1510.38121	1641.8125
1513.76081	1671.3125
1517.13816	1609.1125
1520.51324	1528.8125
1523.88607	1437.8125
1527.25665	1370.3125
1530.62498	1345.7125
1533.99105	1319.3125
1537.35488	1319.1125
1540.71647	1301.7125
1544.07581	1297.7125
1547.4329	1298.2125
1550.78776	1292.8125
1554.14038	1306.5125
1557.49077	1317.6125
1560.83892	1315.6125
1564.18484	1320.5125
1567.52853	1337.9125
1570.86999	1354.0125
1574.20922	1356.3125
1577.54624	1347.7125
1580.88103	1341.2125
1584.2136	1313.9125
1587.54395	1270.7125
1590.87208	1258.0125
1594.19801	1250.0125
1597.52172	1256.3125
1600.84321	1252.9125
1604.16251	1228.9125
1607.47959	1209.7125
1610.79447	1204.6125
1614.10715	1186.3125
1617.41763	1181.0125
1620.7259	1168.7125
1624.03199	1163.0125
1627.33587	1159.1125
1630.63757	1149.9125
1633.93707	1148.0125
1637.23439	1148.5125
1640.52951	1163.4125
1643.82246	1185.1125
1647.11321	1227.0125
1650.40179	1254.3125
1653.68819	1249.0125
1656.97241	1195.1125
1660.25446	1139.2125
1663.53433	1082.3125
1666.81203	1055.3125
1670.08756	1045.9125
1673.36092	1047.0125
1676.63211	1045.7125
1679.90115	1047.1125
1683.16801	1043.4125
1686.43272	1019.4125
1689.69527	1008.1125
1692.95567	988.7125
1696.2139	948.6125
1699.46999	914.0125
1702.72392	892.9125
1705.97571	901.3125
1709.22535	917.3125
1712.47284	915.8125
1715.71819	925.9125
1718.96139	915.0125
1722.20246	908.5125
1725.44139	898.7125
1728.67818	891.4125
1731.91284	871.6125
1735.14537	868.8125
1738.37576	859.7125
1741.60403	853.2125
1744.83017	843.8125
1748.05418	842.7125
1751.27607	826.6125
1754.49584	806.9125
1757.71349	785.4125
1760.92903	768.2125
1764.14244	778.1125
1767.35375	763.9125
1770.56294	768.1125
1773.77002	773.7125
1776.97499	779.0125
1780.17785	795.9125
1783.37861	801.6125
1786.57727	812.4125
1789.77382	813.3125
1792.96828	818.4125
1796.16064	802.7125
1799.3509	801.7125
1802.53907	813.4125
1805.72514	806.0125
1808.90913	801.9125
1812.09102	801.4125
1815.27083	801.1125
1818.44856	796.5125
1821.6242	796.8125
1824.79776	801.4125
1827.96924	798.8125
1831.13864	796.0125
1834.30597	795.4125
1837.47122	795.6125
1840.6344	790.2125
1843.7955	793.5125
1846.95454	782.7125
1850.11151	794.2125
1853.26642	789.6125
1856.41926	782.2125
1859.57004	785.5125
1862.71876	786.2125
1865.86542	797.1125
1869.01003	786.2125
1872.15258	787.8125
1875.29308	785.3125
1878.43152	777.6125
1881.56792	780.2125
1884.70227	780.6125
1887.83457	773.8125
1890.96482	772.6125
1894.09304	774.8125
1897.21921	774.7125
1900.34335	767.4125
1903.46544	773.2125
1906.58551	773.7125
1909.70353	764.8125
1912.81953	767.7125
1915.93349	768.7125
1919.04543	769.9125
1922.15534	765.3125
1925.26322	765.0125
1928.36908	760.5125
1931.47292	765.2125
1934.57473	765.3125
1937.67453	768.9125
1940.77232	761.5125
1943.86808	753.9125
1946.96184	752.4125
1950.05358	752.3125
1953.14331	748.5125
1956.23103	751.6125
1959.31675	747.7125
1962.40046	732.7125
1965.48217	746.6125
1968.56188	734.8125
1971.63959	734.4125
1974.7153	731.0125
1977.78901	730.6125
1980.86073	727.0125
1983.93046	726.5125
1986.99819	735.0125
1990.06394	725.5125
1993.1277	727.1125
1996.18947	721.4125
1999.24925	722.2125
2002.30706	711.6125
2005.36288	709.6125
2008.41672	725.2125
2011.46859	715.0125
2014.51848	714.1125
2017.56639	710.7125
2020.61233	706.3125
2023.6563	710.3125
2026.6983	705.1125
2029.73833	710.3125
2032.7764	705.7125
2035.8125	706.9125
2038.84664	708.5125
2041.87881	699.7125
2044.90903	697.7125
2047.93729	699.2125
2050.96359	696.6125
2053.98794	693.8125
2057.01034	702.9125
2060.03078	694.7125
2063.04927	703.5125
2066.06582	710.0125
2069.08042	701.8125
2072.09307	709.4125
2075.10378	708.6125
2078.11255	710.9125
2081.11938	717.0125
2084.12426	721.1125
2087.12722	731.5125
2090.12824	724.3125
2093.12732	726.0125
2096.12447	733.3125
2099.11969	734.9125
2102.11299	737.0125
2105.10435	739.0125
2108.09379	739.9125
2111.08131	745.5125
2114.0669	745.7125
2117.05057	745.5125
2120.03233	747.1125
2123.01216	752.5125
2125.99008	743.5125
2128.96609	741.5125
2131.94018	749.6125
2134.91236	749.6125
2137.88263	755.1125
2140.851	746.3125
2143.81746	745.3125
2146.78201	735.5125
2149.74466	742.5125
2152.7054	735.8125
2155.66425	737.7125
2158.6212	741.4125
2161.57625	731.4125
2164.52941	732.6125
2167.48067	732.4125
2170.43004	738.0125
2173.37752	738.9125
2176.32311	736.3125
2179.26681	736.9125
2182.20863	731.6125
2185.14856	732.1125
2188.08661	733.4125
2191.02278	723.4125
2193.95707	726.9125
2196.88948	706.7125
2199.82001	716.4125
2202.74867	705.4125
2205.67545	706.9125
2208.60037	695.3125
2211.52341	703.1125
2214.44458	700.8125
2217.36388	701.7125
2220.28132	696.6125
2223.1969	697.3125
2226.11061	694.9125
2229.02246	689.8125
2231.93245	694.4125
2234.84058	681.1125
2237.74686	686.4125
2240.65128	686.6125
2243.55385	683.4125
2246.45456	693.5125
2249.35343	686.3125
2252.25044	682.4125
2255.14561	684.9125
2258.03893	679.9125
2260.93041	670.9125
2263.82004	669.9125
2266.70783	670.3125
2269.59378	675.9125
2272.4779	674.0125
2275.36017	676.9125
2278.24061	672.8125
2281.11922	668.1125
2283.996	668.2125
2286.87094	671.6125
2289.74405	662.7125
2292.61534	672.3125
2295.4848	665.0125
2298.35243	666.7125
2301.21824	670.3125
2304.08223	667.9125
2306.94439	672.1125
2309.80474	665.3125
2312.66327	662.8125
2315.51999	666.1125
2318.37489	665.0125
2321.22797	662.5125
2324.07925	664.3125
2326.92871	663.5125
2329.77637	662.8125
2332.62222	655.4125
2335.46626	658.6125
2338.3085	652.7125
2341.14893	655.2125
2343.98756	653.9125
2346.8244	655.8125
2349.65943	657.1125
2352.49267	652.2125
2355.32411	653.9125
2358.15376	650.0125
2360.98161	652.6125
2363.80768	655.7125
2366.63195	654.4125
2369.45444	656.5125
2372.27514	652.6125
2375.09405	654.0125
2377.91118	653.0125
2380.72652	655.5125
2383.54009	647.3125
2386.35187	651.4125
2389.16188	646.9125
2391.97011	652.4125
2394.77657	652.6125
2397.58125	647.5125
2400.38416	648.3125
2403.18529	644.8125
2405.98466	640.5125
2408.78226	643.0125
2411.57809	638.3125
2414.37216	640.8125
2417.16446	637.8125
2419.955	638.4125
2422.74378	638.1125
2425.5308	641.4125
2428.31606	640.0125
2431.09956	631.3125
2433.88131	634.0125
2436.6613	634.5125
2439.43954	635.5125
2442.21603	632.5125
2444.99077	631.3125
2447.76377	632.0125
2450.53501	640.5125
2453.30451	628.8125
2456.07226	635.5125
2458.83827	636.2125
2461.60254	630.5125
2464.36507	631.1125
2467.12586	626.4125
2469.88492	629.3125
2472.64224	627.8125
2475.39782	621.3125
2478.15167	626.6125
2480.90379	627.1125
2483.65417	629.3125
2486.40283	629.4125
2489.14976	630.7125
2491.89497	624.3125
2494.63845	615.0125
2497.3802	621.5125
2500.12024	623.6125
2502.85855	619.8125
2505.59514	622.9125
2508.33002	621.4125
2511.06318	623.7125
2513.79462	631.8125
2516.52435	630.9125
2519.25237	625.9125
2521.97867	625.8125
2524.70327	620.2125
2527.42616	620.0125
2530.14734	620.3125
2532.86681	626.0125
2535.58458	625.7125
2538.30065	619.9125
2541.01501	615.9125
2543.72768	619.5125
2546.43864	614.2125
2549.14791	619.0125
2551.85548	614.6125
2554.56136	614.0125
2557.26554	621.8125
2559.96803	612.6125
2562.66883	619.7125
2565.36794	603.7125
2568.06536	611.2125
2570.7611	616.0125
2573.45514	613.3125
2576.14751	612.1125
2578.83819	608.1125
2581.52719	607.4125
2584.21451	597.6125
2586.90015	596.8125
2589.58411	602.1125
2592.2664	610.9125
2594.94701	602.0125
2597.62594	608.6125
2600.30321	603.4125
2602.9788	601.6125
2605.65273	602.3125
2608.32498	604.8125
2610.99557	596.4125
2613.66449	594.8125
2616.33175	604.7125
2618.99734	599.9125
2621.66128	588.5125
2624.32355	597.6125
2626.98416	593.5125
2629.64311	596.2125
2632.30041	598.4125
2634.95605	598.6125
2637.61004	595.2125
2640.26238	592.9125
2642.91306	591.7125
2645.56209	595.5125
2648.20948	588.6125
2650.85521	592.3125
2653.4993	599.0125
2656.14175	602.0125
2658.78255	594.9125
2661.42171	588.9125
2664.05923	595.3125
2666.6951	595.1125
2669.32934	594.4125
2671.96194	600.5125
2674.59291	595.4125
2677.22224	594.4125
2679.84993	598.7125
2682.476	594.0125
2685.10043	598.1125
2687.72324	597.8125
2690.34441	595.3125
2692.96396	596.1125
2695.58188	598.7125
2698.19818	595.8125
2700.81285	590.4125
2703.4259	581.3125
2706.03733	539.2125
2708.64714	560.6125
2711.25533	578.1125
2713.86191	589.6125
2716.46687	589.0125
2719.07021	593.3125
2721.67194	601.7125
2724.27206	602.6125
2726.87057	603.3125
2729.46747	603.8125
2732.06276	607.3125
2734.65644	599.3125
2737.24852	605.7125
2739.83899	606.1125
2742.42786	608.3125
2745.01513	599.6125
2747.60079	604.9125
2750.18486	604.5125
2752.76733	605.7125
2755.3482	598.2125
2757.92747	598.7125
2760.50515	602.1125
2763.08123	594.9125
2765.65573	599.9125
2768.22863	604.3125
2770.79994	602.4125
2773.36967	595.7125
2775.9378	601.4125
2778.50435	591.6125
2781.06932	601.4125
2783.6327	599.5125
2786.1945	596.0125
2788.75471	594.3125
2791.31335	600.5125
2793.87041	601.2125
2796.42589	599.2125
2798.97979	601.9125
2801.53212	599.0125
2804.08288	598.8125
2806.63206	590.5125
2809.17967	587.8125
2811.72571	587.2125
2814.27018	586.2125
2816.81308	582.8125
2819.35442	585.7125
2821.89419	587.5125
2824.43239	582.3125
2826.96904	578.4125
2829.50412	584.7125
2832.03763	585.2125
2834.56959	583.7125
2837.1	579.1125
2839.62884	587.5125
2842.15613	583.1125
2844.68186	580.4125
2847.20604	590.0125
2849.72867	584.7125
2852.24974	588.3125
2854.76927	581.8125
2857.28724	565.2125
2859.80367	581.0125
2862.31855	587.6125
2864.83189	578.1125
2867.34368	584.5125
2869.85393	584.7125
2872.36264	583.4125
2874.8698	584.2125
2877.37543	586.0125
2879.87952	587.6125
2882.38207	590.8125
2884.88308	592.8125
2887.38256	593.5125
2889.88051	592.0125
2892.37692	598.1125
2894.8718	600.7125
2897.36515	600.7125
2899.85698	592.9125
2902.34727	597.7125
2904.83604	605.7125
2907.32328	605.3125
2909.809	608.0125
2912.29319	618.1125
2914.77587	608.7125
2917.25702	612.9125
2919.73665	617.5125
2922.21476	612.2125
2924.69136	615.4125
2927.16644	618.6125
2929.64	616.3125
2932.11205	622.4125
2934.58258	624.0125
2937.05161	625.5125
2939.51912	620.7125
2941.98513	624.0125
2944.44962	621.6125
2946.91261	619.2125
2949.37409	620.6125
2951.83407	622.6125
2954.29254	627.3125
2956.74951	631.6125
2959.20498	625.6125
2961.65895	618.9125
2964.11142	625.9125
2966.56239	618.1125
2969.01186	625.8125
2971.45984	627.7125
2973.90632	626.7125
2976.35131	627.9125
2978.7948	623.8125
2981.23681	627.8125
2983.67732	622.9125
2986.11635	626.7125
2988.55388	628.7125
2990.98993	625.6125
2993.4245	623.5125
2995.85758	624.8125
2998.28917	627.3125
3000.71928	628.3125
3003.14791	627.6125
3005.57506	625.4125
3008.00073	630.4125
3010.42493	632.1125
3012.84764	635.5125
3015.26888	635.9125
3017.68865	638.4125
3020.10694	638.8125
3022.52376	643.0125
3024.9391	642.5125
3027.35298	648.4125
3029.76539	648.7125
3032.17632	646.5125
3034.5858	650.3125
3036.9938	655.4125
3039.40034	662.2125
3041.80542	665.4125
3044.20903	665.2125
3046.61118	665.4125
3049.01187	664.2125
3051.4111	663.8125
3053.80888	673.6125
3056.20519	677.6125
3058.60005	684.0125
3060.99345	681.2125
3063.3854	686.5125
3065.7759	684.4125
3068.16494	692.9125
3070.55254	694.7125
3072.93868	700.2125
3075.32338	698.9125
3077.70662	699.5125
3080.08842	702.2125
3082.46878	702.7125
3084.84769	710.3125
3087.22515	713.0125
3089.60118	720.0125
3091.97576	732.6125
3094.3489	726.9125
3096.72061	733.7125
3099.09087	741.9125
3101.4597	743.7125
3103.82709	753.9125
3106.19305	759.7125
3108.55757	773.2125
3110.92066	767.1125
3113.28232	777.2125
3115.64255	779.4125
3118.00134	787.7125
3120.35871	794.4125
3122.71466	796.7125
3125.06917	801.1125
3127.42226	800.5125
3129.77393	810.2125
3132.12417	813.8125
3134.47299	822.6125
3136.82039	825.9125
3139.16636	831.0125
3141.51092	836.6125
3143.85406	853.5125
3146.19579	858.9125
3148.53609	863.1125
3150.87499	867.8125
3153.21246	883.1125
3155.54853	890.2125
3157.88318	897.5125
3160.21642	903.5125
3162.54826	916.2125
3164.87868	916.3125
3167.2077	928.1125
3169.5353	933.2125
3171.86151	935.4125
3174.18631	941.5125
3176.5097	949.0125
3178.83169	953.7125
3181.15228	963.1125
3183.47147	968.1125
3185.78926	973.0125
3188.10565	976.0125
3190.42065	985.5125
3192.73424	995.4125
3195.04645	993.5125
3197.35725	991.2125
3199.66667	1000.2125
3201.97469	1003.4125
3204.28132	1015.5125
3206.58656	1029.7125
3208.8904	1027.3125
3211.19287	1024.7125
3213.49394	1035.4125
3215.79363	1041.3125
3218.09193	1044.6125
3220.38884	1038.3125
3222.68438	1035.5125
3224.97853	1048.8125
3227.2713	1048.7125
3229.56269	1056.3125
3231.8527	1054.6125
3234.14133	1058.8125
3236.42858	1056.0125
3238.71446	1058.6125
3240.99896	1059.2125
3243.28209	1064.9125
3245.56384	1056.7125
3247.84423	1060.0125
3250.12324	1056.5125
3252.40088	1052.4125
3254.67715	1055.0125
3256.95205	1055.3125
3259.22558	1068.4125
3261.49775	1071.2125
3263.76855	1065.8125
3266.03799	1073.1125
3268.30606	1070.8125
3270.57277	1074.8125
3272.83812	1062.9125
3275.10211	1065.4125
3277.36474	1069.6125
3279.62601	1073.7125
3281.88593	1070.5125
3284.14448	1065.8125
3286.40168	1062.9125
3288.65753	1064.6125
3290.91202	1065.6125
3293.16516	1067.4125
3295.41695	1067.7125
3297.66738	1058.0125
3299.91647	1055.2125
3302.16421	1047.9125
3304.4106	1041.2125
3306.65564	1032.7125
3308.89933	1033.3125
3311.14169	1028.6125
3313.38269	1009.4125
3315.62236	1012.8125
3317.86068	1007.6125
3320.09766	1005.6125
3322.3333	991.3125
3324.5676	978.5125
3326.80056	954.3125
3329.03219	958.4125
3331.26248	0.3125
3333.49143	-0.2875
3335.71905	-2.5875
