Data from AgNPs_APTES_FTO_UA_100uM_CRN_0uM_R6G_10uM_Scan_RamanShift__0__10-39-41-240.txt Node

Date: Wed Jun 29 10:39:41 BST 2022
User: TCL
Spectrometer: QEP01345
Trigger mode: 4
Integration Time (sec): 7.000000E0
Scans to average: 10
Electric dark correction enabled: true
Nonlinearity correction enabled: false
Boxcar width: 0
XAxis mode: Raman Shifts
Number of Pixels in Spectrum: 1044
>>>>>Begin Spectral Data<<<<<
46.04893	-0.25
50.45542	-0.55
54.85868	0.95
59.25871	1.75
63.6555	40.65
68.04907	44.85
72.43941	46.65
76.82654	49.15
81.21044	54.05
85.59113	56.55
89.96862	59.85
94.34289	63.75
98.71396	67.75
103.08183	67.65
107.4465	67.75
111.80798	66.75
116.16626	62.85
120.52136	68.35
124.87327	61.35
129.222	66.25
133.56755	65.15
137.90993	62.15
142.24913	60.35
146.58517	58.25
150.91804	55.25
155.24774	64.05
159.57429	65.45
163.89768	70.65
168.21792	75.45
172.53501	84.95
176.84895	104.35
181.15975	135.35
185.46741	173.15
189.77193	225.75
194.07331	297.95
198.37157	377.95
202.6667	456.85
206.9587	542.85
211.24758	622.65
215.53334	717.15
219.81599	807.55
224.09553	909.75
228.37195	1012.05
232.64527	1132.55
236.91549	1266.65
241.18261	1384.45
245.44663	1508.65
249.70755	1611.35
253.96539	1684.45
258.22014	1725.65
262.4718	1748.75
266.72039	1724.55
270.96589	1699.55
275.20832	1646.95
279.44768	1582.05
283.68397	1511.75
287.91719	1438.85
292.14735	1373.55
296.37445	1311.85
300.59849	1281.85
304.81948	1243.05
309.03742	1206.55
313.25231	1178.65
317.46415	1151.85
321.67296	1127.45
325.87872	1106.45
330.08145	1100.35
334.28114	1100.15
338.47781	1094.55
342.67145	1104.15
346.86207	1107.25
351.04966	1115.75
355.23424	1127.25
359.4158	1137.95
363.59435	1147.85
367.76989	1156.85
371.94243	1155.85
376.11196	1160.65
380.27849	1165.15
384.44203	1172.35
388.60257	1174.65
392.76012	1183.45
396.91468	1181.15
401.06626	1191.95
405.21485	1195.25
409.36047	1198.55
413.50311	1208.15
417.64277	1194.85
421.77947	1197.05
425.9132	1205.55
430.04396	1214.05
434.17176	1225.45
438.2966	1235.25
442.41849	1257.65
446.53742	1253.95
450.6534	1268.15
454.76644	1276.35
458.87653	1280.05
462.98368	1278.45
467.08789	1275.55
471.18916	1277.05
475.2875	1282.45
479.38291	1275.15
483.4754	1277.55
487.56496	1289.85
491.6516	1283.05
495.73531	1291.15
499.81612	1277.25
503.89401	1271.15
507.96899	1264.35
512.04106	1270.75
516.11023	1268.35
520.1765	1265.65
524.23987	1246.95
528.30034	1255.25
532.35792	1245.35
536.41261	1247.95
540.46441	1238.85
544.51333	1245.65
548.55936	1239.35
552.60252	1244.15
556.64279	1253.45
560.6802	1246.75
564.71473	1253.35
568.7464	1257.05
572.7752	1250.05
576.80114	1246.75
580.82422	1246.15
584.84444	1237.15
588.86181	1246.85
592.87633	1252.85
596.888	1253.45
600.89682	1284.55
604.9028	1302.25
608.90594	1360.25
612.90624	1426.95
616.90371	1428.85
620.89834	1374.15
624.89015	1342.85
628.87913	1338.75
632.86528	1334.45
636.84862	1325.25
640.82913	1323.25
644.80683	1322.35
648.78172	1330.85
652.75379	1331.65
656.72306	1344.65
660.68952	1355.55
664.65319	1383.15
668.61405	1387.25
672.57211	1418.95
676.52738	1440.85
680.47986	1455.65
684.42955	1469.25
688.37646	1482.95
692.32058	1485.15
696.26192	1479.95
700.20048	1486.35
704.13626	1472.05
708.06928	1460.55
711.99952	1451.75
715.927	1445.35
719.85171	1416.55
723.77365	1399.35
727.69284	1386.55
731.60928	1380.15
735.52295	1376.25
739.43388	1373.55
743.34206	1358.55
747.24749	1356.25
751.15017	1361.95
755.05012	1336.45
758.94733	1363.55
762.8418	1381.75
766.73354	1417.65
770.62254	1445.45
774.50882	1461.65
778.39237	1468.65
782.27321	1449.25
786.15132	1424.35
790.02671	1418.15
793.89938	1424.75
797.76935	1418.45
801.6366	1418.85
805.50115	1417.45
809.36299	1431.25
813.22213	1432.45
817.07857	1423.85
820.93231	1431.15
824.78336	1422.75
828.63172	1404.05
832.47738	1401.85
836.32036	1403.55
840.16066	1402.55
843.99827	1409.45
847.8332	1391.85
851.66546	1389.35
855.49504	1379.15
859.32195	1380.25
863.1462	1381.55
866.96777	1401.25
870.78668	1398.55
874.60293	1402.95
878.41652	1419.85
882.22745	1455.05
886.03573	1469.25
889.84136	1521.75
893.64433	1539.05
897.44466	1553.55
901.24235	1552.45
905.0374	1537.75
908.8298	1541.25
912.61957	1546.65
916.40671	1554.25
920.19121	1582.85
923.97308	1596.45
927.75233	1610.25
931.52895	1617.15
935.30295	1595.15
939.07433	1584.85
942.84309	1553.65
946.60924	1524.65
950.37278	1515.95
954.13371	1498.25
957.89203	1488.35
961.64774	1476.45
965.40086	1474.65
969.15137	1462.85
972.89929	1462.45
976.64461	1473.15
980.38733	1454.05
984.12747	1457.85
987.86502	1453.55
991.59999	1452.25
995.33237	1454.35
999.06217	1455.05
1002.78939	1463.05
1006.51404	1468.35
1010.23611	1469.85
1013.95561	1464.25
1017.67255	1472.35
1021.38692	1474.75
1025.09872	1487.05
1028.80796	1480.25
1032.51465	1480.65
1036.21877	1482.55
1039.92035	1485.45
1043.61937	1493.45
1047.31584	1500.65
1051.00976	1503.95
1054.70114	1501.65
1058.38998	1491.65
1062.07627	1478.15
1065.76003	1456.25
1069.44126	1451.65
1073.11995	1441.65
1076.79611	1432.75
1080.46974	1428.95
1084.14085	1416.95
1087.80943	1409.35
1091.47549	1404.45
1095.13903	1396.65
1098.80005	1382.35
1102.45857	1376.55
1106.11456	1376.75
1109.76805	1379.75
1113.41903	1384.15
1117.06751	1392.75
1120.71348	1388.65
1124.35696	1408.65
1127.99793	1424.95
1131.63641	1440.25
1135.2724	1443.45
1138.90589	1441.95
1142.5369	1428.25
1146.16542	1431.55
1149.79145	1425.55
1153.415	1409.05
1157.03607	1413.05
1160.65467	1411.45
1164.27079	1419.95
1167.88443	1419.95
1171.49561	1438.95
1175.10432	1458.55
1178.71056	1484.75
1182.31434	1507.55
1185.91565	1511.05
1189.51451	1507.15
1193.11091	1485.95
1196.70485	1478.35
1200.29634	1477.65
1203.88538	1478.95
1207.47197	1466.05
1211.05612	1468.45
1214.63782	1452.45
1218.21708	1462.65
1221.79391	1463.25
1225.36829	1472.25
1228.94024	1480.05
1232.50976	1486.25
1236.07685	1502.15
1239.6415	1519.85
1243.20374	1522.85
1246.76355	1539.55
1250.32093	1544.05
1253.8759	1553.25
1257.42845	1570.55
1260.97859	1573.85
1264.52631	1578.95
1268.07163	1598.35
1271.61453	1610.55
1275.15503	1615.95
1278.69312	1621.55
1282.22882	1634.25
1285.76211	1649.45
1289.29301	1666.35
1292.82151	1691.85
1296.34761	1708.75
1299.87133	1734.45
1303.39266	1751.25
1306.9116	1785.25
1310.42815	1821.75
1313.94233	1841.35
1317.45412	1827.65
1320.96354	1806.15
1324.47058	1796.95
1327.97525	1790.25
1331.47754	1798.85
1334.97747	1805.55
1338.47502	1813.55
1341.97022	1855.05
1345.46305	1886.65
1348.95352	1925.65
1352.44163	1979.95
1355.92738	2027.75
1359.41078	2090.95
1362.89183	2161.55
1366.37053	2183.45
1369.84688	2131.35
1373.32088	2081.95
1376.79254	2052.25
1380.26186	2036.75
1383.72883	2028.15
1387.19347	2042.05
1390.65578	2035.35
1394.11575	2018.15
1397.57339	2018.45
1401.0287	2018.45
1404.48168	2011.05
1407.93234	1992.65
1411.38068	1998.65
1414.82669	1981.25
1418.27039	1976.65
1421.71177	1956.65
1425.15083	1946.35
1428.58758	1909.15
1432.02203	1887.85
1435.45416	1867.25
1438.88399	1858.55
1442.31151	1831.85
1445.73673	1822.15
1449.15965	1810.25
1452.58027	1814.95
1455.9986	1803.55
1459.41463	1805.45
1462.82837	1822.55
1466.23982	1821.95
1469.64898	1847.25
1473.05586	1857.25
1476.46045	1860.25
1479.86276	1873.45
1483.26279	1876.25
1486.66054	1875.85
1490.05602	1871.45
1493.44922	1877.55
1496.84016	1868.45
1500.22882	1889.15
1503.61521	1912.45
1506.99934	1935.95
1510.38121	1957.35
1513.76081	1932.95
1517.13816	1891.45
1520.51324	1814.15
1523.88607	1764.95
1527.25665	1733.35
1530.62498	1695.15
1533.99105	1665.85
1537.35488	1658.55
1540.71647	1645.45
1544.07581	1638.95
1547.4329	1623.35
1550.78776	1620.05
1554.14038	1614.35
1557.49077	1610.15
1560.83892	1603.35
1564.18484	1593.85
1567.52853	1592.05
1570.86999	1592.25
1574.20922	1595.15
1577.54624	1591.85
1580.88103	1584.85
1584.2136	1558.95
1587.54395	1538.65
1590.87208	1519.05
1594.19801	1505.45
1597.52172	1496.65
1600.84321	1493.65
1604.16251	1477.55
1607.47959	1470.75
1610.79447	1454.45
1614.10715	1449.25
1617.41763	1439.45
1620.7259	1428.65
1624.03199	1433.15
1627.33587	1421.45
1630.63757	1416.55
1633.93707	1404.65
1637.23439	1401.25
1640.52951	1396.65
1643.82246	1415.35
1647.11321	1431.15
1650.40179	1435.65
1653.68819	1421.35
1656.97241	1392.05
1660.25446	1351.85
1663.53433	1320.65
1666.81203	1291.55
1670.08756	1273.75
1673.36092	1263.55
1676.63211	1245.95
1679.90115	1237.05
1683.16801	1221.95
1686.43272	1214.45
1689.69527	1198.65
1692.95567	1192.55
1696.2139	1172.95
1699.46999	1157.55
1702.72392	1153.75
1705.97571	1147.25
1709.22535	1140.75
1712.47284	1149.95
1715.71819	1136.25
1718.96139	1133.15
1722.20246	1128.75
1725.44139	1113.65
1728.67818	1105.35
1731.91284	1098.55
1735.14537	1094.55
1738.37576	1092.65
1741.60403	1088.35
1744.83017	1073.25
1748.05418	1072.25
1751.27607	1061.15
1754.49584	1061.25
1757.71349	1058.05
1760.92903	1056.15
1764.14244	1054.55
1767.35375	1050.25
1770.56294	1045.05
1773.77002	1047.25
1776.97499	1037.55
1780.17785	1040.75
1783.37861	1033.65
1786.57727	1038.15
1789.77382	1039.95
1792.96828	1036.85
1796.16064	1038.25
1799.3509	1024.35
1802.53907	1029.05
1805.72514	1021.25
1808.90913	1029.55
1812.09102	1021.65
1815.27083	1024.05
1818.44856	1019.55
1821.6242	1015.55
1824.79776	1008.05
1827.96924	1015.45
1831.13864	1012.45
1834.30597	1008.15
1837.47122	1000.15
1840.6344	1007.75
1843.7955	1002.35
1846.95454	1009.85
1850.11151	1001.55
1853.26642	1004.85
1856.41926	1002.15
1859.57004	998.55
1862.71876	992.65
1865.86542	994.85
1869.01003	998.65
1872.15258	1000.65
1875.29308	996.15
1878.43152	988.85
1881.56792	991.95
1884.70227	989.35
1887.83457	985.55
1890.96482	989.55
1894.09304	989.85
1897.21921	977.85
1900.34335	984.55
1903.46544	977.75
1906.58551	986.15
1909.70353	976.75
1912.81953	975.85
1915.93349	984.05
1919.04543	982.35
1922.15534	980.25
1925.26322	973.85
1928.36908	980.85
1931.47292	976.05
1934.57473	975.35
1937.67453	978.85
1940.77232	975.25
1943.86808	971.55
1946.96184	964.85
1950.05358	968.15
1953.14331	959.85
1956.23103	963.25
1959.31675	956.15
1962.40046	945.45
1965.48217	951.65
1968.56188	941.45
1971.63959	941.35
1974.7153	939.35
1977.78901	938.85
1980.86073	936.55
1983.93046	934.75
1986.99819	931.05
1990.06394	927.05
1993.1277	924.75
1996.18947	909.75
1999.24925	920.35
2002.30706	925.95
2005.36288	914.85
2008.41672	915.55
2011.46859	914.75
2014.51848	913.35
2017.56639	907.75
2020.61233	902.35
2023.6563	912.35
2026.6983	901.85
2029.73833	903.35
2032.7764	903.25
2035.8125	902.45
2038.84664	903.35
2041.87881	903.05
2044.90903	907.05
2047.93729	909.75
2050.96359	910.25
2053.98794	915.85
2057.01034	921.25
2060.03078	932.35
2063.04927	938.85
2066.06582	941.85
2069.08042	953.35
2072.09307	957.45
2075.10378	969.95
2078.11255	978.55
2081.11938	987.75
2084.12426	1006.55
2087.12722	1010.15
2090.12824	1010.75
2093.12732	1020.75
2096.12447	1023.55
2099.11969	1031.55
2102.11299	1027.55
2105.10435	1030.95
2108.09379	1024.55
2111.08131	1023.65
2114.0669	1025.75
2117.05057	1020.45
2120.03233	1007.65
2123.01216	1005.65
2125.99008	994.75
2128.96609	991.05
2131.94018	985.85
2134.91236	973.75
2137.88263	972.95
2140.851	966.05
2143.81746	960.05
2146.78201	956.75
2149.74466	948.45
2152.7054	940.65
2155.66425	931.35
2158.6212	938.55
2161.57625	925.95
2164.52941	931.25
2167.48067	927.65
2170.43004	926.65
2173.37752	927.95
2176.32311	916.55
2179.26681	911.35
2182.20863	912.75
2185.14856	912.25
2188.08661	908.95
2191.02278	905.55
2193.95707	906.25
2196.88948	886.25
2199.82001	884.35
2202.74867	891.65
2205.67545	888.65
2208.60037	878.05
2211.52341	884.65
2214.44458	880.85
2217.36388	878.65
2220.28132	875.85
2223.1969	879.15
2226.11061	869.25
2229.02246	873.05
2231.93245	860.35
2234.84058	865.05
2237.74686	864.05
2240.65128	862.45
2243.55385	857.25
2246.45456	853.35
2249.35343	860.05
2252.25044	856.95
2255.14561	860.65
2258.03893	854.55
2260.93041	852.05
2263.82004	847.45
2266.70783	855.55
2269.59378	846.15
2272.4779	847.45
2275.36017	846.55
2278.24061	845.15
2281.11922	842.55
2283.996	838.45
2286.87094	842.55
2289.74405	838.35
2292.61534	837.05
2295.4848	833.15
2298.35243	835.75
2301.21824	831.35
2304.08223	838.15
2306.94439	836.75
2309.80474	835.95
2312.66327	833.05
2315.51999	839.75
2318.37489	835.05
2321.22797	826.85
2324.07925	827.15
2326.92871	831.35
2329.77637	829.15
2332.62222	825.65
2335.46626	819.85
2338.3085	818.45
2341.14893	824.95
2343.98756	819.75
2346.8244	819.45
2349.65943	814.85
2352.49267	816.05
2355.32411	816.25
2358.15376	808.25
2360.98161	814.25
2363.80768	815.65
2366.63195	809.05
2369.45444	815.15
2372.27514	814.05
2375.09405	811.05
2377.91118	808.35
2380.72652	811.75
2383.54009	806.05
2386.35187	804.55
2389.16188	810.25
2391.97011	803.75
2394.77657	806.25
2397.58125	802.95
2400.38416	799.85
2403.18529	796.85
2405.98466	798.15
2408.78226	801.35
2411.57809	792.05
2414.37216	797.25
2417.16446	789.35
2419.955	792.35
2422.74378	791.45
2425.5308	791.35
2428.31606	796.65
2431.09956	786.35
2433.88131	795.35
2436.6613	794.05
2439.43954	791.05
2442.21603	791.95
2444.99077	786.85
2447.76377	791.95
2450.53501	789.95
2453.30451	783.95
2456.07226	787.35
2458.83827	782.55
2461.60254	778.05
2464.36507	779.75
2467.12586	776.55
2469.88492	782.65
2472.64224	773.25
2475.39782	776.95
2478.15167	782.35
2480.90379	776.55
2483.65417	778.75
2486.40283	770.25
2489.14976	776.25
2491.89497	778.95
2494.63845	767.85
2497.3802	774.45
2500.12024	779.55
2502.85855	770.65
2505.59514	767.85
2508.33002	776.45
2511.06318	775.75
2513.79462	766.85
2516.52435	768.65
2519.25237	769.75
2521.97867	763.45
2524.70327	769.25
2527.42616	769.35
2530.14734	766.95
2532.86681	764.95
2535.58458	761.45
2538.30065	765.55
2541.01501	759.65
2543.72768	768.25
2546.43864	754.45
2549.14791	754.15
2551.85548	764.35
2554.56136	754.75
2557.26554	750.85
2559.96803	749.55
2562.66883	756.05
2565.36794	751.35
2568.06536	748.25
2570.7611	750.25
2573.45514	743.75
2576.14751	741.05
2578.83819	741.75
2581.52719	746.85
2584.21451	738.25
2586.90015	740.85
2589.58411	742.45
2592.2664	744.55
2594.94701	741.15
2597.62594	740.15
2600.30321	743.05
2602.9788	740.75
2605.65273	747.95
2608.32498	739.45
2610.99557	735.55
2613.66449	735.45
2616.33175	729.65
2618.99734	735.15
2621.66128	731.05
2624.32355	733.55
2626.98416	726.45
2629.64311	728.45
2632.30041	732.75
2634.95605	726.75
2637.61004	727.65
2640.26238	728.35
2642.91306	724.15
2645.56209	722.95
2648.20948	723.95
2650.85521	721.75
2653.4993	730.75
2656.14175	722.65
2658.78255	725.65
2661.42171	723.15
2664.05923	721.35
2666.6951	726.25
2669.32934	729.65
2671.96194	726.35
2674.59291	726.35
2677.22224	727.35
2679.84993	726.85
2682.476	723.55
2685.10043	731.35
2687.72324	727.45
2690.34441	724.95
2692.96396	723.85
2695.58188	735.85
2698.19818	723.25
2700.81285	726.55
2703.4259	726.85
2706.03733	722.65
2708.64714	724.15
2711.25533	729.05
2713.86191	728.35
2716.46687	732.05
2719.07021	729.35
2721.67194	734.35
2724.27206	734.75
2726.87057	737.95
2729.46747	728.65
2732.06276	738.25
2734.65644	728.75
2737.24852	734.75
2739.83899	732.45
2742.42786	734.15
2745.01513	734.55
2747.60079	733.25
2750.18486	733.25
2752.76733	728.65
2755.3482	729.25
2757.92747	728.75
2760.50515	731.45
2763.08123	730.35
2765.65573	732.95
2768.22863	735.95
2770.79994	728.05
2773.36967	721.95
2775.9378	723.85
2778.50435	722.05
2781.06932	723.85
2783.6327	727.05
2786.1945	725.05
2788.75471	727.35
2791.31335	727.55
2793.87041	722.65
2796.42589	725.95
2798.97979	725.25
2801.53212	726.85
2804.08288	717.35
2806.63206	712.45
2809.17967	711.75
2811.72571	716.05
2814.27018	717.25
2816.81308	714.95
2819.35442	711.85
2821.89419	708.05
2824.43239	713.25
2826.96904	704.85
2829.50412	707.25
2832.03763	708.65
2834.56959	701.85
2837.1	710.75
2839.62884	709.65
2842.15613	697.15
2844.68186	699.75
2847.20604	701.05
2849.72867	700.85
2852.24974	702.95
2854.76927	697.05
2857.28724	699.25
2859.80367	700.85
2862.31855	701.75
2864.83189	707.25
2867.34368	704.45
2869.85393	698.95
2872.36264	696.95
2874.8698	699.55
2877.37543	697.45
2879.87952	698.95
2882.38207	702.75
2884.88308	701.75
2887.38256	705.05
2889.88051	710.15
2892.37692	716.45
2894.8718	711.55
2897.36515	717.35
2899.85698	716.45
2902.34727	715.35
2904.83604	722.85
2907.32328	725.85
2909.809	725.85
2912.29319	728.95
2914.77587	731.95
2917.25702	732.85
2919.73665	729.95
2922.21476	732.15
2924.69136	733.25
2927.16644	749.05
2929.64	742.95
2932.11205	741.65
2934.58258	743.25
2937.05161	738.95
2939.51912	737.35
2941.98513	743.25
2944.44962	741.25
2946.91261	738.65
2949.37409	743.55
2951.83407	741.05
2954.29254	740.85
2956.74951	740.25
2959.20498	737.25
2961.65895	731.25
2964.11142	741.95
2966.56239	734.65
2969.01186	728.95
2971.45984	734.45
2973.90632	733.25
2976.35131	743.15
2978.7948	731.25
2981.23681	736.05
2983.67732	738.75
2986.11635	736.45
2988.55388	735.75
2990.98993	731.25
2993.4245	737.75
2995.85758	734.15
2998.28917	746.15
3000.71928	741.55
3003.14791	739.05
3005.57506	743.45
3008.00073	737.35
3010.42493	742.45
3012.84764	743.15
3015.26888	743.05
3017.68865	747.85
3020.10694	743.55
3022.52376	748.05
3024.9391	743.15
3027.35298	756.45
3029.76539	747.55
3032.17632	758.75
3034.5858	757.15
3036.9938	755.05
3039.40034	766.75
3041.80542	763.65
3044.20903	766.55
3046.61118	767.15
3049.01187	771.25
3051.4111	770.05
3053.80888	780.75
3056.20519	785.35
3058.60005	784.05
3060.99345	784.55
3063.3854	787.55
3065.7759	793.95
3068.16494	798.15
3070.55254	787.95
3072.93868	803.35
3075.32338	804.35
3077.70662	809.55
3080.08842	807.75
3082.46878	816.15
3084.84769	814.15
3087.22515	821.65
3089.60118	828.65
3091.97576	835.95
3094.3489	840.65
3096.72061	838.75
3099.09087	847.25
3101.4597	860.95
3103.82709	863.05
3106.19305	872.15
3108.55757	874.25
3110.92066	881.75
3113.28232	881.35
3115.64255	885.55
3118.00134	890.85
3120.35871	903.35
3122.71466	904.65
3125.06917	913.35
3127.42226	907.35
3129.77393	928.95
3132.12417	925.05
3134.47299	930.75
3136.82039	931.15
3139.16636	945.15
3141.51092	956.05
3143.85406	964.05
3146.19579	973.55
3148.53609	974.85
3150.87499	984.05
3153.21246	987.45
3155.54853	1004.85
3157.88318	1008.55
3160.21642	1023.75
3162.54826	1023.55
3164.87868	1034.05
3167.2077	1042.45
3169.5353	1053.65
3171.86151	1049.65
3174.18631	1055.65
3176.5097	1067.25
3178.83169	1070.55
3181.15228	1073.25
3183.47147	1086.95
3185.78926	1091.15
3188.10565	1088.65
3190.42065	1099.25
3192.73424	1104.75
3195.04645	1114.45
3197.35725	1114.45
3199.66667	1129.15
3201.97469	1127.45
3204.28132	1134.55
3206.58656	1145.25
3208.8904	1145.65
3211.19287	1148.75
3213.49394	1148.85
3215.79363	1154.65
3218.09193	1162.25
3220.38884	1168.45
3222.68438	1177.45
3224.97853	1176.35
3227.2713	1184.35
3229.56269	1177.85
3231.8527	1181.25
3234.14133	1182.85
3236.42858	1186.05
3238.71446	1176.45
3240.99896	1177.75
3243.28209	1181.45
3245.56384	1169.75
3247.84423	1179.45
3250.12324	1185.55
3252.40088	1182.15
3254.67715	1186.35
3256.95205	1174.65
3259.22558	1186.15
3261.49775	1194.65
3263.76855	1182.65
3266.03799	1190.85
3268.30606	1190.15
3270.57277	1186.85
3272.83812	1184.55
3275.10211	1186.05
3277.36474	1187.05
3279.62601	1188.35
3281.88593	1181.25
3284.14448	1186.15
3286.40168	1194.05
3288.65753	1184.55
3290.91202	1183.35
3293.16516	1184.85
3295.41695	1190.25
3297.66738	1177.95
3299.91647	1174.55
3302.16421	1173.25
3304.4106	1161.35
3306.65564	1153.45
3308.89933	1148.45
3311.14169	1151.65
3313.38269	1140.75
3315.62236	1128.65
3317.86068	1130.05
3320.09766	1118.35
3322.3333	1114.95
3324.5676	1107.45
3326.80056	1088.35
3329.03219	1079.55
3331.26248	0.45
3333.49143	0.75
3335.71905	-1.85
