Data from AgNPs_APTES_FTO_UA_100uM_CRN_0uM_R6G_10uM_Scan_RamanShift__50__11-38-01-295.txt Node

Date: Wed Jun 29 11:38:01 BST 2022
User: TCL
Spectrometer: QEP01345
Trigger mode: 4
Integration Time (sec): 7.000000E0
Scans to average: 10
Electric dark correction enabled: true
Nonlinearity correction enabled: false
Boxcar width: 0
XAxis mode: Raman Shifts
Number of Pixels in Spectrum: 1044
>>>>>Begin Spectral Data<<<<<
46.04893	0.75
50.45542	0.35
54.85868	0.35
59.25871	1.45
63.6555	36.35
68.04907	39.75
72.43941	46.35
76.82654	44.85
81.21044	48.35
85.59113	52.15
89.96862	54.55
94.34289	56.25
98.71396	57.65
103.08183	57.95
107.4465	57.35
111.80798	61.95
116.16626	56.25
120.52136	59.45
124.87327	57.35
129.222	57.75
133.56755	60.05
137.90993	55.15
142.24913	54.45
146.58517	52.75
150.91804	54.15
155.24774	54.25
159.57429	60.75
163.89768	62.85
168.21792	68.95
172.53501	82.85
176.84895	98.85
181.15975	126.65
185.46741	162.45
189.77193	207.95
194.07331	269.45
198.37157	342.55
202.6667	415.95
206.9587	481.75
211.24758	557.05
215.53334	633.85
219.81599	710.75
224.09553	806.95
228.37195	891.85
232.64527	1002.45
236.91549	1104.45
241.18261	1188.45
245.44663	1273.85
249.70755	1346.45
253.96539	1406.85
258.22014	1449.45
262.4718	1486.45
266.72039	1505.75
270.96589	1509.15
275.20832	1492.95
279.44768	1467.65
283.68397	1443.55
287.91719	1417.95
292.14735	1405.15
296.37445	1419.95
300.59849	1458.15
304.81948	1503.55
309.03742	1536.95
313.25231	1543.55
317.46415	1499.95
321.67296	1429.85
325.87872	1373.15
330.08145	1354.95
334.28114	1341.35
338.47781	1373.25
342.67145	1407.25
346.86207	1442.75
351.04966	1522.15
355.23424	1588.65
359.4158	1639.15
363.59435	1692.35
367.76989	1695.45
371.94243	1685.35
376.11196	1691.45
380.27849	1688.45
384.44203	1684.95
388.60257	1679.95
392.76012	1680.45
396.91468	1699.55
401.06626	1726.65
405.21485	1753.85
409.36047	1732.95
413.50311	1676.55
417.64277	1611.05
421.77947	1587.05
425.9132	1575.15
430.04396	1577.25
434.17176	1589.45
438.2966	1603.45
442.41849	1639.15
446.53742	1671.55
450.6534	1691.75
454.76644	1709.65
458.87653	1709.75
462.98368	1710.35
467.08789	1700.25
471.18916	1683.55
475.2875	1667.65
479.38291	1661.85
483.4754	1667.65
487.56496	1669.85
491.6516	1673.75
495.73531	1679.65
499.81612	1675.15
503.89401	1670.85
507.96899	1667.35
512.04106	1670.25
516.11023	1700.85
520.1765	1717.65
524.23987	1728.15
528.30034	1726.25
532.35792	1730.85
536.41261	1710.95
540.46441	1686.65
544.51333	1655.75
548.55936	1654.15
552.60252	1670.45
556.64279	1675.75
560.6802	1699.25
564.71473	1718.05
568.7464	1768.05
572.7752	1785.25
576.80114	1729.75
580.82422	1679.85
584.84444	1676.45
588.86181	1697.65
592.87633	1724.25
596.888	1744.05
600.89682	1777.95
604.9028	1932.35
608.90594	2308.15
612.90624	2745.35
616.90371	2639.15
620.89834	2133.95
624.89015	1917.05
628.87913	1933.05
632.86528	2001.45
636.84862	2036.05
640.82913	2011.75
644.80683	1917.85
648.78172	1837.15
652.75379	1801.05
656.72306	1818.65
660.68952	1845.75
664.65319	1834.25
668.61405	1773.55
672.57211	1754.75
676.52738	1764.15
680.47986	1769.85
684.42955	1771.05
688.37646	1783.75
692.32058	1786.15
696.26192	1775.55
700.20048	1777.25
704.13626	1780.25
708.06928	1755.55
711.99952	1734.65
715.927	1741.65
719.85171	1747.85
723.77365	1760.15
727.69284	1772.45
731.60928	1763.25
735.52295	1757.25
739.43388	1743.45
743.34206	1747.65
747.24749	1741.15
751.15017	1742.35
755.05012	1723.55
758.94733	1806.95
762.8418	1942.15
766.73354	2137.95
770.62254	2333.65
774.50882	2440.45
778.39237	2384.25
782.27321	2190.55
786.15132	1969.45
790.02671	1839.95
793.89938	1790.15
797.76935	1776.95
801.6366	1775.15
805.50115	1811.65
809.36299	1825.75
813.22213	1843.05
817.07857	1812.65
820.93231	1785.45
824.78336	1773.15
828.63172	1747.25
832.47738	1746.15
836.32036	1727.15
840.16066	1724.15
843.99827	1726.65
847.8332	1717.15
851.66546	1721.35
855.49504	1723.15
859.32195	1721.65
863.1462	1718.45
866.96777	1719.15
870.78668	1738.25
874.60293	1749.35
878.41652	1780.25
882.22745	1798.15
886.03573	1830.45
889.84136	1824.15
893.64433	1817.25
897.44466	1791.35
901.24235	1762.05
905.0374	1736.15
908.8298	1713.75
912.61957	1691.55
916.40671	1690.65
920.19121	1696.15
923.97308	1700.95
927.75233	1727.85
931.52895	1743.45
935.30295	1726.45
939.07433	1703.65
942.84309	1675.85
946.60924	1672.55
950.37278	1672.45
954.13371	1659.55
957.89203	1659.25
961.64774	1662.85
965.40086	1649.15
969.15137	1643.55
972.89929	1637.95
976.64461	1630.05
980.38733	1629.35
984.12747	1629.65
987.86502	1639.25
991.59999	1649.65
995.33237	1656.65
999.06217	1694.75
1002.78939	1742.65
1006.51404	1772.05
1010.23611	1805.55
1013.95561	1805.85
1017.67255	1833.15
1021.38692	1827.35
1025.09872	1816.75
1028.80796	1800.75
1032.51465	1811.05
1036.21877	1818.45
1039.92035	1809.35
1043.61937	1807.65
1047.31584	1793.05
1051.00976	1765.05
1054.70114	1756.35
1058.38998	1760.05
1062.07627	1769.05
1065.76003	1778.35
1069.44126	1795.15
1073.11995	1804.65
1076.79611	1832.35
1080.46974	1867.25
1084.14085	1879.35
1087.80943	1898.25
1091.47549	1895.75
1095.13903	1860.55
1098.80005	1817.75
1102.45857	1799.45
1106.11456	1795.65
1109.76805	1816.65
1113.41903	1840.25
1117.06751	1911.85
1120.71348	1993.45
1124.35696	2109.15
1127.99793	2195.75
1131.63641	2225.95
1135.2724	2193.45
1138.90589	2134.35
1142.5369	2069.05
1146.16542	1984.65
1149.79145	1921.85
1153.415	1866.35
1157.03607	1838.35
1160.65467	1839.65
1164.27079	1865.75
1167.88443	1915.45
1171.49561	2006.65
1175.10432	2147.85
1178.71056	2340.95
1182.31434	2511.65
1185.91565	2562.05
1189.51451	2524.15
1193.11091	2431.15
1196.70485	2342.65
1200.29634	2306.85
1203.88538	2237.15
1207.47197	2161.95
1211.05612	2066.75
1214.63782	2000.55
1218.21708	1961.95
1221.79391	1935.15
1225.36829	1927.45
1228.94024	1909.65
1232.50976	1896.05
1236.07685	1896.55
1239.6415	1897.15
1243.20374	1913.95
1246.76355	1919.55
1250.32093	1939.15
1253.8759	1957.25
1257.42845	1988.65
1260.97859	2032.65
1264.52631	2080.55
1268.07163	2125.35
1271.61453	2174.65
1275.15503	2195.85
1278.69312	2197.55
1282.22882	2230.55
1285.76211	2265.25
1289.29301	2324.55
1292.82151	2367.25
1296.34761	2428.65
1299.87133	2530.05
1303.39266	2680.85
1306.9116	2951.35
1310.42815	3218.95
1313.94233	3305.25
1317.45412	3161.85
1320.96354	2894.15
1324.47058	2669.75
1327.97525	2506.25
1331.47754	2424.85
1334.97747	2405.35
1338.47502	2445.75
1341.97022	2530.25
1345.46305	2665.65
1348.95352	2833.85
1352.44163	3026.95
1355.92738	3312.25
1359.41078	3709.05
1362.89183	4051.55
1366.37053	3863.45
1369.84688	3297.05
1373.32088	2840.45
1376.79254	2568.55
1380.26186	2419.15
1383.72883	2305.95
1387.19347	2219.65
1390.65578	2135.95
1394.11575	2089.35
1397.57339	2050.75
1401.0287	2040.05
1404.48168	2022.15
1407.93234	2013.15
1411.38068	2019.15
1414.82669	2023.55
1418.27039	2023.55
1421.71177	1981.65
1425.15083	1970.35
1428.58758	1965.05
1432.02203	2000.05
1435.45416	2017.15
1438.88399	2021.45
1442.31151	2024.65
1445.73673	2021.85
1449.15965	2047.55
1452.58027	2041.95
1455.9986	2040.25
1459.41463	2050.55
1462.82837	2071.95
1466.23982	2102.55
1469.64898	2128.05
1473.05586	2134.55
1476.46045	2147.55
1479.86276	2148.45
1483.26279	2176.95
1486.66054	2207.95
1490.05602	2238.95
1493.44922	2337.85
1496.84016	2482.55
1500.22882	2728.05
1503.61521	3028.35
1506.99934	3395.95
1510.38121	3667.25
1513.76081	3694.05
1517.13816	3408.05
1520.51324	2991.95
1523.88607	2639.65
1527.25665	2413.35
1530.62498	2299.25
1533.99105	2225.05
1537.35488	2191.75
1540.71647	2171.35
1544.07581	2152.25
1547.4329	2157.25
1550.78776	2176.45
1554.14038	2204.25
1557.49077	2216.15
1560.83892	2248.75
1564.18484	2293.25
1567.52853	2358.95
1570.86999	2417.05
1574.20922	2441.65
1577.54624	2417.75
1580.88103	2341.05
1584.2136	2209.05
1587.54395	2134.15
1590.87208	2124.55
1594.19801	2207.45
1597.52172	2304.25
1600.84321	2362.95
1604.16251	2323.15
1607.47959	2238.35
1610.79447	2150.55
1614.10715	2053.75
1617.41763	1977.45
1620.7259	1935.75
1624.03199	1919.85
1627.33587	1924.35
1630.63757	1940.55
1633.93707	1989.05
1637.23439	2081.45
1640.52951	2224.65
1643.82246	2433.25
1647.11321	2683.65
1650.40179	2821.55
1653.68819	2727.75
1656.97241	2462.85
1660.25446	2172.55
1663.53433	1973.55
1666.81203	1845.75
1670.08756	1780.95
1673.36092	1739.45
1676.63211	1703.25
1679.90115	1689.55
1683.16801	1663.45
1686.43272	1638.35
1689.69527	1625.45
1692.95567	1612.65
1696.2139	1589.65
1699.46999	1563.05
1702.72392	1552.15
1705.97571	1540.05
1709.22535	1514.85
1712.47284	1513.85
1715.71819	1510.75
1718.96139	1498.15
1722.20246	1488.55
1725.44139	1478.05
1728.67818	1456.65
1731.91284	1433.95
1735.14537	1428.65
1738.37576	1421.25
1741.60403	1425.05
1744.83017	1403.55
1748.05418	1408.25
1751.27607	1396.35
1754.49584	1391.65
1757.71349	1386.25
1760.92903	1378.65
1764.14244	1375.75
1767.35375	1369.05
1770.56294	1373.95
1773.77002	1361.65
1776.97499	1362.65
1780.17785	1355.25
1783.37861	1352.85
1786.57727	1351.95
1789.77382	1356.75
1792.96828	1351.45
1796.16064	1348.25
1799.3509	1345.35
1802.53907	1347.05
1805.72514	1336.55
1808.90913	1335.25
1812.09102	1337.75
1815.27083	1327.65
1818.44856	1328.55
1821.6242	1321.75
1824.79776	1321.75
1827.96924	1311.55
1831.13864	1318.35
1834.30597	1314.95
1837.47122	1303.15
1840.6344	1315.35
1843.7955	1307.35
1846.95454	1317.45
1850.11151	1308.25
1853.26642	1313.85
1856.41926	1305.55
1859.57004	1303.25
1862.71876	1309.25
1865.86542	1309.55
1869.01003	1305.75
1872.15258	1299.95
1875.29308	1302.05
1878.43152	1291.85
1881.56792	1287.95
1884.70227	1290.05
1887.83457	1287.85
1890.96482	1294.65
1894.09304	1290.15
1897.21921	1287.45
1900.34335	1289.35
1903.46544	1286.95
1906.58551	1290.85
1909.70353	1283.45
1912.81953	1291.35
1915.93349	1282.25
1919.04543	1283.65
1922.15534	1277.45
1925.26322	1270.85
1928.36908	1276.35
1931.47292	1269.95
1934.57473	1271.35
1937.67453	1273.55
1940.77232	1268.95
1943.86808	1261.35
1946.96184	1253.35
1950.05358	1255.95
1953.14331	1248.95
1956.23103	1250.65
1959.31675	1247.05
1962.40046	1237.55
1965.48217	1236.95
1968.56188	1240.25
1971.63959	1237.35
1974.7153	1235.45
1977.78901	1218.55
1980.86073	1212.35
1983.93046	1219.15
1986.99819	1211.45
1990.06394	1204.65
1993.1277	1209.05
1996.18947	1206.55
1999.24925	1206.05
2002.30706	1197.25
2005.36288	1186.45
2008.41672	1192.35
2011.46859	1183.15
2014.51848	1184.15
2017.56639	1183.35
2020.61233	1169.75
2023.6563	1165.85
2026.6983	1174.65
2029.73833	1169.15
2032.7764	1164.55
2035.8125	1166.45
2038.84664	1166.35
2041.87881	1164.85
2044.90903	1163.25
2047.93729	1157.35
2050.96359	1151.85
2053.98794	1156.85
2057.01034	1152.65
2060.03078	1151.15
2063.04927	1152.95
2066.06582	1151.95
2069.08042	1150.45
2072.09307	1150.85
2075.10378	1155.75
2078.11255	1148.45
2081.11938	1148.55
2084.12426	1148.95
2087.12722	1148.45
2090.12824	1153.65
2093.12732	1152.15
2096.12447	1148.85
2099.11969	1150.55
2102.11299	1156.35
2105.10435	1156.25
2108.09379	1147.65
2111.08131	1155.15
2114.0669	1159.95
2117.05057	1159.25
2120.03233	1162.45
2123.01216	1161.35
2125.99008	1150.75
2128.96609	1151.05
2131.94018	1161.25
2134.91236	1163.45
2137.88263	1166.25
2140.851	1159.65
2143.81746	1164.35
2146.78201	1154.15
2149.74466	1160.95
2152.7054	1164.15
2155.66425	1161.65
2158.6212	1167.35
2161.57625	1163.95
2164.52941	1164.85
2167.48067	1156.65
2170.43004	1165.35
2173.37752	1163.15
2176.32311	1160.95
2179.26681	1159.05
2182.20863	1164.55
2185.14856	1171.05
2188.08661	1168.05
2191.02278	1163.35
2193.95707	1159.05
2196.88948	1161.75
2199.82001	1162.05
2202.74867	1153.35
2205.67545	1162.45
2208.60037	1150.85
2211.52341	1154.55
2214.44458	1151.35
2217.36388	1156.05
2220.28132	1151.65
2223.1969	1143.35
2226.11061	1149.05
2229.02246	1150.05
2231.93245	1142.55
2234.84058	1148.15
2237.74686	1142.35
2240.65128	1142.35
2243.55385	1133.25
2246.45456	1134.75
2249.35343	1135.75
2252.25044	1134.05
2255.14561	1133.55
2258.03893	1139.25
2260.93041	1129.05
2263.82004	1125.95
2266.70783	1126.95
2269.59378	1119.35
2272.4779	1119.05
2275.36017	1120.45
2278.24061	1111.15
2281.11922	1111.95
2283.996	1113.45
2286.87094	1113.05
2289.74405	1105.95
2292.61534	1110.35
2295.4848	1105.65
2298.35243	1105.45
2301.21824	1110.35
2304.08223	1107.35
2306.94439	1112.05
2309.80474	1101.15
2312.66327	1104.85
2315.51999	1107.35
2318.37489	1102.25
2321.22797	1102.45
2324.07925	1105.25
2326.92871	1100.75
2329.77637	1108.85
2332.62222	1104.45
2335.46626	1102.05
2338.3085	1100.15
2341.14893	1098.65
2343.98756	1100.35
2346.8244	1095.65
2349.65943	1104.45
2352.49267	1090.05
2355.32411	1098.65
2358.15376	1097.95
2360.98161	1103.45
2363.80768	1095.45
2366.63195	1104.75
2369.45444	1103.05
2372.27514	1095.75
2375.09405	1098.75
2377.91118	1100.55
2380.72652	1098.05
2383.54009	1094.05
2386.35187	1086.95
2389.16188	1086.85
2391.97011	1091.45
2394.77657	1084.85
2397.58125	1076.85
2400.38416	1079.15
2403.18529	1080.45
2405.98466	1072.95
2408.78226	1070.35
2411.57809	1065.45
2414.37216	1079.35
2417.16446	1070.25
2419.955	1065.35
2422.74378	1069.65
2425.5308	1072.65
2428.31606	1069.65
2431.09956	1068.95
2433.88131	1058.05
2436.6613	1063.25
2439.43954	1059.05
2442.21603	1063.15
2444.99077	1071.45
2447.76377	1065.65
2450.53501	1066.55
2453.30451	1057.45
2456.07226	1068.95
2458.83827	1063.85
2461.60254	1057.15
2464.36507	1056.05
2467.12586	1059.75
2469.88492	1058.65
2472.64224	1064.55
2475.39782	1061.05
2478.15167	1055.45
2480.90379	1057.95
2483.65417	1070.45
2486.40283	1064.25
2489.14976	1067.65
2491.89497	1071.85
2494.63845	1065.85
2497.3802	1068.25
2500.12024	1061.05
2502.85855	1058.25
2505.59514	1055.05
2508.33002	1052.85
2511.06318	1058.05
2513.79462	1050.55
2516.52435	1049.75
2519.25237	1054.85
2521.97867	1052.45
2524.70327	1051.65
2527.42616	1049.85
2530.14734	1040.35
2532.86681	1050.85
2535.58458	1052.85
2538.30065	1047.55
2541.01501	1047.75
2543.72768	1043.45
2546.43864	1039.65
2549.14791	1043.05
2551.85548	1036.75
2554.56136	1043.05
2557.26554	1038.15
2559.96803	1038.15
2562.66883	1034.45
2565.36794	1037.65
2568.06536	1032.75
2570.7611	1032.75
2573.45514	1028.45
2576.14751	1026.95
2578.83819	1026.25
2581.52719	1017.75
2584.21451	1022.65
2586.90015	1024.75
2589.58411	1020.85
2592.2664	1027.35
2594.94701	1021.25
2597.62594	1025.95
2600.30321	1024.25
2602.9788	1016.35
2605.65273	1020.45
2608.32498	1016.65
2610.99557	1029.35
2613.66449	1021.95
2616.33175	1020.25
2618.99734	1014.75
2621.66128	1014.75
2624.32355	1018.95
2626.98416	1019.75
2629.64311	1011.75
2632.30041	1019.75
2634.95605	1013.65
2637.61004	1007.95
2640.26238	1004.75
2642.91306	1004.35
2645.56209	1008.75
2648.20948	1004.15
2650.85521	1003.65
2653.4993	1018.05
2656.14175	1010.15
2658.78255	1001.65
2661.42171	1011.25
2664.05923	1006.75
2666.6951	1007.25
2669.32934	1003.65
2671.96194	1012.85
2674.59291	1012.85
2677.22224	1011.45
2679.84993	1002.95
2682.476	1010.75
2685.10043	1018.05
2687.72324	1006.75
2690.34441	1006.05
2692.96396	1015.65
2695.58188	1007.15
2698.19818	1017.55
2700.81285	1005.45
2703.4259	1006.25
2706.03733	1005.25
2708.64714	1004.15
2711.25533	1010.75
2713.86191	1016.05
2716.46687	1015.85
2719.07021	1020.15
2721.67194	1018.35
2724.27206	1018.55
2726.87057	1010.75
2729.46747	1019.85
2732.06276	1026.45
2734.65644	1017.15
2737.24852	1012.65
2739.83899	1021.75
2742.42786	1019.95
2745.01513	1008.75
2747.60079	1020.75
2750.18486	1015.15
2752.76733	1012.25
2755.3482	1014.75
2757.92747	1011.75
2760.50515	1008.15
2763.08123	1016.25
2765.65573	1014.45
2768.22863	1009.65
2770.79994	1009.25
2773.36967	1011.05
2775.9378	1004.65
2778.50435	1005.45
2781.06932	1009.15
2783.6327	1006.55
2786.1945	1013.15
2788.75471	1009.25
2791.31335	1008.95
2793.87041	1017.35
2796.42589	1003.55
2798.97979	1007.45
2801.53212	1009.35
2804.08288	1000.25
2806.63206	1001.35
2809.17967	997.35
2811.72571	1000.65
2814.27018	998.55
2816.81308	998.35
2819.35442	997.95
2821.89419	993.35
2824.43239	995.15
2826.96904	991.15
2829.50412	994.15
2832.03763	989.55
2834.56959	994.55
2837.1	993.25
2839.62884	994.65
2842.15613	990.45
2844.68186	995.95
2847.20604	992.05
2849.72867	988.95
2852.24974	1000.65
2854.76927	997.35
2857.28724	993.85
2859.80367	1005.35
2862.31855	1008.75
2864.83189	1000.05
2867.34368	997.15
2869.85393	1004.45
2872.36264	1004.75
2874.8698	1000.35
2877.37543	1000.75
2879.87952	1006.25
2882.38207	1006.65
2884.88308	1000.45
2887.38256	1008.95
2889.88051	1002.65
2892.37692	1014.65
2894.8718	1018.75
2897.36515	1015.45
2899.85698	1016.15
2902.34727	1014.95
2904.83604	1016.85
2907.32328	1015.95
2909.809	1023.35
2912.29319	1025.35
2914.77587	1022.95
2917.25702	1026.65
2919.73665	1014.35
2922.21476	1019.35
2924.69136	1022.15
2927.16644	1023.75
2929.64	1021.55
2932.11205	1022.95
2934.58258	1024.15
2937.05161	1022.45
2939.51912	1023.25
2941.98513	1023.65
2944.44962	1018.35
2946.91261	1013.05
2949.37409	1023.85
2951.83407	1023.25
2954.29254	1027.25
2956.74951	1022.55
2959.20498	1027.85
2961.65895	1027.85
2964.11142	1033.95
2966.56239	1014.65
2969.01186	1028.85
2971.45984	1031.85
2973.90632	1025.65
2976.35131	1026.95
2978.7948	1023.45
2981.23681	1021.55
2983.67732	1017.55
2986.11635	1020.05
2988.55388	1018.65
2990.98993	1020.75
2993.4245	1019.45
2995.85758	1022.65
2998.28917	1028.45
3000.71928	1026.05
3003.14791	1012.45
3005.57506	1018.45
3008.00073	1021.95
3010.42493	1021.65
3012.84764	1025.25
3015.26888	1024.85
3017.68865	1029.25
3020.10694	1020.55
3022.52376	1033.85
3024.9391	1031.35
3027.35298	1026.15
3029.76539	1024.55
3032.17632	1042.75
3034.5858	1038.85
3036.9938	1038.35
3039.40034	1036.75
3041.80542	1049.65
3044.20903	1038.85
3046.61118	1043.55
3049.01187	1049.25
3051.4111	1052.85
3053.80888	1057.95
3056.20519	1065.85
3058.60005	1058.85
3060.99345	1060.75
3063.3854	1060.45
3065.7759	1063.75
3068.16494	1066.65
3070.55254	1055.55
3072.93868	1069.45
3075.32338	1066.15
3077.70662	1071.05
3080.08842	1073.45
3082.46878	1077.55
3084.84769	1084.15
3087.22515	1090.25
3089.60118	1085.55
3091.97576	1102.35
3094.3489	1093.35
3096.72061	1098.25
3099.09087	1110.45
3101.4597	1115.55
3103.82709	1124.05
3106.19305	1135.45
3108.55757	1140.65
3110.92066	1143.55
3113.28232	1147.45
3115.64255	1155.65
3118.00134	1149.15
3120.35871	1161.25
3122.71466	1160.65
3125.06917	1168.95
3127.42226	1166.95
3129.77393	1169.95
3132.12417	1181.65
3134.47299	1187.55
3136.82039	1192.65
3139.16636	1204.75
3141.51092	1209.35
3143.85406	1217.35
3146.19579	1217.65
3148.53609	1224.15
3150.87499	1234.35
3153.21246	1254.65
3155.54853	1259.35
3157.88318	1262.35
3160.21642	1274.55
3162.54826	1274.05
3164.87868	1290.25
3167.2077	1288.65
3169.5353	1301.45
3171.86151	1301.25
3174.18631	1308.25
3176.5097	1316.15
3178.83169	1319.35
3181.15228	1336.15
3183.47147	1340.75
3185.78926	1333.85
3188.10565	1339.45
3190.42065	1352.55
3192.73424	1360.65
3195.04645	1355.45
3197.35725	1353.15
3199.66667	1364.05
3201.97469	1374.75
3204.28132	1384.65
3206.58656	1382.85
3208.8904	1396.95
3211.19287	1399.55
3213.49394	1399.65
3215.79363	1412.15
3218.09193	1423.15
3220.38884	1423.45
3222.68438	1422.55
3224.97853	1417.65
3227.2713	1426.85
3229.56269	1428.75
3231.8527	1434.95
3234.14133	1425.55
3236.42858	1420.75
3238.71446	1423.25
3240.99896	1428.15
3243.28209	1430.75
3245.56384	1425.05
3247.84423	1425.45
3250.12324	1424.75
3252.40088	1425.95
3254.67715	1434.45
3256.95205	1427.85
3259.22558	1427.15
3261.49775	1431.65
3263.76855	1437.45
3266.03799	1440.85
3268.30606	1434.25
3270.57277	1437.75
3272.83812	1430.25
3275.10211	1428.35
3277.36474	1431.15
3279.62601	1437.15
3281.88593	1427.25
3284.14448	1434.85
3286.40168	1434.55
3288.65753	1444.45
3290.91202	1429.75
3293.16516	1433.15
3295.41695	1430.25
3297.66738	1424.45
3299.91647	1414.25
3302.16421	1413.65
3304.4106	1401.55
3306.65564	1401.05
3308.89933	1378.45
3311.14169	1362.85
3313.38269	1359.15
3315.62236	1357.35
3317.86068	1341.55
3320.09766	1326.85
3322.3333	1331.95
3324.5676	1311.25
3326.80056	1300.15
3329.03219	1293.75
3331.26248	-0.85
3333.49143	0.15
3335.71905	-2.25
