Data from AgNPs_APTES_FTO_UA_100uM_CRN_0uM_R6G_10uM_Scan_RamanShift__33__11-18-11-272.txt Node

Date: Wed Jun 29 11:18:11 BST 2022
User: TCL
Spectrometer: QEP01345
Trigger mode: 4
Integration Time (sec): 7.000000E0
Scans to average: 10
Electric dark correction enabled: true
Nonlinearity correction enabled: false
Boxcar width: 0
XAxis mode: Raman Shifts
Number of Pixels in Spectrum: 1044
>>>>>Begin Spectral Data<<<<<
46.04893	0.5125
50.45542	-0.1875
54.85868	1.1125
59.25871	0.8125
63.6555	35.5125
68.04907	40.7125
72.43941	39.1125
76.82654	40.2125
81.21044	45.2125
85.59113	46.8125
89.96862	51.8125
94.34289	53.0125
98.71396	53.7125
103.08183	53.9125
107.4465	54.3125
111.80798	54.2125
116.16626	53.6125
120.52136	54.2125
124.87327	52.6125
129.222	55.8125
133.56755	53.7125
137.90993	49.9125
142.24913	48.3125
146.58517	49.3125
150.91804	43.9125
155.24774	52.1125
159.57429	54.4125
163.89768	57.2125
168.21792	63.4125
172.53501	75.0125
176.84895	90.8125
181.15975	116.1125
185.46741	147.8125
189.77193	190.4125
194.07331	252.5125
198.37157	314.6125
202.6667	383.2125
206.9587	446.3125
211.24758	519.7125
215.53334	578.1125
219.81599	656.8125
224.09553	736.4125
228.37195	817.2125
232.64527	905.3125
236.91549	994.9125
241.18261	1081.6125
245.44663	1163.9125
249.70755	1226.2125
253.96539	1267.0125
258.22014	1310.4125
262.4718	1341.8125
266.72039	1353.0125
270.96589	1360.1125
275.20832	1344.6125
279.44768	1309.1125
283.68397	1280.4125
287.91719	1250.9125
292.14735	1223.3125
296.37445	1226.8125
300.59849	1240.7125
304.81948	1259.4125
309.03742	1280.7125
313.25231	1285.0125
317.46415	1250.0125
321.67296	1202.9125
325.87872	1160.0125
330.08145	1162.4125
334.28114	1144.5125
338.47781	1165.7125
342.67145	1184.0125
346.86207	1218.1125
351.04966	1253.5125
355.23424	1306.7125
359.4158	1337.4125
363.59435	1363.2125
367.76989	1374.9125
371.94243	1378.1125
376.11196	1379.7125
380.27849	1395.7125
384.44203	1388.3125
388.60257	1393.3125
392.76012	1380.1125
396.91468	1403.3125
401.06626	1415.9125
405.21485	1444.2125
409.36047	1419.5125
413.50311	1390.2125
417.64277	1350.0125
421.77947	1323.6125
425.9132	1317.3125
430.04396	1322.3125
434.17176	1323.5125
438.2966	1339.2125
442.41849	1367.6125
446.53742	1373.8125
450.6534	1390.5125
454.76644	1401.8125
458.87653	1407.9125
462.98368	1409.7125
467.08789	1406.9125
471.18916	1395.9125
475.2875	1389.6125
479.38291	1394.1125
483.4754	1381.8125
487.56496	1388.9125
491.6516	1389.9125
495.73531	1403.7125
499.81612	1399.2125
503.89401	1412.2125
507.96899	1415.6125
512.04106	1416.8125
516.11023	1420.7125
520.1765	1423.6125
524.23987	1430.4125
528.30034	1415.5125
532.35792	1405.8125
536.41261	1399.4125
540.46441	1388.1125
544.51333	1368.6125
548.55936	1365.9125
552.60252	1380.8125
556.64279	1393.7125
560.6802	1402.2125
564.71473	1418.6125
568.7464	1448.2125
572.7752	1457.1125
576.80114	1429.4125
580.82422	1397.7125
584.84444	1401.1125
588.86181	1408.1125
592.87633	1434.0125
596.888	1440.8125
600.89682	1455.9125
604.9028	1541.7125
608.90594	1790.0125
612.90624	2095.3125
616.90371	2049.2125
620.89834	1666.7125
624.89015	1497.5125
628.87913	1475.4125
632.86528	1506.8125
636.84862	1537.9125
640.82913	1534.5125
644.80683	1507.9125
648.78172	1484.5125
652.75379	1487.9125
656.72306	1499.4125
660.68952	1541.9125
664.65319	1528.8125
668.61405	1495.9125
672.57211	1488.8125
676.52738	1525.6125
680.47986	1572.0125
684.42955	1630.3125
688.37646	1659.7125
692.32058	1657.4125
696.26192	1610.3125
700.20048	1564.1125
704.13626	1536.9125
708.06928	1522.9125
711.99952	1516.1125
715.927	1515.3125
719.85171	1488.6125
723.77365	1477.8125
727.69284	1473.7125
731.60928	1475.2125
735.52295	1480.2125
739.43388	1461.3125
743.34206	1466.9125
747.24749	1453.9125
751.15017	1439.6125
755.05012	1428.7125
758.94733	1481.5125
762.8418	1558.8125
766.73354	1714.0125
770.62254	1849.9125
774.50882	1932.4125
778.39237	1873.5125
782.27321	1756.0125
786.15132	1616.4125
790.02671	1518.4125
793.89938	1492.7125
797.76935	1482.2125
801.6366	1474.2125
805.50115	1477.5125
809.36299	1473.0125
813.22213	1472.9125
817.07857	1465.4125
820.93231	1448.8125
824.78336	1436.3125
828.63172	1432.4125
832.47738	1438.1125
836.32036	1434.3125
840.16066	1428.9125
843.99827	1424.3125
847.8332	1425.9125
851.66546	1430.7125
855.49504	1424.7125
859.32195	1424.3125
863.1462	1426.1125
866.96777	1417.6125
870.78668	1420.1125
874.60293	1422.5125
878.41652	1434.1125
882.22745	1432.2125
886.03573	1441.7125
889.84136	1441.2125
893.64433	1447.7125
897.44466	1423.2125
901.24235	1432.2125
905.0374	1420.6125
908.8298	1411.5125
912.61957	1404.9125
916.40671	1404.2125
920.19121	1417.1125
923.97308	1418.8125
927.75233	1432.7125
931.52895	1428.0125
935.30295	1428.4125
939.07433	1413.7125
942.84309	1392.5125
946.60924	1390.3125
950.37278	1387.3125
954.13371	1377.5125
957.89203	1380.3125
961.64774	1371.6125
965.40086	1372.3125
969.15137	1358.5125
972.89929	1349.9125
976.64461	1354.7125
980.38733	1351.2125
984.12747	1343.4125
987.86502	1346.3125
991.59999	1351.5125
995.33237	1352.6125
999.06217	1354.3125
1002.78939	1375.2125
1006.51404	1391.6125
1010.23611	1403.8125
1013.95561	1413.4125
1017.67255	1417.5125
1021.38692	1409.0125
1025.09872	1405.7125
1028.80796	1403.9125
1032.51465	1387.9125
1036.21877	1383.3125
1039.92035	1394.8125
1043.61937	1390.7125
1047.31584	1401.7125
1051.00976	1403.2125
1054.70114	1408.7125
1058.38998	1414.8125
1062.07627	1419.0125
1065.76003	1426.6125
1069.44126	1439.4125
1073.11995	1459.0125
1076.79611	1472.8125
1080.46974	1476.0125
1084.14085	1496.0125
1087.80943	1500.3125
1091.47549	1493.0125
1095.13903	1470.4125
1098.80005	1451.1125
1102.45857	1428.0125
1106.11456	1416.4125
1109.76805	1429.0125
1113.41903	1458.6125
1117.06751	1483.2125
1120.71348	1526.7125
1124.35696	1583.6125
1127.99793	1639.6125
1131.63641	1670.0125
1135.2724	1636.4125
1138.90589	1607.3125
1142.5369	1559.0125
1146.16542	1524.1125
1149.79145	1503.3125
1153.415	1474.2125
1157.03607	1464.5125
1160.65467	1472.3125
1164.27079	1486.9125
1167.88443	1531.9125
1171.49561	1585.9125
1175.10432	1693.6125
1178.71056	1815.6125
1182.31434	1943.5125
1185.91565	1971.5125
1189.51451	1922.2125
1193.11091	1837.7125
1196.70485	1760.0125
1200.29634	1709.7125
1203.88538	1670.1125
1207.47197	1615.7125
1211.05612	1558.6125
1214.63782	1528.7125
1218.21708	1505.9125
1221.79391	1497.3125
1225.36829	1496.4125
1228.94024	1496.7125
1232.50976	1492.0125
1236.07685	1490.3125
1239.6415	1493.3125
1243.20374	1510.2125
1246.76355	1507.7125
1250.32093	1512.5125
1253.8759	1526.1125
1257.42845	1545.8125
1260.97859	1568.3125
1264.52631	1596.1125
1268.07163	1628.4125
1271.61453	1661.3125
1275.15503	1674.0125
1278.69312	1679.9125
1282.22882	1687.3125
1285.76211	1705.6125
1289.29301	1755.2125
1292.82151	1809.2125
1296.34761	1868.2125
1299.87133	1934.7125
1303.39266	2029.3125
1306.9116	2196.6125
1310.42815	2368.6125
1313.94233	2446.7125
1317.45412	2373.2125
1320.96354	2218.9125
1324.47058	2069.7125
1327.97525	1951.3125
1331.47754	1877.0125
1334.97747	1848.7125
1338.47502	1853.7125
1341.97022	1891.0125
1345.46305	1956.0125
1348.95352	2073.7125
1352.44163	2223.5125
1355.92738	2426.0125
1359.41078	2693.5125
1362.89183	2960.1125
1366.37053	2946.1125
1369.84688	2602.3125
1373.32088	2243.5125
1376.79254	2021.2125
1380.26186	1912.2125
1383.72883	1848.0125
1387.19347	1795.6125
1390.65578	1736.6125
1394.11575	1683.3125
1397.57339	1645.4125
1401.0287	1637.3125
1404.48168	1603.7125
1407.93234	1579.5125
1411.38068	1568.2125
1414.82669	1551.7125
1418.27039	1560.4125
1421.71177	1553.0125
1425.15083	1535.8125
1428.58758	1523.3125
1432.02203	1522.9125
1435.45416	1539.0125
1438.88399	1535.5125
1442.31151	1530.4125
1445.73673	1531.6125
1449.15965	1525.9125
1452.58027	1544.9125
1455.9986	1548.6125
1459.41463	1547.2125
1462.82837	1551.5125
1466.23982	1572.2125
1469.64898	1579.4125
1473.05586	1604.0125
1476.46045	1602.9125
1479.86276	1619.1125
1483.26279	1623.8125
1486.66054	1639.9125
1490.05602	1664.2125
1493.44922	1703.8125
1496.84016	1797.4125
1500.22882	1935.5125
1503.61521	2130.9125
1506.99934	2388.3125
1510.38121	2604.7125
1513.76081	2664.9125
1517.13816	2506.9125
1520.51324	2244.2125
1523.88607	1983.6125
1527.25665	1828.1125
1530.62498	1740.5125
1533.99105	1679.3125
1537.35488	1653.8125
1540.71647	1625.4125
1544.07581	1611.1125
1547.4329	1616.8125
1550.78776	1624.3125
1554.14038	1631.2125
1557.49077	1652.3125
1560.83892	1681.7125
1564.18484	1724.4125
1567.52853	1773.9125
1570.86999	1827.5125
1574.20922	1858.2125
1577.54624	1863.8125
1580.88103	1806.8125
1584.2136	1715.0125
1587.54395	1638.9125
1590.87208	1611.7125
1594.19801	1603.2125
1597.52172	1641.9125
1600.84321	1650.7125
1604.16251	1622.0125
1607.47959	1564.4125
1610.79447	1526.7125
1614.10715	1476.0125
1617.41763	1447.7125
1620.7259	1420.6125
1624.03199	1404.7125
1627.33587	1401.7125
1630.63757	1417.2125
1633.93707	1426.2125
1637.23439	1469.4125
1640.52951	1555.9125
1643.82246	1672.0125
1647.11321	1830.9125
1650.40179	1967.8125
1653.68819	1950.4125
1656.97241	1789.4125
1660.25446	1600.0125
1663.53433	1461.3125
1666.81203	1383.9125
1670.08756	1336.4125
1673.36092	1313.7125
1676.63211	1295.4125
1679.90115	1286.5125
1683.16801	1263.5125
1686.43272	1241.0125
1689.69527	1230.5125
1692.95567	1199.3125
1696.2139	1178.0125
1699.46999	1146.9125
1702.72392	1130.5125
1705.97571	1132.9125
1709.22535	1131.2125
1712.47284	1120.1125
1715.71819	1127.0125
1718.96139	1122.3125
1722.20246	1103.8125
1725.44139	1091.1125
1728.67818	1078.7125
1731.91284	1060.4125
1735.14537	1045.3125
1738.37576	1038.5125
1741.60403	1032.9125
1744.83017	1010.4125
1748.05418	1013.2125
1751.27607	992.6125
1754.49584	987.8125
1757.71349	970.8125
1760.92903	960.8125
1764.14244	958.7125
1767.35375	952.2125
1770.56294	943.3125
1773.77002	942.9125
1776.97499	943.7125
1780.17785	949.4125
1783.37861	962.3125
1786.57727	962.3125
1789.77382	959.9125
1792.96828	951.1125
1796.16064	952.1125
1799.3509	949.1125
1802.53907	951.9125
1805.72514	943.3125
1808.90913	942.0125
1812.09102	941.7125
1815.27083	940.5125
1818.44856	934.6125
1821.6242	933.2125
1824.79776	930.5125
1827.96924	932.1125
1831.13864	925.4125
1834.30597	918.7125
1837.47122	929.2125
1840.6344	921.1125
1843.7955	925.8125
1846.95454	918.5125
1850.11151	917.8125
1853.26642	914.6125
1856.41926	910.3125
1859.57004	911.0125
1862.71876	908.7125
1865.86542	902.5125
1869.01003	911.9125
1872.15258	907.3125
1875.29308	911.4125
1878.43152	897.0125
1881.56792	906.5125
1884.70227	908.3125
1887.83457	905.4125
1890.96482	898.1125
1894.09304	897.0125
1897.21921	891.8125
1900.34335	892.8125
1903.46544	892.1125
1906.58551	895.4125
1909.70353	895.2125
1912.81953	891.1125
1915.93349	897.5125
1919.04543	897.7125
1922.15534	887.2125
1925.26322	886.6125
1928.36908	887.7125
1931.47292	887.5125
1934.57473	880.2125
1937.67453	885.3125
1940.77232	866.8125
1943.86808	874.8125
1946.96184	867.9125
1950.05358	861.4125
1953.14331	862.6125
1956.23103	862.9125
1959.31675	858.5125
1962.40046	857.9125
1965.48217	858.5125
1968.56188	847.7125
1971.63959	849.5125
1974.7153	848.4125
1977.78901	838.3125
1980.86073	843.1125
1983.93046	830.1125
1986.99819	839.6125
1990.06394	829.3125
1993.1277	825.8125
1996.18947	827.1125
1999.24925	828.7125
2002.30706	821.9125
2005.36288	821.2125
2008.41672	821.9125
2011.46859	811.7125
2014.51848	817.3125
2017.56639	813.5125
2020.61233	812.4125
2023.6563	809.2125
2026.6983	802.8125
2029.73833	803.9125
2032.7764	797.8125
2035.8125	802.1125
2038.84664	803.3125
2041.87881	799.4125
2044.90903	799.1125
2047.93729	799.2125
2050.96359	802.2125
2053.98794	801.1125
2057.01034	794.0125
2060.03078	797.9125
2063.04927	800.4125
2066.06582	804.3125
2069.08042	802.1125
2072.09307	809.5125
2075.10378	809.2125
2078.11255	813.6125
2081.11938	808.6125
2084.12426	813.8125
2087.12722	822.2125
2090.12824	813.9125
2093.12732	814.3125
2096.12447	813.8125
2099.11969	808.9125
2102.11299	815.1125
2105.10435	818.8125
2108.09379	807.6125
2111.08131	812.1125
2114.0669	818.6125
2117.05057	819.1125
2120.03233	815.1125
2123.01216	816.4125
2125.99008	808.8125
2128.96609	805.0125
2131.94018	808.4125
2134.91236	803.7125
2137.88263	811.2125
2140.851	806.6125
2143.81746	806.9125
2146.78201	809.7125
2149.74466	805.1125
2152.7054	798.6125
2155.66425	799.9125
2158.6212	800.1125
2161.57625	801.3125
2164.52941	795.6125
2167.48067	799.4125
2170.43004	796.5125
2173.37752	796.8125
2176.32311	793.2125
2179.26681	795.9125
2182.20863	799.3125
2185.14856	800.0125
2188.08661	796.5125
2191.02278	792.9125
2193.95707	797.4125
2196.88948	788.0125
2199.82001	790.6125
2202.74867	781.4125
2205.67545	785.9125
2208.60037	775.5125
2211.52341	786.8125
2214.44458	783.0125
2217.36388	784.6125
2220.28132	775.4125
2223.1969	778.8125
2226.11061	771.5125
2229.02246	773.1125
2231.93245	770.8125
2234.84058	775.0125
2237.74686	771.9125
2240.65128	768.7125
2243.55385	765.6125
2246.45456	760.8125
2249.35343	762.4125
2252.25044	767.6125
2255.14561	770.6125
2258.03893	768.3125
2260.93041	755.0125
2263.82004	752.9125
2266.70783	754.8125
2269.59378	757.5125
2272.4779	751.4125
2275.36017	749.9125
2278.24061	756.3125
2281.11922	750.6125
2283.996	744.2125
2286.87094	752.9125
2289.74405	743.8125
2292.61534	746.5125
2295.4848	741.8125
2298.35243	740.5125
2301.21824	741.4125
2304.08223	739.7125
2306.94439	742.9125
2309.80474	740.7125
2312.66327	737.4125
2315.51999	743.7125
2318.37489	735.1125
2321.22797	728.9125
2324.07925	737.2125
2326.92871	738.5125
2329.77637	737.7125
2332.62222	736.7125
2335.46626	732.9125
2338.3085	732.2125
2341.14893	722.8125
2343.98756	723.6125
2346.8244	731.3125
2349.65943	724.6125
2352.49267	721.3125
2355.32411	723.2125
2358.15376	719.4125
2360.98161	728.6125
2363.80768	726.4125
2366.63195	732.6125
2369.45444	731.1125
2372.27514	729.1125
2375.09405	725.5125
2377.91118	727.6125
2380.72652	725.9125
2383.54009	721.3125
2386.35187	726.3125
2389.16188	719.4125
2391.97011	722.5125
2394.77657	716.0125
2397.58125	711.1125
2400.38416	715.0125
2403.18529	709.3125
2405.98466	704.2125
2408.78226	703.9125
2411.57809	700.7125
2414.37216	715.2125
2417.16446	706.4125
2419.955	707.0125
2422.74378	708.1125
2425.5308	707.7125
2428.31606	706.9125
2431.09956	706.7125
2433.88131	700.2125
2436.6613	702.8125
2439.43954	700.4125
2442.21603	698.5125
2444.99077	698.9125
2447.76377	705.3125
2450.53501	713.8125
2453.30451	702.8125
2456.07226	700.2125
2458.83827	707.5125
2461.60254	692.1125
2464.36507	703.1125
2467.12586	700.0125
2469.88492	687.6125
2472.64224	692.5125
2475.39782	688.7125
2478.15167	686.7125
2480.90379	693.2125
2483.65417	700.0125
2486.40283	700.5125
2489.14976	702.4125
2491.89497	699.9125
2494.63845	691.3125
2497.3802	687.4125
2500.12024	687.8125
2502.85855	692.5125
2505.59514	699.5125
2508.33002	694.3125
2511.06318	692.2125
2513.79462	693.1125
2516.52435	691.3125
2519.25237	684.3125
2521.97867	687.5125
2524.70327	682.4125
2527.42616	687.6125
2530.14734	678.9125
2532.86681	681.4125
2535.58458	690.0125
2538.30065	689.1125
2541.01501	683.0125
2543.72768	678.9125
2546.43864	679.6125
2549.14791	675.8125
2551.85548	674.5125
2554.56136	676.8125
2557.26554	678.2125
2559.96803	670.5125
2562.66883	672.1125
2565.36794	671.5125
2568.06536	673.9125
2570.7611	671.4125
2573.45514	664.4125
2576.14751	660.5125
2578.83819	663.4125
2581.52719	665.7125
2584.21451	663.1125
2586.90015	656.7125
2589.58411	662.7125
2592.2664	663.6125
2594.94701	659.6125
2597.62594	657.6125
2600.30321	663.7125
2602.9788	665.0125
2605.65273	670.3125
2608.32498	658.1125
2610.99557	655.9125
2613.66449	667.9125
2616.33175	660.9125
2618.99734	656.5125
2621.66128	653.9125
2624.32355	651.8125
2626.98416	653.9125
2629.64311	654.8125
2632.30041	657.7125
2634.95605	651.5125
2637.61004	650.3125
2640.26238	651.8125
2642.91306	653.5125
2645.56209	650.3125
2648.20948	647.2125
2650.85521	643.0125
2653.4993	648.6125
2656.14175	651.3125
2658.78255	647.2125
2661.42171	648.4125
2664.05923	645.2125
2666.6951	645.1125
2669.32934	649.2125
2671.96194	644.0125
2674.59291	652.0125
2677.22224	652.2125
2679.84993	647.7125
2682.476	650.6125
2685.10043	651.7125
2687.72324	655.2125
2690.34441	655.9125
2692.96396	644.9125
2695.58188	650.3125
2698.19818	653.0125
2700.81285	646.7125
2703.4259	638.1125
2706.03733	621.8125
2708.64714	636.3125
2711.25533	641.3125
2713.86191	644.5125
2716.46687	650.1125
2719.07021	648.6125
2721.67194	653.8125
2724.27206	659.6125
2726.87057	658.4125
2729.46747	653.5125
2732.06276	660.4125
2734.65644	656.3125
2737.24852	657.0125
2739.83899	652.3125
2742.42786	663.4125
2745.01513	654.6125
2747.60079	653.2125
2750.18486	653.8125
2752.76733	651.5125
2755.3482	651.6125
2757.92747	653.3125
2760.50515	645.5125
2763.08123	640.7125
2765.65573	645.5125
2768.22863	653.0125
2770.79994	644.0125
2773.36967	645.5125
2775.9378	646.1125
2778.50435	648.5125
2781.06932	649.6125
2783.6327	644.7125
2786.1945	646.7125
2788.75471	642.9125
2791.31335	649.0125
2793.87041	645.9125
2796.42589	647.4125
2798.97979	644.9125
2801.53212	644.1125
2804.08288	643.0125
2806.63206	643.6125
2809.17967	640.5125
2811.72571	638.3125
2814.27018	634.8125
2816.81308	636.2125
2819.35442	637.4125
2821.89419	638.0125
2824.43239	628.5125
2826.96904	634.5125
2829.50412	642.0125
2832.03763	631.1125
2834.56959	636.7125
2837.1	632.2125
2839.62884	635.1125
2842.15613	628.6125
2844.68186	637.2125
2847.20604	633.8125
2849.72867	630.2125
2852.24974	644.3125
2854.76927	636.7125
2857.28724	636.2125
2859.80367	637.8125
2862.31855	640.5125
2864.83189	640.8125
2867.34368	641.6125
2869.85393	639.5125
2872.36264	644.3125
2874.8698	648.4125
2877.37543	645.3125
2879.87952	643.1125
2882.38207	644.9125
2884.88308	649.2125
2887.38256	647.8125
2889.88051	654.0125
2892.37692	659.9125
2894.8718	656.4125
2897.36515	655.8125
2899.85698	652.4125
2902.34727	662.8125
2904.83604	655.6125
2907.32328	664.1125
2909.809	660.1125
2912.29319	666.6125
2914.77587	664.8125
2917.25702	664.8125
2919.73665	669.8125
2922.21476	670.7125
2924.69136	669.8125
2927.16644	678.7125
2929.64	678.8125
2932.11205	681.0125
2934.58258	674.7125
2937.05161	677.5125
2939.51912	674.4125
2941.98513	676.4125
2944.44962	675.1125
2946.91261	677.3125
2949.37409	670.4125
2951.83407	677.8125
2954.29254	676.6125
2956.74951	677.1125
2959.20498	673.9125
2961.65895	682.7125
2964.11142	678.6125
2966.56239	674.0125
2969.01186	675.6125
2971.45984	675.1125
2973.90632	672.0125
2976.35131	666.5125
2978.7948	674.8125
2981.23681	680.5125
2983.67732	676.1125
2986.11635	671.8125
2988.55388	679.9125
2990.98993	674.6125
2993.4245	673.4125
2995.85758	681.6125
2998.28917	676.2125
3000.71928	679.5125
3003.14791	673.9125
3005.57506	673.0125
3008.00073	673.4125
3010.42493	677.1125
3012.84764	686.4125
3015.26888	688.2125
3017.68865	687.5125
3020.10694	685.3125
3022.52376	696.3125
3024.9391	689.0125
3027.35298	687.7125
3029.76539	689.7125
3032.17632	694.2125
3034.5858	688.6125
3036.9938	703.2125
3039.40034	696.4125
3041.80542	707.1125
3044.20903	708.4125
3046.61118	707.0125
3049.01187	712.9125
3051.4111	713.7125
3053.80888	718.4125
3056.20519	724.1125
3058.60005	728.1125
3060.99345	729.5125
3063.3854	729.6125
3065.7759	730.0125
3068.16494	736.4125
3070.55254	743.2125
3072.93868	740.9125
3075.32338	742.3125
3077.70662	753.9125
3080.08842	744.0125
3082.46878	748.6125
3084.84769	760.4125
3087.22515	758.3125
3089.60118	767.6125
3091.97576	774.6125
3094.3489	773.1125
3096.72061	781.4125
3099.09087	788.4125
3101.4597	799.3125
3103.82709	800.6125
3106.19305	803.5125
3108.55757	817.7125
3110.92066	818.2125
3113.28232	824.5125
3115.64255	826.5125
3118.00134	831.7125
3120.35871	842.3125
3122.71466	841.7125
3125.06917	856.0125
3127.42226	849.3125
3129.77393	856.0125
3132.12417	863.9125
3134.47299	869.9125
3136.82039	880.4125
3139.16636	885.9125
3141.51092	892.8125
3143.85406	894.7125
3146.19579	905.0125
3148.53609	912.3125
3150.87499	925.4125
3153.21246	927.0125
3155.54853	934.3125
3157.88318	942.7125
3160.21642	957.6125
3162.54826	963.0125
3164.87868	974.5125
3167.2077	977.6125
3169.5353	984.6125
3171.86151	990.8125
3174.18631	998.6125
3176.5097	1000.9125
3178.83169	1014.0125
3181.15228	1020.2125
3183.47147	1016.8125
3185.78926	1024.1125
3188.10565	1030.5125
3190.42065	1043.9125
3192.73424	1043.1125
3195.04645	1043.6125
3197.35725	1048.3125
3199.66667	1053.9125
3201.97469	1066.5125
3204.28132	1068.5125
3206.58656	1078.5125
3208.8904	1073.8125
3211.19287	1077.3125
3213.49394	1087.3125
3215.79363	1098.2125
3218.09193	1108.6125
3220.38884	1095.2125
3222.68438	1104.2125
3224.97853	1114.0125
3227.2713	1118.0125
3229.56269	1113.9125
3231.8527	1113.0125
3234.14133	1124.6125
3236.42858	1112.2125
3238.71446	1119.5125
3240.99896	1119.2125
3243.28209	1114.9125
3245.56384	1114.4125
3247.84423	1113.4125
3250.12324	1122.6125
3252.40088	1118.3125
3254.67715	1125.8125
3256.95205	1121.5125
3259.22558	1130.0125
3261.49775	1124.6125
3263.76855	1126.5125
3266.03799	1126.2125
3268.30606	1124.2125
3270.57277	1133.3125
3272.83812	1125.6125
3275.10211	1128.6125
3277.36474	1127.2125
3279.62601	1126.0125
3281.88593	1130.5125
3284.14448	1126.3125
3286.40168	1122.2125
3288.65753	1132.2125
3290.91202	1128.9125
3293.16516	1126.6125
3295.41695	1125.1125
3297.66738	1117.6125
3299.91647	1123.5125
3302.16421	1113.7125
3304.4106	1104.8125
3306.65564	1095.0125
3308.89933	1092.6125
3311.14169	1089.6125
3313.38269	1069.8125
3315.62236	1072.0125
3317.86068	1069.4125
3320.09766	1062.8125
3322.3333	1045.8125
3324.5676	1044.5125
3326.80056	1023.4125
3329.03219	1027.7125
3331.26248	-0.5875
3333.49143	0.5125
3335.71905	-1.6875
