Data from AgNPs_APTES_FTO_UA_50uM_CRN_0uM_R6G_10uM_Scan_RamanShift__28__11-43-43-686.txt Node

Date: Tue Jul 05 11:43:43 BST 2022
User: TCL
Spectrometer: QEP01345
Trigger mode: 4
Integration Time (sec): 7.000000E0
Scans to average: 10
Electric dark correction enabled: true
Nonlinearity correction enabled: false
Boxcar width: 0
XAxis mode: Raman Shifts
Number of Pixels in Spectrum: 1044
>>>>>Begin Spectral Data<<<<<
46.04893	-0.45
50.45542	-0.75
54.85868	-1.35
59.25871	1.35
63.6555	34.25
68.04907	37.15
72.43941	39.65
76.82654	44.15
81.21044	47.85
85.59113	51.85
89.96862	49.75
94.34289	50.25
98.71396	54.15
103.08183	56.35
107.4465	56.25
111.80798	59.15
116.16626	57.75
120.52136	58.15
124.87327	59.55
129.222	60.35
133.56755	61.95
137.90993	62.05
142.24913	68.25
146.58517	71.75
150.91804	82.15
155.24774	91.85
159.57429	106.05
163.89768	128.55
168.21792	162.85
172.53501	218.95
176.84895	300.05
181.15975	412.75
185.46741	566.15
189.77193	776.85
194.07331	1027.05
198.37157	1328.55
202.6667	1627.95
206.9587	1927.25
211.24758	2222.55
215.53334	2522.35
219.81599	2840.65
224.09553	3184.05
228.37195	3564.55
232.64527	3952.75
236.91549	4385.15
241.18261	4781.45
245.44663	5143.85
249.70755	5471.75
253.96539	5707.85
258.22014	5915.05
262.4718	6107.15
266.72039	6233.25
270.96589	6282.25
275.20832	6281.25
279.44768	6177.45
283.68397	6080.15
287.91719	5975.55
292.14735	5933.55
296.37445	5967.65
300.59849	6034.65
304.81948	6152.95
309.03742	6219.25
313.25231	6173.05
317.46415	6042.95
321.67296	5780.85
325.87872	5573.15
330.08145	5472.95
334.28114	5440.25
338.47781	5485.35
342.67145	5584.95
346.86207	5715.15
351.04966	5888.75
355.23424	6104.85
359.4158	6297.25
363.59435	6427.15
367.76989	6525.55
371.94243	6583.15
376.11196	6619.25
380.27849	6663.55
384.44203	6670.15
388.60257	6674.25
392.76012	6683.65
396.91468	6683.95
401.06626	6761.85
405.21485	6820.05
409.36047	6715.35
413.50311	6520.45
417.64277	6313.75
421.77947	6202.95
425.9132	6137.85
430.04396	6144.75
434.17176	6179.45
438.2966	6218.65
442.41849	6314.35
446.53742	6413.25
450.6534	6527.05
454.76644	6568.55
458.87653	6564.65
462.98368	6522.95
467.08789	6498.25
471.18916	6451.95
475.2875	6416.15
479.38291	6397.45
483.4754	6425.65
487.56496	6488.45
491.6516	6594.65
495.73531	6671.75
499.81612	6666.05
503.89401	6647.55
507.96899	6628.05
512.04106	6638.95
516.11023	6709.85
520.1765	6784.55
524.23987	6822.95
528.30034	6818.35
532.35792	6798.75
536.41261	6712.45
540.46441	6581.15
544.51333	6478.55
548.55936	6414.15
552.60252	6457.75
556.64279	6476.65
560.6802	6513.25
564.71473	6504.15
568.7464	6611.75
572.7752	6677.55
576.80114	6609.15
580.82422	6525.55
584.84444	6564.65
588.86181	6673.95
592.87633	6783.95
596.888	6856.45
600.89682	6956.75
604.9028	7336.95
608.90594	8493.75
612.90624	10018.75
616.90371	9854.55
620.89834	8163.65
624.89015	7492.55
628.87913	7677.45
632.86528	8009.65
636.84862	8275.95
640.82913	8154.45
644.80683	7753.75
648.78172	7311.35
652.75379	7017.55
656.72306	6921.25
660.68952	6934.35
664.65319	6790.95
668.61405	6581.55
672.57211	6483.65
676.52738	6489.15
680.47986	6515.35
684.42955	6508.45
688.37646	6480.55
692.32058	6466.55
696.26192	6421.75
700.20048	6398.45
704.13626	6397.85
708.06928	6399.25
711.99952	6373.75
715.927	6362.75
719.85171	6428.05
723.77365	6488.65
727.69284	6502.25
731.60928	6453.05
735.52295	6404.85
739.43388	6355.75
743.34206	6345.75
747.24749	6341.25
751.15017	6328.15
755.05012	6359.35
758.94733	6494.95
762.8418	6815.45
766.73354	7509.75
770.62254	8257.35
774.50882	8685.05
778.39237	8453.85
782.27321	7674.55
786.15132	6941.05
790.02671	6499.95
793.89938	6313.05
797.76935	6276.15
801.6366	6335.15
805.50115	6501.65
809.36299	6661.45
813.22213	6705.95
817.07857	6632.05
820.93231	6468.55
824.78336	6307.15
828.63172	6172.05
832.47738	6079.25
836.32036	6039.65
840.16066	6027.15
843.99827	6024.05
847.8332	6004.95
851.66546	5995.35
855.49504	5997.65
859.32195	5981.65
863.1462	5989.15
866.96777	6017.35
870.78668	6086.25
874.60293	6220.65
878.41652	6342.55
882.22745	6489.95
886.03573	6587.25
889.84136	6605.05
893.64433	6487.45
897.44466	6348.75
901.24235	6164.45
905.0374	6041.15
908.8298	5956.45
912.61957	5893.35
916.40671	5883.55
920.19121	5873.75
923.97308	5904.95
927.75233	5922.05
931.52895	5961.95
935.30295	5925.25
939.07433	5816.05
942.84309	5683.15
946.60924	5612.55
950.37278	5563.65
954.13371	5512.75
957.89203	5469.85
961.64774	5443.85
965.40086	5389.95
969.15137	5368.65
972.89929	5344.85
976.64461	5332.85
980.38733	5299.05
984.12747	5272.55
987.86502	5277.85
991.59999	5294.05
995.33237	5340.05
999.06217	5410.85
1002.78939	5511.85
1006.51404	5608.05
1010.23611	5708.75
1013.95561	5768.75
1017.67255	5777.25
1021.38692	5746.25
1025.09872	5638.65
1028.80796	5537.35
1032.51465	5420.35
1036.21877	5376.15
1039.92035	5359.45
1043.61937	5349.35
1047.31584	5353.25
1051.00976	5364.05
1054.70114	5362.65
1058.38998	5405.95
1062.07627	5433.45
1065.76003	5470.05
1069.44126	5508.15
1073.11995	5515.95
1076.79611	5544.95
1080.46974	5579.35
1084.14085	5597.75
1087.80943	5649.15
1091.47549	5642.05
1095.13903	5554.55
1098.80005	5432.35
1102.45857	5303.35
1106.11456	5273.65
1109.76805	5337.55
1113.41903	5451.75
1117.06751	5658.35
1120.71348	5953.65
1124.35696	6319.95
1127.99793	6760.85
1131.63641	7076.35
1135.2724	7093.05
1138.90589	6926.65
1142.5369	6669.45
1146.16542	6306.35
1149.79145	5963.15
1153.415	5670.25
1157.03607	5469.45
1160.65467	5383.55
1164.27079	5396.75
1167.88443	5522.35
1171.49561	5758.15
1175.10432	6227.35
1178.71056	6891.85
1182.31434	7452.15
1185.91565	7639.85
1189.51451	7532.15
1193.11091	7270.45
1196.70485	7022.95
1200.29634	6919.75
1203.88538	6785.75
1207.47197	6519.65
1211.05612	6193.55
1214.63782	5940.25
1218.21708	5750.25
1221.79391	5595.55
1225.36829	5504.95
1228.94024	5425.35
1232.50976	5361.85
1236.07685	5299.15
1239.6415	5268.15
1243.20374	5284.65
1246.76355	5300.85
1250.32093	5338.85
1253.8759	5395.95
1257.42845	5499.85
1260.97859	5601.75
1264.52631	5706.35
1268.07163	5836.75
1271.61453	5914.15
1275.15503	5957.55
1278.69312	5957.55
1282.22882	5944.05
1285.76211	5998.45
1289.29301	6113.55
1292.82151	6276.25
1296.34761	6483.75
1299.87133	6754.45
1303.39266	7179.95
1306.9116	7818.45
1310.42815	8549.55
1313.94233	9003.85
1317.45412	8871.35
1320.96354	8308.45
1324.47058	7684.05
1327.97525	7165.85
1331.47754	6817.05
1334.97747	6671.25
1338.47502	6663.35
1341.97022	6791.75
1345.46305	7078.65
1348.95352	7534.45
1352.44163	8247.05
1355.92738	9137.55
1359.41078	10355.95
1362.89183	11522.45
1366.37053	11537.45
1369.84688	10189.15
1373.32088	8621.35
1376.79254	7568.75
1380.26186	7006.45
1383.72883	6701.25
1387.19347	6444.55
1390.65578	6229.45
1394.11575	6021.05
1397.57339	5868.65
1401.0287	5764.55
1404.48168	5667.45
1407.93234	5561.95
1411.38068	5462.25
1414.82669	5332.35
1418.27039	5262.15
1421.71177	5172.55
1425.15083	5122.55
1428.58758	5051.35
1432.02203	5029.05
1435.45416	5034.75
1438.88399	5062.35
1442.31151	5066.35
1445.73673	5054.65
1449.15965	5037.85
1452.58027	5024.75
1455.9986	4989.05
1459.41463	4954.95
1462.82837	4974.65
1466.23982	5037.65
1469.64898	5122.55
1473.05586	5171.85
1476.46045	5213.45
1479.86276	5249.95
1483.26279	5362.75
1486.66054	5480.85
1490.05602	5635.05
1493.44922	5874.05
1496.84016	6229.05
1500.22882	6779.75
1503.61521	7596.75
1506.99934	8542.15
1510.38121	9408.35
1513.76081	9802.25
1517.13816	9357.75
1520.51324	8309.25
1523.88607	7253.45
1527.25665	6489.55
1530.62498	6109.15
1533.99105	5894.25
1537.35488	5777.35
1540.71647	5717.65
1544.07581	5673.05
1547.4329	5692.35
1550.78776	5718.95
1554.14038	5773.45
1557.49077	5843.55
1560.83892	5915.35
1564.18484	6033.25
1567.52853	6188.85
1570.86999	6351.05
1574.20922	6455.65
1577.54624	6447.45
1580.88103	6214.35
1584.2136	5864.65
1587.54395	5567.05
1590.87208	5480.25
1594.19801	5598.95
1597.52172	5859.85
1600.84321	6021.55
1604.16251	5961.55
1607.47959	5802.35
1610.79447	5600.75
1614.10715	5401.15
1617.41763	5252.15
1620.7259	5135.05
1624.03199	5096.95
1627.33587	5105.15
1630.63757	5155.95
1633.93707	5300.15
1637.23439	5501.65
1640.52951	5904.05
1643.82246	6494.45
1647.11321	7207.25
1650.40179	7796.15
1653.68819	7801.15
1656.97241	7148.35
1660.25446	6274.05
1663.53433	5562.05
1666.81203	5105.45
1670.08756	4796.65
1673.36092	4596.35
1676.63211	4443.75
1679.90115	4331.15
1683.16801	4236.55
1686.43272	4165.85
1689.69527	4092.95
1692.95567	4020.95
1696.2139	3956.25
1699.46999	3881.25
1702.72392	3803.85
1705.97571	3730.25
1709.22535	3648.65
1712.47284	3591.55
1715.71819	3544.55
1718.96139	3487.45
1722.20246	3447.45
1725.44139	3393.45
1728.67818	3357.35
1731.91284	3317.25
1735.14537	3288.35
1738.37576	3246.75
1741.60403	3220.35
1744.83017	3215.75
1748.05418	3190.75
1751.27607	3181.45
1754.49584	3166.65
1757.71349	3131.35
1760.92903	3127.95
1764.14244	3109.15
1767.35375	3107.35
1770.56294	3082.55
1773.77002	3064.75
1776.97499	3059.95
1780.17785	3055.25
1783.37861	3043.75
1786.57727	3033.25
1789.77382	3010.85
1792.96828	3012.05
1796.16064	2991.85
1799.3509	2984.65
1802.53907	2968.65
1805.72514	2951.55
1808.90913	2936.95
1812.09102	2933.45
1815.27083	2935.05
1818.44856	2907.65
1821.6242	2896.95
1824.79776	2885.35
1827.96924	2881.15
1831.13864	2865.45
1834.30597	2861.45
1837.47122	2853.35
1840.6344	2845.25
1843.7955	2836.15
1846.95454	2829.95
1850.11151	2827.75
1853.26642	2816.35
1856.41926	2818.05
1859.57004	2806.65
1862.71876	2796.15
1865.86542	2783.75
1869.01003	2791.05
1872.15258	2781.55
1875.29308	2777.15
1878.43152	2770.55
1881.56792	2760.35
1884.70227	2757.65
1887.83457	2747.25
1890.96482	2737.85
1894.09304	2731.55
1897.21921	2736.45
1900.34335	2716.25
1903.46544	2720.75
1906.58551	2702.95
1909.70353	2698.35
1912.81953	2692.15
1915.93349	2690.45
1919.04543	2685.65
1922.15534	2674.05
1925.26322	2656.75
1928.36908	2645.95
1931.47292	2645.05
1934.57473	2630.15
1937.67453	2616.65
1940.77232	2594.45
1943.86808	2591.75
1946.96184	2573.05
1950.05358	2577.25
1953.14331	2568.05
1956.23103	2547.15
1959.31675	2540.85
1962.40046	2526.25
1965.48217	2523.65
1968.56188	2504.65
1971.63959	2501.35
1974.7153	2492.05
1977.78901	2484.25
1980.86073	2483.25
1983.93046	2458.45
1986.99819	2453.35
1990.06394	2441.05
1993.1277	2424.15
1996.18947	2418.85
1999.24925	2407.75
2002.30706	2392.25
2005.36288	2369.85
2008.41672	2365.55
2011.46859	2364.95
2014.51848	2341.45
2017.56639	2349.75
2020.61233	2334.05
2023.6563	2322.75
2026.6983	2311.65
2029.73833	2310.95
2032.7764	2303.15
2035.8125	2294.65
2038.84664	2281.45
2041.87881	2270.55
2044.90903	2271.15
2047.93729	2255.75
2050.96359	2264.15
2053.98794	2251.65
2057.01034	2240.35
2060.03078	2232.35
2063.04927	2249.85
2066.06582	2238.75
2069.08042	2231.15
2072.09307	2216.95
2075.10378	2220.05
2078.11255	2226.45
2081.11938	2221.65
2084.12426	2217.85
2087.12722	2226.65
2090.12824	2214.75
2093.12732	2200.25
2096.12447	2189.45
2099.11969	2192.75
2102.11299	2188.75
2105.10435	2189.05
2108.09379	2186.95
2111.08131	2189.35
2114.0669	2187.35
2117.05057	2190.95
2120.03233	2196.25
2123.01216	2198.25
2125.99008	2191.55
2128.96609	2189.65
2131.94018	2199.45
2134.91236	2187.95
2137.88263	2185.45
2140.851	2169.35
2143.81746	2182.25
2146.78201	2172.15
2149.74466	2177.05
2152.7054	2154.85
2155.66425	2158.95
2158.6212	2156.05
2161.57625	2153.05
2164.52941	2143.15
2167.48067	2139.75
2170.43004	2146.25
2173.37752	2142.55
2176.32311	2131.55
2179.26681	2131.55
2182.20863	2125.35
2185.14856	2122.35
2188.08661	2121.35
2191.02278	2107.65
2193.95707	2106.05
2196.88948	2116.35
2199.82001	2102.35
2202.74867	2092.35
2205.67545	2090.05
2208.60037	2084.85
2211.52341	2084.05
2214.44458	2070.95
2217.36388	2068.85
2220.28132	2057.25
2223.1969	2058.75
2226.11061	2054.65
2229.02246	2043.55
2231.93245	2025.65
2234.84058	2018.35
2237.74686	2026.85
2240.65128	2014.75
2243.55385	2008.15
2246.45456	2009.25
2249.35343	1998.65
2252.25044	1993.55
2255.14561	1981.95
2258.03893	1989.55
2260.93041	1984.65
2263.82004	1987.25
2266.70783	1979.75
2269.59378	1961.15
2272.4779	1955.45
2275.36017	1951.85
2278.24061	1942.25
2281.11922	1936.65
2283.996	1935.35
2286.87094	1929.75
2289.74405	1924.85
2292.61534	1904.75
2295.4848	1907.75
2298.35243	1901.75
2301.21824	1908.45
2304.08223	1903.05
2306.94439	1894.15
2309.80474	1887.45
2312.66327	1877.05
2315.51999	1880.45
2318.37489	1879.75
2321.22797	1885.45
2324.07925	1870.35
2326.92871	1860.85
2329.77637	1859.05
2332.62222	1860.25
2335.46626	1843.85
2338.3085	1832.55
2341.14893	1832.65
2343.98756	1837.25
2346.8244	1821.55
2349.65943	1827.25
2352.49267	1820.75
2355.32411	1826.65
2358.15376	1829.65
2360.98161	1828.55
2363.80768	1829.25
2366.63195	1839.45
2369.45444	1826.45
2372.27514	1831.75
2375.09405	1824.95
2377.91118	1823.85
2380.72652	1809.35
2383.54009	1797.05
2386.35187	1790.35
2389.16188	1780.35
2391.97011	1779.45
2394.77657	1751.95
2397.58125	1753.85
2400.38416	1749.25
2403.18529	1747.45
2405.98466	1747.35
2408.78226	1739.95
2411.57809	1734.45
2414.37216	1718.55
2417.16446	1726.05
2419.955	1714.45
2422.74378	1719.95
2425.5308	1707.75
2428.31606	1717.75
2431.09956	1707.25
2433.88131	1700.45
2436.6613	1702.75
2439.43954	1694.85
2442.21603	1705.55
2444.99077	1685.45
2447.76377	1691.85
2450.53501	1684.55
2453.30451	1685.45
2456.07226	1673.05
2458.83827	1674.15
2461.60254	1674.45
2464.36507	1668.35
2467.12586	1669.85
2469.88492	1660.95
2472.64224	1660.25
2475.39782	1664.85
2478.15167	1652.15
2480.90379	1658.55
2483.65417	1658.75
2486.40283	1670.85
2489.14976	1660.45
2491.89497	1660.15
2494.63845	1656.85
2497.3802	1653.75
2500.12024	1658.95
2502.85855	1642.65
2505.59514	1640.25
2508.33002	1625.65
2511.06318	1628.15
2513.79462	1608.55
2516.52435	1610.15
2519.25237	1610.55
2521.97867	1606.65
2524.70327	1595.85
2527.42616	1589.45
2530.14734	1577.75
2532.86681	1565.45
2535.58458	1576.75
2538.30065	1565.85
2541.01501	1563.95
2543.72768	1555.15
2546.43864	1552.85
2549.14791	1547.35
2551.85548	1544.65
2554.56136	1542.75
2557.26554	1541.35
2559.96803	1543.05
2562.66883	1539.65
2565.36794	1533.25
2568.06536	1517.85
2570.7611	1520.25
2573.45514	1523.25
2576.14751	1519.35
2578.83819	1508.95
2581.52719	1508.15
2584.21451	1500.65
2586.90015	1492.35
2589.58411	1500.65
2592.2664	1494.25
2594.94701	1488.65
2597.62594	1475.85
2600.30321	1461.75
2602.9788	1470.45
2605.65273	1454.65
2608.32498	1473.75
2610.99557	1469.35
2613.66449	1454.85
2616.33175	1462.85
2618.99734	1452.65
2621.66128	1463.45
2624.32355	1447.25
2626.98416	1446.75
2629.64311	1434.65
2632.30041	1434.35
2634.95605	1435.65
2637.61004	1434.05
2640.26238	1429.95
2642.91306	1417.15
2645.56209	1429.15
2648.20948	1418.45
2650.85521	1427.55
2653.4993	1418.95
2656.14175	1416.45
2658.78255	1416.75
2661.42171	1415.85
2664.05923	1416.05
2666.6951	1420.95
2669.32934	1422.55
2671.96194	1413.85
2674.59291	1420.35
2677.22224	1412.05
2679.84993	1411.45
2682.476	1414.35
2685.10043	1412.95
2687.72324	1412.35
2690.34441	1408.75
2692.96396	1418.55
2695.58188	1409.15
2698.19818	1398.85
2700.81285	1410.95
2703.4259	1406.95
2706.03733	1412.65
2708.64714	1399.95
2711.25533	1399.85
2713.86191	1401.95
2716.46687	1407.85
2719.07021	1407.25
2721.67194	1413.95
2724.27206	1407.95
2726.87057	1420.05
2729.46747	1406.65
2732.06276	1406.85
2734.65644	1413.95
2737.24852	1405.35
2739.83899	1386.55
2742.42786	1401.15
2745.01513	1387.65
2747.60079	1381.65
2750.18486	1383.85
2752.76733	1377.95
2755.3482	1383.85
2757.92747	1385.15
2760.50515	1372.05
2763.08123	1374.65
2765.65573	1372.25
2768.22863	1363.65
2770.79994	1367.35
2773.36967	1359.35
2775.9378	1354.65
2778.50435	1358.15
2781.06932	1359.35
2783.6327	1353.85
2786.1945	1356.45
2788.75471	1364.15
2791.31335	1355.25
2793.87041	1354.65
2796.42589	1353.25
2798.97979	1353.25
2801.53212	1349.65
2804.08288	1351.85
2806.63206	1343.35
2809.17967	1345.15
2811.72571	1331.25
2814.27018	1334.55
2816.81308	1328.65
2819.35442	1336.55
2821.89419	1324.25
2824.43239	1334.95
2826.96904	1340.95
2829.50412	1335.35
2832.03763	1340.15
2834.56959	1328.25
2837.1	1341.25
2839.62884	1347.55
2842.15613	1351.75
2844.68186	1369.75
2847.20604	1372.65
2849.72867	1391.65
2852.24974	1379.15
2854.76927	1388.55
2857.28724	1387.15
2859.80367	1380.85
2862.31855	1378.75
2864.83189	1385.05
2867.34368	1372.55
2869.85393	1387.65
2872.36264	1377.65
2874.8698	1389.55
2877.37543	1381.05
2879.87952	1388.65
2882.38207	1383.55
2884.88308	1377.45
2887.38256	1380.85
2889.88051	1378.45
2892.37692	1379.55
2894.8718	1378.85
2897.36515	1376.05
2899.85698	1377.65
2902.34727	1383.95
2904.83604	1376.55
2907.32328	1384.25
2909.809	1394.25
2912.29319	1394.25
2914.77587	1399.45
2917.25702	1395.35
2919.73665	1401.25
2922.21476	1393.65
2924.69136	1387.15
2927.16644	1393.35
2929.64	1388.75
2932.11205	1380.75
2934.58258	1377.45
2937.05161	1380.65
2939.51912	1371.95
2941.98513	1364.25
2944.44962	1339.95
2946.91261	1339.05
2949.37409	1337.75
2951.83407	1321.05
2954.29254	1314.85
2956.74951	1304.85
2959.20498	1304.65
2961.65895	1300.45
2964.11142	1294.55
2966.56239	1280.75
2969.01186	1255.15
2971.45984	1274.15
2973.90632	1281.95
2976.35131	1279.65
2978.7948	1272.05
2981.23681	1267.05
2983.67732	1259.25
2986.11635	1248.65
2988.55388	1252.85
2990.98993	1259.95
2993.4245	1255.75
2995.85758	1243.05
2998.28917	1239.95
3000.71928	1246.95
3003.14791	1238.85
3005.57506	1241.05
3008.00073	1246.85
3010.42493	1236.35
3012.84764	1242.95
3015.26888	1242.15
3017.68865	1236.45
3020.10694	1241.95
3022.52376	1244.55
3024.9391	1243.45
3027.35298	1238.05
3029.76539	1232.85
3032.17632	1237.55
3034.5858	1235.25
3036.9938	1241.55
3039.40034	1234.85
3041.80542	1238.95
3044.20903	1233.05
3046.61118	1247.55
3049.01187	1239.95
3051.4111	1237.15
3053.80888	1247.65
3056.20519	1244.25
3058.60005	1239.55
3060.99345	1244.05
3063.3854	1244.75
3065.7759	1248.65
3068.16494	1244.25
3070.55254	1242.25
3072.93868	1240.25
3075.32338	1257.15
3077.70662	1255.95
3080.08842	1256.35
3082.46878	1249.05
3084.84769	1255.65
3087.22515	1256.35
3089.60118	1268.25
3091.97576	1262.95
3094.3489	1268.85
3096.72061	1265.15
3099.09087	1278.15
3101.4597	1283.85
3103.82709	1294.05
3106.19305	1305.35
3108.55757	1303.65
3110.92066	1295.25
3113.28232	1308.45
3115.64255	1312.85
3118.00134	1302.35
3120.35871	1313.45
3122.71466	1315.85
3125.06917	1324.45
3127.42226	1323.95
3129.77393	1340.55
3132.12417	1334.55
3134.47299	1346.35
3136.82039	1349.55
3139.16636	1362.05
3141.51092	1365.85
3143.85406	1371.35
3146.19579	1379.65
3148.53609	1392.15
3150.87499	1399.45
3153.21246	1404.65
3155.54853	1408.85
3157.88318	1409.85
3160.21642	1426.75
3162.54826	1438.25
3164.87868	1442.55
3167.2077	1445.75
3169.5353	1460.45
3171.86151	1456.95
3174.18631	1481.15
3176.5097	1468.35
3178.83169	1472.65
3181.15228	1477.45
3183.47147	1485.25
3185.78926	1489.55
3188.10565	1484.75
3190.42065	1503.65
3192.73424	1508.05
3195.04645	1512.35
3197.35725	1510.25
3199.66667	1514.65
3201.97469	1530.25
3204.28132	1527.85
3206.58656	1534.15
3208.8904	1540.65
3211.19287	1540.85
3213.49394	1562.05
3215.79363	1556.65
3218.09193	1559.85
3220.38884	1561.75
3222.68438	1573.35
3224.97853	1573.85
3227.2713	1569.65
3229.56269	1573.75
3231.8527	1577.55
3234.14133	1591.85
3236.42858	1570.65
3238.71446	1578.35
3240.99896	1571.45
3243.28209	1563.65
3245.56384	1555.75
3247.84423	1577.35
3250.12324	1581.35
3252.40088	1569.55
3254.67715	1571.45
3256.95205	1571.65
3259.22558	1573.25
3261.49775	1575.55
3263.76855	1565.05
3266.03799	1566.65
3268.30606	1577.35
3270.57277	1564.85
3272.83812	1562.85
3275.10211	1563.75
3277.36474	1564.35
3279.62601	1560.85
3281.88593	1555.15
3284.14448	1561.15
3286.40168	1553.75
3288.65753	1561.45
3290.91202	1554.05
3293.16516	1552.35
3295.41695	1554.95
3297.66738	1543.65
3299.91647	1546.25
3302.16421	1532.65
3304.4106	1523.25
3306.65564	1518.75
3308.89933	1501.75
3311.14169	1498.55
3313.38269	1498.35
3315.62236	1485.95
3317.86068	1468.65
3320.09766	1465.55
3322.3333	1454.35
3324.5676	1454.85
3326.80056	1435.95
3329.03219	1426.65
3331.26248	0.95
3333.49143	-0.45
3335.71905	0.25
