Data from AgNPs_APTES_FTO_UA_50uM_CRN_0uM_R6G_10uM_Scan_RamanShift__66__12-28-03-738.txt Node

Date: Tue Jul 05 12:28:03 BST 2022
User: TCL
Spectrometer: QEP01345
Trigger mode: 4
Integration Time (sec): 7.000000E0
Scans to average: 10
Electric dark correction enabled: true
Nonlinearity correction enabled: false
Boxcar width: 0
XAxis mode: Raman Shifts
Number of Pixels in Spectrum: 1044
>>>>>Begin Spectral Data<<<<<
46.04893	-0.45
50.45542	-0.15
54.85868	-1.25
59.25871	0.95
63.6555	39.35
68.04907	43.85
72.43941	45.25
76.82654	46.65
81.21044	50.55
85.59113	55.25
89.96862	52.15
94.34289	54.65
98.71396	57.65
103.08183	63.55
107.4465	61.25
111.80798	62.45
116.16626	61.45
120.52136	64.25
124.87327	66.65
129.222	64.45
133.56755	71.15
137.90993	68.35
142.24913	73.65
146.58517	80.25
150.91804	86.95
155.24774	100.55
159.57429	122.55
163.89768	147.15
168.21792	191.15
172.53501	251.65
176.84895	351.25
181.15975	489.65
185.46741	680.05
189.77193	939.05
194.07331	1250.65
198.37157	1615.05
202.6667	1996.45
206.9587	2363.75
211.24758	2727.35
215.53334	3086.05
219.81599	3449.75
224.09553	3838.75
228.37195	4275.75
232.64527	4776.95
236.91549	5323.65
241.18261	5870.35
245.44663	6434.35
249.70755	6999.35
253.96539	7467.05
258.22014	7860.35
262.4718	8142.25
266.72039	8370.55
270.96589	8437.95
275.20832	8428.15
279.44768	8343.75
283.68397	8237.05
287.91719	8089.55
292.14735	7978.05
296.37445	7885.85
300.59849	7792.75
304.81948	7727.85
309.03742	7673.15
313.25231	7678.95
317.46415	7640.05
321.67296	7639.55
325.87872	7627.05
330.08145	7671.65
334.28114	7701.65
338.47781	7790.85
342.67145	7880.25
346.86207	7994.95
351.04966	8100.85
355.23424	8184.95
359.4158	8285.35
363.59435	8381.05
367.76989	8501.65
371.94243	8589.85
376.11196	8664.15
380.27849	8724.45
384.44203	8794.55
388.60257	8901.75
392.76012	8949.15
396.91468	9032.25
401.06626	9084.35
405.21485	9169.85
409.36047	9217.05
413.50311	9250.35
417.64277	9262.45
421.77947	9294.75
425.9132	9316.25
430.04396	9392.55
434.17176	9465.65
438.2966	9541.35
442.41849	9613.85
446.53742	9709.35
450.6534	9799.05
454.76644	9856.25
458.87653	9932.35
462.98368	9971.85
467.08789	10016.55
471.18916	10040.25
475.2875	10037.35
479.38291	10030.15
483.4754	10031.55
487.56496	10054.55
491.6516	10069.05
495.73531	10093.85
499.81612	10092.65
503.89401	10147.35
507.96899	10161.05
512.04106	10210.05
516.11023	10255.75
520.1765	10266.85
524.23987	10304.75
528.30034	10315.05
532.35792	10339.35
536.41261	10357.25
540.46441	10356.95
544.51333	10375.35
548.55936	10411.85
552.60252	10436.85
556.64279	10523.35
560.6802	10564.45
564.71473	10598.85
568.7464	10624.35
572.7752	10670.85
576.80114	10707.85
580.82422	10741.75
584.84444	10792.75
588.86181	10885.45
592.87633	10961.95
596.888	11017.85
600.89682	11073.15
604.9028	11169.65
608.90594	11415.65
612.90624	11632.25
616.90371	11487.85
620.89834	11132.75
624.89015	11001.55
628.87913	10973.35
632.86528	11025.55
636.84862	11061.55
640.82913	11082.35
644.80683	11025.75
648.78172	11011.15
652.75379	11010.85
656.72306	11094.35
660.68952	11160.45
664.65319	11203.45
668.61405	11258.55
672.57211	11283.65
676.52738	11348.55
680.47986	11395.45
684.42955	11420.65
688.37646	11493.65
692.32058	11548.65
696.26192	11566.15
700.20048	11607.15
704.13626	11635.35
708.06928	11649.45
711.99952	11659.85
715.927	11663.15
719.85171	11662.35
723.77365	11633.45
727.69284	11577.65
731.60928	11553.95
735.52295	11596.85
739.43388	11578.15
743.34206	11607.35
747.24749	11645.35
751.15017	11658.55
755.05012	11687.95
758.94733	11743.25
762.8418	11831.25
766.73354	11975.25
770.62254	12165.95
774.50882	12244.65
778.39237	12246.35
782.27321	12131.05
786.15132	11981.15
790.02671	11896.05
793.89938	11805.35
797.76935	11816.15
801.6366	11797.25
805.50115	11780.85
809.36299	11752.15
813.22213	11785.95
817.07857	11770.15
820.93231	11796.65
824.78336	11812.25
828.63172	11841.35
832.47738	11862.35
836.32036	11847.45
840.16066	11886.75
843.99827	11926.55
847.8332	11967.75
851.66546	11955.75
855.49504	11980.45
859.32195	11994.05
863.1462	12019.65
866.96777	12023.75
870.78668	12055.75
874.60293	12064.65
878.41652	12099.85
882.22745	12116.25
886.03573	12137.55
889.84136	12143.85
893.64433	12185.15
897.44466	12163.55
901.24235	12209.35
905.0374	12229.45
908.8298	12250.75
912.61957	12275.15
916.40671	12291.35
920.19121	12279.85
923.97308	12298.85
927.75233	12292.75
931.52895	12251.75
935.30295	12243.35
939.07433	12195.05
942.84309	12133.65
946.60924	12117.25
950.37278	12110.75
954.13371	12107.35
957.89203	12087.55
961.64774	12090.05
965.40086	12041.65
969.15137	12062.65
972.89929	12035.85
976.64461	12044.45
980.38733	12069.15
984.12747	12024.25
987.86502	12017.25
991.59999	12045.75
995.33237	12103.25
999.06217	12135.55
1002.78939	12184.45
1006.51404	12220.65
1010.23611	12268.55
1013.95561	12338.65
1017.67255	12354.25
1021.38692	12324.65
1025.09872	12337.35
1028.80796	12255.25
1032.51465	12224.65
1036.21877	12249.45
1039.92035	12269.05
1043.61937	12255.15
1047.31584	12305.75
1051.00976	12317.05
1054.70114	12343.55
1058.38998	12378.45
1062.07627	12413.85
1065.76003	12434.65
1069.44126	12438.25
1073.11995	12464.35
1076.79611	12530.45
1080.46974	12614.05
1084.14085	12575.25
1087.80943	12581.15
1091.47549	12561.35
1095.13903	12582.15
1098.80005	12583.75
1102.45857	12578.05
1106.11456	12578.95
1109.76805	12513.95
1113.41903	12480.25
1117.06751	12469.65
1120.71348	12481.85
1124.35696	12477.25
1127.99793	12479.25
1131.63641	12523.15
1135.2724	12484.45
1138.90589	12495.85
1142.5369	12473.25
1146.16542	12437.55
1149.79145	12467.25
1153.415	12408.55
1157.03607	12378.85
1160.65467	12382.25
1164.27079	12460.85
1167.88443	12491.45
1171.49561	12598.45
1175.10432	12724.85
1178.71056	12886.35
1182.31434	13042.05
1185.91565	13158.15
1189.51451	13266.35
1193.11091	13315.55
1196.70485	13252.05
1200.29634	13219.95
1203.88538	13131.15
1207.47197	13040.55
1211.05612	12946.85
1214.63782	12917.15
1218.21708	12854.35
1221.79391	12798.05
1225.36829	12766.35
1228.94024	12731.75
1232.50976	12720.85
1236.07685	12726.75
1239.6415	12700.75
1243.20374	12697.75
1246.76355	12723.65
1250.32093	12791.55
1253.8759	12835.65
1257.42845	12922.95
1260.97859	12967.05
1264.52631	13038.85
1268.07163	13098.05
1271.61453	13152.65
1275.15503	13191.65
1278.69312	13191.75
1282.22882	13230.65
1285.76211	13254.95
1289.29301	13268.05
1292.82151	13325.95
1296.34761	13382.45
1299.87133	13510.55
1303.39266	13590.45
1306.9116	13723.35
1310.42815	13909.75
1313.94233	14027.95
1317.45412	14050.25
1320.96354	14049.35
1324.47058	13978.25
1327.97525	13863.85
1331.47754	13786.75
1334.97747	13712.35
1338.47502	13719.65
1341.97022	13838.55
1345.46305	14015.35
1348.95352	14144.55
1352.44163	14199.85
1355.92738	14174.15
1359.41078	14173.15
1362.89183	14104.65
1366.37053	13943.95
1369.84688	13684.55
1373.32088	13399.15
1376.79254	13139.85
1380.26186	12995.95
1383.72883	12895.75
1387.19347	12787.75
1390.65578	12690.65
1394.11575	12618.55
1397.57339	12553.95
1401.0287	12525.65
1404.48168	12519.95
1407.93234	12481.15
1411.38068	12473.05
1414.82669	12411.65
1418.27039	12349.55
1421.71177	12296.15
1425.15083	12214.05
1428.58758	12214.55
1432.02203	12191.35
1435.45416	12165.95
1438.88399	12178.65
1442.31151	12180.95
1445.73673	12179.25
1449.15965	12166.15
1452.58027	12198.65
1455.9986	12167.45
1459.41463	12223.75
1462.82837	12276.85
1466.23982	12325.45
1469.64898	12422.75
1473.05586	12458.15
1476.46045	12497.65
1479.86276	12520.55
1483.26279	12564.95
1486.66054	12561.05
1490.05602	12598.35
1493.44922	12655.75
1496.84016	12749.25
1500.22882	12859.65
1503.61521	13026.05
1506.99934	13102.05
1510.38121	13144.45
1513.76081	13126.95
1517.13816	13052.25
1520.51324	12944.05
1523.88607	12850.15
1527.25665	12817.35
1530.62498	12740.45
1533.99105	12744.35
1537.35488	12742.55
1540.71647	12724.05
1544.07581	12738.05
1547.4329	12707.35
1550.78776	12674.35
1554.14038	12670.45
1557.49077	12688.45
1560.83892	12679.75
1564.18484	12693.55
1567.52853	12736.95
1570.86999	12704.95
1574.20922	12759.15
1577.54624	12769.75
1580.88103	12718.25
1584.2136	12684.95
1587.54395	12628.95
1590.87208	12688.95
1594.19801	12779.15
1597.52172	12921.75
1600.84321	12985.65
1604.16251	12958.65
1607.47959	12845.35
1610.79447	12675.65
1614.10715	12475.25
1617.41763	12250.85
1620.7259	12111.95
1624.03199	11995.15
1627.33587	11965.65
1630.63757	11958.65
1633.93707	12026.75
1637.23439	12129.25
1640.52951	12313.15
1643.82246	12552.95
1647.11321	12762.15
1650.40179	12839.55
1653.68819	12686.35
1656.97241	12389.05
1660.25446	12078.85
1663.53433	11809.25
1666.81203	11675.75
1670.08756	11526.15
1673.36092	11444.55
1676.63211	11349.95
1679.90115	11328.45
1683.16801	11267.45
1686.43272	11231.35
1689.69527	11216.85
1692.95567	11191.35
1696.2139	11170.75
1699.46999	11189.25
1702.72392	11148.45
1705.97571	11146.45
1709.22535	11152.65
1712.47284	11187.15
1715.71819	11187.45
1718.96139	11155.75
1722.20246	11151.05
1725.44139	11111.85
1728.67818	11099.05
1731.91284	11050.95
1735.14537	11001.15
1738.37576	10965.95
1741.60403	10932.15
1744.83017	10927.75
1748.05418	10914.05
1751.27607	10916.35
1754.49584	10880.95
1757.71349	10844.25
1760.92903	10828.15
1764.14244	10796.55
1767.35375	10812.65
1770.56294	10798.85
1773.77002	10778.65
1776.97499	10779.25
1780.17785	10790.25
1783.37861	10798.05
1786.57727	10789.05
1789.77382	10722.35
1792.96828	10739.95
1796.16064	10705.65
1799.3509	10678.55
1802.53907	10675.25
1805.72514	10616.75
1808.90913	10635.25
1812.09102	10632.25
1815.27083	10584.95
1818.44856	10598.15
1821.6242	10568.05
1824.79776	10560.65
1827.96924	10561.35
1831.13864	10536.55
1834.30597	10544.65
1837.47122	10496.15
1840.6344	10475.05
1843.7955	10469.05
1846.95454	10453.95
1850.11151	10479.85
1853.26642	10467.05
1856.41926	10468.95
1859.57004	10493.05
1862.71876	10459.05
1865.86542	10430.55
1869.01003	10460.25
1872.15258	10430.55
1875.29308	10390.55
1878.43152	10384.15
1881.56792	10378.45
1884.70227	10334.85
1887.83457	10344.75
1890.96482	10307.85
1894.09304	10319.45
1897.21921	10288.85
1900.34335	10252.65
1903.46544	10245.85
1906.58551	10250.75
1909.70353	10232.75
1912.81953	10205.25
1915.93349	10225.25
1919.04543	10204.15
1922.15534	10186.15
1925.26322	10148.45
1928.36908	10147.85
1931.47292	10124.85
1934.57473	10103.85
1937.67453	10079.05
1940.77232	10035.65
1943.86808	10012.95
1946.96184	10003.75
1950.05358	9959.75
1953.14331	9932.95
1956.23103	9932.85
1959.31675	9880.25
1962.40046	9853.85
1965.48217	9822.85
1968.56188	9793.45
1971.63959	9740.75
1974.7153	9707.85
1977.78901	9689.05
1980.86073	9680.25
1983.93046	9657.05
1986.99819	9602.85
1990.06394	9592.35
1993.1277	9560.25
1996.18947	9534.75
1999.24925	9484.05
2002.30706	9463.05
2005.36288	9438.45
2008.41672	9413.25
2011.46859	9353.45
2014.51848	9372.25
2017.56639	9340.05
2020.61233	9314.25
2023.6563	9303.15
2026.6983	9233.75
2029.73833	9212.95
2032.7764	9184.55
2035.8125	9168.25
2038.84664	9141.25
2041.87881	9133.85
2044.90903	9122.95
2047.93729	9092.05
2050.96359	9069.35
2053.98794	9048.25
2057.01034	9044.75
2060.03078	9024.45
2063.04927	9052.45
2066.06582	9036.25
2069.08042	9008.35
2072.09307	8987.55
2075.10378	8992.65
2078.11255	8993.45
2081.11938	9004.85
2084.12426	9007.35
2087.12722	8988.65
2090.12824	8963.15
2093.12732	8943.55
2096.12447	8956.35
2099.11969	8957.35
2102.11299	8965.25
2105.10435	8960.25
2108.09379	8972.05
2111.08131	8974.85
2114.0669	8969.85
2117.05057	8982.05
2120.03233	8989.85
2123.01216	8992.35
2125.99008	8998.25
2128.96609	9012.25
2131.94018	9008.05
2134.91236	9029.85
2137.88263	9042.15
2140.851	9032.35
2143.81746	9052.75
2146.78201	9020.75
2149.74466	9008.75
2152.7054	9015.65
2155.66425	9015.25
2158.6212	8986.05
2161.57625	8984.75
2164.52941	8993.65
2167.48067	8980.65
2170.43004	9020.55
2173.37752	8991.35
2176.32311	8992.65
2179.26681	8970.95
2182.20863	8968.65
2185.14856	8975.05
2188.08661	8970.45
2191.02278	8962.05
2193.95707	8948.15
2196.88948	8958.75
2199.82001	8972.25
2202.74867	8935.85
2205.67545	8900.45
2208.60037	8887.95
2211.52341	8873.45
2214.44458	8861.85
2217.36388	8822.35
2220.28132	8809.65
2223.1969	8776.75
2226.11061	8806.45
2229.02246	8772.95
2231.93245	8723.25
2234.84058	8713.55
2237.74686	8707.85
2240.65128	8725.85
2243.55385	8681.25
2246.45456	8675.45
2249.35343	8634.05
2252.25044	8660.45
2255.14561	8627.15
2258.03893	8623.45
2260.93041	8602.25
2263.82004	8596.15
2266.70783	8558.55
2269.59378	8518.45
2272.4779	8479.75
2275.36017	8480.95
2278.24061	8436.75
2281.11922	8438.15
2283.996	8431.75
2286.87094	8407.55
2289.74405	8401.05
2292.61534	8352.65
2295.4848	8343.95
2298.35243	8345.15
2301.21824	8367.25
2304.08223	8334.15
2306.94439	8338.05
2309.80474	8314.45
2312.66327	8317.25
2315.51999	8302.15
2318.37489	8305.25
2321.22797	8292.15
2324.07925	8262.55
2326.92871	8229.75
2329.77637	8236.15
2332.62222	8219.25
2335.46626	8183.85
2338.3085	8162.15
2341.14893	8164.25
2343.98756	8152.95
2346.8244	8120.85
2349.65943	8104.55
2352.49267	8087.15
2355.32411	8095.75
2358.15376	8095.05
2360.98161	8090.85
2363.80768	8075.75
2366.63195	8090.75
2369.45444	8060.35
2372.27514	8070.35
2375.09405	8067.75
2377.91118	8005.95
2380.72652	7993.55
2383.54009	8002.25
2386.35187	7974.05
2389.16188	7942.95
2391.97011	7940.75
2394.77657	7909.55
2397.58125	7887.05
2400.38416	7879.65
2403.18529	7865.85
2405.98466	7864.75
2408.78226	7829.45
2411.57809	7811.05
2414.37216	7820.55
2417.16446	7807.15
2419.955	7791.65
2422.74378	7798.45
2425.5308	7789.25
2428.31606	7804.15
2431.09956	7781.25
2433.88131	7732.65
2436.6613	7742.15
2439.43954	7737.55
2442.21603	7721.85
2444.99077	7691.25
2447.76377	7717.35
2450.53501	7692.75
2453.30451	7660.15
2456.07226	7632.05
2458.83827	7645.95
2461.60254	7627.95
2464.36507	7623.55
2467.12586	7605.95
2469.88492	7578.95
2472.64224	7561.05
2475.39782	7576.55
2478.15167	7581.85
2480.90379	7571.65
2483.65417	7572.45
2486.40283	7549.25
2489.14976	7554.55
2491.89497	7531.65
2494.63845	7499.65
2497.3802	7516.75
2500.12024	7479.65
2502.85855	7482.85
2505.59514	7510.25
2508.33002	7481.25
2511.06318	7462.45
2513.79462	7426.25
2516.52435	7429.35
2519.25237	7428.85
2521.97867	7412.45
2524.70327	7415.15
2527.42616	7379.55
2530.14734	7377.05
2532.86681	7363.85
2535.58458	7338.15
2538.30065	7348.75
2541.01501	7313.65
2543.72768	7304.55
2546.43864	7273.25
2549.14791	7240.15
2551.85548	7248.05
2554.56136	7245.55
2557.26554	7215.25
2559.96803	7218.95
2562.66883	7205.55
2565.36794	7179.85
2568.06536	7141.95
2570.7611	7149.35
2573.45514	7124.55
2576.14751	7124.85
2578.83819	7112.65
2581.52719	7077.85
2584.21451	7076.15
2586.90015	7063.15
2589.58411	7053.35
2592.2664	7027.45
2594.94701	6992.75
2597.62594	6992.15
2600.30321	6952.25
2602.9788	6957.25
2605.65273	6927.95
2608.32498	6913.15
2610.99557	6923.85
2613.66449	6914.55
2616.33175	6892.45
2618.99734	6905.25
2621.66128	6885.15
2624.32355	6856.15
2626.98416	6861.75
2629.64311	6837.45
2632.30041	6823.65
2634.95605	6797.55
2637.61004	6830.45
2640.26238	6806.05
2642.91306	6792.95
2645.56209	6768.75
2648.20948	6766.95
2650.85521	6756.65
2653.4993	6760.55
2656.14175	6746.55
2658.78255	6740.05
2661.42171	6743.95
2664.05923	6741.65
2666.6951	6735.35
2669.32934	6743.55
2671.96194	6707.05
2674.59291	6704.95
2677.22224	6687.95
2679.84993	6720.65
2682.476	6690.15
2685.10043	6709.05
2687.72324	6694.45
2690.34441	6686.75
2692.96396	6672.65
2695.58188	6679.25
2698.19818	6691.15
2700.81285	6664.25
2703.4259	6650.55
2706.03733	6659.85
2708.64714	6634.35
2711.25533	6653.65
2713.86191	6647.35
2716.46687	6643.35
2719.07021	6639.75
2721.67194	6645.95
2724.27206	6640.55
2726.87057	6650.45
2729.46747	6631.45
2732.06276	6633.25
2734.65644	6617.85
2737.24852	6612.15
2739.83899	6606.75
2742.42786	6601.55
2745.01513	6591.45
2747.60079	6590.85
2750.18486	6564.35
2752.76733	6561.95
2755.3482	6530.05
2757.92747	6531.65
2760.50515	6531.85
2763.08123	6531.85
2765.65573	6493.55
2768.22863	6491.95
2770.79994	6462.65
2773.36967	6462.15
2775.9378	6466.35
2778.50435	6430.45
2781.06932	6408.15
2783.6327	6418.55
2786.1945	6411.25
2788.75471	6400.05
2791.31335	6377.05
2793.87041	6357.05
2796.42589	6364.05
2798.97979	6325.95
2801.53212	6310.15
2804.08288	6291.45
2806.63206	6282.75
2809.17967	6245.75
2811.72571	6257.65
2814.27018	6231.85
2816.81308	6190.45
2819.35442	6189.35
2821.89419	6172.55
2824.43239	6157.15
2826.96904	6141.25
2829.50412	6151.75
2832.03763	6143.35
2834.56959	6129.05
2837.1	6104.95
2839.62884	6095.95
2842.15613	6091.15
2844.68186	6100.25
2847.20604	6076.15
2849.72867	6076.15
2852.24974	6051.65
2854.76927	6056.95
2857.28724	6036.65
2859.80367	6036.65
2862.31855	6009.65
2864.83189	6019.05
2867.34368	6007.65
2869.85393	5977.55
2872.36264	5959.65
2874.8698	5963.85
2877.37543	5979.55
2879.87952	5983.25
2882.38207	5982.25
2884.88308	5953.55
2887.38256	5947.55
2889.88051	5942.55
2892.37692	5937.05
2894.8718	5942.25
2897.36515	5931.85
2899.85698	5923.65
2902.34727	5943.85
2904.83604	5915.45
2907.32328	5932.85
2909.809	5936.05
2912.29319	5933.25
2914.77587	5932.35
2917.25702	5933.15
2919.73665	5919.75
2922.21476	5902.85
2924.69136	5905.45
2927.16644	5885.05
2929.64	5888.35
2932.11205	5869.65
2934.58258	5880.85
2937.05161	5849.15
2939.51912	5872.85
2941.98513	5881.35
2944.44962	5860.45
2946.91261	5840.75
2949.37409	5848.35
2951.83407	5850.55
2954.29254	5846.85
2956.74951	5827.85
2959.20498	5839.65
2961.65895	5815.65
2964.11142	5828.95
2966.56239	5825.15
2969.01186	5776.45
2971.45984	5812.35
2973.90632	5823.75
2976.35131	5790.95
2978.7948	5792.35
2981.23681	5786.75
2983.67732	5769.35
2986.11635	5753.55
2988.55388	5753.35
2990.98993	5751.95
2993.4245	5747.75
2995.85758	5737.35
2998.28917	5721.75
3000.71928	5704.85
3003.14791	5681.25
3005.57506	5670.55
3008.00073	5649.85
3010.42493	5659.45
3012.84764	5669.65
3015.26888	5649.85
3017.68865	5630.15
3020.10694	5638.95
3022.52376	5614.25
3024.9391	5633.15
3027.35298	5600.95
3029.76539	5603.55
3032.17632	5599.85
3034.5858	5597.65
3036.9938	5582.55
3039.40034	5554.25
3041.80542	5565.05
3044.20903	5545.35
3046.61118	5563.25
3049.01187	5537.55
3051.4111	5529.35
3053.80888	5534.45
3056.20519	5517.65
3058.60005	5521.15
3060.99345	5508.25
3063.3854	5487.95
3065.7759	5476.15
3068.16494	5453.65
3070.55254	5446.35
3072.93868	5425.25
3075.32338	5410.55
3077.70662	5427.25
3080.08842	5389.65
3082.46878	5390.85
3084.84769	5387.75
3087.22515	5403.75
3089.60118	5412.25
3091.97576	5404.55
3094.3489	5411.85
3096.72061	5408.85
3099.09087	5419.45
3101.4597	5399.15
3103.82709	5410.85
3106.19305	5421.65
3108.55757	5411.65
3110.92066	5400.55
3113.28232	5399.45
3115.64255	5403.05
3118.00134	5386.35
3120.35871	5365.65
3122.71466	5345.35
3125.06917	5369.55
3127.42226	5356.95
3129.77393	5358.05
3132.12417	5344.45
3134.47299	5345.45
3136.82039	5343.75
3139.16636	5363.45
3141.51092	5358.55
3143.85406	5351.95
3146.19579	5356.85
3148.53609	5368.75
3150.87499	5382.55
3153.21246	5355.15
3155.54853	5355.75
3157.88318	5356.15
3160.21642	5391.75
3162.54826	5390.95
3164.87868	5397.75
3167.2077	5402.05
3169.5353	5394.65
3171.86151	5395.65
3174.18631	5397.75
3176.5097	5401.65
3178.83169	5371.25
3181.15228	5373.25
3183.47147	5374.65
3185.78926	5368.15
3188.10565	5351.85
3190.42065	5370.65
3192.73424	5363.95
3195.04645	5356.85
3197.35725	5364.45
3199.66667	5344.65
3201.97469	5368.45
3204.28132	5355.45
3206.58656	5357.25
3208.8904	5361.65
3211.19287	5365.05
3213.49394	5371.45
3215.79363	5367.25
3218.09193	5356.95
3220.38884	5372.15
3222.68438	5371.85
3224.97853	5360.55
3227.2713	5362.45
3229.56269	5366.15
3231.8527	5364.85
3234.14133	5348.45
3236.42858	5331.05
3238.71446	5330.95
3240.99896	5294.75
3243.28209	5289.25
3245.56384	5280.55
3247.84423	5263.95
3250.12324	5289.05
3252.40088	5280.35
3254.67715	5275.45
3256.95205	5259.45
3259.22558	5242.15
3261.49775	5246.95
3263.76855	5236.25
3266.03799	5238.65
3268.30606	5232.95
3270.57277	5226.55
3272.83812	5211.55
3275.10211	5214.85
3277.36474	5189.25
3279.62601	5186.75
3281.88593	5153.55
3284.14448	5168.95
3286.40168	5162.45
3288.65753	5159.95
3290.91202	5140.35
3293.16516	5143.55
3295.41695	5122.85
3297.66738	5121.35
3299.91647	5075.95
3302.16421	5050.95
3304.4106	5037.05
3306.65564	5007.85
3308.89933	4984.95
3311.14169	4970.15
3313.38269	4923.85
3315.62236	4904.35
3317.86068	4863.05
3320.09766	4819.95
3322.3333	4794.25
3324.5676	4784.05
3326.80056	4714.95
3329.03219	4696.25
3331.26248	2.35
3333.49143	-0.45
3335.71905	-0.95
