Data from AgNPs_APTES_FTO_UA_50uM_CRN_0uM_R6G_10uM_Scan_RamanShift__50__12-09-23-716.txt Node

Date: Tue Jul 05 12:09:23 BST 2022
User: TCL
Spectrometer: QEP01345
Trigger mode: 4
Integration Time (sec): 7.000000E0
Scans to average: 10
Electric dark correction enabled: true
Nonlinearity correction enabled: false
Boxcar width: 0
XAxis mode: Raman Shifts
Number of Pixels in Spectrum: 1044
>>>>>Begin Spectral Data<<<<<
46.04893	-0.15
50.45542	-0.85
54.85868	-2.05
59.25871	0.35
63.6555	71.65
68.04907	76.95
72.43941	78.25
76.82654	84.45
81.21044	87.95
85.59113	93.05
89.96862	94.75
94.34289	95.65
98.71396	102.45
103.08183	103.55
107.4465	105.55
111.80798	110.65
116.16626	108.85
120.52136	109.75
124.87327	116.55
129.222	120.45
133.56755	129.45
137.90993	132.45
142.24913	143.85
146.58517	160.55
150.91804	184.65
155.24774	215.35
159.57429	269.35
163.89768	341.75
168.21792	446.15
172.53501	602.95
176.84895	848.75
181.15975	1181.35
185.46741	1663.85
189.77193	2293.95
194.07331	3071.15
198.37157	3948.15
202.6667	4869.95
206.9587	5799.55
211.24758	6692.85
215.53334	7599.35
219.81599	8534.85
224.09553	9548.35
228.37195	10708.45
232.64527	11941.75
236.91549	13284.95
241.18261	14650.95
245.44663	15940.65
249.70755	17189.15
253.96539	18210.85
258.22014	19013.05
262.4718	19651.05
266.72039	20085.95
270.96589	20193.65
275.20832	20137.15
279.44768	19890.85
283.68397	19572.45
287.91719	19259.95
292.14735	19015.55
296.37445	18899.75
300.59849	18821.05
304.81948	18789.15
309.03742	18778.75
313.25231	18699.85
317.46415	18508.55
321.67296	18280.65
325.87872	18096.35
330.08145	18051.05
334.28114	18048.75
338.47781	18227.55
342.67145	18455.45
346.86207	18715.25
351.04966	19002.45
355.23424	19255.95
359.4158	19552.65
363.59435	19730.95
367.76989	19906.15
371.94243	20080.45
376.11196	20168.85
380.27849	20214.95
384.44203	20328.45
388.60257	20472.35
392.76012	20594.45
396.91468	20757.45
401.06626	21002.15
405.21485	21177.75
409.36047	21186.25
413.50311	21110.15
417.64277	20964.45
421.77947	20960.25
425.9132	21053.65
430.04396	21114.85
434.17176	21224.45
438.2966	21328.75
442.41849	21568.25
446.53742	21812.05
450.6534	22132.25
454.76644	22351.25
458.87653	22518.15
462.98368	22577.35
467.08789	22576.25
471.18916	22502.05
475.2875	22395.75
479.38291	22319.35
483.4754	22279.55
487.56496	22277.05
491.6516	22195.65
495.73531	22224.85
499.81612	22186.95
503.89401	22344.75
507.96899	22409.15
512.04106	22416.05
516.11023	22359.95
520.1765	22265.75
524.23987	22183.75
528.30034	22079.95
532.35792	22007.55
536.41261	21886.95
540.46441	21768.25
544.51333	21723.95
548.55936	21818.75
552.60252	22034.75
556.64279	22301.75
560.6802	22534.95
564.71473	22693.75
568.7464	22875.75
572.7752	23198.35
576.80114	23437.25
580.82422	23676.05
584.84444	23976.35
588.86181	24466.25
592.87633	24852.25
596.888	24872.05
600.89682	24632.35
604.9028	24800.85
608.90594	25907.35
612.90624	27012.85
616.90371	26120.85
620.89834	23999.65
624.89015	23012.35
628.87913	22906.85
632.86528	22984.75
636.84862	23104.95
640.82913	23032.05
644.80683	22779.35
648.78172	22618.85
652.75379	22588.35
656.72306	22745.35
660.68952	22987.75
664.65319	22942.85
668.61405	22811.95
672.57211	22834.15
676.52738	22942.45
680.47986	22959.15
684.42955	22932.35
688.37646	22922.45
692.32058	22915.15
696.26192	22984.45
700.20048	23085.75
704.13626	23145.85
708.06928	23151.65
711.99952	23124.75
715.927	23045.85
719.85171	23007.45
723.77365	22995.35
727.69284	22835.65
731.60928	22759.25
735.52295	22740.35
739.43388	22791.35
743.34206	22844.65
747.24749	22941.95
751.15017	23040.85
755.05012	23211.25
758.94733	23530.45
762.8418	24084.25
766.73354	24884.85
770.62254	25686.85
774.50882	25904.15
778.39237	25446.25
782.27321	24700.55
786.15132	23892.65
790.02671	23381.85
793.89938	23118.95
797.76935	23059.15
801.6366	23012.15
805.50115	22969.55
809.36299	22963.25
813.22213	22904.95
817.07857	22845.05
820.93231	22799.05
824.78336	22735.95
828.63172	22681.65
832.47738	22705.85
836.32036	22645.65
840.16066	22679.15
843.99827	22727.55
847.8332	22778.95
851.66546	22822.35
855.49504	22783.55
859.32195	22798.45
863.1462	22778.15
866.96777	22754.95
870.78668	22793.25
874.60293	22830.65
878.41652	22866.85
882.22745	22936.55
886.03573	22965.05
889.84136	22973.05
893.64433	22980.65
897.44466	22980.55
901.24235	22941.05
905.0374	22915.55
908.8298	22913.35
912.61957	22854.55
916.40671	22924.45
920.19121	22932.45
923.97308	23034.85
927.75233	23032.75
931.52895	23000.55
935.30295	22839.05
939.07433	22642.75
942.84309	22469.45
946.60924	22408.45
950.37278	22355.25
954.13371	22335.25
957.89203	22343.35
961.64774	22327.85
965.40086	22245.65
969.15137	22182.25
972.89929	22229.35
976.64461	22164.85
980.38733	22170.15
984.12747	22138.15
987.86502	22154.75
991.59999	22204.15
995.33237	22288.95
999.06217	22421.85
1002.78939	22612.75
1006.51404	22788.05
1010.23611	23022.35
1013.95561	23200.85
1017.67255	23252.55
1021.38692	23126.05
1025.09872	22904.75
1028.80796	22774.95
1032.51465	22680.65
1036.21877	22730.05
1039.92035	22775.75
1043.61937	22789.85
1047.31584	22812.05
1051.00976	22875.75
1054.70114	22893.25
1058.38998	22991.25
1062.07627	23155.65
1065.76003	23293.55
1069.44126	23418.65
1073.11995	23629.15
1076.79611	23894.45
1080.46974	24075.85
1084.14085	24088.55
1087.80943	24146.45
1091.47549	24204.45
1095.13903	24253.05
1098.80005	24098.25
1102.45857	23874.95
1106.11456	23654.75
1109.76805	23547.95
1113.41903	23512.35
1117.06751	23548.05
1120.71348	23663.85
1124.35696	23840.55
1127.99793	23994.15
1131.63641	24217.05
1135.2724	24166.85
1138.90589	24110.95
1142.5369	24106.05
1146.16542	24058.75
1149.79145	24001.25
1153.415	23910.55
1157.03607	23936.85
1160.65467	24095.95
1164.27079	24404.25
1167.88443	24874.55
1171.49561	25446.95
1175.10432	26208.25
1178.71056	27223.65
1182.31434	28176.85
1185.91565	28710.65
1189.51451	28741.15
1193.11091	28460.05
1196.70485	28037.15
1200.29634	27589.85
1203.88538	27199.95
1207.47197	26901.85
1211.05612	26623.45
1214.63782	26461.95
1218.21708	26155.35
1221.79391	25810.15
1225.36829	25617.45
1228.94024	25490.35
1232.50976	25346.55
1236.07685	25199.35
1239.6415	25108.45
1243.20374	25065.35
1246.76355	25179.95
1250.32093	25296.25
1253.8759	25576.25
1257.42845	25871.15
1260.97859	26229.15
1264.52631	26632.95
1268.07163	27052.85
1271.61453	27430.85
1275.15503	27706.95
1278.69312	28001.15
1282.22882	28234.45
1285.76211	28581.15
1289.29301	29035.25
1292.82151	29599.35
1296.34761	30278.25
1299.87133	31071.45
1303.39266	31894.85
1306.9116	32752.55
1310.42815	33593.75
1313.94233	34058.05
1317.45412	33993.05
1320.96354	33612.15
1324.47058	33233.35
1327.97525	32946.45
1331.47754	32578.45
1334.97747	32348.45
1338.47502	32222.25
1341.97022	32226.95
1345.46305	32442.35
1348.95352	32653.95
1352.44163	32838.95
1355.92738	33062.45
1359.41078	33612.35
1362.89183	34191.95
1366.37053	33913.45
1369.84688	32429.65
1373.32088	30367.45
1376.79254	28923.35
1380.26186	28320.85
1383.72883	28032.35
1387.19347	27827.85
1390.65578	27556.05
1394.11575	27314.85
1397.57339	27184.95
1401.0287	27177.85
1404.48168	27172.95
1407.93234	27049.05
1411.38068	26851.35
1414.82669	26527.15
1418.27039	26077.45
1421.71177	25648.85
1425.15083	25309.85
1428.58758	25155.55
1432.02203	25257.95
1435.45416	25486.15
1438.88399	25760.95
1442.31151	25922.15
1445.73673	26034.55
1449.15965	26125.35
1452.58027	26144.15
1455.9986	26189.05
1459.41463	26271.85
1462.82837	26432.05
1466.23982	26737.65
1469.64898	27038.35
1473.05586	27207.55
1476.46045	27252.95
1479.86276	27282.75
1483.26279	27298.55
1486.66054	27316.55
1490.05602	27509.45
1493.44922	27790.35
1496.84016	28216.05
1500.22882	28774.75
1503.61521	29470.95
1506.99934	30180.85
1510.38121	30731.55
1513.76081	30798.45
1517.13816	30240.45
1520.51324	29416.15
1523.88607	28709.75
1527.25665	28279.25
1530.62498	28059.25
1533.99105	27902.15
1537.35488	27729.55
1540.71647	27422.95
1544.07581	27097.55
1547.4329	26875.05
1550.78776	26654.05
1554.14038	26579.05
1557.49077	26592.05
1560.83892	26620.55
1564.18484	26718.85
1567.52853	26898.65
1570.86999	27114.25
1574.20922	27325.95
1577.54624	27503.85
1580.88103	27418.95
1584.2136	27362.85
1587.54395	27441.75
1590.87208	27820.45
1594.19801	28353.65
1597.52172	29064.35
1600.84321	29212.85
1604.16251	28700.15
1607.47959	27714.45
1610.79447	26690.55
1614.10715	25573.45
1617.41763	24624.85
1620.7259	23974.35
1624.03199	23634.15
1627.33587	23603.25
1630.63757	23818.75
1633.93707	24312.45
1637.23439	25242.75
1640.52951	26731.55
1643.82246	28529.15
1647.11321	30084.55
1650.40179	30634.25
1653.68819	29656.25
1656.97241	27581.35
1660.25446	25436.75
1663.53433	23888.25
1666.81203	22816.05
1670.08756	22081.55
1673.36092	21683.25
1676.63211	21365.55
1679.90115	21117.85
1683.16801	20930.35
1686.43272	20735.85
1689.69527	20663.45
1692.95567	20553.35
1696.2139	20451.05
1699.46999	20412.95
1702.72392	20376.05
1705.97571	20367.05
1709.22535	20323.95
1712.47284	20279.25
1715.71819	20275.25
1718.96139	20264.65
1722.20246	20190.35
1725.44139	20087.35
1728.67818	20112.85
1731.91284	20043.15
1735.14537	19888.55
1738.37576	19777.65
1741.60403	19740.15
1744.83017	19697.15
1748.05418	19697.85
1751.27607	19670.65
1754.49584	19628.95
1757.71349	19582.05
1760.92903	19581.95
1764.14244	19531.95
1767.35375	19508.85
1770.56294	19487.95
1773.77002	19438.05
1776.97499	19422.25
1780.17785	19454.45
1783.37861	19431.35
1786.57727	19390.65
1789.77382	19314.15
1792.96828	19285.25
1796.16064	19231.05
1799.3509	19240.75
1802.53907	19177.55
1805.72514	19111.45
1808.90913	19086.15
1812.09102	19082.45
1815.27083	19073.35
1818.44856	19023.55
1821.6242	18989.95
1824.79776	18968.85
1827.96924	18928.45
1831.13864	18930.05
1834.30597	18864.55
1837.47122	18908.25
1840.6344	18872.15
1843.7955	18823.75
1846.95454	18799.65
1850.11151	18808.65
1853.26642	18789.15
1856.41926	18775.45
1859.57004	18809.15
1862.71876	18774.25
1865.86542	18754.55
1869.01003	18736.65
1872.15258	18741.05
1875.29308	18704.85
1878.43152	18684.65
1881.56792	18627.75
1884.70227	18585.15
1887.83457	18552.35
1890.96482	18521.05
1894.09304	18526.85
1897.21921	18478.55
1900.34335	18465.85
1903.46544	18434.35
1906.58551	18418.35
1909.70353	18385.75
1912.81953	18378.35
1915.93349	18357.45
1919.04543	18301.55
1922.15534	18256.55
1925.26322	18190.45
1928.36908	18181.15
1931.47292	18184.35
1934.57473	18135.85
1937.67453	18084.95
1940.77232	18071.95
1943.86808	17971.95
1946.96184	17928.15
1950.05358	17860.15
1953.14331	17840.85
1956.23103	17775.25
1959.31675	17738.25
1962.40046	17652.05
1965.48217	17627.05
1968.56188	17557.95
1971.63959	17525.55
1974.7153	17452.55
1977.78901	17416.55
1980.86073	17389.15
1983.93046	17284.35
1986.99819	17206.35
1990.06394	17180.85
1993.1277	17155.55
1996.18947	17127.35
1999.24925	17019.35
2002.30706	16995.95
2005.36288	16928.65
2008.41672	16921.05
2011.46859	16852.25
2014.51848	16816.55
2017.56639	16759.85
2020.61233	16740.55
2023.6563	16669.95
2026.6983	16610.75
2029.73833	16567.75
2032.7764	16522.45
2035.8125	16499.55
2038.84664	16411.25
2041.87881	16425.35
2044.90903	16372.25
2047.93729	16349.35
2050.96359	16362.55
2053.98794	16290.45
2057.01034	16296.25
2060.03078	16271.55
2063.04927	16268.15
2066.06582	16255.95
2069.08042	16222.45
2072.09307	16165.95
2075.10378	16178.85
2078.11255	16216.25
2081.11938	16223.95
2084.12426	16190.35
2087.12722	16175.45
2090.12824	16151.45
2093.12732	16149.35
2096.12447	16147.75
2099.11969	16145.55
2102.11299	16150.55
2105.10435	16149.55
2108.09379	16140.35
2111.08131	16172.95
2114.0669	16177.55
2117.05057	16222.25
2120.03233	16241.15
2123.01216	16226.55
2125.99008	16225.65
2128.96609	16218.35
2131.94018	16263.55
2134.91236	16261.95
2137.88263	16273.35
2140.851	16294.95
2143.81746	16277.15
2146.78201	16272.75
2149.74466	16234.65
2152.7054	16263.85
2155.66425	16272.85
2158.6212	16194.65
2161.57625	16223.55
2164.52941	16198.65
2167.48067	16221.35
2170.43004	16243.65
2173.37752	16221.35
2176.32311	16231.35
2179.26681	16180.55
2182.20863	16162.95
2185.14856	16186.25
2188.08661	16180.35
2191.02278	16141.15
2193.95707	16130.75
2196.88948	16158.85
2199.82001	16157.65
2202.74867	16092.85
2205.67545	16053.25
2208.60037	16036.25
2211.52341	16000.85
2214.44458	15976.95
2217.36388	15919.75
2220.28132	15902.15
2223.1969	15862.65
2226.11061	15836.35
2229.02246	15822.15
2231.93245	15782.45
2234.84058	15742.25
2237.74686	15757.55
2240.65128	15754.55
2243.55385	15686.15
2246.45456	15661.55
2249.35343	15645.75
2252.25044	15654.45
2255.14561	15617.25
2258.03893	15593.35
2260.93041	15551.65
2263.82004	15498.15
2266.70783	15474.85
2269.59378	15395.15
2272.4779	15369.95
2275.36017	15333.75
2278.24061	15297.75
2281.11922	15254.35
2283.996	15249.75
2286.87094	15239.95
2289.74405	15179.35
2292.61534	15150.45
2295.4848	15112.75
2298.35243	15142.75
2301.21824	15116.05
2304.08223	15118.95
2306.94439	15061.85
2309.80474	15069.05
2312.66327	15068.45
2315.51999	15047.05
2318.37489	15044.85
2321.22797	15011.75
2324.07925	14972.55
2326.92871	14905.55
2329.77637	14894.25
2332.62222	14898.35
2335.46626	14859.85
2338.3085	14844.05
2341.14893	14828.55
2343.98756	14835.35
2346.8244	14795.45
2349.65943	14788.65
2352.49267	14730.85
2355.32411	14769.75
2358.15376	14747.15
2360.98161	14748.95
2363.80768	14746.45
2366.63195	14737.95
2369.45444	14752.15
2372.27514	14705.45
2375.09405	14666.15
2377.91118	14621.15
2380.72652	14609.55
2383.54009	14578.95
2386.35187	14561.65
2389.16188	14501.75
2391.97011	14486.95
2394.77657	14418.15
2397.58125	14382.25
2400.38416	14380.15
2403.18529	14327.15
2405.98466	14307.45
2408.78226	14310.75
2411.57809	14288.55
2414.37216	14278.35
2417.16446	14239.25
2419.955	14243.85
2422.74378	14242.75
2425.5308	14227.05
2428.31606	14210.85
2431.09956	14201.55
2433.88131	14161.65
2436.6613	14160.35
2439.43954	14154.85
2442.21603	14137.25
2444.99077	14123.35
2447.76377	14089.75
2450.53501	14065.65
2453.30451	14079.05
2456.07226	14035.55
2458.83827	14007.35
2461.60254	13999.95
2464.36507	13989.55
2467.12586	13963.55
2469.88492	13942.55
2472.64224	13912.85
2475.39782	13938.75
2478.15167	13932.25
2480.90379	13919.85
2483.65417	13932.05
2486.40283	13900.45
2489.14976	13892.75
2491.89497	13870.75
2494.63845	13854.75
2497.3802	13845.05
2500.12024	13824.65
2502.85855	13794.05
2505.59514	13821.95
2508.33002	13812.35
2511.06318	13764.55
2513.79462	13732.55
2516.52435	13739.25
2519.25237	13725.95
2521.97867	13689.35
2524.70327	13679.45
2527.42616	13670.45
2530.14734	13629.85
2532.86681	13592.85
2535.58458	13591.95
2538.30065	13560.45
2541.01501	13538.15
2543.72768	13482.65
2546.43864	13443.85
2549.14791	13427.05
2551.85548	13422.35
2554.56136	13422.75
2557.26554	13421.75
2559.96803	13378.15
2562.66883	13324.35
2565.36794	13303.45
2568.06536	13255.05
2570.7611	13262.05
2573.45514	13235.55
2576.14751	13243.35
2578.83819	13213.05
2581.52719	13163.15
2584.21451	13128.05
2586.90015	13131.55
2589.58411	13114.75
2592.2664	13088.05
2594.94701	13035.55
2597.62594	13016.05
2600.30321	12990.85
2602.9788	12944.45
2605.65273	12948.95
2608.32498	12957.45
2610.99557	12900.75
2613.66449	12907.75
2616.33175	12889.65
2618.99734	12891.65
2621.66128	12850.85
2624.32355	12829.95
2626.98416	12840.45
2629.64311	12785.75
2632.30041	12778.75
2634.95605	12751.45
2637.61004	12760.75
2640.26238	12726.85
2642.91306	12696.85
2645.56209	12673.25
2648.20948	12696.35
2650.85521	12687.85
2653.4993	12654.95
2656.14175	12648.95
2658.78255	12679.05
2661.42171	12655.75
2664.05923	12632.65
2666.6951	12639.05
2669.32934	12667.45
2671.96194	12650.15
2674.59291	12624.15
2677.22224	12623.15
2679.84993	12609.75
2682.476	12597.05
2685.10043	12633.65
2687.72324	12616.65
2690.34441	12555.05
2692.96396	12595.15
2695.58188	12580.95
2698.19818	12565.95
2700.81285	12562.85
2703.4259	12532.25
2706.03733	12573.15
2708.64714	12566.65
2711.25533	12536.55
2713.86191	12549.95
2716.46687	12520.75
2719.07021	12546.95
2721.67194	12574.05
2724.27206	12556.05
2726.87057	12573.65
2729.46747	12585.35
2732.06276	12529.65
2734.65644	12519.85
2737.24852	12512.15
2739.83899	12503.95
2742.42786	12478.75
2745.01513	12447.95
2747.60079	12443.15
2750.18486	12440.75
2752.76733	12427.05
2755.3482	12392.45
2757.92747	12394.25
2760.50515	12394.45
2763.08123	12382.55
2765.65573	12336.45
2768.22863	12340.05
2770.79994	12276.05
2773.36967	12310.05
2775.9378	12267.35
2778.50435	12234.05
2781.06932	12249.75
2783.6327	12248.95
2786.1945	12225.35
2788.75471	12214.95
2791.31335	12150.15
2793.87041	12109.65
2796.42589	12111.95
2798.97979	12103.05
2801.53212	12037.65
2804.08288	12043.75
2806.63206	11965.45
2809.17967	11968.65
2811.72571	11956.05
2814.27018	11888.75
2816.81308	11866.25
2819.35442	11812.35
2821.89419	11779.25
2824.43239	11798.75
2826.96904	11777.75
2829.50412	11746.15
2832.03763	11717.75
2834.56959	11737.85
2837.1	11705.65
2839.62884	11704.75
2842.15613	11671.25
2844.68186	11714.55
2847.20604	11655.35
2849.72867	11648.15
2852.24974	11614.85
2854.76927	11615.45
2857.28724	11596.55
2859.80367	11608.05
2862.31855	11589.35
2864.83189	11555.05
2867.34368	11528.45
2869.85393	11559.75
2872.36264	11508.45
2874.8698	11499.35
2877.37543	11529.45
2879.87952	11500.85
2882.38207	11511.25
2884.88308	11475.85
2887.38256	11468.95
2889.88051	11444.35
2892.37692	11440.45
2894.8718	11422.85
2897.36515	11432.95
2899.85698	11430.85
2902.34727	11429.15
2904.83604	11419.25
2907.32328	11463.75
2909.809	11460.25
2912.29319	11472.55
2914.77587	11454.75
2917.25702	11458.45
2919.73665	11436.25
2922.21476	11420.55
2924.69136	11435.15
2927.16644	11403.25
2929.64	11366.45
2932.11205	11369.55
2934.58258	11338.75
2937.05161	11355.95
2939.51912	11362.95
2941.98513	11308.75
2944.44962	11337.55
2946.91261	11288.95
2949.37409	11302.75
2951.83407	11280.45
2954.29254	11262.85
2956.74951	11242.05
2959.20498	11221.95
2961.65895	11225.95
2964.11142	11249.15
2966.56239	11226.25
2969.01186	11208.25
2971.45984	11210.65
2973.90632	11213.25
2976.35131	11211.05
2978.7948	11161.05
2981.23681	11123.55
2983.67732	11122.65
2986.11635	11078.05
2988.55388	11054.75
2990.98993	11079.85
2993.4245	11062.05
2995.85758	11025.35
2998.28917	10987.95
3000.71928	10985.85
3003.14791	10925.75
3005.57506	10921.65
3008.00073	10889.85
3010.42493	10888.75
3012.84764	10889.25
3015.26888	10858.55
3017.68865	10830.75
3020.10694	10805.45
3022.52376	10803.05
3024.9391	10778.25
3027.35298	10770.15
3029.76539	10747.75
3032.17632	10730.15
3034.5858	10712.45
3036.9938	10705.75
3039.40034	10687.45
3041.80542	10698.55
3044.20903	10657.25
3046.61118	10668.05
3049.01187	10634.65
3051.4111	10639.75
3053.80888	10595.25
3056.20519	10595.35
3058.60005	10575.25
3060.99345	10566.15
3063.3854	10530.75
3065.7759	10490.45
3068.16494	10456.15
3070.55254	10456.45
3072.93868	10416.25
3075.32338	10382.25
3077.70662	10396.35
3080.08842	10332.85
3082.46878	10317.95
3084.84769	10333.95
3087.22515	10337.35
3089.60118	10353.55
3091.97576	10338.35
3094.3489	10309.25
3096.72061	10311.65
3099.09087	10332.15
3101.4597	10309.45
3103.82709	10322.55
3106.19305	10331.15
3108.55757	10291.35
3110.92066	10312.05
3113.28232	10285.85
3115.64255	10226.45
3118.00134	10206.45
3120.35871	10171.45
3122.71466	10170.35
3125.06917	10178.65
3127.42226	10166.05
3129.77393	10161.85
3132.12417	10119.85
3134.47299	10141.05
3136.82039	10129.65
3139.16636	10129.55
3141.51092	10099.95
3143.85406	10096.45
3146.19579	10115.75
3148.53609	10122.15
3150.87499	10172.65
3153.21246	10105.65
3155.54853	10105.95
3157.88318	10092.75
3160.21642	10149.55
3162.54826	10145.75
3164.87868	10142.85
3167.2077	10146.45
3169.5353	10150.65
3171.86151	10158.35
3174.18631	10136.45
3176.5097	10157.55
3178.83169	10107.85
3181.15228	10099.55
3183.47147	10072.15
3185.78926	10067.25
3188.10565	10024.45
3190.42065	10015.95
3192.73424	10042.05
3195.04645	10029.05
3197.35725	10009.65
3199.66667	10011.45
3201.97469	10026.15
3204.28132	10009.45
3206.58656	10027.95
3208.8904	10024.45
3211.19287	9998.45
3213.49394	10027.45
3215.79363	10015.55
3218.09193	10035.65
3220.38884	9998.85
3222.68438	10040.25
3224.97853	9999.15
3227.2713	10019.25
3229.56269	9964.75
3231.8527	9981.55
3234.14133	9986.35
3236.42858	9947.05
3238.71446	9914.25
3240.99896	9901.55
3243.28209	9861.05
3245.56384	9855.75
3247.84423	9839.05
3250.12324	9849.75
3252.40088	9838.65
3254.67715	9787.55
3256.95205	9768.05
3259.22558	9806.95
3261.49775	9755.55
3263.76855	9784.65
3266.03799	9753.75
3268.30606	9727.65
3270.57277	9717.75
3272.83812	9709.15
3275.10211	9676.25
3277.36474	9657.75
3279.62601	9670.35
3281.88593	9644.55
3284.14448	9637.25
3286.40168	9623.95
3288.65753	9626.55
3290.91202	9619.05
3293.16516	9571.85
3295.41695	9561.25
3297.66738	9528.05
3299.91647	9478.55
3302.16421	9428.35
3304.4106	9408.15
3306.65564	9340.95
3308.89933	9282.75
3311.14169	9245.45
3313.38269	9165.65
3315.62236	9095.05
3317.86068	9044.35
3320.09766	8981.95
3322.3333	8899.55
3324.5676	8895.45
3326.80056	8781.45
3329.03219	8735.95
3331.26248	4.75
3333.49143	-0.65
3335.71905	-1.35
