Data from AgNPs_APTES_FTO_UA_50uM_CRN_0uM_R6G_10uM_Scan_RamanShift__61__12-22-13-731.txt Node

Date: Tue Jul 05 12:22:13 BST 2022
User: TCL
Spectrometer: QEP01345
Trigger mode: 4
Integration Time (sec): 7.000000E0
Scans to average: 10
Electric dark correction enabled: true
Nonlinearity correction enabled: false
Boxcar width: 0
XAxis mode: Raman Shifts
Number of Pixels in Spectrum: 1044
>>>>>Begin Spectral Data<<<<<
46.04893	-0.35
50.45542	-0.15
54.85868	-1.05
59.25871	-0.35
63.6555	55.15
68.04907	58.85
72.43941	58.45
76.82654	64.05
81.21044	65.15
85.59113	72.25
89.96862	72.85
94.34289	76.15
98.71396	79.05
103.08183	79.85
107.4465	80.15
111.80798	85.15
116.16626	84.55
120.52136	82.95
124.87327	89.35
129.222	92.25
133.56755	90.95
137.90993	96.25
142.24913	103.75
146.58517	114.25
150.91804	124.55
155.24774	146.85
159.57429	172.25
163.89768	215.75
168.21792	284.55
172.53501	383.35
176.84895	526.75
181.15975	740.25
185.46741	1035.25
189.77193	1432.55
194.07331	1921.65
198.37157	2463.55
202.6667	3033.65
206.9587	3609.45
211.24758	4170.85
215.53334	4712.15
219.81599	5290.05
224.09553	5915.55
228.37195	6609.05
232.64527	7379.55
236.91549	8202.35
241.18261	9069.35
245.44663	9968.85
249.70755	10753.05
253.96539	11457.55
258.22014	12036.25
262.4718	12468.95
266.72039	12747.05
270.96589	12868.35
275.20832	12835.05
279.44768	12695.55
283.68397	12505.75
287.91719	12306.25
292.14735	12135.35
296.37445	12001.45
300.59849	11878.15
304.81948	11816.55
309.03742	11752.15
313.25231	11699.15
317.46415	11629.45
321.67296	11535.35
325.87872	11492.25
330.08145	11523.75
334.28114	11579.15
338.47781	11670.85
342.67145	11804.45
346.86207	11960.25
351.04966	12080.85
355.23424	12239.15
359.4158	12402.55
363.59435	12492.85
367.76989	12626.85
371.94243	12723.15
376.11196	12782.65
380.27849	12837.25
384.44203	12928.05
388.60257	13035.35
392.76012	13123.85
396.91468	13203.05
401.06626	13327.15
405.21485	13413.35
409.36047	13431.65
413.50311	13417.35
417.64277	13396.65
421.77947	13399.65
425.9132	13470.95
430.04396	13540.25
434.17176	13602.65
438.2966	13698.65
442.41849	13822.55
446.53742	14000.35
450.6534	14110.45
454.76644	14230.95
458.87653	14311.55
462.98368	14384.35
467.08789	14410.85
471.18916	14419.65
475.2875	14376.15
479.38291	14373.35
483.4754	14360.35
487.56496	14391.85
491.6516	14347.75
495.73531	14335.75
499.81612	14361.35
503.89401	14378.55
507.96899	14446.55
512.04106	14510.25
516.11023	14516.15
520.1765	14448.45
524.23987	14441.65
528.30034	14399.15
532.35792	14383.05
536.41261	14363.75
540.46441	14294.85
544.51333	14300.95
548.55936	14350.45
552.60252	14421.15
556.64279	14547.85
560.6802	14666.95
564.71473	14778.55
568.7464	14882.85
572.7752	15052.25
576.80114	15234.45
580.82422	15418.15
584.84444	15588.65
588.86181	15724.85
592.87633	15909.55
596.888	15997.45
600.89682	15996.15
604.9028	16060.45
608.90594	16437.75
612.90624	16806.05
616.90371	16347.95
620.89834	15554.35
624.89015	15197.05
628.87913	15170.65
632.86528	15160.35
636.84862	15186.85
640.82913	15123.15
644.80683	14971.65
648.78172	14923.05
652.75379	14897.95
656.72306	15007.05
660.68952	15138.25
664.65319	15170.15
668.61405	15173.45
672.57211	15234.75
676.52738	15297.55
680.47986	15338.55
684.42955	15366.55
688.37646	15422.35
692.32058	15471.95
696.26192	15506.55
700.20048	15522.05
704.13626	15559.85
708.06928	15586.45
711.99952	15547.95
715.927	15535.65
719.85171	15515.45
723.77365	15478.45
727.69284	15391.15
731.60928	15336.65
735.52295	15350.85
739.43388	15351.05
743.34206	15369.15
747.24749	15443.95
751.15017	15524.05
755.05012	15599.25
758.94733	15729.85
762.8418	15965.85
766.73354	16296.45
770.62254	16647.55
774.50882	16778.05
778.39237	16633.05
782.27321	16295.35
786.15132	15958.55
790.02671	15734.25
793.89938	15598.45
797.76935	15521.45
801.6366	15530.25
805.50115	15478.15
809.36299	15467.15
813.22213	15414.85
817.07857	15418.85
820.93231	15451.65
824.78336	15463.25
828.63172	15438.05
832.47738	15428.95
836.32036	15434.05
840.16066	15453.85
843.99827	15526.85
847.8332	15544.85
851.66546	15579.75
855.49504	15529.55
859.32195	15568.05
863.1462	15571.15
866.96777	15578.15
870.78668	15591.65
874.60293	15643.05
878.41652	15683.65
882.22745	15689.55
886.03573	15684.65
889.84136	15676.75
893.64433	15714.25
897.44466	15705.95
901.24235	15702.65
905.0374	15721.05
908.8298	15664.45
912.61957	15658.85
916.40671	15713.05
920.19121	15727.95
923.97308	15800.45
927.75233	15811.55
931.52895	15751.35
935.30295	15690.35
939.07433	15585.35
942.84309	15465.25
946.60924	15420.65
950.37278	15409.05
954.13371	15363.15
957.89203	15379.35
961.64774	15379.35
965.40086	15334.35
969.15137	15290.45
972.89929	15289.75
976.64461	15274.05
980.38733	15276.75
984.12747	15268.75
987.86502	15242.45
991.59999	15275.65
995.33237	15346.15
999.06217	15382.85
1002.78939	15508.15
1006.51404	15586.55
1010.23611	15674.45
1013.95561	15765.45
1017.67255	15777.25
1021.38692	15708.25
1025.09872	15636.05
1028.80796	15559.15
1032.51465	15510.25
1036.21877	15554.75
1039.92035	15574.65
1043.61937	15573.55
1047.31584	15588.35
1051.00976	15645.55
1054.70114	15699.85
1058.38998	15710.55
1062.07627	15815.05
1065.76003	15859.95
1069.44126	15894.55
1073.11995	15962.95
1076.79611	16067.05
1080.46974	16134.35
1084.14085	16131.85
1087.80943	16180.75
1091.47549	16209.75
1095.13903	16244.95
1098.80005	16182.25
1102.45857	16103.45
1106.11456	16029.15
1109.76805	15991.65
1113.41903	15922.65
1117.06751	15877.15
1120.71348	15918.35
1124.35696	15982.25
1127.99793	16012.95
1131.63641	16103.05
1135.2724	16070.55
1138.90589	16064.25
1142.5369	16071.35
1146.16542	16052.45
1149.79145	16064.45
1153.415	16059.65
1157.03607	16071.95
1160.65467	16129.05
1164.27079	16251.05
1167.88443	16477.05
1171.49561	16745.35
1175.10432	17107.95
1178.71056	17512.25
1182.31434	17910.05
1185.91565	18178.15
1189.51451	18262.45
1193.11091	18242.85
1196.70485	18078.45
1200.29634	17862.05
1203.88538	17657.55
1207.47197	17503.65
1211.05612	17352.15
1214.63782	17270.65
1218.21708	17144.05
1221.79391	17015.95
1225.36829	16939.75
1228.94024	16897.45
1232.50976	16874.75
1236.07685	16777.55
1239.6415	16730.85
1243.20374	16706.35
1246.76355	16733.45
1250.32093	16803.35
1253.8759	16899.75
1257.42845	17025.05
1260.97859	17216.05
1264.52631	17366.15
1268.07163	17542.15
1271.61453	17735.25
1275.15503	17906.25
1278.69312	18015.65
1282.22882	18119.85
1285.76211	18286.05
1289.29301	18467.75
1292.82151	18711.35
1296.34761	18974.55
1299.87133	19373.45
1303.39266	19708.35
1306.9116	20065.45
1310.42815	20471.25
1313.94233	20688.35
1317.45412	20701.45
1320.96354	20610.45
1324.47058	20506.05
1327.97525	20358.15
1331.47754	20215.65
1334.97747	20157.15
1338.47502	20132.45
1341.97022	20198.15
1345.46305	20362.25
1348.95352	20509.55
1352.44163	20486.95
1355.92738	20378.05
1359.41078	20419.05
1362.89183	20416.15
1366.37053	20171.25
1369.84688	19600.05
1373.32088	18890.15
1376.79254	18357.75
1380.26186	18070.55
1383.72883	17948.65
1387.19347	17828.65
1390.65578	17720.65
1394.11575	17587.35
1397.57339	17530.85
1401.0287	17507.15
1404.48168	17485.15
1407.93234	17408.65
1411.38068	17302.15
1414.82669	17169.05
1418.27039	16905.85
1421.71177	16676.05
1425.15083	16496.45
1428.58758	16388.45
1432.02203	16337.85
1435.45416	16415.05
1438.88399	16444.55
1442.31151	16587.95
1445.73673	16652.95
1449.15965	16727.15
1452.58027	16792.45
1455.9986	16857.95
1459.41463	16915.45
1462.82837	17029.05
1466.23982	17101.95
1469.64898	17241.05
1473.05586	17297.55
1476.46045	17313.45
1479.86276	17385.65
1483.26279	17400.95
1486.66054	17387.15
1490.05602	17441.25
1493.44922	17624.95
1496.84016	17815.95
1500.22882	18075.45
1503.61521	18317.65
1506.99934	18576.85
1510.38121	18665.35
1513.76081	18653.35
1517.13816	18473.35
1520.51324	18210.45
1523.88607	18056.05
1527.25665	17945.05
1530.62498	17887.95
1533.99105	17779.35
1537.35488	17714.65
1540.71647	17631.45
1544.07581	17491.05
1547.4329	17363.35
1550.78776	17290.45
1554.14038	17251.85
1557.49077	17283.55
1560.83892	17358.55
1564.18484	17402.75
1567.52853	17448.75
1570.86999	17501.65
1574.20922	17607.95
1577.54624	17637.35
1580.88103	17606.95
1584.2136	17556.35
1587.54395	17598.45
1590.87208	17753.65
1594.19801	17972.05
1597.52172	18261.15
1600.84321	18275.65
1604.16251	18024.65
1607.47959	17634.85
1610.79447	17181.15
1614.10715	16650.05
1617.41763	16176.05
1620.7259	15855.45
1624.03199	15630.75
1627.33587	15582.65
1630.63757	15695.95
1633.93707	15921.75
1637.23439	16350.75
1640.52951	17005.15
1643.82246	17801.95
1647.11321	18445.95
1650.40179	18663.55
1653.68819	18255.35
1656.97241	17370.15
1660.25446	16384.95
1663.53433	15615.05
1666.81203	15049.95
1670.08756	14660.65
1673.36092	14416.05
1676.63211	14257.55
1679.90115	14150.95
1683.16801	14017.25
1686.43272	13973.75
1689.69527	13965.55
1692.95567	13874.35
1696.2139	13850.95
1699.46999	13828.05
1702.72392	13782.15
1705.97571	13772.15
1709.22535	13778.35
1712.47284	13733.95
1715.71819	13708.65
1718.96139	13737.95
1722.20246	13661.05
1725.44139	13617.05
1728.67818	13574.55
1731.91284	13529.95
1735.14537	13437.65
1738.37576	13378.55
1741.60403	13371.85
1744.83017	13343.55
1748.05418	13308.05
1751.27607	13305.55
1754.49584	13269.65
1757.71349	13236.95
1760.92903	13230.25
1764.14244	13210.55
1767.35375	13160.95
1770.56294	13159.45
1773.77002	13169.25
1776.97499	13118.55
1780.17785	13102.85
1783.37861	13140.55
1786.57727	13099.05
1789.77382	13033.35
1792.96828	13016.75
1796.16064	12980.45
1799.3509	12964.45
1802.53907	12950.05
1805.72514	12891.35
1808.90913	12913.95
1812.09102	12863.65
1815.27083	12862.05
1818.44856	12838.15
1821.6242	12802.15
1824.79776	12765.85
1827.96924	12775.15
1831.13864	12754.75
1834.30597	12749.35
1837.47122	12729.05
1840.6344	12689.95
1843.7955	12653.65
1846.95454	12685.65
1850.11151	12657.55
1853.26642	12652.65
1856.41926	12648.35
1859.57004	12665.05
1862.71876	12657.25
1865.86542	12646.85
1869.01003	12620.15
1872.15258	12613.15
1875.29308	12590.25
1878.43152	12570.85
1881.56792	12537.05
1884.70227	12517.15
1887.83457	12506.85
1890.96482	12479.55
1894.09304	12432.95
1897.21921	12421.25
1900.34335	12424.85
1903.46544	12400.85
1906.58551	12365.25
1909.70353	12333.15
1912.81953	12322.05
1915.93349	12323.45
1919.04543	12305.95
1922.15534	12262.15
1925.26322	12231.65
1928.36908	12217.65
1931.47292	12187.55
1934.57473	12173.95
1937.67453	12155.65
1940.77232	12105.15
1943.86808	12077.75
1946.96184	12016.65
1950.05358	11960.65
1953.14331	11960.35
1956.23103	11920.45
1959.31675	11877.05
1962.40046	11835.65
1965.48217	11793.85
1968.56188	11770.15
1971.63959	11702.45
1974.7153	11688.85
1977.78901	11650.75
1980.86073	11629.45
1983.93046	11558.55
1986.99819	11506.15
1990.06394	11498.85
1993.1277	11471.05
1996.18947	11420.45
1999.24925	11380.95
2002.30706	11346.05
2005.36288	11307.35
2008.41672	11299.05
2011.46859	11253.15
2014.51848	11220.75
2017.56639	11202.95
2020.61233	11182.75
2023.6563	11110.25
2026.6983	11060.85
2029.73833	11045.85
2032.7764	11016.95
2035.8125	10975.45
2038.84664	10927.65
2041.87881	10924.95
2044.90903	10937.35
2047.93729	10859.55
2050.96359	10870.15
2053.98794	10817.55
2057.01034	10837.75
2060.03078	10810.15
2063.04927	10797.85
2066.06582	10801.15
2069.08042	10761.95
2072.09307	10737.15
2075.10378	10739.85
2078.11255	10753.15
2081.11938	10764.85
2084.12426	10768.85
2087.12722	10762.95
2090.12824	10741.15
2093.12732	10717.05
2096.12447	10698.05
2099.11969	10711.05
2102.11299	10718.95
2105.10435	10684.85
2108.09379	10704.15
2111.08131	10722.05
2114.0669	10711.25
2117.05057	10717.65
2120.03233	10744.75
2123.01216	10742.85
2125.99008	10763.95
2128.96609	10742.05
2131.94018	10738.95
2134.91236	10761.05
2137.88263	10773.95
2140.851	10758.75
2143.81746	10769.75
2146.78201	10756.65
2149.74466	10753.65
2152.7054	10747.25
2155.66425	10706.35
2158.6212	10729.65
2161.57625	10699.65
2164.52941	10705.25
2167.48067	10703.55
2170.43004	10728.15
2173.37752	10714.35
2176.32311	10687.65
2179.26681	10694.75
2182.20863	10676.55
2185.14856	10679.65
2188.08661	10671.05
2191.02278	10652.35
2193.95707	10612.35
2196.88948	10648.85
2199.82001	10673.05
2202.74867	10618.75
2205.67545	10572.55
2208.60037	10539.75
2211.52341	10533.55
2214.44458	10498.85
2217.36388	10466.55
2220.28132	10461.45
2223.1969	10456.35
2226.11061	10433.25
2229.02246	10402.25
2231.93245	10375.75
2234.84058	10370.65
2237.74686	10358.35
2240.65128	10363.45
2243.55385	10324.25
2246.45456	10280.15
2249.35343	10267.45
2252.25044	10281.45
2255.14561	10243.55
2258.03893	10208.45
2260.93041	10225.25
2263.82004	10175.95
2266.70783	10136.25
2269.59378	10106.85
2272.4779	10064.05
2275.36017	10024.45
2278.24061	10016.15
2281.11922	10004.95
2283.996	9972.85
2286.87094	9942.15
2289.74405	9916.65
2292.61534	9924.45
2295.4848	9893.45
2298.35243	9877.25
2301.21824	9895.95
2304.08223	9877.15
2306.94439	9850.75
2309.80474	9852.85
2312.66327	9842.75
2315.51999	9837.35
2318.37489	9812.25
2321.22797	9789.75
2324.07925	9746.15
2326.92871	9744.05
2329.77637	9743.35
2332.62222	9699.75
2335.46626	9694.25
2338.3085	9667.55
2341.14893	9657.15
2343.98756	9650.15
2346.8244	9633.35
2349.65943	9595.45
2352.49267	9592.35
2355.32411	9570.45
2358.15376	9566.35
2360.98161	9572.25
2363.80768	9576.55
2366.63195	9571.85
2369.45444	9542.65
2372.27514	9543.55
2375.09405	9545.05
2377.91118	9503.05
2380.72652	9476.95
2383.54009	9444.05
2386.35187	9424.05
2389.16188	9387.45
2391.97011	9367.45
2394.77657	9351.65
2397.58125	9320.65
2400.38416	9323.65
2403.18529	9290.55
2405.98466	9265.25
2408.78226	9268.55
2411.57809	9238.25
2414.37216	9230.45
2417.16446	9228.05
2419.955	9222.05
2422.74378	9224.85
2425.5308	9203.85
2428.31606	9216.65
2431.09956	9192.55
2433.88131	9140.55
2436.6613	9134.25
2439.43954	9143.15
2442.21603	9116.65
2444.99077	9109.55
2447.76377	9103.15
2450.53501	9085.35
2453.30451	9078.85
2456.07226	9034.45
2458.83827	9034.55
2461.60254	9037.65
2464.36507	9000.55
2467.12586	8982.05
2469.88492	8969.55
2472.64224	8957.75
2475.39782	8956.35
2478.15167	8977.85
2480.90379	8970.65
2483.65417	8955.65
2486.40283	8931.75
2489.14976	8950.35
2491.89497	8915.05
2494.63845	8898.55
2497.3802	8873.05
2500.12024	8891.65
2502.85855	8859.75
2505.59514	8881.05
2508.33002	8880.05
2511.06318	8825.25
2513.79462	8834.15
2516.52435	8797.95
2519.25237	8795.25
2521.97867	8781.85
2524.70327	8776.45
2527.42616	8758.45
2530.14734	8712.35
2532.86681	8730.75
2535.58458	8683.05
2538.30065	8679.55
2541.01501	8680.05
2543.72768	8641.75
2546.43864	8617.55
2549.14791	8566.15
2551.85548	8598.75
2554.56136	8571.35
2557.26554	8561.45
2559.96803	8554.45
2562.66883	8492.35
2565.36794	8500.45
2568.06536	8455.95
2570.7611	8455.95
2573.45514	8434.25
2576.14751	8428.15
2578.83819	8414.55
2581.52719	8389.05
2584.21451	8351.05
2586.90015	8367.05
2589.58411	8330.65
2592.2664	8316.85
2594.94701	8301.85
2597.62594	8288.65
2600.30321	8243.75
2602.9788	8248.85
2605.65273	8222.05
2608.32498	8214.05
2610.99557	8202.85
2613.66449	8188.55
2616.33175	8205.25
2618.99734	8176.85
2621.66128	8164.85
2624.32355	8147.25
2626.98416	8136.95
2629.64311	8103.75
2632.30041	8115.55
2634.95605	8095.15
2637.61004	8109.45
2640.26238	8073.25
2642.91306	8060.75
2645.56209	8044.15
2648.20948	8033.05
2650.85521	8038.45
2653.4993	8002.65
2656.14175	7997.35
2658.78255	7999.35
2661.42171	7995.85
2664.05923	8016.35
2666.6951	8008.45
2669.32934	8030.05
2671.96194	7965.55
2674.59291	7990.25
2677.22224	7974.15
2679.84993	7996.25
2682.476	7955.55
2685.10043	7967.85
2687.72324	7958.25
2690.34441	7964.15
2692.96396	7943.55
2695.58188	7939.45
2698.19818	7929.55
2700.81285	7911.85
2703.4259	7924.55
2706.03733	7917.95
2708.64714	7910.55
2711.25533	7897.65
2713.86191	7870.95
2716.46687	7928.55
2719.07021	7901.85
2721.67194	7919.15
2724.27206	7894.65
2726.87057	7899.25
2729.46747	7888.45
2732.06276	7875.45
2734.65644	7878.45
2737.24852	7886.25
2739.83899	7876.85
2742.42786	7852.65
2745.01513	7842.75
2747.60079	7820.75
2750.18486	7817.95
2752.76733	7816.35
2755.3482	7786.35
2757.92747	7789.55
2760.50515	7779.65
2763.08123	7771.65
2765.65573	7740.25
2768.22863	7733.75
2770.79994	7711.55
2773.36967	7712.35
2775.9378	7676.95
2778.50435	7668.85
2781.06932	7652.35
2783.6327	7651.65
2786.1945	7649.45
2788.75471	7640.95
2791.31335	7603.75
2793.87041	7600.65
2796.42589	7577.95
2798.97979	7548.75
2801.53212	7527.85
2804.08288	7520.95
2806.63206	7485.75
2809.17967	7461.85
2811.72571	7444.75
2814.27018	7431.95
2816.81308	7408.55
2819.35442	7358.05
2821.89419	7348.35
2824.43239	7354.75
2826.96904	7342.45
2829.50412	7333.45
2832.03763	7310.15
2834.56959	7318.35
2837.1	7294.05
2839.62884	7284.75
2842.15613	7287.25
2844.68186	7275.65
2847.20604	7244.75
2849.72867	7246.85
2852.24974	7225.05
2854.76927	7216.15
2857.28724	7196.35
2859.80367	7194.05
2862.31855	7200.85
2864.83189	7196.95
2867.34368	7165.15
2869.85393	7160.75
2872.36264	7131.55
2874.8698	7137.95
2877.37543	7135.05
2879.87952	7130.25
2882.38207	7139.35
2884.88308	7122.35
2887.38256	7119.65
2889.88051	7110.15
2892.37692	7084.15
2894.8718	7103.05
2897.36515	7097.05
2899.85698	7078.35
2902.34727	7101.75
2904.83604	7089.05
2907.32328	7089.25
2909.809	7076.35
2912.29319	7109.25
2914.77587	7095.45
2917.25702	7074.95
2919.73665	7066.25
2922.21476	7057.55
2924.69136	7045.05
2927.16644	7033.95
2929.64	7022.75
2932.11205	7020.75
2934.58258	7003.15
2937.05161	7030.85
2939.51912	7015.45
2941.98513	7003.05
2944.44962	7000.25
2946.91261	6984.35
2949.37409	6964.15
2951.83407	6974.05
2954.29254	6972.65
2956.74951	6947.65
2959.20498	6960.35
2961.65895	6950.05
2964.11142	6949.75
2966.56239	6947.05
2969.01186	6913.95
2971.45984	6931.25
2973.90632	6943.55
2976.35131	6914.65
2978.7948	6894.65
2981.23681	6888.05
2983.67732	6875.05
2986.11635	6858.45
2988.55388	6858.45
2990.98993	6847.95
2993.4245	6857.65
2995.85758	6816.55
2998.28917	6813.15
3000.71928	6796.35
3003.14791	6761.55
3005.57506	6746.45
3008.00073	6752.35
3010.42493	6748.15
3012.84764	6727.75
3015.26888	6728.65
3017.68865	6677.85
3020.10694	6704.75
3022.52376	6667.95
3024.9391	6668.85
3027.35298	6657.95
3029.76539	6668.75
3032.17632	6660.45
3034.5858	6638.55
3036.9938	6615.65
3039.40034	6628.85
3041.80542	6612.75
3044.20903	6608.85
3046.61118	6609.75
3049.01187	6574.35
3051.4111	6574.35
3053.80888	6566.45
3056.20519	6562.95
3058.60005	6551.05
3060.99345	6545.45
3063.3854	6503.25
3065.7759	6508.85
3068.16494	6492.55
3070.55254	6450.25
3072.93868	6439.15
3075.32338	6449.75
3077.70662	6421.65
3080.08842	6397.95
3082.46878	6403.75
3084.84769	6406.75
3087.22515	6391.45
3089.60118	6403.65
3091.97576	6413.15
3094.3489	6404.55
3096.72061	6417.75
3099.09087	6413.25
3101.4597	6416.45
3103.82709	6402.05
3106.19305	6428.95
3108.55757	6416.55
3110.92066	6386.15
3113.28232	6400.75
3115.64255	6363.85
3118.00134	6342.65
3120.35871	6347.55
3122.71466	6312.55
3125.06917	6329.65
3127.42226	6338.55
3129.77393	6327.45
3132.12417	6314.95
3134.47299	6314.55
3136.82039	6317.05
3139.16636	6309.55
3141.51092	6318.45
3143.85406	6306.95
3146.19579	6315.25
3148.53609	6317.05
3150.87499	6334.45
3153.21246	6327.75
3155.54853	6318.35
3157.88318	6307.15
3160.21642	6339.95
3162.54826	6350.45
3164.87868	6346.35
3167.2077	6346.25
3169.5353	6359.95
3171.86151	6344.25
3174.18631	6358.45
3176.5097	6347.85
3178.83169	6331.35
3181.15228	6335.75
3183.47147	6327.95
3185.78926	6306.65
3188.10565	6309.25
3190.42065	6318.05
3192.73424	6306.75
3195.04645	6283.35
3197.35725	6283.15
3199.66667	6286.25
3201.97469	6287.55
3204.28132	6295.25
3206.58656	6284.35
3208.8904	6297.15
3211.19287	6276.15
3213.49394	6310.15
3215.79363	6315.25
3218.09193	6299.65
3220.38884	6283.75
3222.68438	6307.45
3224.97853	6296.85
3227.2713	6292.65
3229.56269	6272.25
3231.8527	6289.45
3234.14133	6275.75
3236.42858	6268.45
3238.71446	6252.15
3240.99896	6238.25
3243.28209	6226.05
3245.56384	6209.75
3247.84423	6195.85
3250.12324	6200.35
3252.40088	6192.25
3254.67715	6184.95
3256.95205	6170.55
3259.22558	6158.65
3261.49775	6153.75
3263.76855	6157.05
3266.03799	6138.35
3268.30606	6123.65
3270.57277	6127.75
3272.83812	6121.45
3275.10211	6115.05
3277.36474	6097.15
3279.62601	6075.75
3281.88593	6064.05
3284.14448	6075.75
3286.40168	6053.65
3288.65753	6040.45
3290.91202	6013.15
3293.16516	6004.95
3295.41695	6018.65
3297.66738	5990.15
3299.91647	5974.55
3302.16421	5925.55
3304.4106	5900.15
3306.65564	5874.95
3308.89933	5827.35
3311.14169	5804.45
3313.38269	5760.25
3315.62236	5713.65
3317.86068	5688.25
3320.09766	5655.45
3322.3333	5615.85
3324.5676	5587.65
3326.80056	5525.55
3329.03219	5486.65
3331.26248	2.65
3333.49143	-0.05
3335.71905	0.45
