Data from AgNPs_APTES_FTO_UA_50uM_CRN_0uM_R6G_10uM_Scan_RamanShift__68__12-30-23-741.txt Node

Date: Tue Jul 05 12:30:23 BST 2022
User: TCL
Spectrometer: QEP01345
Trigger mode: 4
Integration Time (sec): 7.000000E0
Scans to average: 10
Electric dark correction enabled: true
Nonlinearity correction enabled: false
Boxcar width: 0
XAxis mode: Raman Shifts
Number of Pixels in Spectrum: 1044
>>>>>Begin Spectral Data<<<<<
46.04893	-0.95
50.45542	-0.25
54.85868	-1.45
59.25871	1.35
63.6555	39.65
68.04907	41.45
72.43941	44.75
76.82654	46.75
81.21044	49.45
85.59113	54.45
89.96862	56.25
94.34289	51.55
98.71396	58.35
103.08183	60.55
107.4465	56.55
111.80798	63.55
116.16626	60.75
120.52136	59.15
124.87327	66.85
129.222	66.95
133.56755	67.35
137.90993	65.85
142.24913	69.25
146.58517	79.15
150.91804	84.65
155.24774	95.95
159.57429	108.85
163.89768	142.55
168.21792	176.55
172.53501	231.75
176.84895	319.35
181.15975	446.85
185.46741	616.75
189.77193	840.35
194.07331	1138.45
198.37157	1462.05
202.6667	1809.15
206.9587	2140.05
211.24758	2456.25
215.53334	2790.35
219.81599	3121.85
224.09553	3475.55
228.37195	3867.75
232.64527	4314.35
236.91549	4806.55
241.18261	5306.95
245.44663	5816.65
249.70755	6321.45
253.96539	6748.45
258.22014	7094.05
262.4718	7382.15
266.72039	7554.45
270.96589	7632.35
275.20832	7647.15
279.44768	7572.25
283.68397	7457.25
287.91719	7340.75
292.14735	7236.35
296.37445	7154.75
300.59849	7079.95
304.81948	7023.15
309.03742	6963.95
313.25231	6954.55
317.46415	6946.55
321.67296	6924.25
325.87872	6932.25
330.08145	6967.05
334.28114	7025.05
338.47781	7088.25
342.67145	7211.15
346.86207	7291.25
351.04966	7379.75
355.23424	7457.75
359.4158	7568.05
363.59435	7661.75
367.76989	7762.65
371.94243	7869.05
376.11196	7916.95
380.27849	8006.85
384.44203	8069.95
388.60257	8167.75
392.76012	8212.65
396.91468	8283.65
401.06626	8333.85
405.21485	8407.45
409.36047	8465.35
413.50311	8501.05
417.64277	8496.55
421.77947	8554.05
425.9132	8603.15
430.04396	8622.65
434.17176	8682.45
438.2966	8787.25
442.41849	8822.35
446.53742	8929.95
450.6534	9017.65
454.76644	9081.15
458.87653	9140.15
462.98368	9205.25
467.08789	9264.95
471.18916	9257.55
475.2875	9269.75
479.38291	9270.55
483.4754	9266.05
487.56496	9281.05
491.6516	9303.65
495.73531	9329.55
499.81612	9333.65
503.89401	9376.05
507.96899	9415.85
512.04106	9469.85
516.11023	9475.05
520.1765	9492.05
524.23987	9545.85
528.30034	9574.95
532.35792	9617.85
536.41261	9621.45
540.46441	9615.75
544.51333	9623.35
548.55936	9694.15
552.60252	9716.05
556.64279	9787.25
560.6802	9878.45
564.71473	9852.05
568.7464	9876.95
572.7752	9910.65
576.80114	9941.85
580.82422	9940.35
584.84444	9997.95
588.86181	10037.45
592.87633	10107.75
596.888	10149.65
600.89682	10197.65
604.9028	10319.85
608.90594	10540.05
612.90624	10736.35
616.90371	10640.05
620.89834	10368.15
624.89015	10219.15
628.87913	10245.65
632.86528	10281.35
636.84862	10318.55
640.82913	10308.65
644.80683	10287.75
648.78172	10272.35
652.75379	10300.05
656.72306	10363.45
660.68952	10457.65
664.65319	10502.75
668.61405	10496.95
672.57211	10564.55
676.52738	10602.15
680.47986	10667.95
684.42955	10717.45
688.37646	10747.35
692.32058	10835.25
696.26192	10876.15
700.20048	10900.55
704.13626	10910.75
708.06928	10940.15
711.99952	10967.85
715.927	10981.75
719.85171	10960.95
723.77365	10940.75
727.69284	10891.35
731.60928	10869.75
735.52295	10865.15
739.43388	10875.05
743.34206	10900.85
747.24749	10939.85
751.15017	10944.85
755.05012	10970.15
758.94733	11006.85
762.8418	11069.75
766.73354	11221.35
770.62254	11372.15
774.50882	11474.05
778.39237	11458.15
782.27321	11381.65
786.15132	11288.95
790.02671	11194.55
793.89938	11133.95
797.76935	11116.85
801.6366	11090.85
805.50115	11081.25
809.36299	11102.65
813.22213	11106.85
817.07857	11094.95
820.93231	11129.05
824.78336	11151.35
828.63172	11197.85
832.47738	11195.25
836.32036	11212.95
840.16066	11207.75
843.99827	11269.25
847.8332	11256.35
851.66546	11306.35
855.49504	11299.35
859.32195	11332.85
863.1462	11343.55
866.96777	11354.45
870.78668	11375.45
874.60293	11422.95
878.41652	11455.65
882.22745	11474.35
886.03573	11481.85
889.84136	11488.55
893.64433	11488.85
897.44466	11557.05
901.24235	11563.85
905.0374	11608.35
908.8298	11607.05
912.61957	11647.45
916.40671	11656.45
920.19121	11643.15
923.97308	11632.15
927.75233	11640.05
931.52895	11631.15
935.30295	11609.05
939.07433	11542.95
942.84309	11538.35
946.60924	11518.35
950.37278	11492.45
954.13371	11477.35
957.89203	11491.45
961.64774	11491.25
965.40086	11451.35
969.15137	11427.25
972.89929	11431.75
976.64461	11454.25
980.38733	11441.55
984.12747	11457.25
987.86502	11429.75
991.59999	11465.05
995.33237	11493.45
999.06217	11529.25
1002.78939	11576.65
1006.51404	11601.25
1010.23611	11667.05
1013.95561	11704.25
1017.67255	11749.05
1021.38692	11724.15
1025.09872	11714.75
1028.80796	11660.05
1032.51465	11637.75
1036.21877	11666.35
1039.92035	11685.45
1043.61937	11671.85
1047.31584	11690.75
1051.00976	11709.45
1054.70114	11727.05
1058.38998	11751.95
1062.07627	11807.75
1065.76003	11803.45
1069.44126	11820.25
1073.11995	11824.55
1076.79611	11924.55
1080.46974	11952.65
1084.14085	11961.05
1087.80943	11924.25
1091.47549	11936.95
1095.13903	11957.25
1098.80005	11968.95
1102.45857	11950.25
1106.11456	11946.15
1109.76805	11911.45
1113.41903	11855.15
1117.06751	11854.35
1120.71348	11876.95
1124.35696	11855.45
1127.99793	11883.75
1131.63641	11881.85
1135.2724	11878.75
1138.90589	11871.55
1142.5369	11846.95
1146.16542	11838.05
1149.79145	11837.95
1153.415	11789.35
1157.03607	11760.65
1160.65467	11762.85
1164.27079	11774.75
1167.88443	11842.55
1171.49561	11920.15
1175.10432	12020.35
1178.71056	12131.15
1182.31434	12250.15
1185.91565	12374.05
1189.51451	12430.85
1193.11091	12480.75
1196.70485	12479.15
1200.29634	12428.95
1203.88538	12414.45
1207.47197	12311.75
1211.05612	12235.65
1214.63782	12217.95
1218.21708	12151.75
1221.79391	12098.05
1225.36829	12084.95
1228.94024	12052.35
1232.50976	12039.15
1236.07685	12033.85
1239.6415	12014.95
1243.20374	12041.25
1246.76355	12102.45
1250.32093	12116.75
1253.8759	12155.25
1257.42845	12206.35
1260.97859	12277.15
1264.52631	12297.55
1268.07163	12362.85
1271.61453	12391.45
1275.15503	12408.05
1278.69312	12440.45
1282.22882	12457.05
1285.76211	12450.15
1289.29301	12424.25
1292.82151	12478.25
1296.34761	12526.55
1299.87133	12632.25
1303.39266	12711.15
1306.9116	12814.25
1310.42815	12955.15
1313.94233	13026.25
1317.45412	13092.55
1320.96354	13055.05
1324.47058	12993.35
1327.97525	12933.05
1331.47754	12832.45
1334.97747	12749.25
1338.47502	12792.35
1341.97022	12910.05
1345.46305	13048.55
1348.95352	13177.15
1352.44163	13197.85
1355.92738	13225.35
1359.41078	13178.55
1362.89183	13140.95
1366.37053	12992.45
1369.84688	12752.05
1373.32088	12521.35
1376.79254	12332.15
1380.26186	12216.25
1383.72883	12081.85
1387.19347	12019.45
1390.65578	11918.15
1394.11575	11855.65
1397.57339	11794.85
1401.0287	11762.35
1404.48168	11746.35
1407.93234	11717.85
1411.38068	11726.05
1414.82669	11678.25
1418.27039	11613.55
1421.71177	11576.95
1425.15083	11546.55
1428.58758	11517.45
1432.02203	11496.85
1435.45416	11471.15
1438.88399	11455.25
1442.31151	11460.45
1445.73673	11454.15
1449.15965	11457.05
1452.58027	11490.35
1455.9986	11472.15
1459.41463	11495.65
1462.82837	11531.85
1466.23982	11568.75
1469.64898	11670.25
1473.05586	11709.05
1476.46045	11728.35
1479.86276	11742.85
1483.26279	11757.15
1486.66054	11783.25
1490.05602	11784.95
1493.44922	11847.05
1496.84016	11924.45
1500.22882	12068.65
1503.61521	12172.35
1506.99934	12277.15
1510.38121	12309.35
1513.76081	12272.95
1517.13816	12203.85
1520.51324	12112.05
1523.88607	12054.85
1527.25665	11974.25
1530.62498	11989.75
1533.99105	11947.25
1537.35488	11960.15
1540.71647	11944.05
1544.07581	11949.05
1547.4329	11970.55
1550.78776	11950.85
1554.14038	11954.55
1557.49077	11935.95
1560.83892	11946.05
1564.18484	11959.05
1567.52853	11970.05
1570.86999	11968.25
1574.20922	11999.45
1577.54624	11980.25
1580.88103	11944.55
1584.2136	11887.15
1587.54395	11869.05
1590.87208	11923.65
1594.19801	11980.15
1597.52172	12100.25
1600.84321	12173.05
1604.16251	12163.95
1607.47959	12095.75
1610.79447	11980.85
1614.10715	11787.55
1617.41763	11602.45
1620.7259	11479.65
1624.03199	11394.55
1627.33587	11362.05
1630.63757	11344.85
1633.93707	11365.85
1637.23439	11461.45
1640.52951	11596.95
1643.82246	11759.65
1647.11321	11919.35
1650.40179	11953.65
1653.68819	11840.05
1656.97241	11618.45
1660.25446	11384.85
1663.53433	11205.25
1666.81203	11077.15
1670.08756	10972.55
1673.36092	10915.55
1676.63211	10874.55
1679.90115	10830.15
1683.16801	10792.15
1686.43272	10773.25
1689.69527	10748.05
1692.95567	10739.45
1696.2139	10718.35
1699.46999	10712.15
1702.72392	10676.75
1705.97571	10676.75
1709.22535	10729.75
1712.47284	10725.95
1715.71819	10711.75
1718.96139	10713.95
1722.20246	10700.15
1725.44139	10664.55
1728.67818	10624.75
1731.91284	10627.15
1735.14537	10569.85
1738.37576	10536.15
1741.60403	10506.05
1744.83017	10484.15
1748.05418	10476.55
1751.27607	10463.85
1754.49584	10426.45
1757.71349	10399.05
1760.92903	10386.15
1764.14244	10365.85
1767.35375	10377.75
1770.56294	10356.85
1773.77002	10347.55
1776.97499	10363.65
1780.17785	10353.85
1783.37861	10358.15
1786.57727	10362.95
1789.77382	10303.85
1792.96828	10333.15
1796.16064	10268.05
1799.3509	10267.35
1802.53907	10258.05
1805.72514	10227.25
1808.90913	10240.25
1812.09102	10213.55
1815.27083	10181.65
1818.44856	10190.15
1821.6242	10162.35
1824.79776	10156.45
1827.96924	10126.85
1831.13864	10119.85
1834.30597	10100.05
1837.47122	10095.35
1840.6344	10088.65
1843.7955	10079.35
1846.95454	10052.45
1850.11151	10042.05
1853.26642	10055.25
1856.41926	10070.75
1859.57004	10074.75
1862.71876	10044.75
1865.86542	10041.55
1869.01003	10033.15
1872.15258	10035.25
1875.29308	10007.95
1878.43152	9991.25
1881.56792	9965.75
1884.70227	9969.85
1887.83457	9923.05
1890.96482	9917.05
1894.09304	9906.35
1897.21921	9903.25
1900.34335	9863.85
1903.46544	9871.35
1906.58551	9862.55
1909.70353	9836.85
1912.81953	9834.35
1915.93349	9832.45
1919.04543	9814.95
1922.15534	9792.45
1925.26322	9756.65
1928.36908	9755.45
1931.47292	9735.45
1934.57473	9711.05
1937.67453	9706.85
1940.77232	9675.95
1943.86808	9622.55
1946.96184	9620.85
1950.05358	9599.85
1953.14331	9586.35
1956.23103	9517.55
1959.31675	9524.35
1962.40046	9492.65
1965.48217	9450.45
1968.56188	9426.45
1971.63959	9390.45
1974.7153	9367.25
1977.78901	9331.45
1980.86073	9319.45
1983.93046	9296.15
1986.99819	9240.95
1990.06394	9243.45
1993.1277	9215.95
1996.18947	9178.75
1999.24925	9139.55
2002.30706	9104.85
2005.36288	9080.15
2008.41672	9098.05
2011.46859	9050.25
2014.51848	9011.55
2017.56639	9003.05
2020.61233	8970.35
2023.6563	8912.75
2026.6983	8889.95
2029.73833	8869.85
2032.7764	8848.55
2035.8125	8840.95
2038.84664	8818.85
2041.87881	8791.45
2044.90903	8787.15
2047.93729	8755.45
2050.96359	8759.85
2053.98794	8741.15
2057.01034	8688.25
2060.03078	8701.95
2063.04927	8719.75
2066.06582	8712.15
2069.08042	8683.25
2072.09307	8656.95
2075.10378	8674.05
2078.11255	8667.85
2081.11938	8690.35
2084.12426	8669.95
2087.12722	8665.15
2090.12824	8645.55
2093.12732	8666.45
2096.12447	8627.65
2099.11969	8648.95
2102.11299	8622.75
2105.10435	8658.75
2108.09379	8629.95
2111.08131	8637.75
2114.0669	8635.05
2117.05057	8684.45
2120.03233	8696.75
2123.01216	8670.25
2125.99008	8659.85
2128.96609	8668.15
2131.94018	8672.95
2134.91236	8685.15
2137.88263	8716.65
2140.851	8730.65
2143.81746	8734.95
2146.78201	8685.45
2149.74466	8710.15
2152.7054	8693.65
2155.66425	8676.15
2158.6212	8688.05
2161.57625	8673.85
2164.52941	8667.75
2167.48067	8668.05
2170.43004	8688.05
2173.37752	8677.75
2176.32311	8670.15
2179.26681	8666.25
2182.20863	8646.05
2185.14856	8662.75
2188.08661	8661.25
2191.02278	8651.45
2193.95707	8645.65
2196.88948	8648.95
2199.82001	8647.55
2202.74867	8608.85
2205.67545	8590.15
2208.60037	8562.15
2211.52341	8543.55
2214.44458	8541.85
2217.36388	8534.95
2220.28132	8503.55
2223.1969	8486.95
2226.11061	8477.45
2229.02246	8463.35
2231.93245	8415.95
2234.84058	8415.55
2237.74686	8414.15
2240.65128	8423.65
2243.55385	8382.15
2246.45456	8351.35
2249.35343	8339.55
2252.25044	8321.25
2255.14561	8303.95
2258.03893	8311.55
2260.93041	8310.85
2263.82004	8272.05
2266.70783	8247.35
2269.59378	8237.15
2272.4779	8197.25
2275.36017	8175.15
2278.24061	8134.85
2281.11922	8143.35
2283.996	8150.05
2286.87094	8120.85
2289.74405	8105.05
2292.61534	8071.75
2295.4848	8048.45
2298.35243	8034.95
2301.21824	8060.45
2304.08223	8069.25
2306.94439	8045.75
2309.80474	8041.65
2312.66327	8019.65
2315.51999	8013.85
2318.37489	8015.55
2321.22797	7994.75
2324.07925	7984.55
2326.92871	7932.95
2329.77637	7922.55
2332.62222	7916.05
2335.46626	7924.95
2338.3085	7905.75
2341.14893	7863.05
2343.98756	7859.95
2346.8244	7848.55
2349.65943	7817.25
2352.49267	7817.25
2355.32411	7806.95
2358.15376	7819.65
2360.98161	7792.65
2363.80768	7796.95
2366.63195	7798.95
2369.45444	7815.35
2372.27514	7782.25
2375.09405	7773.35
2377.91118	7751.35
2380.72652	7735.75
2383.54009	7698.95
2386.35187	7707.65
2389.16188	7683.65
2391.97011	7653.65
2394.77657	7627.15
2397.58125	7616.45
2400.38416	7600.95
2403.18529	7578.55
2405.98466	7569.35
2408.78226	7565.05
2411.57809	7539.25
2414.37216	7546.35
2417.16446	7524.85
2419.955	7539.65
2422.74378	7542.25
2425.5308	7515.45
2428.31606	7535.55
2431.09956	7501.15
2433.88131	7483.05
2436.6613	7469.75
2439.43954	7452.85
2442.21603	7454.55
2444.99077	7418.25
2447.76377	7445.55
2450.53501	7417.05
2453.30451	7396.55
2456.07226	7386.55
2458.83827	7363.65
2461.60254	7380.25
2464.36507	7335.85
2467.12586	7327.25
2469.88492	7323.75
2472.64224	7331.55
2475.39782	7316.75
2478.15167	7313.25
2480.90379	7302.15
2483.65417	7310.35
2486.40283	7289.05
2489.14976	7298.75
2491.89497	7254.65
2494.63845	7252.55
2497.3802	7244.15
2500.12024	7245.25
2502.85855	7241.65
2505.59514	7219.55
2508.33002	7223.85
2511.06318	7191.15
2513.79462	7196.45
2516.52435	7185.45
2519.25237	7186.25
2521.97867	7152.75
2524.70327	7150.85
2527.42616	7139.85
2530.14734	7123.55
2532.86681	7091.75
2535.58458	7094.25
2538.30065	7087.05
2541.01501	7062.05
2543.72768	7043.15
2546.43864	7027.85
2549.14791	6994.65
2551.85548	6986.75
2554.56136	7001.65
2557.26554	6980.45
2559.96803	6971.45
2562.66883	6966.25
2565.36794	6919.85
2568.06536	6897.45
2570.7611	6887.25
2573.45514	6899.85
2576.14751	6886.05
2578.83819	6842.65
2581.52719	6851.85
2584.21451	6808.55
2586.90015	6814.75
2589.58411	6780.65
2592.2664	6780.15
2594.94701	6763.65
2597.62594	6745.55
2600.30321	6709.75
2602.9788	6701.15
2605.65273	6697.05
2608.32498	6693.25
2610.99557	6678.75
2613.66449	6664.55
2616.33175	6680.25
2618.99734	6637.35
2621.66128	6647.15
2624.32355	6639.95
2626.98416	6607.85
2629.64311	6602.35
2632.30041	6597.25
2634.95605	6567.45
2637.61004	6579.45
2640.26238	6547.15
2642.91306	6553.05
2645.56209	6523.45
2648.20948	6528.55
2650.85521	6521.85
2653.4993	6509.35
2656.14175	6495.35
2658.78255	6488.05
2661.42171	6485.25
2664.05923	6501.55
2666.6951	6508.95
2669.32934	6489.15
2671.96194	6490.85
2674.59291	6488.25
2677.22224	6456.75
2679.84993	6449.85
2682.476	6443.85
2685.10043	6493.75
2687.72324	6466.75
2690.34441	6449.35
2692.96396	6456.05
2695.58188	6446.45
2698.19818	6430.25
2700.81285	6444.85
2703.4259	6412.75
2706.03733	6387.15
2708.64714	6384.35
2711.25533	6399.25
2713.86191	6381.65
2716.46687	6409.45
2719.07021	6399.75
2721.67194	6408.95
2724.27206	6396.05
2726.87057	6400.85
2729.46747	6409.35
2732.06276	6398.15
2734.65644	6387.65
2737.24852	6397.65
2739.83899	6358.75
2742.42786	6368.45
2745.01513	6349.15
2747.60079	6356.75
2750.18486	6333.85
2752.76733	6329.15
2755.3482	6310.75
2757.92747	6312.75
2760.50515	6284.45
2763.08123	6296.55
2765.65573	6272.75
2768.22863	6254.75
2770.79994	6217.85
2773.36967	6245.15
2775.9378	6220.05
2778.50435	6200.65
2781.06932	6180.25
2783.6327	6184.45
2786.1945	6202.85
2788.75471	6174.35
2791.31335	6151.05
2793.87041	6134.55
2796.42589	6111.15
2798.97979	6118.15
2801.53212	6092.25
2804.08288	6074.45
2806.63206	6039.65
2809.17967	6018.55
2811.72571	6028.25
2814.27018	6009.45
2816.81308	5978.15
2819.35442	5976.85
2821.89419	5936.15
2824.43239	5920.05
2826.96904	5914.15
2829.50412	5908.45
2832.03763	5895.15
2834.56959	5904.15
2837.1	5892.15
2839.62884	5883.95
2842.15613	5871.85
2844.68186	5875.45
2847.20604	5859.85
2849.72867	5861.65
2852.24974	5834.85
2854.76927	5832.35
2857.28724	5805.95
2859.80367	5799.35
2862.31855	5795.65
2864.83189	5798.65
2867.34368	5795.85
2869.85393	5776.95
2872.36264	5757.45
2874.8698	5755.95
2877.37543	5750.15
2879.87952	5769.15
2882.38207	5777.05
2884.88308	5735.95
2887.38256	5740.75
2889.88051	5742.25
2892.37692	5744.05
2894.8718	5723.35
2897.36515	5709.45
2899.85698	5695.75
2902.34727	5719.75
2904.83604	5703.95
2907.32328	5733.05
2909.809	5718.15
2912.29319	5713.35
2914.77587	5706.05
2917.25702	5705.15
2919.73665	5710.15
2922.21476	5703.75
2924.69136	5691.85
2927.16644	5688.15
2929.64	5674.75
2932.11205	5674.75
2934.58258	5647.45
2937.05161	5652.15
2939.51912	5663.15
2941.98513	5654.75
2944.44962	5639.65
2946.91261	5632.05
2949.37409	5621.45
2951.83407	5625.55
2954.29254	5625.25
2956.74951	5624.05
2959.20498	5605.05
2961.65895	5638.85
2964.11142	5606.35
2966.56239	5609.45
2969.01186	5561.65
2971.45984	5609.85
2973.90632	5605.95
2976.35131	5596.15
2978.7948	5585.75
2981.23681	5559.05
2983.67732	5567.35
2986.11635	5537.45
2988.55388	5544.95
2990.98993	5542.15
2993.4245	5540.05
2995.85758	5530.25
2998.28917	5513.35
3000.71928	5490.15
3003.14791	5494.45
3005.57506	5464.55
3008.00073	5468.35
3010.42493	5447.15
3012.84764	5452.85
3015.26888	5450.45
3017.68865	5421.95
3020.10694	5439.45
3022.52376	5414.85
3024.9391	5425.25
3027.35298	5406.85
3029.76539	5394.55
3032.17632	5390.65
3034.5858	5401.65
3036.9938	5365.55
3039.40034	5370.65
3041.80542	5385.85
3044.20903	5357.85
3046.61118	5370.05
3049.01187	5339.85
3051.4111	5342.35
3053.80888	5331.55
3056.20519	5331.05
3058.60005	5317.35
3060.99345	5334.75
3063.3854	5280.35
3065.7759	5265.85
3068.16494	5276.55
3070.55254	5249.95
3072.93868	5241.85
3075.32338	5237.15
3077.70662	5234.65
3080.08842	5212.25
3082.46878	5195.55
3084.84769	5209.95
3087.22515	5212.45
3089.60118	5219.75
3091.97576	5210.25
3094.3489	5230.25
3096.72061	5222.25
3099.09087	5216.45
3101.4597	5217.95
3103.82709	5215.95
3106.19305	5230.15
3108.55757	5222.95
3110.92066	5223.95
3113.28232	5213.25
3115.64255	5210.25
3118.00134	5176.25
3120.35871	5171.25
3122.71466	5178.65
3125.06917	5163.55
3127.42226	5174.55
3129.77393	5169.95
3132.12417	5159.65
3134.47299	5174.15
3136.82039	5172.55
3139.16636	5171.75
3141.51092	5170.45
3143.85406	5172.65
3146.19579	5182.55
3148.53609	5184.95
3150.87499	5185.35
3153.21246	5193.25
3155.54853	5180.95
3157.88318	5176.85
3160.21642	5210.25
3162.54826	5201.45
3164.87868	5201.65
3167.2077	5208.35
3169.5353	5217.55
3171.86151	5217.35
3174.18631	5230.95
3176.5097	5209.05
3178.83169	5208.75
3181.15228	5188.45
3183.47147	5179.85
3185.78926	5180.25
3188.10565	5165.15
3190.42065	5182.65
3192.73424	5180.35
3195.04645	5169.05
3197.35725	5167.75
3199.66667	5185.35
3201.97469	5185.95
3204.28132	5179.05
3206.58656	5176.75
3208.8904	5179.25
3211.19287	5170.25
3213.49394	5191.35
3215.79363	5182.15
3218.09193	5167.15
3220.38884	5176.95
3222.68438	5203.05
3224.97853	5187.45
3227.2713	5193.45
3229.56269	5177.15
3231.8527	5172.65
3234.14133	5175.05
3236.42858	5151.65
3238.71446	5146.65
3240.99896	5139.65
3243.28209	5134.35
3245.56384	5122.05
3247.84423	5119.75
3250.12324	5110.65
3252.40088	5117.55
3254.67715	5089.85
3256.95205	5069.85
3259.22558	5084.65
3261.49775	5068.85
3263.76855	5076.55
3266.03799	5046.55
3268.30606	5059.15
3270.57277	5066.75
3272.83812	5057.15
3275.10211	5051.85
3277.36474	5015.45
3279.62601	5015.25
3281.88593	5000.55
3284.14448	4997.55
3286.40168	4999.55
3288.65753	4980.05
3290.91202	4972.85
3293.16516	4966.95
3295.41695	4954.15
3297.66738	4950.35
3299.91647	4932.65
3302.16421	4879.25
3304.4106	4866.15
3306.65564	4851.65
3308.89933	4825.15
3311.14169	4797.65
3313.38269	4767.35
3315.62236	4726.75
3317.86068	4691.95
3320.09766	4659.05
3322.3333	4638.15
3324.5676	4628.65
3326.80056	4578.65
3329.03219	4561.05
3331.26248	1.85
3333.49143	-0.85
3335.71905	-0.15
