Data from AgNPs_APTES_FTO_UA_50uM_CRN_0uM_R6G_10uM_Scan_RamanShift__22__11-36-43-678.txt Node

Date: Tue Jul 05 11:36:43 BST 2022
User: TCL
Spectrometer: QEP01345
Trigger mode: 4
Integration Time (sec): 7.000000E0
Scans to average: 10
Electric dark correction enabled: true
Nonlinearity correction enabled: false
Boxcar width: 0
XAxis mode: Raman Shifts
Number of Pixels in Spectrum: 1044
>>>>>Begin Spectral Data<<<<<
46.04893	0.05
50.45542	-0.35
54.85868	-0.15
59.25871	0.35
63.6555	38.15
68.04907	42.85
72.43941	43.85
76.82654	46.05
81.21044	48.65
85.59113	54.75
89.96862	56.85
94.34289	58.15
98.71396	59.55
103.08183	63.65
107.4465	59.95
111.80798	66.15
116.16626	61.45
120.52136	63.05
124.87327	68.25
129.222	63.45
133.56755	70.05
137.90993	64.25
142.24913	69.25
146.58517	80.65
150.91804	82.65
155.24774	92.45
159.57429	109.45
163.89768	130.85
168.21792	172.95
172.53501	223.35
176.84895	300.85
181.15975	417.65
185.46741	575.65
189.77193	781.45
194.07331	1033.25
198.37157	1322.05
202.6667	1637.35
206.9587	1946.05
211.24758	2250.65
215.53334	2565.65
219.81599	2875.55
224.09553	3243.65
228.37195	3633.55
232.64527	4061.65
236.91549	4491.75
241.18261	4919.45
245.44663	5286.15
249.70755	5599.75
253.96539	5834.85
258.22014	6042.85
262.4718	6237.05
266.72039	6365.95
270.96589	6428.15
275.20832	6413.65
279.44768	6307.05
283.68397	6190.15
287.91719	6074.65
292.14735	6024.45
296.37445	6054.95
300.59849	6147.45
304.81948	6261.95
309.03742	6350.65
313.25231	6348.85
317.46415	6170.95
321.67296	5925.45
325.87872	5684.35
330.08145	5584.25
334.28114	5532.35
338.47781	5565.85
342.67145	5691.35
346.86207	5807.75
351.04966	6011.35
355.23424	6202.65
359.4158	6439.45
363.59435	6539.35
367.76989	6631.05
371.94243	6698.65
376.11196	6725.05
380.27849	6763.75
384.44203	6752.65
388.60257	6745.55
392.76012	6736.55
396.91468	6751.95
401.06626	6851.35
405.21485	6878.25
409.36047	6781.95
413.50311	6542.25
417.64277	6326.05
421.77947	6200.95
425.9132	6156.65
430.04396	6162.95
434.17176	6178.65
438.2966	6228.95
442.41849	6316.75
446.53742	6429.15
450.6534	6543.75
454.76644	6605.95
458.87653	6588.05
462.98368	6537.65
467.08789	6463.75
471.18916	6419.35
475.2875	6345.65
479.38291	6318.55
483.4754	6293.65
487.56496	6326.45
491.6516	6383.15
495.73531	6440.45
499.81612	6461.75
503.89401	6477.75
507.96899	6503.65
512.04106	6542.55
516.11023	6629.75
520.1765	6693.95
524.23987	6713.95
528.30034	6675.65
532.35792	6635.95
536.41261	6530.75
540.46441	6424.05
544.51333	6341.15
548.55936	6319.45
552.60252	6373.85
556.64279	6453.25
560.6802	6504.45
564.71473	6517.25
568.7464	6614.05
572.7752	6702.65
576.80114	6623.25
580.82422	6516.15
584.84444	6548.85
588.86181	6652.85
592.87633	6737.65
596.888	6868.35
600.89682	6983.95
604.9028	7431.55
608.90594	8713.55
612.90624	10394.25
616.90371	10160.55
620.89834	8093.75
624.89015	7131.75
628.87913	7070.55
632.86528	7285.25
636.84862	7441.65
640.82913	7391.35
644.80683	7076.35
648.78172	6775.25
652.75379	6614.95
656.72306	6659.05
660.68952	6752.25
664.65319	6659.45
668.61405	6438.35
672.57211	6364.85
676.52738	6364.55
680.47986	6441.25
684.42955	6497.45
688.37646	6506.25
692.32058	6453.25
696.26192	6403.95
700.20048	6339.55
704.13626	6358.75
708.06928	6347.35
711.99952	6310.75
715.927	6285.45
719.85171	6311.15
723.77365	6357.95
727.69284	6333.95
731.60928	6301.85
735.52295	6251.45
739.43388	6231.75
743.34206	6248.35
747.24749	6252.25
751.15017	6250.25
755.05012	6292.55
758.94733	6453.65
762.8418	6854.65
766.73354	7611.05
770.62254	8517.05
774.50882	9036.75
778.39237	8724.95
782.27321	7795.65
786.15132	6998.45
790.02671	6498.25
793.89938	6294.85
797.76935	6208.55
801.6366	6245.15
805.50115	6322.05
809.36299	6396.25
813.22213	6401.15
817.07857	6355.05
820.93231	6242.95
824.78336	6147.95
828.63172	6085.65
832.47738	6076.65
836.32036	6023.85
840.16066	5993.15
843.99827	6023.35
847.8332	5993.55
851.66546	5990.55
855.49504	5976.95
859.32195	5958.45
863.1462	5969.05
866.96777	5974.75
870.78668	6008.75
874.60293	6090.05
878.41652	6135.95
882.22745	6236.75
886.03573	6298.15
889.84136	6302.35
893.64433	6275.55
897.44466	6196.85
901.24235	6102.05
905.0374	6037.05
908.8298	5999.95
912.61957	5971.15
916.40671	6001.95
920.19121	6065.55
923.97308	6098.25
927.75233	6179.65
931.52895	6228.45
935.30295	6167.65
939.07433	6029.85
942.84309	5871.65
946.60924	5759.95
950.37278	5671.65
954.13371	5594.05
957.89203	5573.95
961.64774	5508.45
965.40086	5445.35
969.15137	5425.15
972.89929	5386.15
976.64461	5352.65
980.38733	5330.35
984.12747	5297.85
987.86502	5284.85
991.59999	5308.65
995.33237	5343.15
999.06217	5391.05
1002.78939	5459.45
1006.51404	5562.75
1010.23611	5643.85
1013.95561	5718.95
1017.67255	5731.55
1021.38692	5690.05
1025.09872	5590.25
1028.80796	5478.25
1032.51465	5414.25
1036.21877	5383.15
1039.92035	5379.25
1043.61937	5357.25
1047.31584	5387.95
1051.00976	5404.45
1054.70114	5397.15
1058.38998	5419.85
1062.07627	5466.45
1065.76003	5494.25
1069.44126	5482.55
1073.11995	5492.95
1076.79611	5521.95
1080.46974	5554.45
1084.14085	5600.55
1087.80943	5681.75
1091.47549	5711.25
1095.13903	5636.95
1098.80005	5502.25
1102.45857	5365.35
1106.11456	5326.65
1109.76805	5355.25
1113.41903	5452.85
1117.06751	5648.85
1120.71348	5888.45
1124.35696	6177.45
1127.99793	6506.75
1131.63641	6716.85
1135.2724	6622.65
1138.90589	6417.35
1142.5369	6163.35
1146.16542	5901.25
1149.79145	5659.55
1153.415	5496.65
1157.03607	5380.95
1160.65467	5382.25
1164.27079	5475.15
1167.88443	5665.15
1171.49561	5976.15
1175.10432	6541.45
1178.71056	7335.15
1182.31434	7969.75
1185.91565	8159.95
1189.51451	7895.95
1193.11091	7490.75
1196.70485	7118.65
1200.29634	6802.55
1203.88538	6583.35
1207.47197	6270.05
1211.05612	5952.45
1214.63782	5721.35
1218.21708	5583.45
1221.79391	5532.25
1225.36829	5514.35
1228.94024	5471.45
1232.50976	5433.95
1236.07685	5374.75
1239.6415	5334.85
1243.20374	5343.65
1246.76355	5367.65
1250.32093	5404.55
1253.8759	5462.65
1257.42845	5561.25
1260.97859	5698.85
1264.52631	5862.95
1268.07163	6008.35
1271.61453	6159.95
1275.15503	6241.45
1278.69312	6270.55
1282.22882	6288.95
1285.76211	6373.15
1289.29301	6551.15
1292.82151	6760.95
1296.34761	6991.95
1299.87133	7333.05
1303.39266	7841.65
1306.9116	8598.05
1310.42815	9460.75
1313.94233	10019.25
1317.45412	9851.65
1320.96354	9200.95
1324.47058	8442.75
1327.97525	7806.35
1331.47754	7327.95
1334.97747	7103.75
1338.47502	7059.85
1341.97022	7156.15
1345.46305	7420.75
1348.95352	7990.45
1352.44163	8761.45
1355.92738	9797.15
1359.41078	11206.35
1362.89183	12715.05
1366.37053	12792.15
1369.84688	11218.75
1373.32088	9298.45
1376.79254	8028.05
1380.26186	7368.35
1383.72883	7054.25
1387.19347	6812.65
1390.65578	6569.55
1394.11575	6387.55
1397.57339	6222.75
1401.0287	6142.15
1404.48168	6054.15
1407.93234	5927.05
1411.38068	5815.35
1414.82669	5706.85
1418.27039	5608.15
1421.71177	5521.45
1425.15083	5437.55
1428.58758	5370.75
1432.02203	5345.15
1435.45416	5374.65
1438.88399	5395.75
1442.31151	5394.25
1445.73673	5399.25
1449.15965	5402.45
1452.58027	5401.95
1455.9986	5346.05
1459.41463	5336.15
1462.82837	5358.15
1466.23982	5443.15
1469.64898	5516.55
1473.05586	5604.35
1476.46045	5624.65
1479.86276	5657.35
1483.26279	5752.75
1486.66054	5847.45
1490.05602	6027.25
1493.44922	6281.95
1496.84016	6678.95
1500.22882	7340.75
1503.61521	8280.25
1506.99934	9424.05
1510.38121	10495.65
1513.76081	10992.75
1517.13816	10461.25
1520.51324	9172.25
1523.88607	7904.15
1527.25665	7025.35
1530.62498	6512.35
1533.99105	6232.55
1537.35488	6058.75
1540.71647	5935.55
1544.07581	5856.65
1547.4329	5815.05
1550.78776	5857.55
1554.14038	5885.55
1557.49077	5977.95
1560.83892	6062.45
1564.18484	6233.05
1567.52853	6407.05
1570.86999	6596.75
1574.20922	6738.15
1577.54624	6729.25
1580.88103	6447.05
1584.2136	6021.75
1587.54395	5691.05
1590.87208	5607.95
1594.19801	5743.35
1597.52172	6031.35
1600.84321	6212.85
1604.16251	6106.75
1607.47959	5865.95
1610.79447	5620.55
1614.10715	5370.45
1617.41763	5158.55
1620.7259	4985.95
1624.03199	4931.15
1627.33587	4960.05
1630.63757	5013.05
1633.93707	5146.65
1637.23439	5394.95
1640.52951	5819.45
1643.82246	6538.05
1647.11321	7364.55
1650.40179	8047.25
1653.68819	8014.15
1656.97241	7200.35
1660.25446	6170.55
1663.53433	5379.05
1666.81203	4874.75
1670.08756	4584.75
1673.36092	4405.95
1676.63211	4265.65
1679.90115	4195.35
1683.16801	4123.25
1686.43272	4066.75
1689.69527	4023.75
1692.95567	3997.65
1696.2139	3957.05
1699.46999	3916.95
1702.72392	3866.15
1705.97571	3788.15
1709.22535	3732.95
1712.47284	3682.85
1715.71819	3626.85
1718.96139	3575.95
1722.20246	3530.05
1725.44139	3481.95
1728.67818	3449.85
1731.91284	3395.45
1735.14537	3359.95
1738.37576	3331.05
1741.60403	3296.05
1744.83017	3267.45
1748.05418	3256.45
1751.27607	3241.05
1754.49584	3217.65
1757.71349	3204.85
1760.92903	3164.85
1764.14244	3171.45
1767.35375	3160.45
1770.56294	3140.15
1773.77002	3113.55
1776.97499	3111.55
1780.17785	3113.95
1783.37861	3094.65
1786.57727	3090.55
1789.77382	3068.35
1792.96828	3055.65
1796.16064	3046.05
1799.3509	3031.45
1802.53907	3030.45
1805.72514	3004.85
1808.90913	3006.25
1812.09102	2987.25
1815.27083	2968.25
1818.44856	2951.65
1821.6242	2951.95
1824.79776	2942.25
1827.96924	2928.65
1831.13864	2915.65
1834.30597	2907.85
1837.47122	2902.05
1840.6344	2894.55
1843.7955	2895.15
1846.95454	2867.45
1850.11151	2881.85
1853.26642	2870.25
1856.41926	2864.15
1859.57004	2863.35
1862.71876	2848.45
1865.86542	2844.25
1869.01003	2847.95
1872.15258	2828.05
1875.29308	2839.55
1878.43152	2825.45
1881.56792	2816.45
1884.70227	2803.45
1887.83457	2806.95
1890.96482	2793.75
1894.09304	2796.15
1897.21921	2780.65
1900.34335	2765.05
1903.46544	2774.05
1906.58551	2767.25
1909.70353	2765.85
1912.81953	2750.15
1915.93349	2745.75
1919.04543	2728.95
1922.15534	2727.15
1925.26322	2721.45
1928.36908	2699.95
1931.47292	2705.45
1934.57473	2678.15
1937.67453	2665.15
1940.77232	2664.95
1943.86808	2641.85
1946.96184	2626.35
1950.05358	2618.65
1953.14331	2612.75
1956.23103	2599.65
1959.31675	2579.65
1962.40046	2569.85
1965.48217	2565.35
1968.56188	2557.45
1971.63959	2549.05
1974.7153	2538.75
1977.78901	2522.15
1980.86073	2528.55
1983.93046	2514.65
1986.99819	2485.75
1990.06394	2491.85
1993.1277	2481.05
1996.18947	2460.05
1999.24925	2453.25
2002.30706	2447.45
2005.36288	2425.15
2008.41672	2413.15
2011.46859	2411.45
2014.51848	2397.45
2017.56639	2396.45
2020.61233	2378.45
2023.6563	2377.45
2026.6983	2350.55
2029.73833	2342.55
2032.7764	2331.65
2035.8125	2340.85
2038.84664	2317.95
2041.87881	2313.85
2044.90903	2311.95
2047.93729	2300.45
2050.96359	2306.05
2053.98794	2299.25
2057.01034	2292.55
2060.03078	2288.55
2063.04927	2285.65
2066.06582	2285.05
2069.08042	2274.35
2072.09307	2267.55
2075.10378	2248.95
2078.11255	2271.15
2081.11938	2270.15
2084.12426	2266.25
2087.12722	2246.25
2090.12824	2252.25
2093.12732	2246.45
2096.12447	2239.65
2099.11969	2239.45
2102.11299	2242.15
2105.10435	2246.25
2108.09379	2235.45
2111.08131	2234.95
2114.0669	2236.15
2117.05057	2242.55
2120.03233	2237.55
2123.01216	2231.55
2125.99008	2233.35
2128.96609	2229.75
2131.94018	2226.05
2134.91236	2224.65
2137.88263	2232.65
2140.851	2226.55
2143.81746	2225.85
2146.78201	2215.65
2149.74466	2220.45
2152.7054	2193.35
2155.66425	2188.75
2158.6212	2192.75
2161.57625	2197.25
2164.52941	2177.65
2167.48067	2182.85
2170.43004	2184.55
2173.37752	2175.25
2176.32311	2174.25
2179.26681	2180.05
2182.20863	2161.95
2185.14856	2169.25
2188.08661	2155.05
2191.02278	2156.95
2193.95707	2149.55
2196.88948	2139.25
2199.82001	2152.75
2202.74867	2140.25
2205.67545	2124.65
2208.60037	2126.95
2211.52341	2117.05
2214.44458	2116.75
2217.36388	2103.15
2220.28132	2099.35
2223.1969	2087.45
2226.11061	2079.75
2229.02246	2070.85
2231.93245	2060.05
2234.84058	2065.35
2237.74686	2061.75
2240.65128	2073.85
2243.55385	2058.05
2246.45456	2046.45
2249.35343	2032.45
2252.25044	2039.45
2255.14561	2030.65
2258.03893	2027.35
2260.93041	2034.55
2263.82004	2029.25
2266.70783	2009.95
2269.59378	2002.15
2272.4779	2002.55
2275.36017	1985.65
2278.24061	1984.45
2281.11922	1976.25
2283.996	1975.45
2286.87094	1962.65
2289.74405	1959.85
2292.61534	1942.85
2295.4848	1936.55
2298.35243	1938.75
2301.21824	1940.55
2304.08223	1926.35
2306.94439	1915.25
2309.80474	1930.25
2312.66327	1930.75
2315.51999	1918.55
2318.37489	1919.95
2321.22797	1902.65
2324.07925	1903.35
2326.92871	1895.25
2329.77637	1902.35
2332.62222	1901.35
2335.46626	1887.85
2338.3085	1878.85
2341.14893	1882.35
2343.98756	1883.35
2346.8244	1865.95
2349.65943	1873.75
2352.49267	1874.35
2355.32411	1873.75
2358.15376	1865.75
2360.98161	1869.85
2363.80768	1874.95
2366.63195	1873.35
2369.45444	1879.55
2372.27514	1873.55
2375.09405	1866.05
2377.91118	1860.75
2380.72652	1854.85
2383.54009	1848.65
2386.35187	1827.15
2389.16188	1813.85
2391.97011	1816.45
2394.77657	1800.35
2397.58125	1800.25
2400.38416	1784.45
2403.18529	1781.25
2405.98466	1779.85
2408.78226	1767.85
2411.57809	1768.05
2414.37216	1760.55
2417.16446	1762.55
2419.955	1747.25
2422.74378	1746.05
2425.5308	1756.95
2428.31606	1757.95
2431.09956	1749.35
2433.88131	1735.55
2436.6613	1736.95
2439.43954	1745.85
2442.21603	1733.95
2444.99077	1733.95
2447.76377	1729.15
2450.53501	1730.65
2453.30451	1731.25
2456.07226	1721.65
2458.83827	1718.35
2461.60254	1718.05
2464.36507	1704.65
2467.12586	1717.45
2469.88492	1706.15
2472.64224	1699.15
2475.39782	1702.95
2478.15167	1694.25
2480.90379	1697.65
2483.65417	1709.85
2486.40283	1704.95
2489.14976	1706.65
2491.89497	1705.75
2494.63845	1712.85
2497.3802	1691.75
2500.12024	1697.15
2502.85855	1692.75
2505.59514	1685.95
2508.33002	1676.15
2511.06318	1661.25
2513.79462	1659.15
2516.52435	1653.75
2519.25237	1647.35
2521.97867	1633.05
2524.70327	1625.75
2527.42616	1625.35
2530.14734	1616.25
2532.86681	1612.65
2535.58458	1608.15
2538.30065	1597.95
2541.01501	1601.45
2543.72768	1597.45
2546.43864	1591.85
2549.14791	1589.25
2551.85548	1590.25
2554.56136	1592.85
2557.26554	1580.95
2559.96803	1588.15
2562.66883	1581.35
2565.36794	1575.35
2568.06536	1560.45
2570.7611	1557.45
2573.45514	1563.15
2576.14751	1559.05
2578.83819	1547.95
2581.52719	1538.05
2584.21451	1543.55
2586.90015	1535.35
2589.58411	1533.15
2592.2664	1520.65
2594.94701	1518.35
2597.62594	1513.95
2600.30321	1516.55
2602.9788	1508.75
2605.65273	1504.95
2608.32498	1511.35
2610.99557	1500.55
2613.66449	1495.95
2616.33175	1500.75
2618.99734	1492.95
2621.66128	1488.95
2624.32355	1489.05
2626.98416	1486.35
2629.64311	1475.35
2632.30041	1481.75
2634.95605	1477.65
2637.61004	1470.85
2640.26238	1467.25
2642.91306	1466.55
2645.56209	1469.05
2648.20948	1459.15
2650.85521	1453.55
2653.4993	1462.25
2656.14175	1452.35
2658.78255	1458.65
2661.42171	1452.25
2664.05923	1456.05
2666.6951	1446.55
2669.32934	1456.15
2671.96194	1457.75
2674.59291	1456.75
2677.22224	1448.55
2679.84993	1456.15
2682.476	1444.35
2685.10043	1449.45
2687.72324	1447.15
2690.34441	1449.75
2692.96396	1446.25
2695.58188	1446.65
2698.19818	1441.35
2700.81285	1437.05
2703.4259	1435.85
2706.03733	1428.15
2708.64714	1430.75
2711.25533	1433.15
2713.86191	1428.65
2716.46687	1440.45
2719.07021	1442.35
2721.67194	1436.65
2724.27206	1444.75
2726.87057	1448.45
2729.46747	1443.55
2732.06276	1439.65
2734.65644	1436.65
2737.24852	1436.55
2739.83899	1428.25
2742.42786	1425.85
2745.01513	1425.45
2747.60079	1419.25
2750.18486	1411.75
2752.76733	1421.15
2755.3482	1414.35
2757.92747	1408.85
2760.50515	1409.55
2763.08123	1410.45
2765.65573	1399.95
2768.22863	1400.85
2770.79994	1386.75
2773.36967	1388.05
2775.9378	1392.65
2778.50435	1390.55
2781.06932	1383.65
2783.6327	1386.65
2786.1945	1379.85
2788.75471	1381.35
2791.31335	1380.65
2793.87041	1372.15
2796.42589	1381.75
2798.97979	1367.25
2801.53212	1371.75
2804.08288	1375.35
2806.63206	1368.05
2809.17967	1353.75
2811.72571	1362.55
2814.27018	1355.05
2816.81308	1349.85
2819.35442	1346.55
2821.89419	1341.35
2824.43239	1348.15
2826.96904	1351.95
2829.50412	1352.05
2832.03763	1361.25
2834.56959	1357.25
2837.1	1358.25
2839.62884	1365.55
2842.15613	1366.25
2844.68186	1379.25
2847.20604	1393.15
2849.72867	1396.75
2852.24974	1401.95
2854.76927	1400.45
2857.28724	1394.85
2859.80367	1394.95
2862.31855	1396.45
2864.83189	1403.25
2867.34368	1410.75
2869.85393	1395.05
2872.36264	1400.05
2874.8698	1404.65
2877.37543	1406.45
2879.87952	1406.95
2882.38207	1405.45
2884.88308	1401.65
2887.38256	1396.55
2889.88051	1399.75
2892.37692	1401.85
2894.8718	1402.45
2897.36515	1404.35
2899.85698	1415.95
2902.34727	1408.75
2904.83604	1415.15
2907.32328	1421.55
2909.809	1425.65
2912.29319	1424.35
2914.77587	1430.75
2917.25702	1434.65
2919.73665	1434.85
2922.21476	1426.25
2924.69136	1433.85
2927.16644	1427.85
2929.64	1423.75
2932.11205	1414.45
2934.58258	1414.95
2937.05161	1420.45
2939.51912	1417.95
2941.98513	1405.65
2944.44962	1389.75
2946.91261	1383.15
2949.37409	1372.15
2951.83407	1365.95
2954.29254	1349.65
2956.74951	1350.95
2959.20498	1342.95
2961.65895	1340.75
2964.11142	1334.15
2966.56239	1323.35
2969.01186	1284.15
2971.45984	1302.35
2973.90632	1313.55
2976.35131	1301.95
2978.7948	1309.75
2981.23681	1299.65
2983.67732	1289.35
2986.11635	1280.55
2988.55388	1276.95
2990.98993	1283.15
2993.4245	1283.35
2995.85758	1265.55
2998.28917	1265.15
3000.71928	1268.15
3003.14791	1266.45
3005.57506	1265.85
3008.00073	1264.85
3010.42493	1273.95
3012.84764	1266.55
3015.26888	1255.45
3017.68865	1258.65
3020.10694	1266.05
3022.52376	1263.05
3024.9391	1264.65
3027.35298	1262.45
3029.76539	1265.15
3032.17632	1257.35
3034.5858	1262.55
3036.9938	1257.65
3039.40034	1258.35
3041.80542	1264.25
3044.20903	1255.85
3046.61118	1260.05
3049.01187	1256.75
3051.4111	1246.15
3053.80888	1254.75
3056.20519	1261.95
3058.60005	1257.75
3060.99345	1260.45
3063.3854	1252.75
3065.7759	1261.75
3068.16494	1259.55
3070.55254	1259.75
3072.93868	1256.95
3075.32338	1262.55
3077.70662	1258.65
3080.08842	1256.15
3082.46878	1251.85
3084.84769	1269.55
3087.22515	1272.55
3089.60118	1275.85
3091.97576	1265.55
3094.3489	1285.35
3096.72061	1284.85
3099.09087	1288.35
3101.4597	1284.15
3103.82709	1290.15
3106.19305	1296.55
3108.55757	1294.55
3110.92066	1298.55
3113.28232	1304.05
3115.64255	1306.65
3118.00134	1311.55
3120.35871	1310.15
3122.71466	1309.75
3125.06917	1326.65
3127.42226	1324.55
3129.77393	1338.95
3132.12417	1338.35
3134.47299	1339.45
3136.82039	1355.15
3139.16636	1356.65
3141.51092	1366.15
3143.85406	1368.15
3146.19579	1369.95
3148.53609	1376.95
3150.87499	1391.85
3153.21246	1397.35
3155.54853	1404.65
3157.88318	1409.35
3160.21642	1419.25
3162.54826	1430.05
3164.87868	1432.55
3167.2077	1438.05
3169.5353	1449.05
3171.86151	1454.65
3174.18631	1461.05
3176.5097	1457.15
3178.83169	1460.05
3181.15228	1460.35
3183.47147	1467.85
3185.78926	1472.85
3188.10565	1472.25
3190.42065	1469.25
3192.73424	1481.35
3195.04645	1489.65
3197.35725	1484.75
3199.66667	1502.35
3201.97469	1508.05
3204.28132	1508.25
3206.58656	1521.15
3208.8904	1517.25
3211.19287	1526.05
3213.49394	1530.65
3215.79363	1537.15
3218.09193	1545.45
3220.38884	1537.25
3222.68438	1540.95
3224.97853	1540.05
3227.2713	1559.15
3229.56269	1554.05
3231.8527	1562.05
3234.14133	1544.05
3236.42858	1539.55
3238.71446	1545.25
3240.99896	1547.95
3243.28209	1548.65
3245.56384	1547.15
3247.84423	1543.25
3250.12324	1551.65
3252.40088	1542.65
3254.67715	1538.85
3256.95205	1542.65
3259.22558	1553.35
3261.49775	1549.75
3263.76855	1558.25
3266.03799	1544.85
3268.30606	1544.15
3270.57277	1539.35
3272.83812	1541.15
3275.10211	1526.85
3277.36474	1534.35
3279.62601	1534.25
3281.88593	1533.35
3284.14448	1528.05
3286.40168	1533.35
3288.65753	1529.65
3290.91202	1527.45
3293.16516	1526.85
3295.41695	1530.15
3297.66738	1524.05
3299.91647	1524.75
3302.16421	1508.45
3304.4106	1512.75
3306.65564	1510.35
3308.89933	1497.75
3311.14169	1484.35
3313.38269	1470.55
3315.62236	1461.45
3317.86068	1458.55
3320.09766	1444.85
3322.3333	1441.85
3324.5676	1432.45
3326.80056	1407.95
3329.03219	1394.55
3331.26248	0.55
3333.49143	-0.25
3335.71905	-0.85
